4000.000000	100.152701 
3999.000000	100.152230 
3998.000000	100.151846 
3997.000000	100.151913 
3996.000000	100.152405 
3995.000000	100.152939 
3994.000000	100.153195 
3993.000000	100.153164 
3992.000000	100.153000 
3991.000000	100.152748 
3990.000000	100.152261 
3989.000000	100.151377 
3988.000000	100.150192 
3987.000000	100.149130 
3986.000000	100.148660 
3985.000000	100.148936 
3984.000000	100.149678 
3983.000000	100.150465 
3982.000000	100.151126 
3981.000000	100.151762 
3980.000000	100.152504 
3979.000000	100.153319 
3978.000000	100.154007 
3977.000000	100.154336 
3976.000000	100.154179 
3975.000000	100.153560 
3974.000000	100.152582 
3973.000000	100.151381 
3972.000000	100.150205 
3971.000000	100.149444 
3970.000000	100.149446 
3969.000000	100.150242 
3968.000000	100.151465 
3967.000000	100.152549 
3966.000000	100.153060 
3965.000000	100.152867 
3964.000000	100.152157 
3963.000000	100.151370 
3962.000000	100.150930 
3961.000000	100.150895 
3960.000000	100.150915 
3959.000000	100.150568 
3958.000000	100.149775 
3957.000000	100.148858 
3956.000000	100.148234 
3955.000000	100.148055 
3954.000000	100.148173 
3953.000000	100.148355 
3952.000000	100.148518 
3951.000000	100.148711 
3950.000000	100.148914 
3949.000000	100.148918 
3948.000000	100.148537 
3947.000000	100.147891 
3946.000000	100.147362 
3945.000000	100.147200 
3944.000000	100.147259 
3943.000000	100.147165 
3942.000000	100.146682 
3941.000000	100.145947 
3940.000000	100.145317 
3939.000000	100.144961 
3938.000000	100.144725 
3937.000000	100.144389 
3936.000000	100.143994 
3935.000000	100.143843 
3934.000000	100.144143 
3933.000000	100.144722 
3932.000000	100.145169 
3931.000000	100.145310 
3930.000000	100.145339 
3929.000000	100.145402 
3928.000000	100.145340 
3927.000000	100.144936 
3926.000000	100.144250 
3925.000000	100.143666 
3924.000000	100.143495 
3923.000000	100.143671 
3922.000000	100.143889 
3921.000000	100.143874 
3920.000000	100.143588 
3919.000000	100.143207 
3918.000000	100.142851 
3917.000000	100.142418 
3916.000000	100.141775 
3915.000000	100.141112 
3914.000000	100.140780 
3913.000000	100.140810 
3912.000000	100.140726 
3911.000000	100.139943 
3910.000000	100.138502 
3909.000000	100.137216 
3908.000000	100.137041 
3907.000000	100.138450 
3906.000000	100.141145 
3905.000000	100.144271 
3904.000000	100.146911 
3903.000000	100.148549 
3902.000000	100.149166 
3901.000000	100.148930 
3900.000000	100.147899 
3899.000000	100.146154 
3898.000000	100.143916 
3897.000000	100.141568 
3896.000000	100.139577 
3895.000000	100.138425 
3894.000000	100.138484 
3893.000000	100.139700 
3892.000000	100.141396 
3891.000000	100.142716 
3890.000000	100.143436 
3889.000000	100.144023 
3888.000000	100.144761 
3887.000000	100.145145 
3886.000000	100.144362 
3885.000000	100.142471 
3884.000000	100.140664 
3883.000000	100.140047 
3882.000000	100.140533 
3881.000000	100.141057 
3880.000000	100.140711 
3879.000000	100.139767 
3878.000000	100.139161 
3877.000000	100.139232 
3876.000000	100.139355 
3875.000000	100.138835 
3874.000000	100.137887 
3873.000000	100.137408 
3872.000000	100.137765 
3871.000000	100.138260 
3870.000000	100.138028 
3869.000000	100.137218 
3868.000000	100.136885 
3867.000000	100.137612 
3866.000000	100.138701 
3865.000000	100.138974 
3864.000000	100.138109 
3863.000000	100.136925 
3862.000000	100.136286 
3861.000000	100.135880 
3860.000000	100.134541 
3859.000000	100.131489 
3858.000000	100.127130 
3857.000000	100.123050 
3856.000000	100.121265 
3855.000000	100.122858 
3854.000000	100.127124 
3853.000000	100.131602 
3852.000000	100.134678 
3851.000000	100.136726 
3850.000000	100.138230 
3849.000000	100.138835 
3848.000000	100.138200 
3847.000000	100.136534 
3846.000000	100.134614 
3845.000000	100.133309 
3844.000000	100.132854 
3843.000000	100.132857 
3842.000000	100.132995 
3841.000000	100.133280 
3840.000000	100.133898 
3839.000000	100.134893 
3838.000000	100.135937 
3837.000000	100.136559 
3836.000000	100.136479 
3835.000000	100.135742 
3834.000000	100.134677 
3833.000000	100.133559 
3832.000000	100.132460 
3831.000000	100.131444 
3830.000000	100.130709 
3829.000000	100.130462 
3828.000000	100.130517 
3827.000000	100.130307 
3826.000000	100.129624 
3825.000000	100.129039 
3824.000000	100.129344 
3823.000000	100.130555 
3822.000000	100.131661 
3821.000000	100.131711 
3820.000000	100.130980 
3819.000000	100.130525 
3818.000000	100.130788 
3817.000000	100.131024 
3816.000000	100.130292 
3815.000000	100.128807 
3814.000000	100.127592 
3813.000000	100.127008 
3812.000000	100.126513 
3811.000000	100.125544 
3810.000000	100.124353 
3809.000000	100.123831 
3808.000000	100.124340 
3807.000000	100.125133 
3806.000000	100.125325 
3805.000000	100.125032 
3804.000000	100.124978 
3803.000000	100.125294 
3802.000000	100.125235 
3801.000000	100.124275 
3800.000000	100.123074 
3799.000000	100.122687 
3798.000000	100.123234 
3797.000000	100.123841 
3796.000000	100.123696 
3795.000000	100.123024 
3794.000000	100.122766 
3793.000000	100.123439 
3792.000000	100.124666 
3791.000000	100.125635 
3790.000000	100.125892 
3789.000000	100.125692 
3788.000000	100.125692 
3787.000000	100.126475 
3786.000000	100.128183 
3785.000000	100.130384 
3784.000000	100.132346 
3783.000000	100.133564 
3782.000000	100.133936 
3781.000000	100.133499 
3780.000000	100.132298 
3779.000000	100.130548 
3778.000000	100.128829 
3777.000000	100.127727 
3776.000000	100.127292 
3775.000000	100.127117 
3774.000000	100.127015 
3773.000000	100.127333 
3772.000000	100.128269 
3771.000000	100.129233 
3770.000000	100.129420 
3769.000000	100.128949 
3768.000000	100.128864 
3767.000000	100.129923 
3766.000000	100.131692 
3765.000000	100.133121 
3764.000000	100.133861 
3763.000000	100.134557 
3762.000000	100.135756 
3761.000000	100.136994 
3760.000000	100.137459 
3759.000000	100.137103 
3758.000000	100.136707 
3757.000000	100.136781 
3756.000000	100.136888 
3755.000000	100.136363 
3754.000000	100.135202 
3753.000000	100.134161 
3752.000000	100.133973 
3751.000000	100.134405 
3750.000000	100.134379 
3749.000000	100.133530 
3748.000000	100.132729 
3747.000000	100.133115 
3746.000000	100.134654 
3745.000000	100.135673 
3744.000000	100.134588 
3743.000000	100.133059 
3742.000000	100.133566 
3741.000000	100.135309 
3740.000000	100.135815 
3739.000000	100.134335 
3738.000000	100.132380 
3737.000000	100.131864 
3736.000000	100.132986 
3735.000000	100.134557 
3734.000000	100.135674 
3733.000000	100.136165 
3732.000000	100.135922 
3731.000000	100.134870 
3730.000000	100.133601 
3729.000000	100.132956 
3728.000000	100.132803 
3727.000000	100.132461 
3726.000000	100.132307 
3725.000000	100.133651 
3724.000000	100.136294 
3723.000000	100.137808 
3722.000000	100.136193 
3721.000000	100.132079 
3720.000000	100.128183 
3719.000000	100.126072 
3718.000000	100.124394 
3717.000000	100.120920 
3716.000000	100.114986 
3715.000000	100.107910 
3714.000000	100.101525 
3713.000000	100.096745 
3712.000000	100.093761 
3711.000000	100.092506 
3710.000000	100.092646 
3709.000000	100.093123 
3708.000000	100.092166 
3707.000000	100.088522 
3706.000000	100.082365 
3705.000000	100.075092 
3704.000000	100.068391 
3703.000000	100.063359 
3702.000000	100.060353 
3701.000000	100.058954 
3700.000000	100.058229 
3699.000000	100.057038 
3698.000000	100.054062 
3697.000000	100.048622 
3696.000000	100.041659 
3695.000000	100.035263 
3694.000000	100.030789 
3693.000000	100.027823 
3692.000000	100.025144 
3691.000000	100.022279 
3690.000000	100.019868 
3689.000000	100.018074 
3688.000000	100.016127 
3687.000000	100.014030 
3686.000000	100.012457 
3685.000000	100.011164 
3684.000000	100.009080 
3683.000000	100.005470 
3682.000000	100.000665 
3681.000000	99.995555  
3680.000000	99.990465  
3679.000000	99.985265  
3678.000000	99.979977  
3677.000000	99.974822  
3676.000000	99.970841  
3675.000000	99.969614  
3674.000000	99.971940  
3673.000000	99.977155  
3672.000000	99.983173  
3671.000000	99.986572  
3670.000000	99.985551  
3669.000000	99.981857  
3668.000000	99.978211  
3667.000000	99.975315  
3666.000000	99.972095  
3665.000000	99.967863  
3664.000000	99.963444  
3663.000000	99.960113  
3662.000000	99.958279  
3661.000000	99.957626  
3660.000000	99.958017  
3659.000000	99.959846  
3658.000000	99.963007  
3657.000000	99.966138  
3656.000000	99.967696  
3655.000000	99.967885  
3654.000000	99.968646  
3653.000000	99.971443  
3652.000000	99.975924  
3651.000000	99.980118  
3650.000000	99.982062  
3649.000000	99.981410  
3648.000000	99.979233  
3647.000000	99.976797  
3646.000000	99.974807  
3645.000000	99.973577  
3644.000000	99.973173  
3643.000000	99.973324  
3642.000000	99.973654  
3641.000000	99.974180  
3640.000000	99.975261  
3639.000000	99.977128  
3638.000000	99.979544  
3637.000000	99.981932  
3636.000000	99.983632  
3635.000000	99.984187  
3634.000000	99.983769  
3633.000000	99.983335  
3632.000000	99.984049  
3631.000000	99.986360  
3630.000000	99.989272  
3629.000000	99.990905  
3628.000000	99.990577  
3627.000000	99.989545  
3626.000000	99.989258  
3625.000000	99.989761  
3624.000000	99.990314  
3623.000000	99.990559  
3622.000000	99.990880  
3621.000000	99.991865  
3620.000000	99.993742  
3619.000000	99.996302  
3618.000000	99.999210  
3617.000000	100.002300 
3616.000000	100.005371 
3615.000000	100.007855 
3614.000000	100.009093 
3613.000000	100.008979 
3612.000000	100.008186 
3611.000000	100.007712 
3610.000000	100.008061 
3609.000000	100.008934 
3608.000000	100.009858 
3607.000000	100.010768 
3606.000000	100.011886 
3605.000000	100.013182 
3604.000000	100.014172 
3603.000000	100.014394 
3602.000000	100.014038 
3601.000000	100.014068 
3600.000000	100.015650 
3599.000000	100.019194 
3598.000000	100.023854 
3597.000000	100.028087 
3596.000000	100.030527 
3595.000000	100.030738 
3594.000000	100.029520 
3593.000000	100.028545 
3592.000000	100.029488 
3591.000000	100.033153 
3590.000000	100.038594 
3589.000000	100.043112 
3588.000000	100.044160 
3587.000000	100.041538 
3586.000000	100.037171 
3585.000000	100.033154 
3584.000000	100.030241 
3583.000000	100.028162 
3582.000000	100.026435 
3581.000000	100.024776 
3580.000000	100.023044 
3579.000000	100.021138 
3578.000000	100.018985 
3577.000000	100.016706 
3576.000000	100.014762 
3575.000000	100.013734 
3574.000000	100.013982 
3573.000000	100.015453 
3572.000000	100.017837 
3571.000000	100.020712 
3570.000000	100.023313 
3569.000000	100.024376 
3568.000000	100.023014 
3567.000000	100.020006 
3566.000000	100.017410 
3565.000000	100.016464 
3564.000000	100.016633 
3563.000000	100.016453 
3562.000000	100.014936 
3561.000000	100.012201 
3560.000000	100.009122 
3559.000000	100.006566 
3558.000000	100.004935 
3557.000000	100.004247 
3556.000000	100.004385 
3555.000000	100.005175 
3554.000000	100.006289 
3553.000000	100.007185 
3552.000000	100.007267 
3551.000000	100.006301 
3550.000000	100.004616 
3549.000000	100.002875 
3548.000000	100.001622 
3547.000000	100.000986 
3546.000000	100.000746 
3545.000000	100.000618 
3544.000000	100.000412 
3543.000000	100.000033 
3542.000000	99.999446  
3541.000000	99.998685  
3540.000000	99.997895  
3539.000000	99.997279  
3538.000000	99.996931  
3537.000000	99.996762  
3536.000000	99.996569  
3535.000000	99.996225  
3534.000000	99.995759  
3533.000000	99.995279  
3532.000000	99.994863  
3531.000000	99.994521  
3530.000000	99.994217  
3529.000000	99.993905  
3528.000000	99.993563  
3527.000000	99.993202  
3526.000000	99.992836  
3525.000000	99.992460  
3524.000000	99.992057  
3523.000000	99.991631  
3522.000000	99.991218  
3521.000000	99.990848  
3520.000000	99.990520  
3519.000000	99.990209  
3518.000000	99.989891  
3517.000000	99.989561  
3516.000000	99.989225  
3515.000000	99.988892  
3514.000000	99.988565  
3513.000000	99.988246  
3512.000000	99.987929  
3511.000000	99.987598  
3510.000000	99.987243  
3509.000000	99.986863  
3508.000000	99.986473  
3507.000000	99.986084  
3506.000000	99.985691  
3505.000000	99.985281  
3504.000000	99.984849  
3503.000000	99.984401  
3502.000000	99.983948  
3501.000000	99.983499  
3500.000000	99.983058  
3499.000000	99.982608  
3498.000000	99.982115  
3497.000000	99.981557  
3496.000000	99.980933  
3495.000000	99.980277  
3494.000000	99.979631  
3493.000000	99.979025  
3492.000000	99.978466  
3491.000000	99.977936  
3490.000000	99.977410  
3489.000000	99.976872  
3488.000000	99.976313  
3487.000000	99.975739  
3486.000000	99.975165  
3485.000000	99.974606  
3484.000000	99.974059  
3483.000000	99.973498  
3482.000000	99.972893  
3481.000000	99.972219  
3480.000000	99.971477  
3479.000000	99.970705  
3478.000000	99.969982  
3477.000000	99.969358  
3476.000000	99.968794  
3475.000000	99.968171  
3474.000000	99.967413  
3473.000000	99.966577  
3472.000000	99.965808  
3471.000000	99.965177  
3470.000000	99.964619  
3469.000000	99.964003  
3468.000000	99.963276  
3467.000000	99.962479  
3466.000000	99.961679  
3465.000000	99.960894  
3464.000000	99.960084  
3463.000000	99.959187  
3462.000000	99.958158  
3461.000000	99.957008  
3460.000000	99.955837  
3459.000000	99.954838  
3458.000000	99.954194  
3457.000000	99.953912  
3456.000000	99.953777  
3455.000000	99.953462  
3454.000000	99.952800  
3453.000000	99.951951  
3452.000000	99.951227  
3451.000000	99.950776  
3450.000000	99.950480  
3449.000000	99.950140  
3448.000000	99.949654  
3447.000000	99.949007  
3446.000000	99.948220  
3445.000000	99.947366  
3444.000000	99.946585  
3443.000000	99.945957  
3442.000000	99.945417  
3441.000000	99.944843  
3440.000000	99.944216  
3439.000000	99.943613  
3438.000000	99.943057  
3437.000000	99.942451  
3436.000000	99.941689  
3435.000000	99.940808  
3434.000000	99.939980  
3433.000000	99.939346  
3432.000000	99.938884  
3431.000000	99.938441  
3430.000000	99.937876  
3429.000000	99.937173  
3428.000000	99.936422  
3427.000000	99.935719  
3426.000000	99.935105  
3425.000000	99.934573  
3424.000000	99.934113  
3423.000000	99.933723  
3422.000000	99.933377  
3421.000000	99.933010  
3420.000000	99.932547  
3419.000000	99.931966  
3418.000000	99.931335  
3417.000000	99.930784  
3416.000000	99.930389  
3415.000000	99.930107  
3414.000000	99.929809  
3413.000000	99.929413  
3412.000000	99.928955  
3411.000000	99.928528  
3410.000000	99.928192  
3409.000000	99.927957  
3408.000000	99.927799  
3407.000000	99.927661  
3406.000000	99.927467  
3405.000000	99.927173  
3404.000000	99.926813  
3403.000000	99.926504  
3402.000000	99.926342  
3401.000000	99.926322  
3400.000000	99.926332  
3399.000000	99.926255  
3398.000000	99.926068  
3397.000000	99.925860  
3396.000000	99.925734  
3395.000000	99.925709  
3394.000000	99.925716  
3393.000000	99.925690  
3392.000000	99.925640  
3391.000000	99.925611  
3390.000000	99.925598  
3389.000000	99.925553  
3388.000000	99.925459  
3387.000000	99.925358  
3386.000000	99.925299  
3385.000000	99.925284  
3384.000000	99.925279  
3383.000000	99.925274  
3382.000000	99.925295  
3381.000000	99.925324  
3380.000000	99.925248  
3379.000000	99.924946  
3378.000000	99.924496  
3377.000000	99.924257  
3376.000000	99.924601  
3375.000000	99.925588  
3374.000000	99.926878  
3373.000000	99.927939  
3372.000000	99.928451  
3371.000000	99.928445  
3370.000000	99.928206  
3369.000000	99.928062  
3368.000000	99.928168  
3367.000000	99.928430  
3366.000000	99.928578  
3365.000000	99.928404  
3364.000000	99.927992  
3363.000000	99.927689  
3362.000000	99.927773  
3361.000000	99.928169  
3360.000000	99.928532  
3359.000000	99.928596  
3358.000000	99.928428  
3357.000000	99.928364  
3356.000000	99.928736  
3355.000000	99.929593  
3354.000000	99.930644  
3353.000000	99.931466  
3352.000000	99.931846  
3351.000000	99.931941  
3350.000000	99.932144  
3349.000000	99.932795  
3348.000000	99.933963  
3347.000000	99.935418  
3346.000000	99.936758  
3345.000000	99.937617  
3344.000000	99.937818  
3343.000000	99.937397  
3342.000000	99.936554  
3341.000000	99.935614  
3340.000000	99.934944  
3339.000000	99.934758  
3338.000000	99.934916  
3337.000000	99.935007  
3336.000000	99.934757  
3335.000000	99.934331  
3334.000000	99.934180  
3333.000000	99.934588  
3332.000000	99.935436  
3331.000000	99.936366  
3330.000000	99.937081  
3329.000000	99.937505  
3328.000000	99.937759  
3327.000000	99.938029  
3326.000000	99.938403  
3325.000000	99.938824  
3324.000000	99.939206  
3323.000000	99.939575  
3322.000000	99.940023  
3321.000000	99.940530  
3320.000000	99.940918  
3319.000000	99.941043  
3318.000000	99.940971  
3317.000000	99.940934  
3316.000000	99.941119  
3315.000000	99.941526  
3314.000000	99.942019  
3313.000000	99.942436  
3312.000000	99.942717  
3311.000000	99.942902  
3310.000000	99.943066  
3309.000000	99.943253  
3308.000000	99.943464  
3307.000000	99.943676  
3306.000000	99.943875  
3305.000000	99.944052  
3304.000000	99.944199  
3303.000000	99.944316  
3302.000000	99.944428  
3301.000000	99.944584  
3300.000000	99.944826  
3299.000000	99.945150  
3298.000000	99.945490  
3297.000000	99.945779  
3296.000000	99.946019  
3295.000000	99.946257  
3294.000000	99.946539  
3293.000000	99.946859  
3292.000000	99.947168  
3291.000000	99.947409  
3290.000000	99.947555  
3289.000000	99.947625  
3288.000000	99.947676  
3287.000000	99.947796  
3286.000000	99.948073  
3285.000000	99.948536  
3284.000000	99.949081  
3283.000000	99.949518  
3282.000000	99.949718  
3281.000000	99.949697  
3280.000000	99.949539  
3279.000000	99.949311  
3278.000000	99.949086  
3277.000000	99.949011  
3276.000000	99.949217  
3275.000000	99.949674  
3274.000000	99.950189  
3273.000000	99.950530  
3272.000000	99.950534  
3271.000000	99.950133  
3270.000000	99.949428  
3269.000000	99.948761  
3268.000000	99.948547  
3267.000000	99.948983  
3266.000000	99.949950  
3265.000000	99.951121  
3264.000000	99.952161  
3263.000000	99.952859  
3262.000000	99.953203  
3261.000000	99.953395  
3260.000000	99.953684  
3259.000000	99.954079  
3258.000000	99.954312  
3257.000000	99.954134  
3256.000000	99.953561  
3255.000000	99.952845  
3254.000000	99.952295  
3253.000000	99.952157  
3252.000000	99.952542  
3251.000000	99.953342  
3250.000000	99.954232  
3249.000000	99.954900  
3248.000000	99.955274  
3247.000000	99.955489  
3246.000000	99.955671  
3245.000000	99.955826  
3244.000000	99.955957  
3243.000000	99.956206  
3242.000000	99.956779  
3241.000000	99.957740  
3240.000000	99.958863  
3239.000000	99.959724  
3238.000000	99.960034  
3237.000000	99.959883  
3236.000000	99.959679  
3235.000000	99.959768  
3234.000000	99.960173  
3233.000000	99.960756  
3232.000000	99.961494  
3231.000000	99.962471  
3230.000000	99.963576  
3229.000000	99.964400  
3228.000000	99.964561  
3227.000000	99.964039  
3226.000000	99.963188  
3225.000000	99.962499  
3224.000000	99.962327  
3223.000000	99.962779  
3222.000000	99.963710  
3221.000000	99.964826  
3220.000000	99.965880  
3219.000000	99.966793  
3218.000000	99.967541  
3217.000000	99.968042  
3216.000000	99.968230  
3215.000000	99.968243  
3214.000000	99.968412  
3213.000000	99.968969  
3212.000000	99.969843  
3211.000000	99.970778  
3210.000000	99.971632  
3209.000000	99.972442  
3208.000000	99.973243  
3207.000000	99.973944  
3206.000000	99.974465  
3205.000000	99.974907  
3204.000000	99.975502  
3203.000000	99.976374  
3202.000000	99.977434  
3201.000000	99.978518  
3200.000000	99.979508  
3199.000000	99.980256  
3198.000000	99.980568  
3197.000000	99.980443  
3196.000000	99.980310  
3195.000000	99.980759  
3194.000000	99.981910  
3193.000000	99.983179  
3192.000000	99.983855  
3191.000000	99.983838  
3190.000000	99.983660  
3189.000000	99.983869  
3188.000000	99.984555  
3187.000000	99.985449  
3186.000000	99.986228  
3185.000000	99.986621  
3184.000000	99.986442  
3183.000000	99.985745  
3182.000000	99.984920  
3181.000000	99.984498  
3180.000000	99.984751  
3179.000000	99.985543  
3178.000000	99.986482  
3177.000000	99.987146  
3176.000000	99.987255  
3175.000000	99.986879  
3174.000000	99.986568  
3173.000000	99.987083  
3172.000000	99.988749  
3171.000000	99.991076  
3170.000000	99.993064  
3169.000000	99.994076  
3168.000000	99.994325  
3167.000000	99.994547  
3166.000000	99.995271  
3165.000000	99.996418  
3164.000000	99.997523  
3163.000000	99.998239  
3162.000000	99.998598  
3161.000000	99.998925  
3160.000000	99.999549  
3159.000000	100.000565 
3158.000000	100.001758 
3157.000000	100.002751 
3156.000000	100.003280 
3155.000000	100.003393 
3154.000000	100.003401 
3153.000000	100.003617 
3152.000000	100.004073 
3151.000000	100.004491 
3150.000000	100.004550 
3149.000000	100.004240 
3148.000000	100.003990 
3147.000000	100.004307 
3146.000000	100.005277 
3145.000000	100.006438 
3144.000000	100.007235 
3143.000000	100.007689 
3142.000000	100.008386 
3141.000000	100.009740 
3140.000000	100.011377 
3139.000000	100.012467 
3138.000000	100.012618 
3137.000000	100.012215 
3136.000000	100.011940 
3135.000000	100.012060 
3134.000000	100.012365 
3133.000000	100.012606 
3132.000000	100.012752 
3131.000000	100.012837 
3130.000000	100.012768 
3129.000000	100.012442 
3128.000000	100.011967 
3127.000000	100.011679 
3126.000000	100.011893 
3125.000000	100.012654 
3124.000000	100.013700 
3123.000000	100.014641 
3122.000000	100.015240 
3121.000000	100.015620 
3120.000000	100.016157 
3119.000000	100.017061 
3118.000000	100.018010 
3117.000000	100.018329 
3116.000000	100.017656 
3115.000000	100.016398 
3114.000000	100.015404 
3113.000000	100.015098 
3112.000000	100.015108 
3111.000000	100.014864 
3110.000000	100.014418 
3109.000000	100.014360 
3108.000000	100.014899 
3107.000000	100.015398 
3106.000000	100.015059 
3105.000000	100.013913 
3104.000000	100.012919 
3103.000000	100.013075 
3102.000000	100.014675 
3101.000000	100.017255 
3100.000000	100.019872 
3099.000000	100.021629 
3098.000000	100.022216 
3097.000000	100.022078 
3096.000000	100.022012 
3095.000000	100.022412 
3094.000000	100.022989 
3093.000000	100.023272 
3092.000000	100.023154 
3091.000000	100.022855 
3090.000000	100.022534 
3089.000000	100.022241 
3088.000000	100.022258 
3087.000000	100.023112 
3086.000000	100.025005 
3085.000000	100.027320 
3084.000000	100.028998 
3083.000000	100.029439 
3082.000000	100.028901 
3081.000000	100.028100 
3080.000000	100.027543 
3079.000000	100.027232 
3078.000000	100.026799 
3077.000000	100.025823 
3076.000000	100.024243 
3075.000000	100.022608 
3074.000000	100.021716 
3073.000000	100.021819 
3072.000000	100.022409 
3071.000000	100.023099 
3070.000000	100.024348 
3069.000000	100.026586 
3068.000000	100.028723 
3067.000000	100.028575 
3066.000000	100.025319 
3065.000000	100.020835 
3064.000000	100.017909 
3063.000000	100.017405 
3062.000000	100.017967 
3061.000000	100.018217 
3060.000000	100.018402 
3059.000000	100.019738 
3058.000000	100.022668 
3057.000000	100.026088 
3056.000000	100.028218 
3055.000000	100.028349 
3054.000000	100.027712 
3053.000000	100.028279 
3052.000000	100.030494 
3051.000000	100.032595 
3050.000000	100.032534 
3049.000000	100.030038 
3048.000000	100.026246 
3047.000000	100.021879 
3046.000000	100.016870 
3045.000000	100.011645 
3044.000000	100.007518 
3043.000000	100.005280 
3042.000000	100.004097 
3041.000000	100.002353 
3040.000000	99.999281  
3039.000000	99.995451  
3038.000000	99.991966  
3037.000000	99.989484  
3036.000000	99.987795  
3035.000000	99.986084  
3034.000000	99.983696  
3033.000000	99.980593  
3032.000000	99.976872  
3031.000000	99.972067  
3030.000000	99.965260  
3029.000000	99.955927  
3028.000000	99.944676  
3027.000000	99.933252  
3026.000000	99.923818  
3025.000000	99.917690  
3024.000000	99.914058  
3023.000000	99.910013  
3022.000000	99.902622  
3021.000000	99.891383  
3020.000000	99.878514  
3019.000000	99.866870  
3018.000000	99.857899  
3017.000000	99.851391  
3016.000000	99.846192  
3015.000000	99.840679  
3014.000000	99.833202  
3013.000000	99.822800  
3012.000000	99.809434  
3011.000000	99.793433  
3010.000000	99.775300  
3009.000000	99.756441  
3008.000000	99.739451  
3007.000000	99.726708  
3006.000000	99.718516  
3005.000000	99.712821  
3004.000000	99.706587  
3003.000000	99.697412  
3002.000000	99.684525  
3001.000000	99.669219  
3000.000000	99.654256  
2999.000000	99.641885  
2998.000000	99.632147  
2997.000000	99.623659  
2996.000000	99.615922  
2995.000000	99.609548  
2994.000000	99.603403  
2993.000000	99.592982  
2992.000000	99.573955  
2991.000000	99.547927  
2990.000000	99.523111  
2989.000000	99.507794  
2988.000000	99.503774  
2987.000000	99.506697  
2986.000000	99.511658  
2985.000000	99.517261  
2984.000000	99.524142  
2983.000000	99.531494  
2982.000000	99.536656  
2981.000000	99.537682  
2980.000000	99.535249  
2979.000000	99.531841  
2978.000000	99.529601  
2977.000000	99.529017  
2976.000000	99.529125  
2975.000000	99.528686  
2974.000000	99.527297  
2973.000000	99.525476  
2972.000000	99.523820  
2971.000000	99.522473  
2970.000000	99.521650  
2969.000000	99.522346  
2968.000000	99.526022  
2967.000000	99.533494  
2966.000000	99.544182  
2965.000000	99.556281  
2964.000000	99.567599  
2963.000000	99.576749  
2962.000000	99.583949  
2961.000000	99.590450  
2960.000000	99.596925  
2959.000000	99.602825  
2958.000000	99.607762  
2957.000000	99.612774  
2956.000000	99.619047  
2955.000000	99.625595  
2954.000000	99.629733  
2953.000000	99.630696  
2952.000000	99.631771  
2951.000000	99.637509  
2950.000000	99.648730  
2949.000000	99.661125  
2948.000000	99.669246  
2947.000000	99.671289  
2946.000000	99.669838  
2945.000000	99.668818  
2944.000000	99.670259  
2943.000000	99.673823  
2942.000000	99.678223  
2941.000000	99.682035  
2940.000000	99.683615  
2939.000000	99.681689  
2938.000000	99.676682  
2937.000000	99.671008  
2936.000000	99.667539  
2935.000000	99.667783  
2934.000000	99.671332  
2933.000000	99.676329  
2932.000000	99.680220  
2931.000000	99.680894  
2930.000000	99.677986  
2929.000000	99.673054  
2928.000000	99.668133  
2927.000000	99.664285  
2926.000000	99.661705  
2925.000000	99.660401  
2924.000000	99.660017  
2923.000000	99.659563  
2922.000000	99.658336  
2921.000000	99.656918  
2920.000000	99.656357  
2919.000000	99.656602  
2918.000000	99.656668  
2917.000000	99.656183  
2916.000000	99.655632  
2915.000000	99.655009  
2914.000000	99.653432  
2913.000000	99.650543  
2912.000000	99.647337  
2911.000000	99.644969  
2910.000000	99.643441  
2909.000000	99.642068  
2908.000000	99.640622  
2907.000000	99.639190  
2906.000000	99.637185  
2905.000000	99.633334  
2904.000000	99.626874  
2903.000000	99.618848  
2902.000000	99.612237  
2901.000000	99.610820  
2900.000000	99.616807  
2899.000000	99.628772  
2898.000000	99.641949  
2897.000000	99.651419  
2896.000000	99.655703  
2895.000000	99.657241  
2894.000000	99.659651  
2893.000000	99.664624  
2892.000000	99.671057  
2891.000000	99.676600  
2890.000000	99.679851  
2889.000000	99.681266  
2888.000000	99.682231  
2887.000000	99.683623  
2886.000000	99.685564  
2885.000000	99.688296  
2884.000000	99.692537  
2883.000000	99.698666  
2882.000000	99.706065  
2881.000000	99.713811  
2880.000000	99.721863  
2879.000000	99.731111  
2878.000000	99.742157  
2877.000000	99.754238  
2876.000000	99.765303  
2875.000000	99.773125  
2874.000000	99.776688  
2873.000000	99.777111  
2872.000000	99.777346  
2871.000000	99.780411  
2870.000000	99.787369  
2869.000000	99.796797  
2868.000000	99.806254  
2867.000000	99.814427  
2866.000000	99.821991  
2865.000000	99.830440  
2864.000000	99.840190  
2863.000000	99.849850  
2862.000000	99.857338  
2861.000000	99.861665  
2860.000000	99.863812  
2859.000000	99.866180  
2858.000000	99.870994  
2857.000000	99.878655  
2856.000000	99.887369  
2855.000000	99.894803  
2854.000000	99.900374  
2853.000000	99.905623  
2852.000000	99.912082  
2851.000000	99.919388  
2850.000000	99.926227  
2849.000000	99.932462  
2848.000000	99.939113  
2847.000000	99.946336  
2846.000000	99.952654  
2845.000000	99.956686  
2844.000000	99.958806  
2843.000000	99.960629  
2842.000000	99.963451  
2841.000000	99.967572  
2840.000000	99.972451  
2839.000000	99.976871  
2838.000000	99.979468  
2837.000000	99.979909  
2836.000000	99.979483  
2835.000000	99.980088  
2834.000000	99.982642  
2833.000000	99.986675  
2832.000000	99.991095  
2831.000000	99.994963  
2830.000000	99.997896  
2829.000000	100.000276 
2828.000000	100.003001 
2827.000000	100.006543 
2826.000000	100.010210 
2825.000000	100.012698 
2824.000000	100.013405 
2823.000000	100.013118 
2822.000000	100.013449 
2821.000000	100.015597 
2820.000000	100.019372 
2819.000000	100.023335 
2818.000000	100.026157 
2817.000000	100.027878 
2816.000000	100.029482 
2815.000000	100.031312 
2814.000000	100.032625 
2813.000000	100.032887 
2812.000000	100.032685 
2811.000000	100.032782 
2810.000000	100.032902 
2809.000000	100.032273 
2808.000000	100.031049 
2807.000000	100.030309 
2806.000000	100.030730 
2805.000000	100.031968 
2804.000000	100.033443 
2803.000000	100.035104 
2802.000000	100.037137 
2801.000000	100.039253 
2800.000000	100.040602 
2799.000000	100.040418 
2798.000000	100.038796 
2797.000000	100.036869 
2796.000000	100.036046 
2795.000000	100.036826 
2794.000000	100.038464 
2793.000000	100.039826 
2792.000000	100.040458 
2791.000000	100.040694 
2790.000000	100.041013 
2789.000000	100.041670 
2788.000000	100.042791 
2787.000000	100.044361 
2786.000000	100.046054 
2785.000000	100.047406 
2784.000000	100.048212 
2783.000000	100.048541 
2782.000000	100.048413 
2781.000000	100.047784 
2780.000000	100.046905 
2779.000000	100.046339 
2778.000000	100.046433 
2777.000000	100.046945 
2776.000000	100.047351 
2775.000000	100.047388 
2774.000000	100.047171 
2773.000000	100.046959 
2772.000000	100.046958 
2771.000000	100.047261 
2770.000000	100.047854 
2769.000000	100.048706 
2768.000000	100.049889 
2767.000000	100.051448 
2766.000000	100.053084 
2765.000000	100.054177 
2764.000000	100.054375 
2763.000000	100.054045 
2762.000000	100.053956 
2761.000000	100.054522 
2760.000000	100.055547 
2759.000000	100.056596 
2758.000000	100.057324 
2757.000000	100.057520 
2756.000000	100.057242 
2755.000000	100.056963 
2754.000000	100.057203 
2753.000000	100.057854 
2752.000000	100.058239 
2751.000000	100.058011 
2750.000000	100.057659 
2749.000000	100.057805 
2748.000000	100.058240 
2747.000000	100.058134 
2746.000000	100.057084 
2745.000000	100.055569 
2744.000000	100.054407 
2743.000000	100.054042 
2742.000000	100.054480 
2741.000000	100.055531 
2740.000000	100.056897 
2739.000000	100.058227 
2738.000000	100.059300 
2737.000000	100.060121 
2736.000000	100.060745 
2735.000000	100.061116 
2734.000000	100.061147 
2733.000000	100.060871 
2732.000000	100.060472 
2731.000000	100.060175 
2730.000000	100.060162 
2729.000000	100.060498 
2728.000000	100.061121 
2727.000000	100.061938 
2726.000000	100.062872 
2725.000000	100.063781 
2724.000000	100.064390 
2723.000000	100.064518 
2722.000000	100.064323 
2721.000000	100.064196 
2720.000000	100.064340 
2719.000000	100.064628 
2718.000000	100.064873 
2717.000000	100.065084 
2716.000000	100.065383 
2715.000000	100.065828 
2714.000000	100.066413 
2713.000000	100.067083 
2712.000000	100.067660 
2711.000000	100.067890 
2710.000000	100.067725 
2709.000000	100.067460 
2708.000000	100.067458 
2707.000000	100.067729 
2706.000000	100.067951 
2705.000000	100.067887 
2704.000000	100.067653 
2703.000000	100.067551 
2702.000000	100.067702 
2701.000000	100.067964 
2700.000000	100.068132 
2699.000000	100.068149 
2698.000000	100.068108 
2697.000000	100.068101 
2696.000000	100.068107 
2695.000000	100.068064 
2694.000000	100.068023 
2693.000000	100.068123 
2692.000000	100.068384 
2691.000000	100.068600 
2690.000000	100.068564 
2689.000000	100.068334 
2688.000000	100.068196 
2687.000000	100.068333 
2686.000000	100.068627 
2685.000000	100.068807 
2684.000000	100.068760 
2683.000000	100.068609 
2682.000000	100.068542 
2681.000000	100.068627 
2680.000000	100.068782 
2679.000000	100.068878 
2678.000000	100.068848 
2677.000000	100.068744 
2676.000000	100.068698 
2675.000000	100.068789 
2674.000000	100.068934 
2673.000000	100.068965 
2672.000000	100.068765 
2671.000000	100.068338 
2670.000000	100.067765 
2669.000000	100.067129 
2668.000000	100.066490 
2667.000000	100.065921 
2666.000000	100.065565 
2665.000000	100.065557 
2664.000000	100.065868 
2663.000000	100.066269 
2662.000000	100.066518 
2661.000000	100.066561 
2660.000000	100.066479 
2659.000000	100.066314 
2658.000000	100.066048 
2657.000000	100.065722 
2656.000000	100.065480 
2655.000000	100.065434 
2654.000000	100.065537 
2653.000000	100.065608 
2652.000000	100.065495 
2651.000000	100.065187 
2650.000000	100.064817 
2649.000000	100.064551 
2648.000000	100.064447 
2647.000000	100.064408 
2646.000000	100.064311 
2645.000000	100.064187 
2644.000000	100.064179 
2643.000000	100.064314 
2642.000000	100.064401 
2641.000000	100.064264 
2640.000000	100.064015 
2639.000000	100.063965 
2638.000000	100.064323 
2637.000000	100.065023 
2636.000000	100.065734 
2635.000000	100.066026 
2634.000000	100.065639 
2633.000000	100.064682 
2632.000000	100.063688 
2631.000000	100.063128 
2630.000000	100.063013 
2629.000000	100.063074 
2628.000000	100.063156 
2627.000000	100.063319 
2626.000000	100.063592 
2625.000000	100.063898 
2624.000000	100.064222 
2623.000000	100.064639 
2622.000000	100.065125 
2621.000000	100.065485 
2620.000000	100.065551 
2619.000000	100.065325 
2618.000000	100.064931 
2617.000000	100.064507 
2616.000000	100.064183 
2615.000000	100.064068 
2614.000000	100.064195 
2613.000000	100.064499 
2612.000000	100.064887 
2611.000000	100.065323 
2610.000000	100.065827 
2609.000000	100.066409 
2608.000000	100.066993 
2607.000000	100.067431 
2606.000000	100.067641 
2605.000000	100.067725 
2604.000000	100.067855 
2603.000000	100.068026 
2602.000000	100.068067 
2601.000000	100.067906 
2600.000000	100.067680 
2599.000000	100.067558 
2598.000000	100.067564 
2597.000000	100.067627 
2596.000000	100.067686 
2595.000000	100.067715 
2594.000000	100.067713 
2593.000000	100.067710 
2592.000000	100.067733 
2591.000000	100.067792 
2590.000000	100.067875 
2589.000000	100.067971 
2588.000000	100.068071 
2587.000000	100.068160 
2586.000000	100.068228 
2585.000000	100.068269 
2584.000000	100.068286 
2583.000000	100.068288 
2582.000000	100.068290 
2581.000000	100.068305 
2580.000000	100.068334 
2579.000000	100.068374 
2578.000000	100.068419 
2577.000000	100.068467 
2576.000000	100.068518 
2575.000000	100.068574 
2574.000000	100.068635 
2573.000000	100.068696 
2572.000000	100.068751 
2571.000000	100.068795 
2570.000000	100.068829 
2569.000000	100.068861 
2568.000000	100.068900 
2567.000000	100.068951 
2566.000000	100.069016 
2565.000000	100.069092 
2564.000000	100.069177 
2563.000000	100.069270 
2562.000000	100.069375 
2561.000000	100.069500 
2560.000000	100.069652 
2559.000000	100.069834 
2558.000000	100.070043 
2557.000000	100.070269 
2556.000000	100.070495 
2555.000000	100.070713 
2554.000000	100.070924 
2553.000000	100.071133 
2552.000000	100.071345 
2551.000000	100.071556 
2550.000000	100.071748 
2549.000000	100.071907 
2548.000000	100.072045 
2547.000000	100.072173 
2546.000000	100.072282 
2545.000000	100.072360 
2544.000000	100.072419 
2543.000000	100.072488 
2542.000000	100.072592 
2541.000000	100.072746 
2540.000000	100.072955 
2539.000000	100.073187 
2538.000000	100.073361 
2537.000000	100.073403 
2536.000000	100.073287 
2535.000000	100.073067 
2534.000000	100.072871 
2533.000000	100.072854 
2532.000000	100.073113 
2531.000000	100.073588 
2530.000000	100.074092 
2529.000000	100.074475 
2528.000000	100.074719 
2527.000000	100.074845 
2526.000000	100.074834 
2525.000000	100.074711 
2524.000000	100.074662 
2523.000000	100.074910 
2522.000000	100.075456 
2521.000000	100.075998 
2520.000000	100.076177 
2519.000000	100.075867 
2518.000000	100.075229 
2517.000000	100.074584 
2516.000000	100.074169 
2515.000000	100.074008 
2514.000000	100.073981 
2513.000000	100.073992 
2512.000000	100.073965 
2511.000000	100.073728 
2510.000000	100.073074 
2509.000000	100.072083 
2508.000000	100.071232 
2507.000000	100.070986 
2506.000000	100.071314 
2505.000000	100.071680 
2504.000000	100.071563 
2503.000000	100.070919 
2502.000000	100.070109 
2501.000000	100.069555 
2500.000000	100.069455 
2499.000000	100.069766 
2498.000000	100.070318 
2497.000000	100.070930 
2496.000000	100.071474 
2495.000000	100.071851 
2494.000000	100.071960 
2493.000000	100.071726 
2492.000000	100.071140 
2491.000000	100.070278 
2490.000000	100.069305 
2489.000000	100.068461 
2488.000000	100.067954 
2487.000000	100.067818 
2486.000000	100.067898 
2485.000000	100.068030 
2484.000000	100.068192 
2483.000000	100.068400 
2482.000000	100.068551 
2481.000000	100.068500 
2480.000000	100.068249 
2479.000000	100.067969 
2478.000000	100.067827 
2477.000000	100.067816 
2476.000000	100.067809 
2475.000000	100.067721 
2474.000000	100.067583 
2473.000000	100.067497 
2472.000000	100.067526 
2471.000000	100.067665 
2470.000000	100.067869 
2469.000000	100.068071 
2468.000000	100.068186 
2467.000000	100.068160 
2466.000000	100.068012 
2465.000000	100.067839 
2464.000000	100.067741 
2463.000000	100.067727 
2462.000000	100.067746 
2461.000000	100.067734 
2460.000000	100.067668 
2459.000000	100.067566 
2458.000000	100.067458 
2457.000000	100.067360 
2456.000000	100.067269 
2455.000000	100.067172 
2454.000000	100.067062 
2453.000000	100.066942 
2452.000000	100.066822 
2451.000000	100.066712 
2450.000000	100.066617 
2449.000000	100.066534 
2448.000000	100.066457 
2447.000000	100.066379 
2446.000000	100.066301 
2445.000000	100.066239 
2444.000000	100.066208 
2443.000000	100.066211 
2442.000000	100.066224 
2441.000000	100.066201 
2440.000000	100.066111 
2439.000000	100.065952 
2438.000000	100.065755 
2437.000000	100.065551 
2436.000000	100.065368 
2435.000000	100.065203 
2434.000000	100.065011 
2433.000000	100.064738 
2432.000000	100.064372 
2431.000000	100.063971 
2430.000000	100.063623 
2429.000000	100.063385 
2428.000000	100.063272 
2427.000000	100.063280 
2426.000000	100.063391 
2425.000000	100.063529 
2424.000000	100.063557 
2423.000000	100.063374 
2422.000000	100.062992 
2421.000000	100.062577 
2420.000000	100.062340 
2419.000000	100.062349 
2418.000000	100.062532 
2417.000000	100.062759 
2416.000000	100.062933 
2415.000000	100.063000 
2414.000000	100.062934 
2413.000000	100.062766 
2412.000000	100.062596 
2411.000000	100.062513 
2410.000000	100.062531 
2409.000000	100.062622 
2408.000000	100.062781 
2407.000000	100.063038 
2406.000000	100.063406 
2405.000000	100.063847 
2404.000000	100.064282 
2403.000000	100.064613 
2402.000000	100.064764 
2401.000000	100.064755 
2400.000000	100.064704 
2399.000000	100.064721 
2398.000000	100.064840 
2397.000000	100.065054 
2396.000000	100.065387 
2395.000000	100.065894 
2394.000000	100.066574 
2393.000000	100.067339 
2392.000000	100.068073 
2391.000000	100.068724 
2390.000000	100.069331 
2389.000000	100.069973 
2388.000000	100.070685 
2387.000000	100.071425 
2386.000000	100.072112 
2385.000000	100.072719 
2384.000000	100.073291 
2383.000000	100.073901 
2382.000000	100.074580 
2381.000000	100.075316 
2380.000000	100.076067 
2379.000000	100.076784 
2378.000000	100.077419 
2377.000000	100.077968 
2376.000000	100.078507 
2375.000000	100.079144 
2374.000000	100.079913 
2373.000000	100.080750 
2372.000000	100.081554 
2371.000000	100.082294 
2370.000000	100.083018 
2369.000000	100.083758 
2368.000000	100.084467 
2367.000000	100.085051 
2366.000000	100.085462 
2365.000000	100.085740 
2364.000000	100.086048 
2363.000000	100.086535 
2362.000000	100.087230 
2361.000000	100.087977 
2360.000000	100.088609 
2359.000000	100.089151 
2358.000000	100.089768 
2357.000000	100.090542 
2356.000000	100.091369 
2355.000000	100.092053 
2354.000000	100.092444 
2353.000000	100.092535 
2352.000000	100.092480 
2351.000000	100.092498 
2350.000000	100.092726 
2349.000000	100.093112 
2348.000000	100.093448 
2347.000000	100.093549 
2346.000000	100.093430 
2345.000000	100.093231 
2344.000000	100.093091 
2343.000000	100.093179 
2342.000000	100.093608 
2341.000000	100.094289 
2340.000000	100.094971 
2339.000000	100.095462 
2338.000000	100.095639 
2337.000000	100.095517 
2336.000000	100.095156 
2335.000000	100.094578 
2334.000000	100.093809 
2333.000000	100.093178 
2332.000000	100.092951 
2331.000000	100.092594 
2330.000000	100.091089 
2329.000000	100.088307 
2328.000000	100.085475 
2327.000000	100.083800 
2326.000000	100.083242 
2325.000000	100.082826 
2324.000000	100.081931 
2323.000000	100.081146 
2322.000000	100.081919 
2321.000000	100.085203 
2320.000000	100.089948 
2319.000000	100.093522 
2318.000000	100.094112 
2317.000000	100.092183 
2316.000000	100.089595 
2315.000000	100.087628 
2314.000000	100.086315 
2313.000000	100.085339 
2312.000000	100.084701 
2311.000000	100.084564 
2310.000000	100.085133 
2309.000000	100.086458 
2308.000000	100.087817 
2307.000000	100.087663 
2306.000000	100.085053 
2305.000000	100.080755 
2304.000000	100.076346 
2303.000000	100.072552 
2302.000000	100.069275 
2301.000000	100.066795 
2300.000000	100.065628 
2299.000000	100.065244 
2298.000000	100.064311 
2297.000000	100.062510 
2296.000000	100.061019 
2295.000000	100.060643 
2294.000000	100.060503 
2293.000000	100.059260 
2292.000000	100.057062 
2291.000000	100.055355 
2290.000000	100.055134 
2289.000000	100.056058 
2288.000000	100.057103 
2287.000000	100.057512 
2286.000000	100.057157 
2285.000000	100.056439 
2284.000000	100.056000 
2283.000000	100.056247 
2282.000000	100.056956 
2281.000000	100.057390 
2280.000000	100.056975 
2279.000000	100.056043 
2278.000000	100.055798 
2277.000000	100.057185 
2276.000000	100.059768 
2275.000000	100.061939 
2274.000000	100.062513 
2273.000000	100.061760 
2272.000000	100.060615 
2271.000000	100.059210 
2270.000000	100.057019 
2269.000000	100.054526 
2268.000000	100.053515 
2267.000000	100.055075 
2266.000000	100.058238 
2265.000000	100.061008 
2264.000000	100.062341 
2263.000000	100.062625 
2262.000000	100.062985 
2261.000000	100.064650 
2260.000000	100.068121 
2259.000000	100.072097 
2258.000000	100.074007 
2257.000000	100.072631 
2256.000000	100.069710 
2255.000000	100.068182 
2254.000000	100.068774 
2253.000000	100.069611 
2252.000000	100.069104 
2251.000000	100.068045 
2250.000000	100.068397 
2249.000000	100.070951 
2248.000000	100.074698 
2247.000000	100.078028 
2246.000000	100.079976 
2245.000000	100.080275 
2244.000000	100.078868 
2243.000000	100.075850 
2242.000000	100.072112 
2241.000000	100.069490 
2240.000000	100.069326 
2239.000000	100.070687 
2238.000000	100.071013 
2237.000000	100.068851 
2236.000000	100.065137 
2235.000000	100.061508 
2234.000000	100.058479 
2233.000000	100.056045 
2232.000000	100.055113 
2231.000000	100.057072 
2230.000000	100.062251 
2229.000000	100.069499 
2228.000000	100.076976 
2227.000000	100.082969 
2226.000000	100.086305 
2225.000000	100.086748 
2224.000000	100.085109 
2223.000000	100.082711 
2222.000000	100.080787 
2221.000000	100.080335 
2220.000000	100.081946 
2219.000000	100.085522 
2218.000000	100.090444 
2217.000000	100.096062 
2216.000000	100.101757 
2215.000000	100.106641 
2214.000000	100.109810 
2213.000000	100.110922 
2212.000000	100.110174 
2211.000000	100.108182 
2210.000000	100.106394 
2209.000000	100.106798 
2208.000000	100.109810 
2207.000000	100.112801 
2206.000000	100.112304 
2205.000000	100.107619 
2204.000000	100.101199 
2203.000000	100.095978 
2202.000000	100.093431 
2201.000000	100.094107 
2200.000000	100.097796 
2199.000000	100.102438 
2198.000000	100.104830 
2197.000000	100.103915 
2196.000000	100.102213 
2195.000000	100.102964 
2194.000000	100.106705 
2193.000000	100.111613 
2192.000000	100.115956 
2191.000000	100.119006 
2190.000000	100.120305 
2189.000000	100.119835 
2188.000000	100.118796 
2187.000000	100.118901 
2186.000000	100.120752 
2185.000000	100.123797 
2184.000000	100.127395 
2183.000000	100.130881 
2182.000000	100.133024 
2181.000000	100.133005 
2180.000000	100.131853 
2179.000000	100.131497 
2178.000000	100.132336 
2177.000000	100.133014 
2176.000000	100.132474 
2175.000000	100.130977 
2174.000000	100.129213 
2173.000000	100.127814 
2172.000000	100.127702 
2171.000000	100.129425 
2170.000000	100.132036 
2169.000000	100.133840 
2168.000000	100.134591 
2167.000000	100.135659 
2166.000000	100.137739 
2165.000000	100.139860 
2164.000000	100.141232 
2163.000000	100.142680 
2162.000000	100.145343 
2161.000000	100.149035 
2160.000000	100.152556 
2159.000000	100.154704 
2158.000000	100.154769 
2157.000000	100.153346 
2156.000000	100.152570 
2155.000000	100.153923 
2154.000000	100.155856 
2153.000000	100.155191 
2152.000000	100.150761 
2151.000000	100.144542 
2150.000000	100.139510 
2149.000000	100.137312 
2148.000000	100.138029 
2147.000000	100.140415 
2146.000000	100.141999 
2145.000000	100.140674 
2144.000000	100.136770 
2143.000000	100.132882 
2142.000000	100.131006 
2141.000000	100.130603 
2140.000000	100.130009 
2139.000000	100.128722 
2138.000000	100.127352 
2137.000000	100.125903 
2136.000000	100.123423 
2135.000000	100.119555 
2134.000000	100.115513 
2133.000000	100.112916 
2132.000000	100.111926 
2131.000000	100.110943 
2130.000000	100.108225 
2129.000000	100.103771 
2128.000000	100.099462 
2127.000000	100.097088 
2126.000000	100.096464 
2125.000000	100.095852 
2124.000000	100.094259 
2123.000000	100.092681 
2122.000000	100.092532 
2121.000000	100.093623 
2120.000000	100.094236 
2119.000000	100.093038 
2118.000000	100.090249 
2117.000000	100.087026 
2116.000000	100.084279 
2115.000000	100.082277 
2114.000000	100.081005 
2113.000000	100.080312 
2112.000000	100.079767 
2111.000000	100.078800 
2110.000000	100.077178 
2109.000000	100.075271 
2108.000000	100.073677 
2107.000000	100.072537 
2106.000000	100.071225 
2105.000000	100.068734 
2104.000000	100.064605 
2103.000000	100.059752 
2102.000000	100.056280 
2101.000000	100.055807 
2100.000000	100.057968 
2099.000000	100.060665 
2098.000000	100.062138 
2097.000000	100.062693 
2096.000000	100.063779 
2095.000000	100.065666 
2094.000000	100.066685 
2093.000000	100.065064 
2092.000000	100.061182 
2091.000000	100.057656 
2090.000000	100.056970 
2089.000000	100.059167 
2088.000000	100.062038 
2087.000000	100.063542 
2086.000000	100.063911 
2085.000000	100.064958 
2084.000000	100.067582 
2083.000000	100.070593 
2082.000000	100.072259 
2081.000000	100.072394 
2080.000000	100.072316 
2079.000000	100.073087 
2078.000000	100.074641 
2077.000000	100.076757 
2076.000000	100.079919 
2075.000000	100.084583 
2074.000000	100.090011 
2073.000000	100.094426 
2072.000000	100.096526 
2071.000000	100.096516 
2070.000000	100.095741 
2069.000000	100.095534 
2068.000000	100.096333 
2067.000000	100.097795 
2066.000000	100.099446 
2065.000000	100.101005 
2064.000000	100.102252 
2063.000000	100.103042 
2062.000000	100.103715 
2061.000000	100.105140 
2060.000000	100.107822 
2059.000000	100.111140 
2058.000000	100.113907 
2057.000000	100.115620 
2056.000000	100.116680 
2055.000000	100.117492 
2054.000000	100.118007 
2053.000000	100.118375 
2052.000000	100.119390 
2051.000000	100.121708 
2050.000000	100.124837 
2049.000000	100.127395 
2048.000000	100.128500 
2047.000000	100.128550 
2046.000000	100.128647 
2045.000000	100.129522 
2044.000000	100.131065 
2043.000000	100.132606 
2042.000000	100.133665 
2041.000000	100.134534 
2040.000000	100.136040 
2039.000000	100.138689 
2038.000000	100.142148 
2037.000000	100.145539 
2036.000000	100.148090 
2035.000000	100.149501 
2034.000000	100.149998 
2033.000000	100.150104 
2032.000000	100.149999 
2031.000000	100.149163 
2030.000000	100.147171 
2029.000000	100.144752 
2028.000000	100.143351 
2027.000000	100.143524 
2026.000000	100.144596 
2025.000000	100.145982 
2024.000000	100.147995 
2023.000000	100.150736 
2022.000000	100.152947 
2021.000000	100.153123 
2020.000000	100.151400 
2019.000000	100.149559 
2018.000000	100.149072 
2017.000000	100.149664 
2016.000000	100.150047 
2015.000000	100.149439 
2014.000000	100.148089 
2013.000000	100.146712 
2012.000000	100.145820 
2011.000000	100.145537 
2010.000000	100.145957 
2009.000000	100.147542 
2008.000000	100.150659 
2007.000000	100.154500 
2006.000000	100.157068 
2005.000000	100.156966 
2004.000000	100.154844 
2003.000000	100.152704 
2002.000000	100.151655 
2001.000000	100.150983 
2000.000000	100.149411 
1999.000000	100.146665 
1998.000000	100.143771 
1997.000000	100.142115 
1996.000000	100.142361 
1995.000000	100.144147 
1994.000000	100.146488 
1993.000000	100.148388 
1992.000000	100.149293 
1991.000000	100.149211 
1990.000000	100.148588 
1989.000000	100.148109 
1988.000000	100.148347 
1987.000000	100.149323 
1986.000000	100.150391 
1985.000000	100.150819 
1984.000000	100.150552 
1983.000000	100.150308 
1982.000000	100.150792 
1981.000000	100.151801 
1980.000000	100.152193 
1979.000000	100.150998 
1978.000000	100.148645 
1977.000000	100.146772 
1976.000000	100.146371 
1975.000000	100.146746 
1974.000000	100.146904 
1973.000000	100.147392 
1972.000000	100.149696 
1971.000000	100.153698 
1970.000000	100.156661 
1969.000000	100.155745 
1968.000000	100.150858 
1967.000000	100.144878 
1966.000000	100.140896 
1965.000000	100.139359 
1964.000000	100.138707 
1963.000000	100.137670 
1962.000000	100.136327 
1961.000000	100.135107 
1960.000000	100.133608 
1959.000000	100.131153 
1958.000000	100.128179 
1957.000000	100.126091 
1956.000000	100.125617 
1955.000000	100.126037 
1954.000000	100.126197 
1953.000000	100.125545 
1952.000000	100.123818 
1951.000000	100.120523 
1950.000000	100.115680 
1949.000000	100.110812 
1948.000000	100.107914 
1947.000000	100.107151 
1946.000000	100.106395 
1945.000000	100.103421 
1944.000000	100.098298 
1943.000000	100.093376 
1942.000000	100.090987 
1941.000000	100.091335 
1940.000000	100.092639 
1939.000000	100.093037 
1938.000000	100.092333 
1937.000000	100.091793 
1936.000000	100.092242 
1935.000000	100.092818 
1934.000000	100.092187 
1933.000000	100.090553 
1932.000000	100.089599 
1931.000000	100.090295 
1930.000000	100.091625 
1929.000000	100.091934 
1928.000000	100.090851 
1927.000000	100.089244 
1926.000000	100.087869 
1925.000000	100.086757 
1924.000000	100.085645 
1923.000000	100.084486 
1922.000000	100.083513 
1921.000000	100.082911 
1920.000000	100.082341 
1919.000000	100.080899 
1918.000000	100.077979 
1917.000000	100.074317 
1916.000000	100.071477 
1915.000000	100.070071 
1914.000000	100.069657 
1913.000000	100.069916 
1912.000000	100.070873 
1911.000000	100.072053 
1910.000000	100.072369 
1909.000000	100.071507 
1908.000000	100.070597 
1907.000000	100.070840 
1906.000000	100.072078 
1905.000000	100.073165 
1904.000000	100.073258 
1903.000000	100.072262 
1902.000000	100.070604 
1901.000000	100.069147 
1900.000000	100.068545 
1899.000000	100.068571 
1898.000000	100.068447 
1897.000000	100.067925 
1896.000000	100.067559 
1895.000000	100.067602 
1894.000000	100.067363 
1893.000000	100.066379 
1892.000000	100.065299 
1891.000000	100.064832 
1890.000000	100.064477 
1889.000000	100.063234 
1888.000000	100.061342 
1887.000000	100.060014 
1886.000000	100.059860 
1885.000000	100.060621 
1884.000000	100.061857 
1883.000000	100.063167 
1882.000000	100.064047 
1881.000000	100.064246 
1880.000000	100.064109 
1879.000000	100.064250 
1878.000000	100.065121 
1877.000000	100.066892 
1876.000000	100.069255 
1875.000000	100.071111 
1874.000000	100.071023 
1873.000000	100.068572 
1872.000000	100.064840 
1871.000000	100.061153 
1870.000000	100.057830 
1869.000000	100.054789 
1868.000000	100.052834 
1867.000000	100.052879 
1866.000000	100.054346 
1865.000000	100.055685 
1864.000000	100.055808 
1863.000000	100.054469 
1862.000000	100.052168 
1861.000000	100.050274 
1860.000000	100.050506 
1859.000000	100.053496 
1858.000000	100.057969 
1857.000000	100.061781 
1856.000000	100.063791 
1855.000000	100.064259 
1854.000000	100.064006 
1853.000000	100.063748 
1852.000000	100.063620 
1851.000000	100.063188 
1850.000000	100.062390 
1849.000000	100.062168 
1848.000000	100.063511 
1847.000000	100.065952 
1846.000000	100.067820 
1845.000000	100.068175 
1844.000000	100.067984 
1843.000000	100.068663 
1842.000000	100.070066 
1841.000000	100.071045 
1840.000000	100.070919 
1839.000000	100.069924 
1838.000000	100.068769 
1837.000000	100.068027 
1836.000000	100.067782 
1835.000000	100.067645 
1834.000000	100.067258 
1833.000000	100.066636 
1832.000000	100.065862 
1831.000000	100.065013 
1830.000000	100.064522 
1829.000000	100.064929 
1828.000000	100.066148 
1827.000000	100.067284 
1826.000000	100.067460 
1825.000000	100.066813 
1824.000000	100.066246 
1823.000000	100.066031 
1822.000000	100.065341 
1821.000000	100.063641 
1820.000000	100.061875 
1819.000000	100.061557 
1818.000000	100.062938 
1817.000000	100.064811 
1816.000000	100.065988 
1815.000000	100.066469 
1814.000000	100.066761 
1813.000000	100.067032 
1812.000000	100.067301 
1811.000000	100.067867 
1810.000000	100.068830 
1809.000000	100.069748 
1808.000000	100.070225 
1807.000000	100.070195 
1806.000000	100.069664 
1805.000000	100.068765 
1804.000000	100.067916 
1803.000000	100.067393 
1802.000000	100.066903 
1801.000000	100.065955 
1800.000000	100.064754 
1799.000000	100.064161 
1798.000000	100.064565 
1797.000000	100.065671 
1796.000000	100.067031 
1795.000000	100.068247 
1794.000000	100.068938 
1793.000000	100.068848 
1792.000000	100.068299 
1791.000000	100.068099 
1790.000000	100.068510 
1789.000000	100.069123 
1788.000000	100.069638 
1787.000000	100.070090 
1786.000000	100.070473 
1785.000000	100.070627 
1784.000000	100.070528 
1783.000000	100.070269 
1782.000000	100.069889 
1781.000000	100.069438 
1780.000000	100.069038 
1779.000000	100.068830 
1778.000000	100.068876 
1777.000000	100.069330 
1776.000000	100.070349 
1775.000000	100.071617 
1774.000000	100.072528 
1773.000000	100.072842 
1772.000000	100.072930 
1771.000000	100.073355 
1770.000000	100.074038 
1769.000000	100.074160 
1768.000000	100.073277 
1767.000000	100.072055 
1766.000000	100.071399 
1765.000000	100.071356 
1764.000000	100.071441 
1763.000000	100.071636 
1762.000000	100.072389 
1761.000000	100.073567 
1760.000000	100.074527 
1759.000000	100.075146 
1758.000000	100.075968 
1757.000000	100.077650 
1756.000000	100.079844 
1755.000000	100.081485 
1754.000000	100.082102 
1753.000000	100.081940 
1752.000000	100.081433 
1751.000000	100.080711 
1750.000000	100.079680 
1749.000000	100.078578 
1748.000000	100.077941 
1747.000000	100.078028 
1746.000000	100.078628 
1745.000000	100.079103 
1744.000000	100.078946 
1743.000000	100.078466 
1742.000000	100.078365 
1741.000000	100.078730 
1740.000000	100.079157 
1739.000000	100.079623 
1738.000000	100.080529 
1737.000000	100.081718 
1736.000000	100.082523 
1735.000000	100.082559 
1734.000000	100.081966 
1733.000000	100.081283 
1732.000000	100.080917 
1731.000000	100.080616 
1730.000000	100.080113 
1729.000000	100.079744 
1728.000000	100.079699 
1727.000000	100.079803 
1726.000000	100.079825 
1725.000000	100.079755 
1724.000000	100.079639 
1723.000000	100.079484 
1722.000000	100.079297 
1721.000000	100.079212 
1720.000000	100.079393 
1719.000000	100.079953 
1718.000000	100.080673 
1717.000000	100.080920 
1716.000000	100.080628 
1715.000000	100.080241 
1714.000000	100.079852 
1713.000000	100.079387 
1712.000000	100.078941 
1711.000000	100.078589 
1710.000000	100.078299 
1709.000000	100.078029 
1708.000000	100.077766 
1707.000000	100.077501 
1706.000000	100.077208 
1705.000000	100.076868 
1704.000000	100.076515 
1703.000000	100.076156 
1702.000000	100.075769 
1701.000000	100.075358 
1700.000000	100.074956 
1699.000000	100.074580 
1698.000000	100.074210 
1697.000000	100.073830 
1696.000000	100.073437 
1695.000000	100.073037 
1694.000000	100.072639 
1693.000000	100.072247 
1692.000000	100.071866 
1691.000000	100.071497 
1690.000000	100.071139 
1689.000000	100.070792 
1688.000000	100.070452 
1687.000000	100.070117 
1686.000000	100.069782 
1685.000000	100.069441 
1684.000000	100.069091 
1683.000000	100.068728 
1682.000000	100.068350 
1681.000000	100.067961 
1680.000000	100.067565 
1679.000000	100.067164 
1678.000000	100.066763 
1677.000000	100.066363 
1676.000000	100.065970 
1675.000000	100.065589 
1674.000000	100.065231 
1673.000000	100.064895 
1672.000000	100.064573 
1671.000000	100.064253 
1670.000000	100.063930 
1669.000000	100.063599 
1668.000000	100.063261 
1667.000000	100.062918 
1666.000000	100.062572 
1665.000000	100.062227 
1664.000000	100.061870 
1663.000000	100.061495 
1662.000000	100.061137 
1661.000000	100.060850 
1660.000000	100.060651 
1659.000000	100.060475 
1658.000000	100.060212 
1657.000000	100.059890 
1656.000000	100.059460 
1655.000000	100.058823 
1654.000000	100.058317 
1653.000000	100.058264 
1652.000000	100.058370 
1651.000000	100.058822 
1650.000000	100.059469 
1649.000000	100.059213 
1648.000000	100.058348 
1647.000000	100.057460 
1646.000000	100.056860 
1645.000000	100.056390 
1644.000000	100.056579 
1643.000000	100.057262 
1642.000000	100.057637 
1641.000000	100.056999 
1640.000000	100.055600 
1639.000000	100.054442 
1638.000000	100.054245 
1637.000000	100.055411 
1636.000000	100.057827 
1635.000000	100.059704 
1634.000000	100.059918 
1633.000000	100.059111 
1632.000000	100.057506 
1631.000000	100.055014 
1630.000000	100.051977 
1629.000000	100.049569 
1628.000000	100.048852 
1627.000000	100.049365 
1626.000000	100.049743 
1625.000000	100.049449 
1624.000000	100.049172 
1623.000000	100.049467 
1622.000000	100.050058 
1621.000000	100.050918 
1620.000000	100.051813 
1619.000000	100.052031 
1618.000000	100.051816 
1617.000000	100.053136 
1616.000000	100.056985 
1615.000000	100.061188 
1614.000000	100.063792 
1613.000000	100.065208 
1612.000000	100.066900 
1611.000000	100.069116 
1610.000000	100.070491 
1609.000000	100.070363 
1608.000000	100.069709 
1607.000000	100.069416 
1606.000000	100.069535 
1605.000000	100.070033 
1604.000000	100.070863 
1603.000000	100.071923 
1602.000000	100.073423 
1601.000000	100.075834 
1600.000000	100.078992 
1599.000000	100.081815 
1598.000000	100.083517 
1597.000000	100.084357 
1596.000000	100.084898 
1595.000000	100.085116 
1594.000000	100.084935 
1593.000000	100.085230 
1592.000000	100.086970 
1591.000000	100.089689 
1590.000000	100.092001 
1589.000000	100.093511 
1588.000000	100.094987 
1587.000000	100.096778 
1586.000000	100.098357 
1585.000000	100.099462 
1584.000000	100.100237 
1583.000000	100.100471 
1582.000000	100.100076 
1581.000000	100.099665 
1580.000000	100.099692 
1579.000000	100.099972 
1578.000000	100.100266 
1577.000000	100.100699 
1576.000000	100.101365 
1575.000000	100.102046 
1574.000000	100.102685 
1573.000000	100.103320 
1572.000000	100.103916 
1571.000000	100.104509 
1570.000000	100.105141 
1569.000000	100.105792 
1568.000000	100.106395 
1567.000000	100.106928 
1566.000000	100.107421 
1565.000000	100.107900 
1564.000000	100.108370 
1563.000000	100.108832 
1562.000000	100.109282 
1561.000000	100.109721 
1560.000000	100.110149 
1559.000000	100.110563 
1558.000000	100.110953 
1557.000000	100.111319 
1556.000000	100.111664 
1555.000000	100.111984 
1554.000000	100.112276 
1553.000000	100.112541 
1552.000000	100.112781 
1551.000000	100.112997 
1550.000000	100.113190 
1549.000000	100.113363 
1548.000000	100.113519 
1547.000000	100.113653 
1546.000000	100.113761 
1545.000000	100.113850 
1544.000000	100.113932 
1543.000000	100.114021 
1542.000000	100.114115 
1541.000000	100.114200 
1540.000000	100.114256 
1539.000000	100.114269 
1538.000000	100.114240 
1537.000000	100.114175 
1536.000000	100.114078 
1535.000000	100.113948 
1534.000000	100.113787 
1533.000000	100.113598 
1532.000000	100.113385 
1531.000000	100.113154 
1530.000000	100.112905 
1529.000000	100.112633 
1528.000000	100.112332 
1527.000000	100.112006 
1526.000000	100.111671 
1525.000000	100.111335 
1524.000000	100.111002 
1523.000000	100.110674 
1522.000000	100.110330 
1521.000000	100.109895 
1520.000000	100.109314 
1519.000000	100.108623 
1518.000000	100.107866 
1517.000000	100.107089 
1516.000000	100.106352 
1515.000000	100.105669 
1514.000000	100.104992 
1513.000000	100.104262 
1512.000000	100.103477 
1511.000000	100.102694 
1510.000000	100.101943 
1509.000000	100.101203 
1508.000000	100.100529 
1507.000000	100.100067 
1506.000000	100.099524 
1505.000000	100.098602 
1504.000000	100.097559 
1503.000000	100.096633 
1502.000000	100.095852 
1501.000000	100.095066 
1500.000000	100.094098 
1499.000000	100.092972 
1498.000000	100.091871 
1497.000000	100.090703 
1496.000000	100.089299 
1495.000000	100.087912 
1494.000000	100.086849 
1493.000000	100.086050 
1492.000000	100.085245 
1491.000000	100.084252 
1490.000000	100.083059 
1489.000000	100.081661 
1488.000000	100.080176 
1487.000000	100.078798 
1486.000000	100.077355 
1485.000000	100.075708 
1484.000000	100.074038 
1483.000000	100.072576 
1482.000000	100.071405 
1481.000000	100.070377 
1480.000000	100.069321 
1479.000000	100.068174 
1478.000000	100.066894 
1477.000000	100.065482 
1476.000000	100.064280 
1475.000000	100.063779 
1474.000000	100.063952 
1473.000000	100.064011 
1472.000000	100.063207 
1471.000000	100.061976 
1470.000000	100.060912 
1469.000000	100.059624 
1468.000000	100.057736 
1467.000000	100.055668 
1466.000000	100.054025 
1465.000000	100.052961 
1464.000000	100.052319 
1463.000000	100.052260 
1462.000000	100.052502 
1461.000000	100.052137 
1460.000000	100.050880 
1459.000000	100.049212 
1458.000000	100.047243 
1457.000000	100.042469 
1456.000000	100.033986 
1455.000000	100.026886 
1454.000000	100.024232 
1453.000000	100.023775 
1452.000000	100.023765 
1451.000000	100.024089 
1450.000000	100.024906 
1449.000000	100.024502 
1448.000000	100.021755 
1447.000000	100.018561 
1446.000000	100.017571 
1445.000000	100.018599 
1444.000000	100.019567 
1443.000000	100.019834 
1442.000000	100.020141 
1441.000000	100.020651 
1440.000000	100.020543 
1439.000000	100.019645 
1438.000000	100.019278 
1437.000000	100.020126 
1436.000000	100.020669 
1435.000000	100.020379 
1434.000000	100.019846 
1433.000000	100.017812 
1432.000000	100.013694 
1431.000000	100.009287 
1430.000000	100.006633 
1429.000000	100.005004 
1428.000000	100.002355 
1427.000000	99.998453  
1426.000000	99.994596  
1425.000000	99.991934  
1424.000000	99.989956  
1423.000000	99.987398  
1422.000000	99.983325  
1421.000000	99.976748  
1420.000000	99.967404  
1419.000000	99.958303  
1418.000000	99.953257  
1417.000000	99.950605  
1416.000000	99.945884  
1415.000000	99.937800  
1414.000000	99.928493  
1413.000000	99.919989  
1412.000000	99.912523  
1411.000000	99.905912  
1410.000000	99.900487  
1409.000000	99.895903  
1408.000000	99.891723  
1407.000000	99.888937  
1406.000000	99.889143  
1405.000000	99.892489  
1404.000000	99.897350  
1403.000000	99.903026  
1402.000000	99.910237  
1401.000000	99.918799  
1400.000000	99.926967  
1399.000000	99.932470  
1398.000000	99.933520  
1397.000000	99.928463  
1396.000000	99.916741  
1395.000000	99.902887  
1394.000000	99.896521  
1393.000000	99.902988  
1392.000000	99.918208  
1391.000000	99.934179  
1390.000000	99.945679  
1389.000000	99.951650  
1388.000000	99.953149  
1387.000000	99.951683  
1386.000000	99.949054  
1385.000000	99.947012  
1384.000000	99.946238  
1383.000000	99.946447  
1382.000000	99.947337  
1381.000000	99.949108  
1380.000000	99.952444  
1379.000000	99.957658  
1378.000000	99.964101  
1377.000000	99.970629  
1376.000000	99.976580  
1375.000000	99.982198  
1374.000000	99.988385  
1373.000000	99.995818  
1372.000000	100.004171 
1371.000000	100.012243 
1370.000000	100.018920 
1369.000000	100.024284 
1368.000000	100.029156 
1367.000000	100.034166 
1366.000000	100.039459 
1365.000000	100.044928 
1364.000000	100.050490 
1363.000000	100.055946 
1362.000000	100.060732 
1361.000000	100.064643 
1360.000000	100.068496 
1359.000000	100.073400 
1358.000000	100.079790 
1357.000000	100.087074 
1356.000000	100.093895 
1355.000000	100.099256 
1354.000000	100.103557 
1353.000000	100.107981 
1352.000000	100.112891 
1351.000000	100.116770 
1350.000000	100.117873 
1349.000000	100.117315 
1348.000000	100.117569 
1347.000000	100.119650 
1346.000000	100.122769 
1345.000000	100.126037 
1344.000000	100.129031 
1343.000000	100.131010 
1342.000000	100.131208 
1341.000000	100.130323 
1340.000000	100.130272 
1339.000000	100.131806 
1338.000000	100.134001 
1337.000000	100.136454 
1336.000000	100.139872 
1335.000000	100.144093 
1334.000000	100.147209 
1333.000000	100.147652 
1332.000000	100.146290 
1331.000000	100.145385 
1330.000000	100.146010 
1329.000000	100.147460 
1328.000000	100.148697 
1327.000000	100.149198 
1326.000000	100.148821 
1325.000000	100.147926 
1324.000000	100.147161 
1323.000000	100.146942 
1322.000000	100.147234 
1321.000000	100.148081 
1320.000000	100.149997 
1319.000000	100.153210 
1318.000000	100.156540 
1317.000000	100.157878 
1316.000000	100.156268 
1315.000000	100.153073 
1314.000000	100.150721 
1313.000000	100.150236 
1312.000000	100.150484 
1311.000000	100.149919 
1310.000000	100.148499 
1309.000000	100.147517 
1308.000000	100.148036 
1307.000000	100.149819 
1306.000000	100.151643 
1305.000000	100.152497 
1304.000000	100.152140 
1303.000000	100.151045 
1302.000000	100.149970 
1301.000000	100.149456 
1300.000000	100.149604 
1299.000000	100.150410 
1298.000000	100.152094 
1297.000000	100.154747 
1296.000000	100.157666 
1295.000000	100.159422 
1294.000000	100.158963 
1293.000000	100.156449 
1292.000000	100.152960 
1291.000000	100.149742 
1290.000000	100.147892 
1289.000000	100.148289 
1288.000000	100.151033 
1287.000000	100.154780 
1286.000000	100.157368 
1285.000000	100.157529 
1284.000000	100.155640 
1283.000000	100.152934 
1282.000000	100.150198 
1281.000000	100.147506 
1280.000000	100.145056 
1279.000000	100.143276 
1278.000000	100.142127 
1277.000000	100.141105 
1276.000000	100.140046 
1275.000000	100.139207 
1274.000000	100.138433 
1273.000000	100.136958 
1272.000000	100.134418 
1271.000000	100.131480 
1270.000000	100.128991 
1269.000000	100.126879 
1268.000000	100.124425 
1267.000000	100.121302 
1266.000000	100.117787 
1265.000000	100.114121 
1264.000000	100.110286 
1263.000000	100.106352 
1262.000000	100.102457 
1261.000000	100.098575 
1260.000000	100.094766 
1259.000000	100.091452 
1258.000000	100.088926 
1257.000000	100.086754 
1256.000000	100.084412 
1255.000000	100.082357 
1254.000000	100.081509 
1253.000000	100.081659 
1252.000000	100.081550 
1251.000000	100.080880 
1250.000000	100.081089 
1249.000000	100.083443 
1248.000000	100.087304 
1247.000000	100.090964 
1246.000000	100.093115 
1245.000000	100.092459 
1244.000000	100.087420 
1243.000000	100.078539 
1242.000000	100.070628 
1241.000000	100.069662 
1240.000000	100.076706 
1239.000000	100.086322 
1238.000000	100.091838 
1237.000000	100.091177 
1236.000000	100.086616 
1235.000000	100.080915 
1234.000000	100.075308 
1233.000000	100.070118 
1232.000000	100.065105 
1231.000000	100.059267 
1230.000000	100.052092 
1229.000000	100.045304 
1228.000000	100.041910 
1227.000000	100.042863 
1226.000000	100.045644 
1225.000000	100.046875 
1224.000000	100.045603 
1223.000000	100.043272 
1222.000000	100.041155 
1221.000000	100.038909 
1220.000000	100.035653 
1219.000000	100.031552 
1218.000000	100.027746 
1217.000000	100.024829 
1216.000000	100.021759 
1215.000000	100.016487 
1214.000000	100.007555 
1213.000000	99.994988  
1212.000000	99.979995  
1211.000000	99.964461  
1210.000000	99.950715  
1209.000000	99.940773  
1208.000000	99.934725  
1207.000000	99.929896  
1206.000000	99.922595  
1205.000000	99.911281  
1204.000000	99.897678  
1203.000000	99.884666  
1202.000000	99.873569  
1201.000000	99.863607  
1200.000000	99.853261  
1199.000000	99.841571  
1198.000000	99.828628  
1197.000000	99.815250  
1196.000000	99.801844  
1195.000000	99.787535  
1194.000000	99.771137  
1193.000000	99.753137  
1192.000000	99.735737  
1191.000000	99.720233  
1190.000000	99.705218  
1189.000000	99.688515  
1188.000000	99.670188  
1187.000000	99.652277  
1186.000000	99.635971  
1185.000000	99.620439  
1184.000000	99.604385  
1183.000000	99.587297  
1182.000000	99.568997  
1181.000000	99.549323  
1180.000000	99.528608  
1179.000000	99.507490  
1178.000000	99.486101  
1177.000000	99.464399  
1176.000000	99.443046  
1175.000000	99.422393  
1174.000000	99.400583  
1173.000000	99.374740  
1172.000000	99.344917  
1171.000000	99.315233  
1170.000000	99.289878  
1169.000000	99.269050  
1168.000000	99.249785  
1167.000000	99.229825  
1166.000000	99.209885  
1165.000000	99.193023  
1164.000000	99.182795  
1163.000000	99.181258  
1162.000000	99.187581  
1161.000000	99.198647  
1160.000000	99.211148  
1159.000000	99.222319  
1158.000000	99.228854  
1157.000000	99.226886  
1156.000000	99.214364  
1155.000000	99.193240  
1154.000000	99.168786  
1153.000000	99.146356  
1152.000000	99.128196  
1151.000000	99.112440  
1150.000000	99.095098  
1149.000000	99.074044  
1148.000000	99.051403  
1147.000000	99.031244  
1146.000000	99.014804  
1145.000000	98.999159  
1144.000000	98.980758  
1143.000000	98.958918  
1142.000000	98.935660  
1141.000000	98.913676  
1140.000000	98.894984  
1139.000000	98.879918  
1138.000000	98.866252  
1137.000000	98.850449  
1136.000000	98.830781  
1135.000000	98.808499  
1134.000000	98.785440  
1133.000000	98.761674  
1132.000000	98.736475  
1131.000000	98.710563  
1130.000000	98.686050  
1129.000000	98.664354  
1128.000000	98.644732  
1127.000000	98.624629  
1126.000000	98.601490  
1125.000000	98.575147  
1124.000000	98.548555  
1123.000000	98.525124  
1122.000000	98.505025  
1121.000000	98.485103  
1120.000000	98.462570  
1119.000000	98.437517  
1118.000000	98.411676  
1117.000000	98.386303  
1116.000000	98.361874  
1115.000000	98.338458  
1114.000000	98.315606  
1113.000000	98.292831  
1112.000000	98.270444  
1111.000000	98.248670  
1110.000000	98.225896  
1109.000000	98.199564  
1108.000000	98.169537  
1107.000000	98.138984  
1106.000000	98.111006  
1105.000000	98.085804  
1104.000000	98.061630  
1103.000000	98.037242  
1102.000000	98.012831  
1101.000000	97.989141  
1100.000000	97.966464  
1099.000000	97.944370  
1098.000000	97.921883  
1097.000000	97.898686  
1096.000000	97.875629  
1095.000000	97.853433  
1094.000000	97.831000  
1093.000000	97.805990  
1092.000000	97.777022  
1091.000000	97.744619  
1090.000000	97.710447  
1089.000000	97.676558  
1088.000000	97.644945  
1087.000000	97.616309  
1086.000000	97.589049  
1085.000000	97.560830  
1084.000000	97.531442  
1083.000000	97.502719  
1082.000000	97.475416  
1081.000000	97.447881  
1080.000000	97.418510  
1079.000000	97.387877  
1078.000000	97.357673  
1077.000000	97.329245  
1076.000000	97.304151  
1075.000000	97.284296  
1074.000000	97.269903  
1073.000000	97.258261  
1072.000000	97.244936  
1071.000000	97.224775  
1070.000000	97.192323  
1069.000000	97.145073  
1068.000000	97.088453  
1067.000000	97.035224  
1066.000000	96.996377  
1065.000000	96.972980  
1064.000000	96.957696  
1063.000000	96.941641  
1062.000000	96.918191  
1061.000000	96.883169  
1060.000000	96.836066  
1059.000000	96.782157  
1058.000000	96.730865  
1057.000000	96.689836  
1056.000000	96.660107  
1055.000000	96.636207  
1054.000000	96.610497  
1053.000000	96.578707  
1052.000000	96.542432  
1051.000000	96.506206  
1050.000000	96.472334  
1049.000000	96.439470  
1048.000000	96.405724  
1047.000000	96.371337  
1046.000000	96.338258  
1045.000000	96.308267  
1044.000000	96.281069  
1043.000000	96.253471  
1042.000000	96.221951  
1041.000000	96.187474  
1040.000000	96.155890  
1039.000000	96.131814  
1038.000000	96.114347  
1037.000000	96.100934  
1036.000000	96.092306  
1035.000000	96.089734  
1034.000000	96.089860  
1033.000000	96.086840  
1032.000000	96.078055  
1031.000000	96.063750  
1030.000000	96.043849  
1029.000000	96.020951  
1028.000000	96.004457  
1027.000000	96.004132  
1026.000000	96.018550  
1025.000000	96.035320  
1024.000000	96.043881  
1023.000000	96.043299  
1022.000000	96.037443  
1021.000000	96.028905  
1020.000000	96.019543  
1019.000000	96.011655  
1018.000000	96.005630  
1017.000000	95.999809  
1016.000000	95.994307  
1015.000000	95.991570  
1014.000000	95.991935  
1013.000000	95.992217  
1012.000000	95.989972  
1011.000000	95.985910  
1010.000000	95.981296  
1009.000000	95.976561  
1008.000000	95.973391  
1007.000000	95.974601  
1006.000000	95.980681  
1005.000000	95.989275  
1004.000000	95.998567  
1003.000000	96.008372  
1002.000000	96.017923  
1001.000000	96.025948  
1000.000000	96.032866  
999.000000	 96.039568  
998.000000	 96.044516  
997.000000	 96.046123  
996.000000	 96.047674  
995.000000	 96.055176  
994.000000	 96.069812  
993.000000	 96.086722  
992.000000	 96.101672  
991.000000	 96.114556  
990.000000	 96.125677  
989.000000	 96.133514  
988.000000	 96.138255  
987.000000	 96.143877  
986.000000	 96.154659  
985.000000	 96.171933  
984.000000	 96.194637  
983.000000	 96.220115  
982.000000	 96.244471  
981.000000	 96.265426  
980.000000	 96.285384  
979.000000	 96.309195  
978.000000	 96.339072  
977.000000	 96.374012  
976.000000	 96.412669  
975.000000	 96.453054  
974.000000	 96.491006  
973.000000	 96.524113  
972.000000	 96.556641  
971.000000	 96.595476  
970.000000	 96.641138  
969.000000	 96.687415  
968.000000	 96.729977  
967.000000	 96.770540  
966.000000	 96.812025  
965.000000	 96.854571  
964.000000	 96.897444  
963.000000	 96.940588  
962.000000	 96.983005  
961.000000	 97.023198  
960.000000	 97.061983  
959.000000	 97.101356  
958.000000	 97.140259  
957.000000	 97.175362  
956.000000	 97.206617  
955.000000	 97.238141  
954.000000	 97.272687  
953.000000	 97.308664  
952.000000	 97.343285  
951.000000	 97.375146  
950.000000	 97.403105  
949.000000	 97.426332  
948.000000	 97.446349  
947.000000	 97.465768  
946.000000	 97.484237  
945.000000	 97.499027  
944.000000	 97.510390  
943.000000	 97.523027  
942.000000	 97.541150  
941.000000	 97.564518  
940.000000	 97.589586  
939.000000	 97.611837  
938.000000	 97.627469  
937.000000	 97.636529  
936.000000	 97.644655  
935.000000	 97.658220  
934.000000	 97.677385  
933.000000	 97.697348  
932.000000	 97.716059  
931.000000	 97.736134  
930.000000	 97.758628  
929.000000	 97.779646  
928.000000	 97.794989  
927.000000	 97.804836  
926.000000	 97.812528  
925.000000	 97.821716  
924.000000	 97.835547  
923.000000	 97.855151  
922.000000	 97.877343  
921.000000	 97.896532  
920.000000	 97.910075  
919.000000	 97.919569  
918.000000	 97.926937  
917.000000	 97.932441  
916.000000	 97.936880  
915.000000	 97.942185  
914.000000	 97.948743  
913.000000	 97.955091  
912.000000	 97.961194  
911.000000	 97.969596  
910.000000	 97.982953  
909.000000	 98.002825  
908.000000	 98.030134  
907.000000	 98.063270  
906.000000	 98.096349  
905.000000	 98.123901  
904.000000	 98.147605  
903.000000	 98.174449  
902.000000	 98.208338  
901.000000	 98.247236  
900.000000	 98.287840  
899.000000	 98.328238  
898.000000	 98.365932  
897.000000	 98.398630  
896.000000	 98.427955  
895.000000	 98.458132  
894.000000	 98.490295  
893.000000	 98.522287  
892.000000	 98.554362  
891.000000	 98.589974  
890.000000	 98.629723  
889.000000	 98.669390  
888.000000	 98.705773  
887.000000	 98.740139  
886.000000	 98.774152  
885.000000	 98.806585  
884.000000	 98.836074  
883.000000	 98.863195  
882.000000	 98.887754  
881.000000	 98.908125  
880.000000	 98.925833  
879.000000	 98.947024  
878.000000	 98.976218  
877.000000	 99.011344  
876.000000	 99.046974  
875.000000	 99.079207  
874.000000	 99.105828  
873.000000	 99.126126  
872.000000	 99.143530  
871.000000	 99.164979  
870.000000	 99.194709  
869.000000	 99.231242  
868.000000	 99.271919  
867.000000	 99.316167  
866.000000	 99.361890  
865.000000	 99.403476  
864.000000	 99.437799  
863.000000	 99.469130  
862.000000	 99.503362  
861.000000	 99.538992  
860.000000	 99.568771  
859.000000	 99.589881  
858.000000	 99.607856  
857.000000	 99.629518  
856.000000	 99.655907  
855.000000	 99.684155  
854.000000	 99.712977  
853.000000	 99.742874  
852.000000	 99.772219  
851.000000	 99.797096  
850.000000	 99.816350  
849.000000	 99.834305  
848.000000	 99.856163  
847.000000	 99.881519  
846.000000	 99.904624  
845.000000	 99.920881  
844.000000	 99.930871  
843.000000	 99.938057  
842.000000	 99.945204  
841.000000	 99.953493  
840.000000	 99.961924  
839.000000	 99.966154  
838.000000	 99.961147  
837.000000	 99.947441  
836.000000	 99.932384  
835.000000	 99.922658  
834.000000	 99.917832  
833.000000	 99.914043  
832.000000	 99.910933  
831.000000	 99.910302  
830.000000	 99.910202  
829.000000	 99.906796  
828.000000	 99.902451  
827.000000	 99.905813  
826.000000	 99.921131  
825.000000	 99.941759  
824.000000	 99.957256  
823.000000	 99.964059  
822.000000	 99.967073  
821.000000	 99.973096  
820.000000	 99.984403  
819.000000	 99.997521  
818.000000	 100.007370 
817.000000	 100.012642 
816.000000	 100.015562 
815.000000	 100.015778 
814.000000	 100.008042 
813.000000	 99.988662  
812.000000	 99.960416  
811.000000	 99.926473  
810.000000	 99.882234  
809.000000	 99.819369  
808.000000	 99.736832  
807.000000	 99.642005  
806.000000	 99.541051  
805.000000	 99.434728  
804.000000	 99.325554  
803.000000	 99.222499  
802.000000	 99.134368  
801.000000	 99.062509  
800.000000	 99.003385  
799.000000	 98.955284  
798.000000	 98.920171  
797.000000	 98.901324  
796.000000	 98.900241  
795.000000	 98.913345  
794.000000	 98.931748  
793.000000	 98.947598  
792.000000	 98.960519  
791.000000	 98.974723  
790.000000	 98.991129  
789.000000	 99.006057  
788.000000	 99.015603  
787.000000	 99.016328  
786.000000	 99.003465  
785.000000	 98.974663  
784.000000	 98.935316  
783.000000	 98.894870  
782.000000	 98.857911  
781.000000	 98.823675  
780.000000	 98.793124  
779.000000	 98.769930  
778.000000	 98.754593  
777.000000	 98.744585  
776.000000	 98.741320  
775.000000	 98.750364  
774.000000	 98.772995  
773.000000	 98.803238  
772.000000	 98.834934  
771.000000	 98.866818  
770.000000	 98.899594  
769.000000	 98.932706  
768.000000	 98.964714  
767.000000	 98.992856  
766.000000	 99.012896  
765.000000	 99.024210  
764.000000	 99.033783  
763.000000	 99.049128  
762.000000	 99.067586  
761.000000	 99.079016  
760.000000	 99.079339  
759.000000	 99.075385  
758.000000	 99.076058  
757.000000	 99.084457  
756.000000	 99.098595  
755.000000	 99.113524  
754.000000	 99.122897  
753.000000	 99.125505  
752.000000	 99.130673  
751.000000	 99.150199  
750.000000	 99.183660  
749.000000	 99.217626  
748.000000	 99.240871  
747.000000	 99.254659  
746.000000	 99.266829  
745.000000	 99.282327  
744.000000	 99.301980  
743.000000	 99.324793  
742.000000	 99.348490  
741.000000	 99.371906  
740.000000	 99.398283  
739.000000	 99.431885  
738.000000	 99.470501  
737.000000	 99.505708  
736.000000	 99.531225  
735.000000	 99.547023  
734.000000	 99.556467  
733.000000	 99.565034  
732.000000	 99.580757  
731.000000	 99.608311  
730.000000	 99.641274  
729.000000	 99.667150  
728.000000	 99.681266  
727.000000	 99.689579  
726.000000	 99.697697  
725.000000	 99.704439  
724.000000	 99.708123  
723.000000	 99.711287  
722.000000	 99.716394  
721.000000	 99.723838  
720.000000	 99.736745  
719.000000	 99.760269  
718.000000	 99.792754  
717.000000	 99.824485  
716.000000	 99.847981  
715.000000	 99.863261  
714.000000	 99.872405  
713.000000	 99.876965  
712.000000	 99.883031  
711.000000	 99.899606  
710.000000	 99.926374  
709.000000	 99.950679  
708.000000	 99.961756  
707.000000	 99.961082  
706.000000	 99.955001  
705.000000	 99.944323  
704.000000	 99.927410  
703.000000	 99.907657  
702.000000	 99.890234  
701.000000	 99.874213  
700.000000	 99.853218  
699.000000	 99.821398  
698.000000	 99.777567  
697.000000	 99.727771  
696.000000	 99.685198  
695.000000	 99.662253  
694.000000	 99.659944  
693.000000	 99.669729  
692.000000	 99.685730  
691.000000	 99.708214  
690.000000	 99.736089  
689.000000	 99.765361  
688.000000	 99.796272  
687.000000	 99.831232  
686.000000	 99.863132  
685.000000	 99.879074  
684.000000	 99.879193  
683.000000	 99.878683  
682.000000	 99.887875  
681.000000	 99.901953  
680.000000	 99.913530  
679.000000	 99.922368  
678.000000	 99.928245  
677.000000	 99.928974  
676.000000	 99.930593  
675.000000	 99.944430  
674.000000	 99.968799  
673.000000	 99.985710  
672.000000	 99.983103  
671.000000	 99.969889  
670.000000	 99.963699  
669.000000	 99.976495  
668.000000	 100.007424 
667.000000	 100.039677 
666.000000	 100.063041 
665.000000	 100.081031 
664.000000	 100.095122 
663.000000	 100.110599 
662.000000	 100.130616 
661.000000	 100.146752 
660.000000	 100.147283 
659.000000	 100.133913 
658.000000	 100.120890 
657.000000	 100.117984 
656.000000	 100.122757 
655.000000	 100.129785 
654.000000	 100.137425 
653.000000	 100.143933 
652.000000	 100.146729 
651.000000	 100.148554 
650.000000	 100.155271 

