4000.000000	100.367377 
3999.000000	100.367335 
3998.000000	100.366987 
3997.000000	100.366627 
3996.000000	100.366342 
3995.000000	100.366056 
3994.000000	100.365760 
3993.000000	100.365601 
3992.000000	100.365686 
3991.000000	100.365847 
3990.000000	100.365664 
3989.000000	100.364797 
3988.000000	100.363423 
3987.000000	100.362274 
3986.000000	100.362072 
3985.000000	100.362947 
3984.000000	100.364353 
3983.000000	100.365614 
3982.000000	100.366531 
3981.000000	100.367319 
3980.000000	100.368126 
3979.000000	100.368757 
3978.000000	100.368876 
3977.000000	100.368385 
3976.000000	100.367556 
3975.000000	100.366781 
3974.000000	100.366187 
3973.000000	100.365565 
3972.000000	100.364751 
3971.000000	100.363980 
3970.000000	100.363762 
3969.000000	100.364372 
3968.000000	100.365553 
3967.000000	100.366675 
3966.000000	100.367154 
3965.000000	100.366774 
3964.000000	100.365750 
3963.000000	100.364627 
3962.000000	100.363904 
3961.000000	100.363608 
3960.000000	100.363355 
3959.000000	100.362811 
3958.000000	100.362065 
3957.000000	100.361508 
3956.000000	100.361393 
3955.000000	100.361620 
3954.000000	100.361846 
3953.000000	100.361803 
3952.000000	100.361495 
3951.000000	100.361132 
3950.000000	100.360900 
3949.000000	100.360773 
3948.000000	100.360590 
3947.000000	100.360302 
3946.000000	100.360038 
3945.000000	100.359923 
3944.000000	100.359899 
3943.000000	100.359761 
3942.000000	100.359312 
3941.000000	100.358555 
3940.000000	100.357756 
3939.000000	100.357232 
3938.000000	100.357073 
3937.000000	100.357085 
3936.000000	100.356991 
3935.000000	100.356744 
3934.000000	100.356546 
3933.000000	100.356651 
3932.000000	100.357178 
3931.000000	100.358121 
3930.000000	100.359359 
3929.000000	100.360470 
3928.000000	100.360779 
3927.000000	100.359864 
3926.000000	100.358163 
3925.000000	100.356890 
3924.000000	100.356907 
3923.000000	100.358002 
3922.000000	100.359335 
3921.000000	100.360196 
3920.000000	100.360325 
3919.000000	100.359837 
3918.000000	100.359058 
3917.000000	100.358267 
3916.000000	100.357508 
3915.000000	100.356749 
3914.000000	100.356140 
3913.000000	100.355817 
3912.000000	100.355537 
3911.000000	100.354817 
3910.000000	100.353681 
3909.000000	100.352950 
3908.000000	100.353553 
3907.000000	100.355825 
3906.000000	100.359299 
3905.000000	100.363176 
3904.000000	100.366627 
3903.000000	100.368851 
3902.000000	100.369443 
3901.000000	100.368661 
3900.000000	100.367047 
3899.000000	100.364833 
3898.000000	100.361901 
3897.000000	100.358522 
3896.000000	100.355696 
3895.000000	100.354415 
3894.000000	100.354989 
3893.000000	100.357075 
3892.000000	100.360169 
3891.000000	100.363729 
3890.000000	100.367037 
3889.000000	100.369489 
3888.000000	100.370608 
3887.000000	100.370090 
3886.000000	100.368219 
3885.000000	100.365912 
3884.000000	100.364176 
3883.000000	100.363545 
3882.000000	100.363655 
3881.000000	100.363575 
3880.000000	100.362714 
3879.000000	100.361532 
3878.000000	100.360945 
3877.000000	100.361047 
3876.000000	100.360939 
3875.000000	100.360295 
3874.000000	100.359977 
3873.000000	100.360613 
3872.000000	100.361584 
3871.000000	100.361983 
3870.000000	100.361829 
3869.000000	100.361619 
3868.000000	100.361765 
3867.000000	100.362559 
3866.000000	100.363837 
3865.000000	100.364802 
3864.000000	100.364699 
3863.000000	100.363679 
3862.000000	100.362601 
3861.000000	100.361588 
3860.000000	100.359933 
3859.000000	100.357391 
3858.000000	100.354882 
3857.000000	100.353783 
3856.000000	100.354776 
3855.000000	100.357326 
3854.000000	100.360797 
3853.000000	100.364114 
3852.000000	100.365833 
3851.000000	100.366208 
3850.000000	100.366503 
3849.000000	100.366911 
3848.000000	100.366826 
3847.000000	100.365734 
3846.000000	100.363921 
3845.000000	100.362187 
3844.000000	100.361179 
3843.000000	100.361073 
3842.000000	100.361678 
3841.000000	100.362606 
3840.000000	100.363723 
3839.000000	100.365156 
3838.000000	100.366781 
3837.000000	100.368105 
3836.000000	100.368492 
3835.000000	100.367549 
3834.000000	100.365444 
3833.000000	100.362899 
3832.000000	100.360774 
3831.000000	100.359374 
3830.000000	100.358289 
3829.000000	100.356854 
3828.000000	100.354783 
3827.000000	100.352716 
3826.000000	100.352023 
3825.000000	100.353572 
3824.000000	100.356907 
3823.000000	100.360218 
3822.000000	100.361964 
3821.000000	100.362451 
3820.000000	100.362563 
3819.000000	100.362598 
3818.000000	100.362338 
3817.000000	100.361300 
3816.000000	100.359376 
3815.000000	100.357063 
3814.000000	100.355076 
3813.000000	100.353697 
3812.000000	100.352460 
3811.000000	100.350635 
3810.000000	100.348203 
3809.000000	100.346151 
3808.000000	100.345747 
3807.000000	100.347168 
3806.000000	100.349117 
3805.000000	100.350166 
3804.000000	100.349939 
3803.000000	100.348636 
3802.000000	100.346909 
3801.000000	100.345361 
3800.000000	100.343973 
3799.000000	100.342874 
3798.000000	100.342224 
3797.000000	100.341716 
3796.000000	100.341014 
3795.000000	100.340358 
3794.000000	100.340510 
3793.000000	100.341769 
3792.000000	100.343294 
3791.000000	100.343758 
3790.000000	100.342761 
3789.000000	100.341229 
3788.000000	100.340432 
3787.000000	100.340986 
3786.000000	100.342847 
3785.000000	100.345714 
3784.000000	100.349086 
3783.000000	100.352132 
3782.000000	100.353955 
3781.000000	100.354014 
3780.000000	100.352535 
3779.000000	100.350263 
3778.000000	100.347804 
3777.000000	100.345382 
3776.000000	100.343232 
3775.000000	100.341867 
3774.000000	100.341877 
3773.000000	100.343399 
3772.000000	100.345804 
3771.000000	100.348086 
3770.000000	100.349701 
3769.000000	100.350883 
3768.000000	100.352167 
3767.000000	100.353680 
3766.000000	100.354796 
3765.000000	100.354834 
3764.000000	100.353946 
3763.000000	100.353147 
3762.000000	100.353431 
3761.000000	100.354816 
3760.000000	100.356431 
3759.000000	100.357468 
3758.000000	100.358167 
3757.000000	100.359292 
3756.000000	100.360871 
3755.000000	100.362312 
3754.000000	100.363417 
3753.000000	100.364644 
3752.000000	100.366194 
3751.000000	100.367487 
3750.000000	100.368009 
3749.000000	100.368394 
3748.000000	100.369318 
3747.000000	100.370185 
3746.000000	100.369609 
3745.000000	100.367152 
3744.000000	100.363323 
3743.000000	100.359208 
3742.000000	100.356406 
3741.000000	100.355608 
3740.000000	100.355903 
3739.000000	100.355742 
3738.000000	100.354463 
3737.000000	100.353341 
3736.000000	100.354245 
3735.000000	100.357121 
3734.000000	100.359743 
3733.000000	100.360375 
3732.000000	100.359143 
3731.000000	100.357005 
3730.000000	100.354717 
3729.000000	100.352530 
3728.000000	100.350375 
3727.000000	100.348487 
3726.000000	100.347537 
3725.000000	100.347904 
3724.000000	100.348880 
3723.000000	100.348919 
3722.000000	100.347107 
3721.000000	100.344080 
3720.000000	100.341433 
3719.000000	100.339997 
3718.000000	100.339196 
3717.000000	100.337959 
3716.000000	100.335585 
3715.000000	100.332047 
3714.000000	100.327779 
3713.000000	100.323546 
3712.000000	100.320528 
3711.000000	100.319432 
3710.000000	100.319592 
3709.000000	100.319559 
3708.000000	100.318300 
3707.000000	100.315646 
3706.000000	100.311873 
3705.000000	100.307336 
3704.000000	100.302496 
3703.000000	100.298140 
3702.000000	100.295249 
3701.000000	100.294044 
3700.000000	100.293475 
3699.000000	100.292030 
3698.000000	100.288874 
3697.000000	100.284446 
3696.000000	100.280118 
3695.000000	100.277236 
3694.000000	100.276288 
3693.000000	100.276568 
3692.000000	100.276741 
3691.000000	100.276148 
3690.000000	100.275485 
3689.000000	100.275166 
3688.000000	100.274178 
3687.000000	100.271890 
3686.000000	100.268907 
3685.000000	100.265914 
3684.000000	100.262965 
3683.000000	100.259588 
3682.000000	100.255555 
3681.000000	100.251810 
3680.000000	100.249707 
3679.000000	100.249131 
3678.000000	100.248126 
3677.000000	100.245369 
3676.000000	100.243576 
3675.000000	100.245910 
3674.000000	100.251311 
3673.000000	100.257109 
3672.000000	100.261594 
3671.000000	100.263214 
3670.000000	100.261659 
3669.000000	100.257909 
3668.000000	100.253221 
3667.000000	100.248627 
3666.000000	100.244344 
3665.000000	100.240415 
3664.000000	100.237546 
3663.000000	100.236533 
3662.000000	100.237454 
3661.000000	100.239806 
3660.000000	100.242999 
3659.000000	100.246681 
3658.000000	100.250372 
3657.000000	100.253716 
3656.000000	100.256885 
3655.000000	100.260543 
3654.000000	100.265704 
3653.000000	100.272462 
3652.000000	100.279150 
3651.000000	100.283246 
3650.000000	100.283856 
3649.000000	100.282334 
3648.000000	100.280484 
3647.000000	100.279364 
3646.000000	100.279224 
3645.000000	100.279876 
3644.000000	100.280860 
3643.000000	100.281509 
3642.000000	100.281427 
3641.000000	100.281132 
3640.000000	100.281953 
3639.000000	100.285210 
3638.000000	100.290990 
3637.000000	100.297642 
3636.000000	100.302744 
3635.000000	100.304920 
3634.000000	100.304844 
3633.000000	100.304416 
3632.000000	100.305040 
3631.000000	100.306682 
3630.000000	100.308353 
3629.000000	100.309424 
3628.000000	100.309373 
3627.000000	100.308309 
3626.000000	100.307452 
3625.000000	100.307383 
3624.000000	100.307586 
3623.000000	100.307437 
3622.000000	100.306800 
3621.000000	100.306013 
3620.000000	100.305777 
3619.000000	100.306821 
3618.000000	100.309317 
3617.000000	100.312704 
3616.000000	100.315859 
3615.000000	100.317602 
3614.000000	100.317549 
3613.000000	100.316402 
3612.000000	100.315248 
3611.000000	100.314758 
3610.000000	100.314947 
3609.000000	100.315445 
3608.000000	100.315871 
3607.000000	100.315950 
3606.000000	100.315699 
3605.000000	100.315381 
3604.000000	100.315108 
3603.000000	100.314757 
3602.000000	100.314383 
3601.000000	100.314515 
3600.000000	100.315682 
3599.000000	100.317742 
3598.000000	100.319863 
3597.000000	100.321170 
3596.000000	100.321267 
3595.000000	100.320487 
3594.000000	100.319693 
3593.000000	100.319814 
3592.000000	100.321472 
3591.000000	100.324583 
3590.000000	100.327998 
3589.000000	100.329983 
3588.000000	100.329649 
3587.000000	100.327558 
3586.000000	100.324940 
3585.000000	100.322751 
3584.000000	100.321246 
3583.000000	100.320156 
3582.000000	100.319082 
3581.000000	100.317888 
3580.000000	100.316688 
3579.000000	100.315567 
3578.000000	100.314447 
3577.000000	100.313293 
3576.000000	100.312384 
3575.000000	100.312179 
3574.000000	100.312944 
3573.000000	100.314533 
3572.000000	100.316468 
3571.000000	100.318089 
3570.000000	100.318681 
3569.000000	100.317819 
3568.000000	100.315912 
3567.000000	100.314228 
3566.000000	100.313737 
3565.000000	100.314292 
3564.000000	100.315076 
3563.000000	100.315322 
3562.000000	100.314817 
3561.000000	100.313899 
3560.000000	100.313086 
3559.000000	100.312611 
3558.000000	100.312349 
3557.000000	100.312098 
3556.000000	100.311822 
3555.000000	100.311600 
3554.000000	100.311470 
3553.000000	100.311382 
3552.000000	100.311234 
3551.000000	100.310960 
3550.000000	100.310582 
3549.000000	100.310221 
3548.000000	100.310017 
3547.000000	100.310016 
3546.000000	100.310131 
3545.000000	100.310226 
3544.000000	100.310224 
3543.000000	100.310123 
3542.000000	100.309969 
3541.000000	100.309814 
3540.000000	100.309686 
3539.000000	100.309582 
3538.000000	100.309487 
3537.000000	100.309384 
3536.000000	100.309261 
3535.000000	100.309118 
3534.000000	100.308964 
3533.000000	100.308803 
3532.000000	100.308634 
3531.000000	100.308458 
3530.000000	100.308277 
3529.000000	100.308097 
3528.000000	100.307921 
3527.000000	100.307750 
3526.000000	100.307583 
3525.000000	100.307416 
3524.000000	100.307241 
3523.000000	100.307052 
3522.000000	100.306852 
3521.000000	100.306643 
3520.000000	100.306431 
3519.000000	100.306215 
3518.000000	100.305996 
3517.000000	100.305771 
3516.000000	100.305538 
3515.000000	100.305292 
3514.000000	100.305034 
3513.000000	100.304763 
3512.000000	100.304481 
3511.000000	100.304191 
3510.000000	100.303898 
3509.000000	100.303605 
3508.000000	100.303315 
3507.000000	100.303022 
3506.000000	100.302721 
3505.000000	100.302404 
3504.000000	100.302075 
3503.000000	100.301740 
3502.000000	100.301411 
3501.000000	100.301095 
3500.000000	100.300787 
3499.000000	100.300474 
3498.000000	100.300144 
3497.000000	100.299794 
3496.000000	100.299430 
3495.000000	100.299067 
3494.000000	100.298713 
3493.000000	100.298370 
3492.000000	100.298036 
3491.000000	100.297707 
3490.000000	100.297384 
3489.000000	100.297069 
3488.000000	100.296763 
3487.000000	100.296462 
3486.000000	100.296163 
3485.000000	100.295864 
3484.000000	100.295564 
3483.000000	100.295268 
3482.000000	100.294978 
3481.000000	100.294694 
3480.000000	100.294416 
3479.000000	100.294144 
3478.000000	100.293879 
3477.000000	100.293622 
3476.000000	100.293373 
3475.000000	100.293132 
3474.000000	100.292899 
3473.000000	100.292679 
3472.000000	100.292476 
3471.000000	100.292289 
3470.000000	100.292119 
3469.000000	100.291971 
3468.000000	100.291840 
3467.000000	100.291706 
3466.000000	100.291538 
3465.000000	100.291314 
3464.000000	100.291047 
3463.000000	100.290792 
3462.000000	100.290603 
3461.000000	100.290442 
3460.000000	100.290159 
3459.000000	100.289610 
3458.000000	100.288831 
3457.000000	100.288074 
3456.000000	100.287617 
3455.000000	100.287595 
3454.000000	100.287918 
3453.000000	100.288415 
3452.000000	100.288912 
3451.000000	100.289203 
3450.000000	100.289219 
3449.000000	100.289129 
3448.000000	100.289128 
3447.000000	100.289135 
3446.000000	100.288879 
3445.000000	100.288330 
3444.000000	100.287830 
3443.000000	100.287719 
3442.000000	100.287981 
3441.000000	100.288310 
3440.000000	100.288460 
3439.000000	100.288420 
3438.000000	100.288281 
3437.000000	100.288075 
3436.000000	100.287791 
3435.000000	100.287481 
3434.000000	100.287270 
3433.000000	100.287250 
3432.000000	100.287392 
3431.000000	100.287542 
3430.000000	100.287528 
3429.000000	100.287272 
3428.000000	100.286825 
3427.000000	100.286308 
3426.000000	100.285842 
3425.000000	100.285510 
3424.000000	100.285340 
3423.000000	100.285301 
3422.000000	100.285310 
3421.000000	100.285265 
3420.000000	100.285104 
3419.000000	100.284848 
3418.000000	100.284606 
3417.000000	100.284490 
3416.000000	100.284511 
3415.000000	100.284567 
3414.000000	100.284541 
3413.000000	100.284398 
3412.000000	100.284180 
3411.000000	100.283976 
3410.000000	100.283877 
3409.000000	100.283934 
3408.000000	100.284117 
3407.000000	100.284290 
3406.000000	100.284276 
3405.000000	100.283998 
3404.000000	100.283574 
3403.000000	100.283258 
3402.000000	100.283216 
3401.000000	100.283399 
3400.000000	100.283595 
3399.000000	100.283652 
3398.000000	100.283621 
3397.000000	100.283683 
3396.000000	100.283930 
3395.000000	100.284278 
3394.000000	100.284607 
3393.000000	100.284921 
3392.000000	100.285259 
3391.000000	100.285482 
3390.000000	100.285329 
3389.000000	100.284734 
3388.000000	100.283977 
3387.000000	100.283440 
3386.000000	100.283240 
3385.000000	100.283157 
3384.000000	100.282898 
3383.000000	100.282424 
3382.000000	100.282006 
3381.000000	100.281957 
3380.000000	100.282268 
3379.000000	100.282541 
3378.000000	100.282410 
3377.000000	100.282056 
3376.000000	100.282144 
3375.000000	100.283185 
3374.000000	100.285048 
3373.000000	100.287047 
3372.000000	100.288449 
3371.000000	100.288857 
3370.000000	100.288311 
3369.000000	100.287286 
3368.000000	100.286466 
3367.000000	100.286234 
3366.000000	100.286348 
3365.000000	100.286264 
3364.000000	100.285778 
3363.000000	100.285171 
3362.000000	100.284713 
3361.000000	100.284263 
3360.000000	100.283522 
3359.000000	100.282542 
3358.000000	100.281816 
3357.000000	100.281830 
3356.000000	100.282620 
3355.000000	100.283721 
3354.000000	100.284525 
3353.000000	100.284776 
3352.000000	100.284725 
3351.000000	100.284834 
3350.000000	100.285351 
3349.000000	100.286163 
3348.000000	100.286962 
3347.000000	100.287470 
3346.000000	100.287547 
3345.000000	100.287227 
3344.000000	100.286689 
3343.000000	100.286144 
3342.000000	100.285697 
3341.000000	100.285377 
3340.000000	100.285277 
3339.000000	100.285504 
3338.000000	100.285944 
3337.000000	100.286218 
3336.000000	100.286041 
3335.000000	100.285571 
3334.000000	100.285295 
3333.000000	100.285540 
3332.000000	100.286205 
3331.000000	100.286903 
3330.000000	100.287337 
3329.000000	100.287508 
3328.000000	100.287631 
3327.000000	100.287891 
3326.000000	100.288250 
3325.000000	100.288487 
3324.000000	100.288490 
3323.000000	100.288453 
3322.000000	100.288692 
3321.000000	100.289230 
3320.000000	100.289687 
3319.000000	100.289669 
3318.000000	100.289180 
3317.000000	100.288620 
3316.000000	100.288396 
3315.000000	100.288594 
3314.000000	100.289034 
3313.000000	100.289502 
3312.000000	100.289937 
3311.000000	100.290444 
3310.000000	100.291144 
3309.000000	100.291994 
3308.000000	100.292737 
3307.000000	100.293105 
3306.000000	100.293055 
3305.000000	100.292730 
3304.000000	100.292237 
3303.000000	100.291594 
3302.000000	100.290919 
3301.000000	100.290490 
3300.000000	100.290528 
3299.000000	100.290980 
3298.000000	100.291544 
3297.000000	100.291894 
3296.000000	100.291914 
3295.000000	100.291713 
3294.000000	100.291515 
3293.000000	100.291505 
3292.000000	100.291710 
3291.000000	100.291993 
3290.000000	100.292181 
3289.000000	100.292184 
3288.000000	100.292019 
3287.000000	100.291773 
3286.000000	100.291569 
3285.000000	100.291501 
3284.000000	100.291569 
3283.000000	100.291675 
3282.000000	100.291726 
3281.000000	100.291713 
3280.000000	100.291657 
3279.000000	100.291559 
3278.000000	100.291419 
3277.000000	100.291307 
3276.000000	100.291322 
3275.000000	100.291489 
3274.000000	100.291733 
3273.000000	100.291943 
3272.000000	100.292031 
3271.000000	100.291939 
3270.000000	100.291664 
3269.000000	100.291308 
3268.000000	100.291068 
3267.000000	100.291107 
3266.000000	100.291441 
3265.000000	100.291946 
3264.000000	100.292447 
3263.000000	100.292817 
3262.000000	100.293053 
3261.000000	100.293260 
3260.000000	100.293517 
3259.000000	100.293703 
3258.000000	100.293587 
3257.000000	100.293091 
3256.000000	100.292426 
3255.000000	100.291939 
3254.000000	100.291839 
3253.000000	100.292104 
3252.000000	100.292546 
3251.000000	100.292923 
3250.000000	100.293065 
3249.000000	100.292972 
3248.000000	100.292821 
3247.000000	100.292781 
3246.000000	100.292810 
3245.000000	100.292719 
3244.000000	100.292481 
3243.000000	100.292400 
3242.000000	100.292872 
3241.000000	100.293990 
3240.000000	100.295361 
3239.000000	100.296319 
3238.000000	100.296447 
3237.000000	100.295868 
3236.000000	100.295129 
3235.000000	100.294689 
3234.000000	100.294581 
3233.000000	100.294646 
3232.000000	100.294921 
3231.000000	100.295592 
3230.000000	100.296574 
3229.000000	100.297337 
3228.000000	100.297308 
3227.000000	100.296334 
3226.000000	100.294708 
3225.000000	100.292891 
3224.000000	100.291336 
3223.000000	100.290428 
3222.000000	100.290387 
3221.000000	100.291153 
3220.000000	100.292395 
3219.000000	100.293654 
3218.000000	100.294479 
3217.000000	100.294554 
3216.000000	100.293891 
3215.000000	100.292960 
3214.000000	100.292448 
3213.000000	100.292771 
3212.000000	100.293831 
3211.000000	100.295205 
3210.000000	100.296585 
3209.000000	100.297947 
3208.000000	100.299282 
3207.000000	100.300312 
3206.000000	100.300642 
3205.000000	100.300232 
3204.000000	100.299594 
3203.000000	100.299381 
3202.000000	100.299848 
3201.000000	100.300874 
3200.000000	100.302377 
3199.000000	100.304315 
3198.000000	100.306199 
3197.000000	100.307130 
3196.000000	100.306675 
3195.000000	100.305469 
3194.000000	100.304514 
3193.000000	100.303928 
3192.000000	100.302987 
3191.000000	100.301403 
3190.000000	100.299995 
3189.000000	100.299812 
3188.000000	100.300943 
3187.000000	100.302476 
3186.000000	100.303451 
3185.000000	100.303565 
3184.000000	100.303075 
3183.000000	100.302397 
3182.000000	100.301881 
3181.000000	100.301691 
3180.000000	100.301727 
3179.000000	100.301687 
3178.000000	100.301314 
3177.000000	100.300512 
3176.000000	100.299297 
3175.000000	100.297871 
3174.000000	100.296813 
3173.000000	100.296889 
3172.000000	100.298366 
3171.000000	100.300533 
3170.000000	100.302104 
3169.000000	100.302391 
3168.000000	100.301918 
3167.000000	100.301837 
3166.000000	100.302793 
3165.000000	100.304478 
3164.000000	100.306105 
3163.000000	100.307157 
3162.000000	100.307650 
3161.000000	100.307878 
3160.000000	100.308113 
3159.000000	100.308511 
3158.000000	100.309089 
3157.000000	100.309675 
3156.000000	100.309927 
3155.000000	100.309570 
3154.000000	100.308686 
3153.000000	100.307761 
3152.000000	100.307338 
3151.000000	100.307526 
3150.000000	100.307915 
3149.000000	100.308016 
3148.000000	100.307813 
3147.000000	100.307767 
3146.000000	100.308228 
3145.000000	100.308969 
3144.000000	100.309433 
3143.000000	100.309410 
3142.000000	100.309287 
3141.000000	100.309567 
3140.000000	100.310258 
3139.000000	100.310867 
3138.000000	100.310976 
3137.000000	100.310658 
3136.000000	100.310316 
3135.000000	100.310224 
3134.000000	100.310304 
3133.000000	100.310336 
3132.000000	100.310232 
3131.000000	100.310070 
3130.000000	100.309915 
3129.000000	100.309716 
3128.000000	100.309400 
3127.000000	100.309046 
3126.000000	100.308892 
3125.000000	100.309108 
3124.000000	100.309629 
3123.000000	100.310178 
3122.000000	100.310477 
3121.000000	100.310478 
3120.000000	100.310375 
3119.000000	100.310424 
3118.000000	100.310681 
3117.000000	100.310931 
3116.000000	100.310926 
3115.000000	100.310672 
3114.000000	100.310404 
3113.000000	100.310280 
3112.000000	100.310195 
3111.000000	100.309996 
3110.000000	100.309765 
3109.000000	100.309734 
3108.000000	100.309908 
3107.000000	100.309985 
3106.000000	100.309717 
3105.000000	100.309217 
3104.000000	100.308823 
3103.000000	100.308772 
3102.000000	100.309106 
3101.000000	100.309760 
3100.000000	100.310544 
3099.000000	100.311121 
3098.000000	100.311224 
3097.000000	100.310903 
3096.000000	100.310504 
3095.000000	100.310381 
3094.000000	100.310629 
3093.000000	100.311113 
3092.000000	100.311616 
3091.000000	100.311935 
3090.000000	100.311915 
3089.000000	100.311551 
3088.000000	100.311111 
3087.000000	100.311017 
3086.000000	100.311475 
3085.000000	100.312215 
3084.000000	100.312710 
3083.000000	100.312670 
3082.000000	100.312315 
3081.000000	100.312124 
3080.000000	100.312282 
3079.000000	100.312425 
3078.000000	100.311915 
3077.000000	100.310329 
3076.000000	100.307799 
3075.000000	100.305115 
3074.000000	100.303403 
3073.000000	100.303393 
3072.000000	100.304859 
3071.000000	100.306927 
3070.000000	100.308908 
3069.000000	100.310385 
3068.000000	100.310509 
3067.000000	100.308125 
3066.000000	100.303269 
3065.000000	100.298031 
3064.000000	100.294976 
3063.000000	100.294763 
3062.000000	100.295925 
3061.000000	100.296752 
3060.000000	100.296848 
3059.000000	100.296979 
3058.000000	100.298059 
3057.000000	100.300391 
3056.000000	100.303388 
3055.000000	100.305951 
3054.000000	100.307368 
3053.000000	100.307697 
3052.000000	100.307140 
3051.000000	100.305544 
3050.000000	100.302979 
3049.000000	100.300236 
3048.000000	100.297865 
3047.000000	100.295066 
3046.000000	100.290658 
3045.000000	100.285186 
3044.000000	100.281087 
3043.000000	100.280304 
3042.000000	100.282251 
3041.000000	100.284348 
3040.000000	100.284168 
3039.000000	100.281017 
3038.000000	100.276109 
3037.000000	100.271577 
3036.000000	100.268819 
3035.000000	100.267388 
3034.000000	100.265690 
3033.000000	100.262691 
3032.000000	100.258521 
3031.000000	100.253584 
3030.000000	100.247756 
3029.000000	100.240675 
3028.000000	100.232515 
3027.000000	100.224175 
3026.000000	100.216765 
3025.000000	100.210826 
3024.000000	100.205694 
3023.000000	100.199647 
3022.000000	100.191202 
3021.000000	100.180468 
3020.000000	100.169079 
3019.000000	100.158845 
3018.000000	100.150746 
3017.000000	100.144882 
3016.000000	100.140497 
3015.000000	100.135908 
3014.000000	100.129237 
3013.000000	100.119678 
3012.000000	100.107678 
3011.000000	100.093870 
3010.000000	100.078604 
3009.000000	100.062916 
3008.000000	100.049074 
3007.000000	100.039194 
3006.000000	100.033375 
3005.000000	100.029508 
3004.000000	100.024643 
3003.000000	100.016450 
3002.000000	100.004193 
3001.000000	99.989380  
3000.000000	99.975262  
2999.000000	99.964591  
2998.000000	99.957552  
2997.000000	99.952360  
2996.000000	99.947717  
2995.000000	99.943603  
2994.000000	99.939135  
2993.000000	99.930959  
2992.000000	99.915627  
2991.000000	99.893987  
2990.000000	99.872191  
2989.000000	99.857178  
2988.000000	99.851335  
2987.000000	99.851859  
2986.000000	99.854543  
2985.000000	99.857615  
2984.000000	99.861690  
2983.000000	99.866969  
2982.000000	99.871695  
2981.000000	99.873536  
2980.000000	99.871909  
2979.000000	99.868488  
2978.000000	99.865526  
2977.000000	99.863953  
2976.000000	99.863006  
2975.000000	99.861378  
2974.000000	99.858520  
2973.000000	99.854919  
2972.000000	99.851481  
2971.000000	99.848914  
2970.000000	99.847624  
2969.000000	99.847861  
2968.000000	99.849740  
2967.000000	99.853183  
2966.000000	99.857910  
2965.000000	99.863473  
2964.000000	99.869367  
2963.000000	99.875297  
2962.000000	99.881273  
2961.000000	99.887184  
2960.000000	99.892379  
2959.000000	99.896225  
2958.000000	99.899247  
2957.000000	99.903013  
2956.000000	99.908197  
2955.000000	99.913159  
2954.000000	99.915481  
2953.000000	99.915272  
2952.000000	99.916182  
2951.000000	99.922276  
2950.000000	99.933708  
2949.000000	99.945875  
2948.000000	99.953240  
2947.000000	99.953832  
2946.000000	99.950143  
2945.000000	99.946277  
2944.000000	99.944332  
2943.000000	99.943421  
2942.000000	99.941504  
2941.000000	99.937353  
2940.000000	99.930971  
2939.000000	99.923158  
2938.000000	99.915056  
2937.000000	99.907706  
2936.000000	99.901721  
2935.000000	99.897442  
2934.000000	99.895132  
2933.000000	99.894393  
2932.000000	99.893402  
2931.000000	99.889665  
2930.000000	99.882153  
2929.000000	99.872340  
2928.000000	99.862754  
2927.000000	99.854905  
2926.000000	99.849024  
2925.000000	99.845113  
2924.000000	99.843408  
2923.000000	99.844085  
2922.000000	99.847142  
2921.000000	99.852382  
2920.000000	99.858991  
2919.000000	99.865420  
2918.000000	99.870381  
2917.000000	99.873836  
2916.000000	99.876572  
2915.000000	99.879137  
2914.000000	99.881803  
2913.000000	99.885183  
2912.000000	99.889816  
2911.000000	99.895051  
2910.000000	99.899183  
2909.000000	99.901108  
2908.000000	99.901378  
2907.000000	99.901321  
2906.000000	99.901401  
2905.000000	99.900672  
2904.000000	99.897691  
2903.000000	99.892238  
2902.000000	99.886388  
2901.000000	99.883980  
2900.000000	99.887991  
2899.000000	99.898074  
2898.000000	99.910665  
2897.000000	99.921643  
2896.000000	99.929287  
2895.000000	99.934649  
2894.000000	99.939627  
2893.000000	99.944984  
2892.000000	99.950039  
2891.000000	99.953896  
2890.000000	99.956722  
2889.000000	99.959693  
2888.000000	99.963704  
2887.000000	99.968459  
2886.000000	99.973057  
2885.000000	99.977178  
2884.000000	99.981281  
2883.000000	99.985817  
2882.000000	99.990732  
2881.000000	99.995824  
2880.000000	100.001218 
2879.000000	100.007317 
2878.000000	100.014470 
2877.000000	100.022606 
2876.000000	100.030882 
2875.000000	100.037739 
2874.000000	100.041776 
2873.000000	100.042914 
2872.000000	100.042722 
2871.000000	100.043456 
2870.000000	100.046607 
2869.000000	100.052214 
2868.000000	100.059182 
2867.000000	100.066204 
2866.000000	100.072729 
2865.000000	100.079177 
2864.000000	100.085984 
2863.000000	100.092422 
2862.000000	100.096775 
2861.000000	100.097949 
2860.000000	100.096749 
2859.000000	100.095387 
2858.000000	100.095755 
2857.000000	100.098318 
2856.000000	100.102364 
2855.000000	100.107073 
2854.000000	100.112317 
2853.000000	100.118494 
2852.000000	100.125810 
2851.000000	100.133934 
2850.000000	100.142418 
2849.000000	100.151225 
2848.000000	100.160526 
2847.000000	100.170059 
2846.000000	100.179009 
2845.000000	100.186504 
2844.000000	100.192068 
2843.000000	100.195847 
2842.000000	100.198871 
2841.000000	100.202890 
2840.000000	100.209106 
2839.000000	100.216747 
2838.000000	100.223406 
2837.000000	100.227156 
2836.000000	100.228105 
2835.000000	100.228023 
2834.000000	100.228912 
2833.000000	100.231969 
2832.000000	100.237135 
2831.000000	100.243064 
2830.000000	100.247916 
2829.000000	100.250809 
2828.000000	100.252501 
2827.000000	100.254449 
2826.000000	100.257269 
2825.000000	100.260253 
2824.000000	100.262307 
2823.000000	100.263153 
2822.000000	100.263690 
2821.000000	100.265210 
2820.000000	100.268128 
2819.000000	100.271590 
2818.000000	100.274560 
2817.000000	100.277016 
2816.000000	100.279517 
2815.000000	100.281872 
2814.000000	100.283173 
2813.000000	100.283256 
2812.000000	100.283169 
2811.000000	100.283713 
2810.000000	100.284298 
2809.000000	100.284000 
2808.000000	100.283188 
2807.000000	100.283252 
2806.000000	100.284877 
2805.000000	100.287344 
2804.000000	100.289536 
2803.000000	100.291020 
2802.000000	100.291975 
2801.000000	100.292520 
2800.000000	100.292471 
2799.000000	100.291713 
2798.000000	100.290648 
2797.000000	100.290128 
2796.000000	100.290702 
2795.000000	100.291968 
2794.000000	100.292895 
2793.000000	100.292833 
2792.000000	100.291988 
2791.000000	100.290983 
2790.000000	100.290350 
2789.000000	100.290511 
2788.000000	100.291731 
2787.000000	100.293753 
2786.000000	100.295760 
2785.000000	100.297106 
2784.000000	100.297915 
2783.000000	100.298635 
2782.000000	100.299252 
2781.000000	100.299341 
2780.000000	100.298798 
2779.000000	100.298155 
2778.000000	100.298069 
2777.000000	100.298724 
2776.000000	100.299780 
2775.000000	100.300696 
2774.000000	100.301027 
2773.000000	100.300627 
2772.000000	100.299722 
2771.000000	100.298792 
2770.000000	100.298264 
2769.000000	100.298359 
2768.000000	100.299194 
2767.000000	100.300821 
2766.000000	100.302985 
2765.000000	100.305007 
2764.000000	100.306208 
2763.000000	100.306478 
2762.000000	100.306307 
2761.000000	100.306255 
2760.000000	100.306569 
2759.000000	100.307301 
2758.000000	100.308495 
2757.000000	100.309995 
2756.000000	100.311291 
2755.000000	100.311922 
2754.000000	100.311978 
2753.000000	100.311927 
2752.000000	100.311948 
2751.000000	100.311747 
2750.000000	100.311120 
2749.000000	100.310294 
2748.000000	100.309489 
2747.000000	100.308507 
2746.000000	100.307116 
2745.000000	100.305683 
2744.000000	100.305005 
2743.000000	100.305499 
2742.000000	100.306876 
2741.000000	100.308555 
2740.000000	100.310183 
2739.000000	100.311672 
2738.000000	100.312938 
2737.000000	100.313785 
2736.000000	100.314001 
2735.000000	100.313520 
2734.000000	100.312515 
2733.000000	100.311293 
2732.000000	100.310054 
2731.000000	100.308822 
2730.000000	100.307712 
2729.000000	100.307123 
2728.000000	100.307500 
2727.000000	100.308922 
2726.000000	100.310988 
2725.000000	100.313074 
2724.000000	100.314647 
2723.000000	100.315494 
2722.000000	100.315786 
2721.000000	100.315908 
2720.000000	100.316076 
2719.000000	100.316137 
2718.000000	100.315823 
2717.000000	100.315153 
2716.000000	100.314487 
2715.000000	100.314259 
2714.000000	100.314710 
2713.000000	100.315742 
2712.000000	100.316872 
2711.000000	100.317515 
2710.000000	100.317503 
2709.000000	100.317221 
2708.000000	100.317155 
2707.000000	100.317309 
2706.000000	100.317273 
2705.000000	100.316808 
2704.000000	100.316138 
2703.000000	100.315684 
2702.000000	100.315651 
2701.000000	100.315932 
2700.000000	100.316248 
2699.000000	100.316330 
2698.000000	100.316077 
2697.000000	100.315603 
2696.000000	100.315138 
2695.000000	100.314870 
2694.000000	100.314883 
2693.000000	100.315169 
2692.000000	100.315575 
2691.000000	100.315828 
2690.000000	100.315753 
2689.000000	100.315497 
2688.000000	100.315399 
2687.000000	100.315616 
2686.000000	100.315975 
2685.000000	100.316200 
2684.000000	100.316218 
2683.000000	100.316161 
2682.000000	100.316164 
2681.000000	100.316225 
2680.000000	100.316250 
2679.000000	100.316127 
2678.000000	100.315792 
2677.000000	100.315278 
2676.000000	100.314753 
2675.000000	100.314420 
2674.000000	100.314382 
2673.000000	100.314586 
2672.000000	100.314848 
2671.000000	100.314928 
2670.000000	100.314658 
2669.000000	100.314045 
2668.000000	100.313297 
2667.000000	100.312711 
2666.000000	100.312496 
2665.000000	100.312702 
2664.000000	100.313219 
2663.000000	100.313844 
2662.000000	100.314390 
2661.000000	100.314787 
2660.000000	100.315042 
2659.000000	100.315130 
2658.000000	100.314998 
2657.000000	100.314699 
2656.000000	100.314433 
2655.000000	100.314382 
2654.000000	100.314536 
2653.000000	100.314721 
2652.000000	100.314737 
2651.000000	100.314478 
2650.000000	100.313988 
2649.000000	100.313492 
2648.000000	100.313284 
2647.000000	100.313498 
2646.000000	100.314008 
2645.000000	100.314556 
2644.000000	100.314955 
2643.000000	100.315145 
2642.000000	100.315168 
2641.000000	100.315153 
2640.000000	100.315247 
2639.000000	100.315482 
2638.000000	100.315799 
2637.000000	100.316170 
2636.000000	100.316599 
2635.000000	100.316942 
2634.000000	100.316921 
2633.000000	100.316471 
2632.000000	100.315961 
2631.000000	100.315794 
2630.000000	100.315954 
2629.000000	100.316144 
2628.000000	100.316198 
2627.000000	100.316224 
2626.000000	100.316364 
2625.000000	100.316639 
2624.000000	100.317017 
2623.000000	100.317447 
2622.000000	100.317816 
2621.000000	100.318027 
2620.000000	100.318145 
2619.000000	100.318315 
2618.000000	100.318492 
2617.000000	100.318428 
2616.000000	100.318036 
2615.000000	100.317624 
2614.000000	100.317586 
2613.000000	100.317947 
2612.000000	100.318370 
2611.000000	100.318577 
2610.000000	100.318604 
2609.000000	100.318678 
2608.000000	100.318959 
2607.000000	100.319407 
2606.000000	100.319894 
2605.000000	100.320394 
2604.000000	100.320967 
2603.000000	100.321475 
2602.000000	100.321513 
2601.000000	100.320887 
2600.000000	100.320066 
2599.000000	100.319810 
2598.000000	100.320305 
2597.000000	100.321004 
2596.000000	100.321300 
2595.000000	100.321053 
2594.000000	100.320348 
2593.000000	100.319231 
2592.000000	100.318003 
2591.000000	100.317348 
2590.000000	100.317705 
2589.000000	100.318735 
2588.000000	100.319612 
2587.000000	100.319915 
2586.000000	100.319798 
2585.000000	100.319370 
2584.000000	100.318455 
2583.000000	100.317072 
2582.000000	100.315717 
2581.000000	100.314859 
2580.000000	100.314423 
2579.000000	100.314018 
2578.000000	100.313494 
2577.000000	100.313057 
2576.000000	100.312957 
2575.000000	100.313277 
2574.000000	100.313932 
2573.000000	100.314669 
2572.000000	100.315107 
2571.000000	100.314987 
2570.000000	100.314384 
2569.000000	100.313619 
2568.000000	100.312986 
2567.000000	100.312599 
2566.000000	100.312481 
2565.000000	100.312638 
2564.000000	100.312986 
2563.000000	100.313332 
2562.000000	100.313497 
2561.000000	100.313463 
2560.000000	100.313382 
2559.000000	100.313454 
2558.000000	100.313737 
2557.000000	100.314044 
2556.000000	100.314092 
2555.000000	100.313833 
2554.000000	100.313599 
2553.000000	100.313795 
2552.000000	100.314473 
2551.000000	100.315274 
2550.000000	100.315837 
2549.000000	100.316165 
2548.000000	100.316447 
2547.000000	100.316638 
2546.000000	100.316509 
2545.000000	100.316068 
2544.000000	100.315681 
2543.000000	100.315715 
2542.000000	100.316205 
2541.000000	100.316875 
2540.000000	100.317396 
2539.000000	100.317628 
2538.000000	100.317590 
2537.000000	100.317340 
2536.000000	100.316900 
2535.000000	100.316317 
2534.000000	100.315792 
2533.000000	100.315674 
2532.000000	100.316202 
2531.000000	100.317275 
2530.000000	100.318541 
2529.000000	100.319691 
2528.000000	100.320548 
2527.000000	100.320952 
2526.000000	100.320817 
2525.000000	100.320354 
2524.000000	100.320037 
2523.000000	100.320232 
2522.000000	100.320970 
2521.000000	100.322050 
2520.000000	100.323108 
2519.000000	100.323636 
2518.000000	100.323276 
2517.000000	100.322212 
2516.000000	100.320996 
2515.000000	100.319935 
2514.000000	100.318972 
2513.000000	100.318189 
2512.000000	100.317890 
2511.000000	100.317946 
2510.000000	100.317595 
2509.000000	100.316403 
2508.000000	100.315060 
2507.000000	100.314662 
2506.000000	100.315301 
2505.000000	100.315884 
2504.000000	100.315388 
2503.000000	100.313870 
2502.000000	100.312207 
2501.000000	100.311251 
2500.000000	100.311436 
2499.000000	100.312874 
2498.000000	100.315415 
2497.000000	100.318483 
2496.000000	100.321049 
2495.000000	100.322104 
2494.000000	100.321271 
2493.000000	100.318961 
2492.000000	100.316075 
2491.000000	100.313433 
2490.000000	100.311461 
2489.000000	100.310279 
2488.000000	100.309796 
2487.000000	100.309750 
2486.000000	100.309896 
2485.000000	100.310257 
2484.000000	100.311024 
2483.000000	100.312153 
2482.000000	100.313203 
2481.000000	100.313696 
2480.000000	100.313538 
2479.000000	100.313015 
2478.000000	100.312472 
2477.000000	100.312068 
2476.000000	100.311787 
2475.000000	100.311563 
2474.000000	100.311382 
2473.000000	100.311302 
2472.000000	100.311388 
2471.000000	100.311626 
2470.000000	100.311885 
2469.000000	100.311979 
2468.000000	100.311795 
2467.000000	100.311368 
2466.000000	100.310880 
2465.000000	100.310549 
2464.000000	100.310445 
2463.000000	100.310466 
2462.000000	100.310449 
2461.000000	100.310312 
2460.000000	100.310100 
2459.000000	100.309880 
2458.000000	100.309679 
2457.000000	100.309483 
2456.000000	100.309278 
2455.000000	100.309064 
2454.000000	100.308842 
2453.000000	100.308619 
2452.000000	100.308406 
2451.000000	100.308213 
2450.000000	100.308045 
2449.000000	100.307898 
2448.000000	100.307762 
2447.000000	100.307628 
2446.000000	100.307489 
2445.000000	100.307344 
2444.000000	100.307193 
2443.000000	100.307035 
2442.000000	100.306864 
2441.000000	100.306677 
2440.000000	100.306473 
2439.000000	100.306258 
2438.000000	100.306037 
2437.000000	100.305815 
2436.000000	100.305592 
2435.000000	100.305369 
2434.000000	100.305148 
2433.000000	100.304931 
2432.000000	100.304726 
2431.000000	100.304537 
2430.000000	100.304366 
2429.000000	100.304212 
2428.000000	100.304074 
2427.000000	100.303951 
2426.000000	100.303839 
2425.000000	100.303731 
2424.000000	100.303618 
2423.000000	100.303496 
2422.000000	100.303371 
2421.000000	100.303254 
2420.000000	100.303155 
2419.000000	100.303072 
2418.000000	100.302996 
2417.000000	100.302917 
2416.000000	100.302829 
2415.000000	100.302733 
2414.000000	100.302633 
2413.000000	100.302538 
2412.000000	100.302469 
2411.000000	100.302442 
2410.000000	100.302448 
2409.000000	100.302456 
2408.000000	100.302456 
2407.000000	100.302463 
2406.000000	100.302496 
2405.000000	100.302568 
2404.000000	100.302697 
2403.000000	100.302856 
2402.000000	100.302955 
2401.000000	100.302914 
2400.000000	100.302771 
2399.000000	100.302654 
2398.000000	100.302654 
2397.000000	100.302768 
2396.000000	100.302965 
2395.000000	100.303243 
2394.000000	100.303611 
2393.000000	100.304037 
2392.000000	100.304444 
2391.000000	100.304756 
2390.000000	100.304977 
2389.000000	100.305207 
2388.000000	100.305559 
2387.000000	100.306026 
2386.000000	100.306456 
2385.000000	100.306698 
2384.000000	100.306773 
2383.000000	100.306871 
2382.000000	100.307190 
2381.000000	100.307761 
2380.000000	100.308379 
2379.000000	100.308690 
2378.000000	100.308406 
2377.000000	100.307583 
2376.000000	100.306787 
2375.000000	100.306728 
2374.000000	100.307657 
2373.000000	100.309221 
2372.000000	100.310871 
2371.000000	100.312389 
2370.000000	100.313812 
2369.000000	100.314995 
2368.000000	100.315563 
2367.000000	100.315317 
2366.000000	100.314512 
2365.000000	100.313778 
2364.000000	100.313646 
2363.000000	100.314175 
2362.000000	100.314995 
2361.000000	100.315632 
2360.000000	100.315946 
2359.000000	100.316166 
2358.000000	100.316539 
2357.000000	100.317098 
2356.000000	100.317738 
2355.000000	100.318322 
2354.000000	100.318701 
2353.000000	100.318829 
2352.000000	100.318853 
2351.000000	100.319006 
2350.000000	100.319396 
2349.000000	100.319907 
2348.000000	100.320301 
2347.000000	100.320423 
2346.000000	100.320332 
2345.000000	100.320185 
2344.000000	100.320112 
2343.000000	100.320267 
2342.000000	100.320795 
2341.000000	100.321655 
2340.000000	100.322595 
2339.000000	100.323376 
2338.000000	100.323891 
2337.000000	100.324138 
2336.000000	100.324021 
2335.000000	100.323354 
2334.000000	100.322165 
2333.000000	100.321056 
2332.000000	100.320803 
2331.000000	100.321432 
2330.000000	100.322037 
2329.000000	100.321839 
2328.000000	100.321131 
2327.000000	100.320821 
2326.000000	100.321354 
2325.000000	100.322221 
2324.000000	100.322469 
2323.000000	100.321861 
2322.000000	100.321519 
2321.000000	100.322960 
2320.000000	100.326169 
2319.000000	100.329288 
2318.000000	100.330562 
2317.000000	100.329959 
2316.000000	100.328571 
2315.000000	100.327187 
2314.000000	100.326085 
2313.000000	100.325613 
2312.000000	100.326052 
2311.000000	100.327148 
2310.000000	100.328556 
2309.000000	100.330246 
2308.000000	100.331695 
2307.000000	100.331506 
2306.000000	100.328996 
2305.000000	100.325366 
2304.000000	100.322353 
2303.000000	100.320126 
2302.000000	100.317721 
2301.000000	100.315096 
2300.000000	100.313353 
2299.000000	100.312931 
2298.000000	100.312923 
2297.000000	100.312555 
2296.000000	100.312282 
2295.000000	100.312816 
2294.000000	100.313850 
2293.000000	100.314388 
2292.000000	100.314022 
2291.000000	100.313253 
2290.000000	100.312739 
2289.000000	100.312635 
2288.000000	100.312654 
2287.000000	100.312494 
2286.000000	100.312120 
2285.000000	100.311700 
2284.000000	100.311334 
2283.000000	100.310903 
2282.000000	100.310243 
2281.000000	100.309386 
2280.000000	100.308565 
2279.000000	100.308066 
2278.000000	100.308124 
2277.000000	100.308772 
2276.000000	100.309717 
2275.000000	100.310478 
2274.000000	100.310731 
2273.000000	100.310470 
2272.000000	100.309821 
2271.000000	100.308777 
2270.000000	100.307390 
2269.000000	100.306283 
2268.000000	100.306411 
2267.000000	100.308080 
2266.000000	100.310451 
2265.000000	100.312220 
2264.000000	100.312762 
2263.000000	100.312261 
2262.000000	100.311373 
2261.000000	100.311011 
2260.000000	100.311940 
2259.000000	100.313916 
2258.000000	100.315460 
2257.000000	100.315295 
2256.000000	100.313769 
2255.000000	100.312346 
2254.000000	100.311811 
2253.000000	100.311669 
2252.000000	100.311311 
2251.000000	100.311034 
2250.000000	100.311662 
2249.000000	100.313544 
2248.000000	100.316042 
2247.000000	100.317905 
2246.000000	100.318285 
2245.000000	100.317361 
2244.000000	100.315916 
2243.000000	100.314508 
2242.000000	100.313573 
2241.000000	100.313941 
2240.000000	100.316062 
2239.000000	100.318578 
2238.000000	100.318934 
2237.000000	100.315979 
2236.000000	100.310948 
2235.000000	100.305496 
2234.000000	100.300087 
2233.000000	100.295338 
2232.000000	100.293403 
2231.000000	100.296218 
2230.000000	100.303162 
2229.000000	100.311623 
2228.000000	100.319438 
2227.000000	100.325696 
2226.000000	100.329752 
2225.000000	100.331074 
2224.000000	100.329985 
2223.000000	100.327556 
2222.000000	100.324866 
2221.000000	100.322878 
2220.000000	100.322326 
2219.000000	100.323069 
2218.000000	100.324227 
2217.000000	100.325703 
2216.000000	100.328746 
2215.000000	100.334026 
2214.000000	100.339780 
2213.000000	100.343041 
2212.000000	100.342476 
2211.000000	100.339414 
2210.000000	100.336807 
2209.000000	100.337429 
2208.000000	100.342036 
2207.000000	100.348251 
2206.000000	100.351949 
2205.000000	100.350893 
2204.000000	100.346424 
2203.000000	100.341332 
2202.000000	100.337109 
2201.000000	100.334146 
2200.000000	100.332921 
2199.000000	100.333254 
2198.000000	100.333483 
2197.000000	100.332218 
2196.000000	100.330511 
2195.000000	100.330671 
2194.000000	100.333328 
2193.000000	100.337045 
2192.000000	100.340251 
2191.000000	100.342261 
2190.000000	100.343038 
2189.000000	100.343289 
2188.000000	100.344267 
2187.000000	100.346425 
2186.000000	100.348918 
2185.000000	100.351256 
2184.000000	100.354362 
2183.000000	100.358705 
2182.000000	100.362558 
2181.000000	100.364017 
2180.000000	100.363826 
2179.000000	100.364234 
2178.000000	100.365524 
2177.000000	100.365682 
2176.000000	100.363320 
2175.000000	100.359214 
2174.000000	100.355180 
2173.000000	100.352701 
2172.000000	100.352457 
2171.000000	100.353982 
2170.000000	100.355840 
2169.000000	100.357033 
2168.000000	100.358068 
2167.000000	100.359731 
2166.000000	100.361378 
2165.000000	100.361760 
2164.000000	100.361229 
2163.000000	100.361603 
2162.000000	100.363810 
2161.000000	100.366796 
2160.000000	100.368784 
2159.000000	100.368803 
2158.000000	100.366844 
2157.000000	100.363684 
2156.000000	100.360824 
2155.000000	100.359451 
2154.000000	100.359355 
2153.000000	100.359306 
2152.000000	100.358423 
2151.000000	100.356945 
2150.000000	100.355664 
2149.000000	100.355042 
2148.000000	100.354934 
2147.000000	100.354787 
2146.000000	100.354015 
2145.000000	100.352449 
2144.000000	100.350465 
2143.000000	100.348662 
2142.000000	100.347257 
2141.000000	100.346004 
2140.000000	100.344623 
2139.000000	100.343123 
2138.000000	100.341652 
2137.000000	100.340211 
2136.000000	100.338673 
2135.000000	100.337006 
2134.000000	100.335344 
2133.000000	100.333831 
2132.000000	100.332457 
2131.000000	100.331022 
2130.000000	100.329295 
2129.000000	100.327236 
2128.000000	100.325096 
2127.000000	100.323195 
2126.000000	100.321591 
2125.000000	100.320028 
2124.000000	100.318380 
2123.000000	100.316947 
2122.000000	100.316023 
2121.000000	100.315361 
2120.000000	100.314314 
2119.000000	100.312593 
2118.000000	100.310618 
2117.000000	100.309022 
2116.000000	100.307927 
2115.000000	100.306957 
2114.000000	100.305884 
2113.000000	100.304973 
2112.000000	100.304446 
2111.000000	100.303864 
2110.000000	100.302571 
2109.000000	100.300703 
2108.000000	100.299250 
2107.000000	100.298801 
2106.000000	100.298602 
2105.000000	100.297302 
2104.000000	100.294578 
2103.000000	100.291613 
2102.000000	100.289880 
2101.000000	100.289785 
2100.000000	100.290664 
2099.000000	100.291582 
2098.000000	100.291981 
2097.000000	100.291879 
2096.000000	100.291728 
2095.000000	100.291786 
2094.000000	100.291368 
2093.000000	100.289256 
2092.000000	100.285526 
2091.000000	100.282592 
2090.000000	100.283258 
2089.000000	100.287529 
2088.000000	100.292213 
2087.000000	100.294168 
2086.000000	100.293588 
2085.000000	100.293266 
2084.000000	100.295101 
2083.000000	100.298324 
2082.000000	100.301149 
2081.000000	100.303022 
2080.000000	100.304599 
2079.000000	100.306276 
2078.000000	100.307865 
2077.000000	100.309711 
2076.000000	100.312942 
2075.000000	100.318093 
2074.000000	100.324065 
2073.000000	100.328967 
2072.000000	100.331852 
2071.000000	100.333052 
2070.000000	100.333161 
2069.000000	100.332496 
2068.000000	100.331594 
2067.000000	100.331435 
2066.000000	100.332542 
2065.000000	100.334161 
2064.000000	100.335052 
2063.000000	100.335147 
2062.000000	100.335803 
2061.000000	100.338144 
2060.000000	100.341638 
2059.000000	100.344663 
2058.000000	100.346270 
2057.000000	100.346887 
2056.000000	100.347369 
2055.000000	100.347923 
2054.000000	100.348292 
2053.000000	100.348644 
2052.000000	100.349702 
2051.000000	100.351967 
2050.000000	100.355060 
2049.000000	100.357825 
2048.000000	100.359168 
2047.000000	100.358962 
2046.000000	100.357996 
2045.000000	100.357281 
2044.000000	100.357287 
2043.000000	100.357773 
2042.000000	100.358319 
2041.000000	100.358799 
2040.000000	100.359311 
2039.000000	100.359874 
2038.000000	100.360385 
2037.000000	100.360789 
2036.000000	100.361126 
2035.000000	100.361412 
2034.000000	100.361605 
2033.000000	100.361709 
2032.000000	100.361767 
2031.000000	100.361781 
2030.000000	100.361727 
2029.000000	100.361630 
2028.000000	100.361533 
2027.000000	100.361431 
2026.000000	100.361322 
2025.000000	100.361286 
2024.000000	100.361421 
2023.000000	100.361699 
2022.000000	100.361940 
2021.000000	100.361978 
2020.000000	100.361821 
2019.000000	100.361676 
2018.000000	100.361739 
2017.000000	100.362003 
2016.000000	100.362293 
2015.000000	100.362488 
2014.000000	100.362634 
2013.000000	100.362842 
2012.000000	100.363158 
2011.000000	100.363539 
2010.000000	100.363959 
2009.000000	100.364481 
2008.000000	100.365154 
2007.000000	100.365840 
2006.000000	100.366261 
2005.000000	100.366299 
2004.000000	100.366087 
2003.000000	100.365900 
2002.000000	100.365892 
2001.000000	100.366021 
2000.000000	100.366158 
1999.000000	100.366188 
1998.000000	100.366097 
1997.000000	100.365991 
1996.000000	100.366039 
1995.000000	100.366320 
1994.000000	100.366771 
1993.000000	100.367218 
1992.000000	100.367504 
1991.000000	100.367590 
1990.000000	100.367535 
1989.000000	100.367455 
1988.000000	100.367459 
1987.000000	100.367585 
1986.000000	100.367785 
1985.000000	100.367948 
1984.000000	100.367989 
1983.000000	100.367913 
1982.000000	100.367771 
1981.000000	100.367553 
1980.000000	100.367194 
1979.000000	100.366682 
1978.000000	100.366105 
1977.000000	100.365531 
1976.000000	100.364901 
1975.000000	100.364129 
1974.000000	100.363255 
1973.000000	100.362434 
1972.000000	100.361771 
1971.000000	100.361221 
1970.000000	100.360568 
1969.000000	100.359608 
1968.000000	100.358310 
1967.000000	100.356844 
1966.000000	100.355465 
1965.000000	100.354271 
1964.000000	100.353201 
1963.000000	100.352133 
1962.000000	100.351001 
1961.000000	100.349815 
1960.000000	100.348597 
1959.000000	100.347357 
1958.000000	100.346152 
1957.000000	100.345033 
1956.000000	100.343947 
1955.000000	100.342774 
1954.000000	100.341535 
1953.000000	100.340381 
1952.000000	100.339286 
1951.000000	100.337901 
1950.000000	100.335920 
1949.000000	100.333561 
1948.000000	100.331466 
1947.000000	100.329968 
1946.000000	100.328764 
1945.000000	100.327237 
1944.000000	100.325080 
1943.000000	100.322692 
1942.000000	100.320947 
1941.000000	100.320285 
1940.000000	100.320092 
1939.000000	100.319274 
1938.000000	100.317600 
1937.000000	100.316083 
1936.000000	100.315725 
1935.000000	100.316200 
1934.000000	100.316267 
1933.000000	100.315472 
1932.000000	100.314724 
1931.000000	100.314950 
1930.000000	100.315771 
1929.000000	100.315978 
1928.000000	100.315087 
1927.000000	100.313692 
1926.000000	100.312589 
1925.000000	100.312016 
1924.000000	100.311646 
1923.000000	100.311132 
1922.000000	100.310626 
1921.000000	100.310541 
1920.000000	100.310627 
1919.000000	100.309718 
1918.000000	100.306952 
1917.000000	100.303223 
1916.000000	100.300486 
1915.000000	100.299438 
1914.000000	100.299265 
1913.000000	100.299195 
1912.000000	100.299346 
1911.000000	100.299898 
1910.000000	100.300354 
1909.000000	100.300317 
1908.000000	100.300296 
1907.000000	100.300977 
1906.000000	100.302197 
1905.000000	100.303260 
1904.000000	100.303773 
1903.000000	100.303667 
1902.000000	100.302929 
1901.000000	100.301818 
1900.000000	100.300790 
1899.000000	100.300045 
1898.000000	100.299521 
1897.000000	100.299348 
1896.000000	100.299834 
1895.000000	100.300681 
1894.000000	100.300965 
1893.000000	100.300302 
1892.000000	100.299358 
1891.000000	100.298906 
1890.000000	100.298870 
1889.000000	100.298751 
1888.000000	100.298631 
1887.000000	100.298983 
1886.000000	100.299869 
1885.000000	100.300887 
1884.000000	100.301670 
1883.000000	100.302116 
1882.000000	100.302259 
1881.000000	100.302231 
1880.000000	100.302226 
1879.000000	100.302379 
1878.000000	100.302762 
1877.000000	100.303506 
1876.000000	100.304674 
1875.000000	100.305888 
1874.000000	100.306391 
1873.000000	100.305778 
1872.000000	100.304459 
1871.000000	100.303226 
1870.000000	100.302528 
1869.000000	100.302352 
1868.000000	100.302632 
1867.000000	100.303346 
1866.000000	100.304191 
1865.000000	100.304577 
1864.000000	100.303977 
1863.000000	100.302240 
1862.000000	100.299826 
1861.000000	100.297848 
1860.000000	100.297321 
1859.000000	100.298384 
1858.000000	100.300170 
1857.000000	100.301541 
1856.000000	100.302068 
1855.000000	100.302037 
1854.000000	100.301923 
1853.000000	100.302031 
1852.000000	100.302333 
1851.000000	100.302598 
1850.000000	100.302777 
1849.000000	100.303141 
1848.000000	100.303893 
1847.000000	100.304757 
1846.000000	100.305221 
1845.000000	100.305142 
1844.000000	100.304929 
1843.000000	100.304923 
1842.000000	100.304929 
1841.000000	100.304653 
1840.000000	100.304098 
1839.000000	100.303458 
1838.000000	100.302882 
1837.000000	100.302377 
1836.000000	100.301859 
1835.000000	100.301289 
1834.000000	100.300834 
1833.000000	100.300722 
1832.000000	100.300809 
1831.000000	100.300591 
1830.000000	100.299873 
1829.000000	100.299223 
1828.000000	100.299238 
1827.000000	100.299720 
1826.000000	100.300069 
1825.000000	100.300125 
1824.000000	100.300169 
1823.000000	100.300109 
1822.000000	100.299361 
1821.000000	100.297863 
1820.000000	100.296651 
1819.000000	100.296765 
1818.000000	100.298025 
1817.000000	100.299213 
1816.000000	100.299531 
1815.000000	100.299346 
1814.000000	100.299349 
1813.000000	100.299718 
1812.000000	100.300214 
1811.000000	100.300715 
1810.000000	100.301243 
1809.000000	100.301750 
1808.000000	100.302117 
1807.000000	100.302089 
1806.000000	100.301372 
1805.000000	100.300094 
1804.000000	100.298888 
1803.000000	100.298175 
1802.000000	100.297645 
1801.000000	100.296724 
1800.000000	100.295549 
1799.000000	100.294922 
1798.000000	100.295262 
1797.000000	100.296365 
1796.000000	100.297828 
1795.000000	100.299214 
1794.000000	100.300079 
1793.000000	100.300150 
1792.000000	100.299733 
1791.000000	100.299513 
1790.000000	100.299624 
1789.000000	100.299733 
1788.000000	100.299790 
1787.000000	100.300055 
1786.000000	100.300621 
1785.000000	100.301191 
1784.000000	100.301341 
1783.000000	100.300838 
1782.000000	100.299804 
1781.000000	100.298723 
1780.000000	100.298067 
1779.000000	100.297817 
1778.000000	100.297601 
1777.000000	100.297385 
1776.000000	100.297473 
1775.000000	100.297757 
1774.000000	100.297634 
1773.000000	100.296834 
1772.000000	100.296130 
1771.000000	100.296505 
1770.000000	100.297671 
1769.000000	100.298378 
1768.000000	100.297970 
1767.000000	100.296978 
1766.000000	100.296262 
1765.000000	100.295934 
1764.000000	100.295557 
1763.000000	100.294889 
1762.000000	100.294128 
1761.000000	100.293577 
1760.000000	100.293353 
1759.000000	100.293389 
1758.000000	100.293606 
1757.000000	100.294071 
1756.000000	100.294724 
1755.000000	100.295313 
1754.000000	100.295635 
1753.000000	100.295629 
1752.000000	100.295239 
1751.000000	100.294072 
1750.000000	100.291709 
1749.000000	100.288612 
1748.000000	100.286111 
1747.000000	100.285104 
1746.000000	100.285090 
1745.000000	100.284547 
1744.000000	100.282638 
1743.000000	100.280370 
1742.000000	100.279328 
1741.000000	100.279682 
1740.000000	100.280636 
1739.000000	100.282044 
1738.000000	100.284331 
1737.000000	100.287038 
1736.000000	100.289093 
1735.000000	100.289709 
1734.000000	100.288977 
1733.000000	100.288173 
1732.000000	100.287993 
1731.000000	100.287717 
1730.000000	100.286882 
1729.000000	100.286082 
1728.000000	100.285863 
1727.000000	100.286155 
1726.000000	100.286627 
1725.000000	100.287148 
1724.000000	100.287664 
1723.000000	100.288041 
1722.000000	100.288148 
1721.000000	100.288112 
1720.000000	100.288272 
1719.000000	100.288961 
1718.000000	100.290072 
1717.000000	100.290947 
1716.000000	100.291395 
1715.000000	100.291683 
1714.000000	100.291787 
1713.000000	100.291742 
1712.000000	100.291793 
1711.000000	100.292027 
1710.000000	100.292346 
1709.000000	100.292707 
1708.000000	100.293181 
1707.000000	100.293790 
1706.000000	100.294395 
1705.000000	100.294856 
1704.000000	100.295244 
1703.000000	100.295630 
1702.000000	100.295968 
1701.000000	100.296228 
1700.000000	100.296599 
1699.000000	100.297261 
1698.000000	100.298101 
1697.000000	100.298826 
1696.000000	100.299297 
1695.000000	100.299611 
1694.000000	100.299941 
1693.000000	100.300255 
1692.000000	100.300491 
1691.000000	100.300728 
1690.000000	100.301103 
1689.000000	100.301683 
1688.000000	100.302472 
1687.000000	100.303469 
1686.000000	100.304666 
1685.000000	100.305837 
1684.000000	100.306539 
1683.000000	100.306787 
1682.000000	100.306972 
1681.000000	100.307129 
1680.000000	100.307048 
1679.000000	100.306861 
1678.000000	100.306675 
1677.000000	100.306426 
1676.000000	100.305968 
1675.000000	100.305566 
1674.000000	100.305809 
1673.000000	100.306749 
1672.000000	100.307809 
1671.000000	100.308480 
1670.000000	100.308632 
1669.000000	100.308616 
1668.000000	100.308843 
1667.000000	100.309267 
1666.000000	100.309626 
1665.000000	100.309753 
1664.000000	100.309699 
1663.000000	100.309638 
1662.000000	100.309709 
1661.000000	100.310103 
1660.000000	100.310806 
1659.000000	100.311655 
1658.000000	100.312349 
1657.000000	100.312806 
1656.000000	100.312768 
1655.000000	100.312418 
1654.000000	100.312450 
1653.000000	100.313113 
1652.000000	100.314418 
1651.000000	100.316091 
1650.000000	100.317362 
1649.000000	100.317501 
1648.000000	100.317144 
1647.000000	100.316759 
1646.000000	100.316599 
1645.000000	100.316677 
1644.000000	100.317284 
1643.000000	100.318080 
1642.000000	100.318427 
1641.000000	100.317904 
1640.000000	100.316946 
1639.000000	100.316447 
1638.000000	100.316791 
1637.000000	100.317814 
1636.000000	100.319074 
1635.000000	100.319986 
1634.000000	100.320491 
1633.000000	100.320580 
1632.000000	100.319871 
1631.000000	100.318260 
1630.000000	100.316099 
1629.000000	100.314318 
1628.000000	100.313752 
1627.000000	100.314229 
1626.000000	100.314833 
1625.000000	100.314990 
1624.000000	100.314808 
1623.000000	100.314523 
1622.000000	100.314377 
1621.000000	100.314792 
1620.000000	100.315671 
1619.000000	100.316430 
1618.000000	100.316799 
1617.000000	100.317452 
1616.000000	100.319286 
1615.000000	100.321759 
1614.000000	100.323646 
1613.000000	100.324583 
1612.000000	100.324993 
1611.000000	100.325125 
1610.000000	100.324757 
1609.000000	100.323817 
1608.000000	100.322535 
1607.000000	100.321064 
1606.000000	100.319833 
1605.000000	100.319547 
1604.000000	100.320387 
1603.000000	100.321816 
1602.000000	100.323284 
1601.000000	100.324777 
1600.000000	100.326281 
1599.000000	100.327381 
1598.000000	100.327822 
1597.000000	100.327927 
1596.000000	100.328162 
1595.000000	100.328543 
1594.000000	100.328859 
1593.000000	100.329298 
1592.000000	100.330227 
1591.000000	100.331530 
1590.000000	100.332682 
1589.000000	100.333400 
1588.000000	100.333798 
1587.000000	100.334021 
1586.000000	100.334184 
1585.000000	100.334529 
1584.000000	100.335067 
1583.000000	100.335430 
1582.000000	100.335400 
1581.000000	100.335232 
1580.000000	100.335243 
1579.000000	100.335474 
1578.000000	100.335820 
1577.000000	100.336203 
1576.000000	100.336587 
1575.000000	100.336953 
1574.000000	100.337327 
1573.000000	100.337710 
1572.000000	100.338083 
1571.000000	100.338449 
1570.000000	100.338825 
1569.000000	100.339216 
1568.000000	100.339600 
1567.000000	100.339960 
1566.000000	100.340302 
1565.000000	100.340639 
1564.000000	100.340982 
1563.000000	100.341334 
1562.000000	100.341695 
1561.000000	100.342063 
1560.000000	100.342434 
1559.000000	100.342799 
1558.000000	100.343146 
1557.000000	100.343485 
1556.000000	100.343822 
1555.000000	100.344149 
1554.000000	100.344459 
1553.000000	100.344752 
1552.000000	100.345030 
1551.000000	100.345291 
1550.000000	100.345541 
1549.000000	100.345789 
1548.000000	100.346043 
1547.000000	100.346296 
1546.000000	100.346535 
1545.000000	100.346755 
1544.000000	100.346981 
1543.000000	100.347250 
1542.000000	100.347587 
1541.000000	100.347987 
1540.000000	100.348391 
1539.000000	100.348732 
1538.000000	100.349009 
1537.000000	100.349272 
1536.000000	100.349523 
1535.000000	100.349745 
1534.000000	100.349896 
1533.000000	100.349950 
1532.000000	100.349968 
1531.000000	100.350038 
1530.000000	100.350123 
1529.000000	100.350140 
1528.000000	100.350084 
1527.000000	100.350021 
1526.000000	100.350004 
1525.000000	100.350043 
1524.000000	100.350170 
1523.000000	100.350444 
1522.000000	100.350757 
1521.000000	100.350762 
1520.000000	100.350326 
1519.000000	100.349614 
1518.000000	100.348766 
1517.000000	100.347927 
1516.000000	100.347345 
1515.000000	100.347112 
1514.000000	100.347037 
1513.000000	100.346837 
1512.000000	100.346425 
1511.000000	100.345901 
1510.000000	100.345354 
1509.000000	100.344793 
1508.000000	100.344383 
1507.000000	100.344401 
1506.000000	100.344431 
1505.000000	100.343916 
1504.000000	100.343078 
1503.000000	100.342244 
1502.000000	100.341567 
1501.000000	100.340952 
1500.000000	100.340240 
1499.000000	100.339420 
1498.000000	100.338548 
1497.000000	100.337401 
1496.000000	100.335902 
1495.000000	100.334480 
1494.000000	100.333424 
1493.000000	100.332568 
1492.000000	100.331667 
1491.000000	100.330675 
1490.000000	100.329661 
1489.000000	100.328535 
1488.000000	100.327235 
1487.000000	100.325849 
1486.000000	100.324315 
1485.000000	100.322656 
1484.000000	100.321088 
1483.000000	100.319775 
1482.000000	100.318713 
1481.000000	100.317757 
1480.000000	100.316796 
1479.000000	100.315757 
1478.000000	100.314499 
1477.000000	100.312983 
1476.000000	100.311717 
1475.000000	100.311436 
1474.000000	100.312056 
1473.000000	100.312133 
1472.000000	100.310459 
1471.000000	100.307860 
1470.000000	100.305501 
1469.000000	100.303147 
1468.000000	100.300347 
1467.000000	100.297471 
1466.000000	100.295371 
1465.000000	100.294453 
1464.000000	100.294500 
1463.000000	100.295271 
1462.000000	100.296193 
1461.000000	100.296406 
1460.000000	100.295640 
1459.000000	100.294266 
1458.000000	100.292140 
1457.000000	100.287289 
1456.000000	100.279851 
1455.000000	100.274009 
1454.000000	100.271819 
1453.000000	100.271850 
1452.000000	100.272858 
1451.000000	100.274130 
1450.000000	100.274777 
1449.000000	100.273137 
1448.000000	100.269219 
1447.000000	100.265847 
1446.000000	100.265498 
1445.000000	100.267338 
1444.000000	100.269319 
1443.000000	100.271163 
1442.000000	100.273527 
1441.000000	100.276066 
1440.000000	100.277755 
1439.000000	100.278514 
1438.000000	100.279169 
1437.000000	100.279483 
1436.000000	100.278700 
1435.000000	100.278233 
1434.000000	100.278873 
1433.000000	100.278505 
1432.000000	100.275708 
1431.000000	100.271744 
1430.000000	100.268737 
1429.000000	100.266761 
1428.000000	100.264692 
1427.000000	100.262474 
1426.000000	100.260658 
1425.000000	100.259020 
1424.000000	100.256474 
1423.000000	100.252860 
1422.000000	100.248660 
1421.000000	100.243189 
1420.000000	100.235420 
1419.000000	100.227324 
1418.000000	100.222610 
1417.000000	100.220344 
1416.000000	100.216496 
1415.000000	100.209839 
1414.000000	100.202274 
1413.000000	100.195566 
1412.000000	100.189972 
1411.000000	100.185531 
1410.000000	100.182549 
1409.000000	100.180351 
1408.000000	100.177980 
1407.000000	100.175885 
1406.000000	100.175377 
1405.000000	100.176674 
1404.000000	100.178751 
1403.000000	100.181625 
1402.000000	100.186340 
1401.000000	100.192813 
1400.000000	100.199372 
1399.000000	100.203955 
1398.000000	100.205113 
1397.000000	100.201480 
1396.000000	100.192349 
1395.000000	100.181130 
1394.000000	100.175606 
1393.000000	100.180116 
1392.000000	100.191335 
1391.000000	100.202876 
1390.000000	100.210821 
1389.000000	100.214586 
1388.000000	100.215022 
1387.000000	100.213204 
1386.000000	100.210614 
1385.000000	100.208738 
1384.000000	100.208078 
1383.000000	100.208299 
1382.000000	100.209109 
1381.000000	100.210690 
1380.000000	100.213532 
1379.000000	100.217790 
1378.000000	100.222995 
1377.000000	100.228387 
1376.000000	100.233394 
1375.000000	100.237876 
1374.000000	100.242313 
1373.000000	100.247473 
1372.000000	100.253462 
1371.000000	100.259369 
1370.000000	100.264155 
1369.000000	100.267735 
1368.000000	100.270772 
1367.000000	100.273896 
1366.000000	100.277375 
1365.000000	100.281317 
1364.000000	100.285845 
1363.000000	100.290737 
1362.000000	100.295146 
1361.000000	100.298461 
1360.000000	100.301187 
1359.000000	100.304491 
1358.000000	100.309208 
1357.000000	100.315190 
1356.000000	100.321254 
1355.000000	100.326083 
1354.000000	100.329424 
1353.000000	100.332147 
1352.000000	100.335094 
1351.000000	100.337725 
1350.000000	100.338890 
1349.000000	100.339127 
1348.000000	100.339703 
1347.000000	100.340728 
1346.000000	100.341391 
1345.000000	100.341713 
1344.000000	100.342731 
1343.000000	100.344828 
1342.000000	100.347144 
1341.000000	100.349112 
1340.000000	100.351320 
1339.000000	100.354090 
1338.000000	100.356511 
1337.000000	100.357820 
1336.000000	100.358614 
1335.000000	100.359802 
1334.000000	100.361088 
1333.000000	100.361428 
1332.000000	100.360676 
1331.000000	100.359786 
1330.000000	100.359556 
1329.000000	100.360007 
1328.000000	100.360870 
1327.000000	100.361828 
1326.000000	100.362440 
1325.000000	100.362531 
1324.000000	100.362393 
1323.000000	100.362493 
1322.000000	100.363058 
1321.000000	100.364175 
1320.000000	100.366057 
1319.000000	100.368639 
1318.000000	100.370891 
1317.000000	100.371314 
1316.000000	100.369521 
1315.000000	100.366906 
1314.000000	100.365361 
1313.000000	100.365399 
1312.000000	100.366006 
1311.000000	100.366133 
1310.000000	100.365728 
1309.000000	100.365300 
1308.000000	100.365138 
1307.000000	100.365098 
1306.000000	100.364873 
1305.000000	100.364401 
1304.000000	100.363981 
1303.000000	100.364144 
1302.000000	100.365084 
1301.000000	100.366194 
1300.000000	100.366518 
1299.000000	100.365928 
1298.000000	100.365530 
1297.000000	100.366573 
1296.000000	100.368982 
1295.000000	100.371145 
1294.000000	100.371254 
1293.000000	100.368751 
1292.000000	100.364763 
1291.000000	100.361439 
1290.000000	100.360470 
1289.000000	100.361820 
1288.000000	100.363732 
1287.000000	100.364133 
1286.000000	100.362343 
1285.000000	100.359418 
1284.000000	100.356922 
1283.000000	100.355444 
1282.000000	100.354138 
1281.000000	100.351748 
1280.000000	100.348018 
1279.000000	100.343917 
1278.000000	100.340609 
1277.000000	100.338565 
1276.000000	100.337563 
1275.000000	100.336950 
1274.000000	100.335734 
1273.000000	100.333010 
1272.000000	100.328802 
1271.000000	100.324290 
1270.000000	100.320724 
1269.000000	100.318165 
1268.000000	100.315575 
1267.000000	100.311994 
1266.000000	100.307301 
1265.000000	100.302025 
1264.000000	100.296891 
1263.000000	100.292447 
1262.000000	100.288679 
1261.000000	100.285085 
1260.000000	100.281495 
1259.000000	100.278564 
1258.000000	100.276974 
1257.000000	100.276385 
1256.000000	100.275798 
1255.000000	100.274806 
1254.000000	100.273728 
1253.000000	100.272579 
1252.000000	100.270882 
1251.000000	100.268817 
1250.000000	100.267703 
1249.000000	100.268693 
1248.000000	100.271433 
1247.000000	100.274308 
1246.000000	100.275646 
1245.000000	100.274416 
1244.000000	100.270425 
1243.000000	100.264866 
1242.000000	100.260380 
1241.000000	100.259231 
1240.000000	100.261276 
1239.000000	100.264003 
1238.000000	100.264911 
1237.000000	100.263675 
1236.000000	100.261572 
1235.000000	100.259604 
1234.000000	100.257755 
1233.000000	100.255706 
1232.000000	100.253314 
1231.000000	100.250376 
1230.000000	100.246797 
1229.000000	100.243336 
1228.000000	100.241511 
1227.000000	100.242134 
1226.000000	100.244164 
1225.000000	100.245518 
1224.000000	100.245130 
1223.000000	100.243771 
1222.000000	100.242868 
1221.000000	100.242995 
1220.000000	100.243761 
1219.000000	100.244737 
1218.000000	100.245879 
1217.000000	100.246999 
1216.000000	100.247376 
1215.000000	100.246342 
1214.000000	100.244086 
1213.000000	100.241381 
1212.000000	100.238556 
1211.000000	100.235312 
1210.000000	100.231672 
1209.000000	100.228493 
1208.000000	100.226451 
1207.000000	100.224858 
1206.000000	100.222319 
1205.000000	100.218620 
1204.000000	100.215176 
1203.000000	100.213304 
1202.000000	100.212648 
1201.000000	100.211776 
1200.000000	100.209807 
1199.000000	100.206771 
1198.000000	100.202968 
1197.000000	100.198607 
1196.000000	100.193710 
1195.000000	100.188069 
1194.000000	100.181484 
1193.000000	100.174341 
1192.000000	100.167786 
1191.000000	100.162669 
1190.000000	100.158411 
1189.000000	100.153635 
1188.000000	100.147897 
1187.000000	100.142120 
1186.000000	100.137324 
1185.000000	100.133604 
1184.000000	100.130431 
1183.000000	100.127181 
1182.000000	100.123184 
1181.000000	100.118036 
1180.000000	100.112209 
1179.000000	100.106764 
1178.000000	100.102231 
1177.000000	100.098317 
1176.000000	100.094702 
1175.000000	100.091112 
1174.000000	100.086386 
1173.000000	100.078775 
1172.000000	100.068158 
1171.000000	100.057130 
1170.000000	100.048651 
1169.000000	100.042925 
1168.000000	100.037620 
1167.000000	100.031008 
1166.000000	100.024019 
1165.000000	100.019039 
1164.000000	100.017482 
1163.000000	100.018780 
1162.000000	100.021183 
1161.000000	100.023430 
1160.000000	100.025749 
1159.000000	100.028890 
1158.000000	100.031928 
1157.000000	100.031698 
1156.000000	100.025334 
1155.000000	100.013421 
1154.000000	100.000256 
1153.000000	99.990558  
1152.000000	99.985801  
1151.000000	99.983606  
1150.000000	99.980204  
1149.000000	99.973696  
1148.000000	99.965378  
1147.000000	99.958006  
1146.000000	99.952595  
1145.000000	99.947210  
1144.000000	99.939119  
1143.000000	99.927697  
1142.000000	99.914979  
1141.000000	99.903942  
1140.000000	99.896642  
1139.000000	99.893153  
1138.000000	99.891108  
1137.000000	99.886721  
1136.000000	99.877630  
1135.000000	99.864985  
1134.000000	99.852065  
1133.000000	99.840593  
1132.000000	99.829410  
1131.000000	99.817121  
1130.000000	99.804782  
1129.000000	99.794818  
1128.000000	99.787564  
1127.000000	99.779978  
1126.000000	99.768376  
1125.000000	99.752220  
1124.000000	99.734874  
1123.000000	99.720475  
1122.000000	99.710074  
1121.000000	99.701171  
1120.000000	99.690749  
1119.000000	99.677976  
1118.000000	99.663864  
1117.000000	99.649388  
1116.000000	99.634807  
1115.000000	99.620355  
1114.000000	99.606544  
1113.000000	99.593657  
1112.000000	99.581416  
1111.000000	99.568988  
1110.000000	99.555028  
1109.000000	99.538333  
1108.000000	99.519391  
1107.000000	99.500813  
1106.000000	99.485000  
1105.000000	99.471581  
1104.000000	99.458012  
1103.000000	99.442776  
1102.000000	99.427312  
1101.000000	99.414220  
1100.000000	99.404304  
1099.000000	99.396000  
1098.000000	99.387036  
1097.000000	99.376533  
1096.000000	99.365151  
1095.000000	99.353661  
1094.000000	99.341553  
1093.000000	99.327132  
1092.000000	99.308890  
1091.000000	99.286849  
1090.000000	99.262851  
1089.000000	99.239557  
1088.000000	99.218834  
1087.000000	99.200720  
1086.000000	99.183865  
1085.000000	99.167190  
1084.000000	99.151009  
1083.000000	99.136111  
1082.000000	99.121981  
1081.000000	99.106758  
1080.000000	99.089221  
1079.000000	99.070217  
1078.000000	99.051918  
1077.000000	99.036307  
1076.000000	99.024698  
1075.000000	99.017812  
1074.000000	99.015438  
1073.000000	99.016083  
1072.000000	99.017063  
1071.000000	99.014511  
1070.000000	99.003827  
1069.000000	98.982253  
1068.000000	98.952735  
1067.000000	98.924638  
1066.000000	98.907913  
1065.000000	98.905540  
1064.000000	98.912050  
1063.000000	98.918603  
1062.000000	98.918850  
1061.000000	98.910260  
1060.000000	98.892793  
1059.000000	98.869320  
1058.000000	98.846465  
1057.000000	98.831366  
1056.000000	98.825891  
1055.000000	98.825081  
1054.000000	98.822329  
1053.000000	98.815669  
1052.000000	98.807984  
1051.000000	98.802130  
1050.000000	98.797990  
1049.000000	98.793976  
1048.000000	98.789066  
1047.000000	98.783027  
1046.000000	98.776611  
1045.000000	98.771742  
1044.000000	98.769690  
1043.000000	98.768920  
1042.000000	98.766676  
1041.000000	98.763029  
1040.000000	98.761237  
1039.000000	98.763666  
1038.000000	98.769805  
1037.000000	98.778969  
1036.000000	98.792013  
1035.000000	98.808726  
1034.000000	98.825991  
1033.000000	98.840465  
1032.000000	98.850919  
1031.000000	98.856432  
1030.000000	98.855677  
1029.000000	98.851104  
1028.000000	98.851046  
1027.000000	98.862864  
1026.000000	98.884373  
1025.000000	98.905393  
1024.000000	98.918001  
1023.000000	98.922424  
1022.000000	98.923636  
1021.000000	98.925901  
1020.000000	98.931209  
1019.000000	98.939713  
1018.000000	98.949657  
1017.000000	98.958499  
1016.000000	98.965379  
1015.000000	98.971612  
1014.000000	98.978584  
1013.000000	98.986339  
1012.000000	98.994228  
1011.000000	99.001625  
1010.000000	99.008024  
1009.000000	99.013768  
1008.000000	99.020563  
1007.000000	99.029932  
1006.000000	99.041406  
1005.000000	99.053523  
1004.000000	99.066056  
1003.000000	99.079602  
1002.000000	99.093487  
1001.000000	99.106113  
1000.000000	99.117301  
999.000000	 99.128339  
998.000000	 99.139605  
997.000000	 99.150238  
996.000000	 99.160638  
995.000000	 99.173170  
994.000000	 99.189095  
993.000000	 99.206163  
992.000000	 99.220580  
991.000000	 99.230713  
990.000000	 99.237889  
989.000000	 99.244398  
988.000000	 99.251819  
987.000000	 99.260962  
986.000000	 99.272389  
985.000000	 99.286675  
984.000000	 99.303814  
983.000000	 99.322129  
982.000000	 99.338736  
981.000000	 99.352002  
980.000000	 99.363354  
979.000000	 99.375810  
978.000000	 99.391078  
977.000000	 99.408981  
976.000000	 99.428788  
975.000000	 99.449332  
974.000000	 99.468403  
973.000000	 99.484359  
972.000000	 99.498652  
971.000000	 99.514897  
970.000000	 99.534903  
969.000000	 99.556949  
968.000000	 99.578160  
967.000000	 99.596997  
966.000000	 99.613218  
965.000000	 99.627261  
964.000000	 99.640479  
963.000000	 99.654629  
962.000000	 99.670278  
961.000000	 99.686577  
960.000000	 99.702790  
959.000000	 99.718675  
958.000000	 99.733182  
957.000000	 99.744519  
956.000000	 99.752477  
955.000000	 99.759560  
954.000000	 99.768773  
953.000000	 99.780818  
952.000000	 99.793975  
951.000000	 99.805860  
950.000000	 99.814680  
949.000000	 99.819816  
948.000000	 99.822257  
947.000000	 99.823966  
946.000000	 99.826016  
945.000000	 99.827898  
944.000000	 99.829249  
943.000000	 99.831501  
942.000000	 99.836872  
941.000000	 99.845796  
940.000000	 99.855822  
939.000000	 99.863177  
938.000000	 99.865642  
937.000000	 99.864507  
936.000000	 99.863934  
935.000000	 99.867867  
934.000000	 99.877029  
933.000000	 99.888889  
932.000000	 99.900208  
931.000000	 99.909140  
930.000000	 99.915273  
929.000000	 99.918781  
928.000000	 99.920083  
927.000000	 99.919814  
926.000000	 99.918662  
925.000000	 99.917484  
924.000000	 99.917759  
923.000000	 99.921283  
922.000000	 99.928652  
921.000000	 99.938022  
920.000000	 99.945840  
919.000000	 99.949358  
918.000000	 99.948639  
917.000000	 99.946286  
916.000000	 99.945160  
915.000000	 99.946210  
914.000000	 99.948413  
913.000000	 99.950427  
912.000000	 99.952011  
911.000000	 99.954144  
910.000000	 99.958276  
909.000000	 99.965384  
908.000000	 99.975074  
907.000000	 99.985215  
906.000000	 99.993059  
905.000000	 99.997420  
904.000000	 99.999622  
903.000000	 100.002317 
902.000000	 100.007450 
901.000000	 100.015249 
900.000000	 100.024559 
899.000000	 100.033589 
898.000000	 100.040752 
897.000000	 100.045412 
896.000000	 100.048035 
895.000000	 100.049786 
894.000000	 100.052061 
893.000000	 100.056135 
892.000000	 100.062596 
891.000000	 100.070779 
890.000000	 100.079294 
889.000000	 100.087508 
888.000000	 100.095923 
887.000000	 100.104827 
886.000000	 100.113476 
885.000000	 100.121310 
884.000000	 100.129021 
883.000000	 100.137132 
882.000000	 100.144131 
881.000000	 100.147776 
880.000000	 100.148464 
879.000000	 100.149902 
878.000000	 100.155611 
877.000000	 100.165698 
876.000000	 100.177199 
875.000000	 100.186535 
874.000000	 100.191673 
873.000000	 100.193241 
872.000000	 100.194302 
871.000000	 100.197909 
870.000000	 100.204420 
869.000000	 100.212233 
868.000000	 100.221028 
867.000000	 100.232240 
866.000000	 100.245625 
865.000000	 100.257775 
864.000000	 100.266083 
863.000000	 100.272539 
862.000000	 100.281107 
861.000000	 100.291806 
860.000000	 100.300339 
859.000000	 100.303998 
858.000000	 100.305160 
857.000000	 100.307735 
856.000000	 100.312319 
855.000000	 100.317180 
854.000000	 100.322318 
853.000000	 100.329381 
852.000000	 100.337928 
851.000000	 100.345134 
850.000000	 100.349941 
849.000000	 100.354386 
848.000000	 100.359388 
847.000000	 100.362357 
846.000000	 100.361434 
845.000000	 100.359407 
844.000000	 100.360285 
843.000000	 100.363914 
842.000000	 100.367604 
841.000000	 100.371184 
840.000000	 100.375705 
839.000000	 100.378105 
838.000000	 100.373101 
837.000000	 100.361478 
836.000000	 100.351292 
835.000000	 100.348247 
834.000000	 100.349148 
833.000000	 100.348132 
832.000000	 100.345181 
831.000000	 100.343929 
830.000000	 100.344039 
829.000000	 100.341526 
828.000000	 100.336165 
827.000000	 100.333257 
826.000000	 100.336570 
825.000000	 100.342944 
824.000000	 100.345851 
823.000000	 100.342632 
822.000000	 100.337138 
821.000000	 100.335967 
820.000000	 100.342192 
819.000000	 100.352471 
818.000000	 100.360828 
817.000000	 100.364928 
816.000000	 100.366534 
815.000000	 100.365937 
814.000000	 100.359863 
813.000000	 100.346883 
812.000000	 100.331255 
811.000000	 100.317791 
810.000000	 100.304971 
809.000000	 100.286982 
808.000000	 100.261082 
807.000000	 100.229356 
806.000000	 100.194376 
805.000000	 100.157217 
804.000000	 100.120246 
803.000000	 100.088341 
802.000000	 100.065658 
801.000000	 100.052690 
800.000000	 100.046802 
799.000000	 100.044662 
798.000000	 100.045004 
797.000000	 100.049822 
796.000000	 100.061138 
795.000000	 100.075960 
794.000000	 100.087361 
793.000000	 100.092619 
792.000000	 100.097116 
791.000000	 100.107103 
790.000000	 100.121441 
789.000000	 100.133690 
788.000000	 100.139439 
787.000000	 100.137425 
786.000000	 100.126238 
785.000000	 100.105489 
784.000000	 100.079774 
783.000000	 100.057029 
782.000000	 100.042236 
781.000000	 100.035253 
780.000000	 100.033646 
779.000000	 100.034352 
778.000000	 100.034057 
777.000000	 100.032368 
776.000000	 100.034128 
775.000000	 100.044579 
774.000000	 100.062430 
773.000000	 100.081154 
772.000000	 100.096801 
771.000000	 100.110561 
770.000000	 100.123840 
769.000000	 100.135019 
768.000000	 100.141954 
767.000000	 100.144851 
766.000000	 100.146104 
765.000000	 100.149235 
764.000000	 100.157499 
763.000000	 100.170745 
762.000000	 100.183611 
761.000000	 100.189699 
760.000000	 100.188037 
759.000000	 100.183825 
758.000000	 100.183131 
757.000000	 100.187893 
756.000000	 100.195426 
755.000000	 100.200844 
754.000000	 100.200792 
753.000000	 100.196924 
752.000000	 100.195482 
751.000000	 100.201529 
750.000000	 100.213879 
749.000000	 100.226527 
748.000000	 100.234829 
747.000000	 100.238941 
746.000000	 100.241590 
745.000000	 100.244841 
744.000000	 100.249259 
743.000000	 100.254503 
742.000000	 100.259859 
741.000000	 100.265030 
740.000000	 100.270664 
739.000000	 100.277414 
738.000000	 100.284582 
737.000000	 100.290437 
736.000000	 100.293781 
735.000000	 100.294644 
734.000000	 100.293933 
733.000000	 100.293129 
732.000000	 100.294014 
731.000000	 100.297713 
730.000000	 100.303607 
729.000000	 100.309746 
728.000000	 100.314836 
727.000000	 100.318977 
726.000000	 100.322380 
725.000000	 100.324391 
724.000000	 100.324418 
723.000000	 100.322855 
722.000000	 100.320704 
721.000000	 100.319275 
720.000000	 100.320256 
719.000000	 100.324649 
718.000000	 100.331253 
717.000000	 100.337176 
716.000000	 100.340411 
715.000000	 100.340843 
714.000000	 100.339399 
713.000000	 100.337460 
712.000000	 100.336952 
711.000000	 100.339320 
710.000000	 100.343572 
709.000000	 100.346646 
708.000000	 100.346337 
707.000000	 100.342985 
706.000000	 100.338084 
705.000000	 100.332930 
704.000000	 100.328770 
703.000000	 100.326768 
702.000000	 100.327245 
701.000000	 100.329172 
700.000000	 100.330947 
699.000000	 100.331341 
698.000000	 100.330105 
697.000000	 100.328130 
696.000000	 100.326869 
695.000000	 100.327101 
694.000000	 100.328343 
693.000000	 100.329689 
692.000000	 100.330823 
691.000000	 100.331865 
690.000000	 100.332821 
689.000000	 100.333654 
688.000000	 100.334492 
687.000000	 100.335376 
686.000000	 100.336129 
685.000000	 100.336678 
684.000000	 100.337164 
683.000000	 100.337695 
682.000000	 100.338252 
681.000000	 100.338807 
680.000000	 100.339359 
679.000000	 100.339902 
678.000000	 100.340417 
677.000000	 100.340899 
676.000000	 100.341370 
675.000000	 100.341876 
674.000000	 100.342450 
673.000000	 100.343097 
672.000000	 100.343807 
671.000000	 100.344580 
670.000000	 100.345435 
669.000000	 100.346399 
668.000000	 100.347490 
667.000000	 100.348687 
666.000000	 100.349947 
665.000000	 100.351240 
664.000000	 100.352554 
663.000000	 100.353889 
662.000000	 100.355232 
661.000000	 100.356535 
660.000000	 100.357739 
659.000000	 100.358820 
658.000000	 100.359800 
657.000000	 100.360731 
656.000000	 100.361666 
655.000000	 100.362640 
654.000000	 100.363656 
653.000000	 100.364692 
652.000000	 100.365723 
651.000000	 100.366736 
650.000000	 100.367737 

