4000.000000	99.285078 
3999.000000	99.283923 
3998.000000	99.283363 
3997.000000	99.283867 
3996.000000	99.285138 
3995.000000	99.286166 
3994.000000	99.286313 
3993.000000	99.285795 
3992.000000	99.285258 
3991.000000	99.284974 
3990.000000	99.284579 
3989.000000	99.283559 
3988.000000	99.281843 
3987.000000	99.279977 
3986.000000	99.278750 
3985.000000	99.278642 
3984.000000	99.279550 
3983.000000	99.281043 
3982.000000	99.282776 
3981.000000	99.284590 
3980.000000	99.286266 
3979.000000	99.287409 
3978.000000	99.287721 
3977.000000	99.287304 
3976.000000	99.286546 
3975.000000	99.285724 
3974.000000	99.284789 
3973.000000	99.283613 
3972.000000	99.282331 
3971.000000	99.281377 
3970.000000	99.281220 
3969.000000	99.282009 
3968.000000	99.283428 
3967.000000	99.284834 
3966.000000	99.285638 
3965.000000	99.285620 
3964.000000	99.284988 
3963.000000	99.284255 
3962.000000	99.283925 
3961.000000	99.284127 
3960.000000	99.284462 
3959.000000	99.284326 
3958.000000	99.283540 
3957.000000	99.282584 
3956.000000	99.282153 
3955.000000	99.282439 
3954.000000	99.282975 
3953.000000	99.283140 
3952.000000	99.282702 
3951.000000	99.281900 
3950.000000	99.281098 
3949.000000	99.280434 
3948.000000	99.279892 
3947.000000	99.279600 
3946.000000	99.279780 
3945.000000	99.280377 
3944.000000	99.280926 
3943.000000	99.280907 
3942.000000	99.280253 
3941.000000	99.279392 
3940.000000	99.278712 
3939.000000	99.278208 
3938.000000	99.277833 
3937.000000	99.277740 
3936.000000	99.278103 
3935.000000	99.278763 
3934.000000	99.279346 
3933.000000	99.279660 
3932.000000	99.279787 
3931.000000	99.279898 
3930.000000	99.280054 
3929.000000	99.280248 
3928.000000	99.280499 
3927.000000	99.280600 
3926.000000	99.280195 
3925.000000	99.279258 
3924.000000	99.278370 
3923.000000	99.278017 
3922.000000	99.277792 
3921.000000	99.277128 
3920.000000	99.276285 
3919.000000	99.275834 
3918.000000	99.275744 
3917.000000	99.275560 
3916.000000	99.275221 
3915.000000	99.275051 
3914.000000	99.275106 
3913.000000	99.275090 
3912.000000	99.274860 
3911.000000	99.274540 
3910.000000	99.274345 
3909.000000	99.274336 
3908.000000	99.274487 
3907.000000	99.274697 
3906.000000	99.274847 
3905.000000	99.274845 
3904.000000	99.274689 
3903.000000	99.274470 
3902.000000	99.274248 
3901.000000	99.274005 
3900.000000	99.273741 
3899.000000	99.273485 
3898.000000	99.273245 
3897.000000	99.273013 
3896.000000	99.272787 
3895.000000	99.272568 
3894.000000	99.272362 
3893.000000	99.272166 
3892.000000	99.271977 
3891.000000	99.271796 
3890.000000	99.271630 
3889.000000	99.271479 
3888.000000	99.271336 
3887.000000	99.271197 
3886.000000	99.271060 
3885.000000	99.270931 
3884.000000	99.270817 
3883.000000	99.270715 
3882.000000	99.270616 
3881.000000	99.270517 
3880.000000	99.270426 
3879.000000	99.270353 
3878.000000	99.270304 
3877.000000	99.270267 
3876.000000	99.270230 
3875.000000	99.270182 
3874.000000	99.270119 
3873.000000	99.270045 
3872.000000	99.269967 
3871.000000	99.269874 
3870.000000	99.269757 
3869.000000	99.269650 
3868.000000	99.269615 
3867.000000	99.269665 
3866.000000	99.269708 
3865.000000	99.269683 
3864.000000	99.269644 
3863.000000	99.269660 
3862.000000	99.269700 
3861.000000	99.269688 
3860.000000	99.269616 
3859.000000	99.269456 
3858.000000	99.269131 
3857.000000	99.268691 
3856.000000	99.268505 
3855.000000	99.268956 
3854.000000	99.269713 
3853.000000	99.269949 
3852.000000	99.270150 
3851.000000	99.270991 
3850.000000	99.271924 
3849.000000	99.272408 
3848.000000	99.272597 
3847.000000	99.272789 
3846.000000	99.273055 
3845.000000	99.273313 
3844.000000	99.273516 
3843.000000	99.273673 
3842.000000	99.273833 
3841.000000	99.273976 
3840.000000	99.274050 
3839.000000	99.274034 
3838.000000	99.273955 
3837.000000	99.273829 
3836.000000	99.273677 
3835.000000	99.273469 
3834.000000	99.273173 
3833.000000	99.272837 
3832.000000	99.272583 
3831.000000	99.272519 
3830.000000	99.272658 
3829.000000	99.272875 
3828.000000	99.272996 
3827.000000	99.272942 
3826.000000	99.272803 
3825.000000	99.272745 
3824.000000	99.272821 
3823.000000	99.272909 
3822.000000	99.272839 
3821.000000	99.272546 
3820.000000	99.272222 
3819.000000	99.272056 
3818.000000	99.271922 
3817.000000	99.271693 
3816.000000	99.271407 
3815.000000	99.271181 
3814.000000	99.271050 
3813.000000	99.270934 
3812.000000	99.270731 
3811.000000	99.270460 
3810.000000	99.270216 
3809.000000	99.270046 
3808.000000	99.269899 
3807.000000	99.269688 
3806.000000	99.269454 
3805.000000	99.269312 
3804.000000	99.269217 
3803.000000	99.269015 
3802.000000	99.268640 
3801.000000	99.268160 
3800.000000	99.267864 
3799.000000	99.267889 
3798.000000	99.267882 
3797.000000	99.267537 
3796.000000	99.267053 
3795.000000	99.266873 
3794.000000	99.267166 
3793.000000	99.267704 
3792.000000	99.268211 
3791.000000	99.268654 
3790.000000	99.269043 
3789.000000	99.269379 
3788.000000	99.269794 
3787.000000	99.270461 
3786.000000	99.271304 
3785.000000	99.272028 
3784.000000	99.272544 
3783.000000	99.273020 
3782.000000	99.273464 
3781.000000	99.273601 
3780.000000	99.273282 
3779.000000	99.272715 
3778.000000	99.272339 
3777.000000	99.272305 
3776.000000	99.272405 
3775.000000	99.272507 
3774.000000	99.272755 
3773.000000	99.273226 
3772.000000	99.273699 
3771.000000	99.273906 
3770.000000	99.273880 
3769.000000	99.273914 
3768.000000	99.274188 
3767.000000	99.274574 
3766.000000	99.274874 
3765.000000	99.275067 
3764.000000	99.275322 
3763.000000	99.275789 
3762.000000	99.276393 
3761.000000	99.276952 
3760.000000	99.277415 
3759.000000	99.277753 
3758.000000	99.277885 
3757.000000	99.277816 
3756.000000	99.277778 
3755.000000	99.277946 
3754.000000	99.278252 
3753.000000	99.278643 
3752.000000	99.279030 
3751.000000	99.278745 
3750.000000	99.277124 
3749.000000	99.275112 
3748.000000	99.274279 
3747.000000	99.274515 
3746.000000	99.274502 
3745.000000	99.273078 
3744.000000	99.270313 
3743.000000	99.269476 
3742.000000	99.271979 
3741.000000	99.273694 
3740.000000	99.272389 
3739.000000	99.270523 
3738.000000	99.270690 
3737.000000	99.272297 
3736.000000	99.273186 
3735.000000	99.272707 
3734.000000	99.271242 
3733.000000	99.268311 
3732.000000	99.264178 
3731.000000	99.261663 
3730.000000	99.262706 
3729.000000	99.265372 
3728.000000	99.266613 
3727.000000	99.266321 
3726.000000	99.266707 
3725.000000	99.268752 
3724.000000	99.270153 
3723.000000	99.268245 
3722.000000	99.263353 
3721.000000	99.258112 
3720.000000	99.254604 
3719.000000	99.252539 
3718.000000	99.250448 
3717.000000	99.247357 
3716.000000	99.243358 
3715.000000	99.238685 
3714.000000	99.233695 
3713.000000	99.229322 
3712.000000	99.225394 
3711.000000	99.220555 
3710.000000	99.215119 
3709.000000	99.210228 
3708.000000	99.205617 
3707.000000	99.200373 
3706.000000	99.194390 
3705.000000	99.188274 
3704.000000	99.182593 
3703.000000	99.177423 
3702.000000	99.172311 
3701.000000	99.167213 
3700.000000	99.163065 
3699.000000	99.159536 
3698.000000	99.154402 
3697.000000	99.146772 
3696.000000	99.138853 
3695.000000	99.133514 
3694.000000	99.131071 
3693.000000	99.129885 
3692.000000	99.128660 
3691.000000	99.126330 
3690.000000	99.120907 
3689.000000	99.111155 
3688.000000	99.100567 
3687.000000	99.094663 
3686.000000	99.093775 
3685.000000	99.093763 
3684.000000	99.092356 
3683.000000	99.090733 
3682.000000	99.089950 
3681.000000	99.088546 
3680.000000	99.084505 
3679.000000	99.078514 
3678.000000	99.072698 
3677.000000	99.067881 
3676.000000	99.062743 
3675.000000	99.057851 
3674.000000	99.058458 
3673.000000	99.064653 
3672.000000	99.069018 
3671.000000	99.068061 
3670.000000	99.063413 
3669.000000	99.057743 
3668.000000	99.053790 
3667.000000	99.051316 
3666.000000	99.048862 
3665.000000	99.046943 
3664.000000	99.046539 
3663.000000	99.047325 
3662.000000	99.048256 
3661.000000	99.048949 
3660.000000	99.050112 
3659.000000	99.052603 
3658.000000	99.055990 
3657.000000	99.058681 
3656.000000	99.059768 
3655.000000	99.061318 
3654.000000	99.065092 
3653.000000	99.069795 
3652.000000	99.074306 
3651.000000	99.079061 
3650.000000	99.082558 
3649.000000	99.081566 
3648.000000	99.076771 
3647.000000	99.072923 
3646.000000	99.073143 
3645.000000	99.076744 
3644.000000	99.081381 
3643.000000	99.085337 
3642.000000	99.088425 
3641.000000	99.091179 
3640.000000	99.093961 
3639.000000	99.096807 
3638.000000	99.099927 
3637.000000	99.103625 
3636.000000	99.107378 
3635.000000	99.109980 
3634.000000	99.110953 
3633.000000	99.111264 
3632.000000	99.112132 
3631.000000	99.113944 
3630.000000	99.116214 
3629.000000	99.117604 
3628.000000	99.118086 
3627.000000	99.119740 
3626.000000	99.122669 
3625.000000	99.125501 
3624.000000	99.128022 
3623.000000	99.130548 
3622.000000	99.132955 
3621.000000	99.134921 
3620.000000	99.136428 
3619.000000	99.137822 
3618.000000	99.139723 
3617.000000	99.142563 
3616.000000	99.145918 
3615.000000	99.148730 
3614.000000	99.150204 
3613.000000	99.150367 
3612.000000	99.150066 
3611.000000	99.150172 
3610.000000	99.150908 
3609.000000	99.152157 
3608.000000	99.153816 
3607.000000	99.155833 
3606.000000	99.158077 
3605.000000	99.160265 
3604.000000	99.162344 
3603.000000	99.164434 
3602.000000	99.166332 
3601.000000	99.167842 
3600.000000	99.169424 
3599.000000	99.171731 
3598.000000	99.174379 
3597.000000	99.176378 
3596.000000	99.177103 
3595.000000	99.176741 
3594.000000	99.176054 
3593.000000	99.176333 
3592.000000	99.178584 
3591.000000	99.182888 
3590.000000	99.188277 
3589.000000	99.192827 
3588.000000	99.194038 
3587.000000	99.190972 
3586.000000	99.185953 
3585.000000	99.181966 
3584.000000	99.179594 
3583.000000	99.178140 
3582.000000	99.176938 
3581.000000	99.175447 
3580.000000	99.173331 
3579.000000	99.170833 
3578.000000	99.168525 
3577.000000	99.167063 
3576.000000	99.166954 
3575.000000	99.168324 
3574.000000	99.170769 
3573.000000	99.173583 
3572.000000	99.176213 
3571.000000	99.178291 
3570.000000	99.179470 
3569.000000	99.179322 
3568.000000	99.177585 
3567.000000	99.174743 
3566.000000	99.172410 
3565.000000	99.171872 
3564.000000	99.172397 
3563.000000	99.172558 
3562.000000	99.171985 
3561.000000	99.171145 
3560.000000	99.170449 
3559.000000	99.169972 
3558.000000	99.169594 
3557.000000	99.169189 
3556.000000	99.168837 
3555.000000	99.168662 
3554.000000	99.168507 
3553.000000	99.167935 
3552.000000	99.166779 
3551.000000	99.165377 
3550.000000	99.164098 
3549.000000	99.163012 
3548.000000	99.162255 
3547.000000	99.162070 
3546.000000	99.162307 
3545.000000	99.162407 
3544.000000	99.161963 
3543.000000	99.161067 
3542.000000	99.160138 
3541.000000	99.159555 
3540.000000	99.159446 
3539.000000	99.159619 
3538.000000	99.159763 
3537.000000	99.159656 
3536.000000	99.159284 
3535.000000	99.158806 
3534.000000	99.158391 
3533.000000	99.158145 
3532.000000	99.158099 
3531.000000	99.158205 
3530.000000	99.158318 
3529.000000	99.158303 
3528.000000	99.158145 
3527.000000	99.157935 
3526.000000	99.157728 
3525.000000	99.157488 
3524.000000	99.157180 
3523.000000	99.156833 
3522.000000	99.156505 
3521.000000	99.156209 
3520.000000	99.155918 
3519.000000	99.155614 
3518.000000	99.155310 
3517.000000	99.155027 
3516.000000	99.154773 
3515.000000	99.154543 
3514.000000	99.154320 
3513.000000	99.154093 
3512.000000	99.153861 
3511.000000	99.153626 
3510.000000	99.153387 
3509.000000	99.153142 
3508.000000	99.152889 
3507.000000	99.152625 
3506.000000	99.152340 
3505.000000	99.152027 
3504.000000	99.151685 
3503.000000	99.151323 
3502.000000	99.150955 
3501.000000	99.150589 
3500.000000	99.150223 
3499.000000	99.149846 
3498.000000	99.149444 
3497.000000	99.149014 
3496.000000	99.148562 
3495.000000	99.148102 
3494.000000	99.147640 
3493.000000	99.147178 
3492.000000	99.146712 
3491.000000	99.146238 
3490.000000	99.145757 
3489.000000	99.145269 
3488.000000	99.144778 
3487.000000	99.144287 
3486.000000	99.143795 
3485.000000	99.143305 
3484.000000	99.142816 
3483.000000	99.142331 
3482.000000	99.141851 
3481.000000	99.141374 
3480.000000	99.140901 
3479.000000	99.140432 
3478.000000	99.139970 
3477.000000	99.139515 
3476.000000	99.139065 
3475.000000	99.138614 
3474.000000	99.138161 
3473.000000	99.137704 
3472.000000	99.137250 
3471.000000	99.136825 
3470.000000	99.136453 
3469.000000	99.136118 
3468.000000	99.135773 
3467.000000	99.135367 
3466.000000	99.134854 
3465.000000	99.134200 
3464.000000	99.133423 
3463.000000	99.132602 
3462.000000	99.131821 
3461.000000	99.131106 
3460.000000	99.130419 
3459.000000	99.129758 
3458.000000	99.129215 
3457.000000	99.128883 
3456.000000	99.128739 
3455.000000	99.128625 
3454.000000	99.128369 
3453.000000	99.128027 
3452.000000	99.127834 
3451.000000	99.127928 
3450.000000	99.128158 
3449.000000	99.128235 
3448.000000	99.127972 
3447.000000	99.127385 
3446.000000	99.126616 
3445.000000	99.125875 
3444.000000	99.125380 
3443.000000	99.125234 
3442.000000	99.125280 
3441.000000	99.125177 
3440.000000	99.124743 
3439.000000	99.124125 
3438.000000	99.123584 
3437.000000	99.123146 
3436.000000	99.122596 
3435.000000	99.121829 
3434.000000	99.121075 
3433.000000	99.120700 
3432.000000	99.120810 
3431.000000	99.121094 
3430.000000	99.121028 
3429.000000	99.120271 
3428.000000	99.118876 
3427.000000	99.117225 
3426.000000	99.115826 
3425.000000	99.115061 
3424.000000	99.115037 
3423.000000	99.115541 
3422.000000	99.116106 
3421.000000	99.116268 
3420.000000	99.115839 
3419.000000	99.114974 
3418.000000	99.114075 
3417.000000	99.113540 
3416.000000	99.113488 
3415.000000	99.113666 
3414.000000	99.113646 
3413.000000	99.113214 
3412.000000	99.112571 
3411.000000	99.112124 
3410.000000	99.112135 
3409.000000	99.112550 
3408.000000	99.113060 
3407.000000	99.113278 
3406.000000	99.112976 
3405.000000	99.112288 
3404.000000	99.111701 
3403.000000	99.111703 
3402.000000	99.112438 
3401.000000	99.113635 
3400.000000	99.114783 
3399.000000	99.115445 
3398.000000	99.115526 
3397.000000	99.115357 
3396.000000	99.115399 
3395.000000	99.115784 
3394.000000	99.116263 
3393.000000	99.116577 
3392.000000	99.116677 
3391.000000	99.116512 
3390.000000	99.115884 
3389.000000	99.114756 
3388.000000	99.113505 
3387.000000	99.112632 
3386.000000	99.112310 
3385.000000	99.112393 
3384.000000	99.112768 
3383.000000	99.113424 
3382.000000	99.114174 
3381.000000	99.114594 
3380.000000	99.114345 
3379.000000	99.113475 
3378.000000	99.112435 
3377.000000	99.111830 
3376.000000	99.112100 
3375.000000	99.113311 
3374.000000	99.115145 
3373.000000	99.117066 
3372.000000	99.118555 
3371.000000	99.119282 
3370.000000	99.119189 
3369.000000	99.118534 
3368.000000	99.117758 
3367.000000	99.117169 
3366.000000	99.116760 
3365.000000	99.116360 
3364.000000	99.115951 
3363.000000	99.115759 
3362.000000	99.116039 
3361.000000	99.116793 
3360.000000	99.117681 
3359.000000	99.118239 
3358.000000	99.118276 
3357.000000	99.118088 
3356.000000	99.118179 
3355.000000	99.118730 
3354.000000	99.119443 
3353.000000	99.119935 
3352.000000	99.120155 
3351.000000	99.120372 
3350.000000	99.120845 
3349.000000	99.121613 
3348.000000	99.122531 
3347.000000	99.123373 
3346.000000	99.123950 
3345.000000	99.124238 
3344.000000	99.124400 
3343.000000	99.124603 
3342.000000	99.124823 
3341.000000	99.124925 
3340.000000	99.124906 
3339.000000	99.124942 
3338.000000	99.125130 
3337.000000	99.125302 
3336.000000	99.125212 
3335.000000	99.124885 
3334.000000	99.124697 
3333.000000	99.125020 
3332.000000	99.125859 
3331.000000	99.126854 
3330.000000	99.127629 
3329.000000	99.128131 
3328.000000	99.128575 
3327.000000	99.129130 
3326.000000	99.129731 
3325.000000	99.130204 
3324.000000	99.130510 
3323.000000	99.130803 
3322.000000	99.131231 
3321.000000	99.131735 
3320.000000	99.132103 
3319.000000	99.132223 
3318.000000	99.132211 
3317.000000	99.132320 
3316.000000	99.132692 
3315.000000	99.133258 
3314.000000	99.133824 
3313.000000	99.134256 
3312.000000	99.134575 
3311.000000	99.134866 
3310.000000	99.135180 
3309.000000	99.135510 
3308.000000	99.135824 
3307.000000	99.136095 
3306.000000	99.136316 
3305.000000	99.136479 
3304.000000	99.136566 
3303.000000	99.136557 
3302.000000	99.136487 
3301.000000	99.136477 
3300.000000	99.136666 
3299.000000	99.137080 
3298.000000	99.137584 
3297.000000	99.138006 
3296.000000	99.138300 
3295.000000	99.138564 
3294.000000	99.138943 
3293.000000	99.139504 
3292.000000	99.140155 
3291.000000	99.140668 
3290.000000	99.140849 
3289.000000	99.140736 
3288.000000	99.140600 
3287.000000	99.140717 
3286.000000	99.141120 
3285.000000	99.141584 
3284.000000	99.141816 
3283.000000	99.141698 
3282.000000	99.141390 
3281.000000	99.141236 
3280.000000	99.141453 
3279.000000	99.141892 
3278.000000	99.142217 
3277.000000	99.142325 
3276.000000	99.142478 
3275.000000	99.142948 
3274.000000	99.143663 
3273.000000	99.144278 
3272.000000	99.144489 
3271.000000	99.144168 
3270.000000	99.143364 
3269.000000	99.142362 
3268.000000	99.141664 
3267.000000	99.141708 
3266.000000	99.142608 
3265.000000	99.144152 
3264.000000	99.145971 
3263.000000	99.147671 
3262.000000	99.148935 
3261.000000	99.149660 
3260.000000	99.149980 
3259.000000	99.150086 
3258.000000	99.150041 
3257.000000	99.149794 
3256.000000	99.149293 
3255.000000	99.148553 
3254.000000	99.147746 
3253.000000	99.147275 
3252.000000	99.147552 
3251.000000	99.148594 
3250.000000	99.149902 
3249.000000	99.150878 
3248.000000	99.151346 
3247.000000	99.151535 
3246.000000	99.151698 
3245.000000	99.151868 
3244.000000	99.151993 
3243.000000	99.152168 
3242.000000	99.152681 
3241.000000	99.153796 
3240.000000	99.155386 
3239.000000	99.156795 
3238.000000	99.157314 
3237.000000	99.156862 
3236.000000	99.156119 
3235.000000	99.155849 
3234.000000	99.156142 
3233.000000	99.156580 
3232.000000	99.156931 
3231.000000	99.157394 
3230.000000	99.158156 
3229.000000	99.158995 
3228.000000	99.159451 
3227.000000	99.159226 
3226.000000	99.158356 
3225.000000	99.157210 
3224.000000	99.156379 
3223.000000	99.156350 
3222.000000	99.157186 
3221.000000	99.158539 
3220.000000	99.159978 
3219.000000	99.161234 
3218.000000	99.162138 
3217.000000	99.162569 
3216.000000	99.162593 
3215.000000	99.162553 
3214.000000	99.162808 
3213.000000	99.163390 
3212.000000	99.164055 
3211.000000	99.164690 
3210.000000	99.165543 
3209.000000	99.166920 
3208.000000	99.168701 
3207.000000	99.170271 
3206.000000	99.171037 
3205.000000	99.170990 
3204.000000	99.170706 
3203.000000	99.170768 
3202.000000	99.171354 
3201.000000	99.172399 
3200.000000	99.173873 
3199.000000	99.175606 
3198.000000	99.177051 
3197.000000	99.177701 
3196.000000	99.177757 
3195.000000	99.177988 
3194.000000	99.178709 
3193.000000	99.179246 
3192.000000	99.178784 
3191.000000	99.177540 
3190.000000	99.176728 
3189.000000	99.177340 
3188.000000	99.179254 
3187.000000	99.181463 
3186.000000	99.182958 
3185.000000	99.183311 
3184.000000	99.182655 
3183.000000	99.181446 
3182.000000	99.180211 
3181.000000	99.179299 
3180.000000	99.178768 
3179.000000	99.178465 
3178.000000	99.178233 
3177.000000	99.177946 
3176.000000	99.177479 
3175.000000	99.176919 
3174.000000	99.176878 
3173.000000	99.178176 
3172.000000	99.180949 
3171.000000	99.184166 
3170.000000	99.186393 
3169.000000	99.187176 
3168.000000	99.187296 
3167.000000	99.187727 
3166.000000	99.188681 
3165.000000	99.189826 
3164.000000	99.191029 
3163.000000	99.192422 
3162.000000	99.193891 
3161.000000	99.194968 
3160.000000	99.195383 
3159.000000	99.195403 
3158.000000	99.195451 
3157.000000	99.195585 
3156.000000	99.195564 
3155.000000	99.195327 
3154.000000	99.195195 
3153.000000	99.195575 
3152.000000	99.196573 
3151.000000	99.197865 
3150.000000	99.198902 
3149.000000	99.199302 
3148.000000	99.199138 
3147.000000	99.198872 
3146.000000	99.198947 
3145.000000	99.199402 
3144.000000	99.199960 
3143.000000	99.200471 
3142.000000	99.201161 
3141.000000	99.202324 
3140.000000	99.203826 
3139.000000	99.205050 
3138.000000	99.205474 
3137.000000	99.205188 
3136.000000	99.204763 
3135.000000	99.204662 
3134.000000	99.204868 
3133.000000	99.205123 
3132.000000	99.205330 
3131.000000	99.205614 
3130.000000	99.206012 
3129.000000	99.206255 
3128.000000	99.206022 
3127.000000	99.205398 
3126.000000	99.204987 
3125.000000	99.205379 
3124.000000	99.206611 
3123.000000	99.208119 
3122.000000	99.209237 
3121.000000	99.209805 
3120.000000	99.210252 
3119.000000	99.211120 
3118.000000	99.212465 
3117.000000	99.213674 
3116.000000	99.213955 
3115.000000	99.213062 
3114.000000	99.211562 
3113.000000	99.210351 
3112.000000	99.209870 
3111.000000	99.209952 
3110.000000	99.210276 
3109.000000	99.210644 
3108.000000	99.210825 
3107.000000	99.210513 
3106.000000	99.209729 
3105.000000	99.209051 
3104.000000	99.209183 
3103.000000	99.210334 
3102.000000	99.212172 
3101.000000	99.214241 
3100.000000	99.216153 
3099.000000	99.217487 
3098.000000	99.218019 
3097.000000	99.218149 
3096.000000	99.218734 
3095.000000	99.220200 
3094.000000	99.222068 
3093.000000	99.223555 
3092.000000	99.224403 
3091.000000	99.224824 
3090.000000	99.224883 
3089.000000	99.224486 
3088.000000	99.224023 
3087.000000	99.224436 
3086.000000	99.226243 
3085.000000	99.228742 
3084.000000	99.230579 
3083.000000	99.230998 
3082.000000	99.230280 
3081.000000	99.229174 
3080.000000	99.228181 
3079.000000	99.227393 
3078.000000	99.226637 
3077.000000	99.225564 
3076.000000	99.223885 
3075.000000	99.221819 
3074.000000	99.220173 
3073.000000	99.219750 
3072.000000	99.220758 
3071.000000	99.222952 
3070.000000	99.225957 
3069.000000	99.228851 
3068.000000	99.229617 
3067.000000	99.226152 
3066.000000	99.218663 
3065.000000	99.210628 
3064.000000	99.206243 
3063.000000	99.206675 
3062.000000	99.209488 
3061.000000	99.211699 
3060.000000	99.212703 
3059.000000	99.213932 
3058.000000	99.216388 
3057.000000	99.219280 
3056.000000	99.220993 
3055.000000	99.220912 
3054.000000	99.220028 
3053.000000	99.219733 
3052.000000	99.220123 
3051.000000	99.219785 
3050.000000	99.217535 
3049.000000	99.213956 
3048.000000	99.210531 
3047.000000	99.207445 
3046.000000	99.203325 
3045.000000	99.197437 
3044.000000	99.191131 
3043.000000	99.186457 
3042.000000	99.183942 
3041.000000	99.182370 
3040.000000	99.180318 
3039.000000	99.177176 
3038.000000	99.172976 
3037.000000	99.168020 
3036.000000	99.162699 
3035.000000	99.157165 
3034.000000	99.151118 
3033.000000	99.144035 
3032.000000	99.135567 
3031.000000	99.125746 
3030.000000	99.114745 
3029.000000	99.102640 
3028.000000	99.089681 
3027.000000	99.076666 
3026.000000	99.064796 
3025.000000	99.054890 
3024.000000	99.046418 
3023.000000	99.037322 
3022.000000	99.025317 
3021.000000	99.009782 
3020.000000	98.992402 
3019.000000	98.975803 
3018.000000	98.961668 
3017.000000	98.950021 
3016.000000	98.939624 
3015.000000	98.928589 
3014.000000	98.915055 
3013.000000	98.898005 
3012.000000	98.877581 
3011.000000	98.854507 
3010.000000	98.829614 
3009.000000	98.804231 
3008.000000	98.780542 
3007.000000	98.760582 
3006.000000	98.744626 
3005.000000	98.730842 
3004.000000	98.716590 
3003.000000	98.699980 
3002.000000	98.680654 
3001.000000	98.659970 
3000.000000	98.640451 
2999.000000	98.624178 
2998.000000	98.611354 
2997.000000	98.600882 
2996.000000	98.592146 
2995.000000	98.584721 
2994.000000	98.575533 
2993.000000	98.558157 
2992.000000	98.527957 
2991.000000	98.488744 
2990.000000	98.452383 
2989.000000	98.429806 
2988.000000	98.422954 
2987.000000	98.425839 
2986.000000	98.431959 
2985.000000	98.439275 
2984.000000	98.448268 
2983.000000	98.457854 
2982.000000	98.464989 
2981.000000	98.467351 
2980.000000	98.465128 
2979.000000	98.460424 
2978.000000	98.455834 
2977.000000	98.453235 
2976.000000	98.452813 
2975.000000	98.452997 
2974.000000	98.451988 
2973.000000	98.449598 
2972.000000	98.447322 
2971.000000	98.446804 
2970.000000	98.448915 
2969.000000	98.454276 
2968.000000	98.463704 
2967.000000	98.477384 
2966.000000	98.493841 
2965.000000	98.510305 
2964.000000	98.524452 
2963.000000	98.535847 
2962.000000	98.545767 
2961.000000	98.555679 
2960.000000	98.566006 
2959.000000	98.576498 
2958.000000	98.587444 
2957.000000	98.599632 
2956.000000	98.612600 
2955.000000	98.623742 
2954.000000	98.630487 
2953.000000	98.633701 
2952.000000	98.638036 
2951.000000	98.647967 
2950.000000	98.663355 
2949.000000	98.679232 
2948.000000	98.690086 
2947.000000	98.694106 
2946.000000	98.693703 
2945.000000	98.692792 
2944.000000	98.693852 
2943.000000	98.697310 
2942.000000	98.702590 
2941.000000	98.708547 
2940.000000	98.713255 
2939.000000	98.714842 
2938.000000	98.713237 
2937.000000	98.710539 
2936.000000	98.709240 
2935.000000	98.710451 
2934.000000	98.713953 
2933.000000	98.718969 
2932.000000	98.724080 
2931.000000	98.727091 
2930.000000	98.726220 
2929.000000	98.721621 
2928.000000	98.715264 
2927.000000	98.709351 
2926.000000	98.705167 
2925.000000	98.702982 
2924.000000	98.702212 
2923.000000	98.701704 
2922.000000	98.700558 
2921.000000	98.698819 
2920.000000	98.697002 
2919.000000	98.695132 
2918.000000	98.692678 
2917.000000	98.689189 
2916.000000	98.684506 
2915.000000	98.678697 
2914.000000	98.672466 
2913.000000	98.667319 
2912.000000	98.664365 
2911.000000	98.662890 
2910.000000	98.660917 
2909.000000	98.657319 
2908.000000	98.652686 
2907.000000	98.647877 
2906.000000	98.642346 
2905.000000	98.634306 
2904.000000	98.622511 
2903.000000	98.608264 
2902.000000	98.596238 
2901.000000	98.592572 
2900.000000	98.600838 
2899.000000	98.618936 
2898.000000	98.639828 
2897.000000	98.656358 
2896.000000	98.665816 
2895.000000	98.670357 
2894.000000	98.674011 
2893.000000	98.679436 
2892.000000	98.686575 
2891.000000	98.693457 
2890.000000	98.698254 
2889.000000	98.700803 
2888.000000	98.702270 
2887.000000	98.703851 
2886.000000	98.706363 
2885.000000	98.710732 
2884.000000	98.717799 
2883.000000	98.727393 
2882.000000	98.738390 
2881.000000	98.750058 
2880.000000	98.762663 
2879.000000	98.776493 
2878.000000	98.790971 
2877.000000	98.805063 
2876.000000	98.817817 
2875.000000	98.828126 
2874.000000	98.834951 
2873.000000	98.838735 
2872.000000	98.842119 
2871.000000	98.848173 
2870.000000	98.857865 
2869.000000	98.869688 
2868.000000	98.881639 
2867.000000	98.893083 
2866.000000	98.904911 
2865.000000	98.918460 
2864.000000	98.934203 
2863.000000	98.950901 
2862.000000	98.966063 
2861.000000	98.977877 
2860.000000	98.987006 
2859.000000	98.996142 
2858.000000	99.007437 
2857.000000	99.020468 
2856.000000	99.032864 
2855.000000	99.042807 
2854.000000	99.050645 
2853.000000	99.058112 
2852.000000	99.066207 
2851.000000	99.074321 
2850.000000	99.081639 
2849.000000	99.088664 
2848.000000	99.096606 
2847.000000	99.105485 
2846.000000	99.113572 
2845.000000	99.118913 
2844.000000	99.121108 
2843.000000	99.121739 
2842.000000	99.123505 
2841.000000	99.128568 
2840.000000	99.136788 
2839.000000	99.145332 
2838.000000	99.150734 
2837.000000	99.151793 
2836.000000	99.150274 
2835.000000	99.148987 
2834.000000	99.149698 
2833.000000	99.152855 
2832.000000	99.158165 
2831.000000	99.164614 
2830.000000	99.170557 
2829.000000	99.174752 
2828.000000	99.177419 
2827.000000	99.179858 
2826.000000	99.183008 
2825.000000	99.186530 
2824.000000	99.189298 
2823.000000	99.190741 
2822.000000	99.191744 
2821.000000	99.194048 
2820.000000	99.198392 
2819.000000	99.203472 
2818.000000	99.207275 
2817.000000	99.209269 
2816.000000	99.210584 
2815.000000	99.212164 
2814.000000	99.213693 
2813.000000	99.214504 
2812.000000	99.214623 
2811.000000	99.214441 
2810.000000	99.214149 
2809.000000	99.214041 
2808.000000	99.214707 
2807.000000	99.216296 
2806.000000	99.218093 
2805.000000	99.219411 
2804.000000	99.220552 
2803.000000	99.222342 
2802.000000	99.224988 
2801.000000	99.227822 
2800.000000	99.229920 
2799.000000	99.230654 
2798.000000	99.230013 
2797.000000	99.228832 
2796.000000	99.228388 
2795.000000	99.229307 
2794.000000	99.230970 
2793.000000	99.232224 
2792.000000	99.232501 
2791.000000	99.232075 
2790.000000	99.231598 
2789.000000	99.231747 
2788.000000	99.233036 
2787.000000	99.235444 
2786.000000	99.238224 
2785.000000	99.240455 
2784.000000	99.241830 
2783.000000	99.242625 
2782.000000	99.243082 
2781.000000	99.243171 
2780.000000	99.242959 
2779.000000	99.242820 
2778.000000	99.243102 
2777.000000	99.243792 
2776.000000	99.244614 
2775.000000	99.245282 
2774.000000	99.245617 
2773.000000	99.245583 
2772.000000	99.245351 
2771.000000	99.245253 
2770.000000	99.245611 
2769.000000	99.246633 
2768.000000	99.248380 
2767.000000	99.250631 
2766.000000	99.252824 
2765.000000	99.254376 
2764.000000	99.255155 
2763.000000	99.255522 
2762.000000	99.255905 
2761.000000	99.256474 
2760.000000	99.257261 
2759.000000	99.258326 
2758.000000	99.259582 
2757.000000	99.260605 
2756.000000	99.260943 
2755.000000	99.260652 
2754.000000	99.260297 
2753.000000	99.260344 
2752.000000	99.260701 
2751.000000	99.260921 
2750.000000	99.260714 
2749.000000	99.260070 
2748.000000	99.258998 
2747.000000	99.257493 
2746.000000	99.255936 
2745.000000	99.255168 
2744.000000	99.255773 
2743.000000	99.257424 
2742.000000	99.259162 
2741.000000	99.260389 
2740.000000	99.261359 
2739.000000	99.262654 
2738.000000	99.264467 
2737.000000	99.266470 
2736.000000	99.268175 
2735.000000	99.269264 
2734.000000	99.269708 
2733.000000	99.269693 
2732.000000	99.269474 
2731.000000	99.269255 
2730.000000	99.269251 
2729.000000	99.269730 
2728.000000	99.270832 
2727.000000	99.272344 
2726.000000	99.273750 
2725.000000	99.274620 
2724.000000	99.274903 
2723.000000	99.274880 
2722.000000	99.274919 
2721.000000	99.275245 
2720.000000	99.275827 
2719.000000	99.276432 
2718.000000	99.276806 
2717.000000	99.276868 
2716.000000	99.276759 
2715.000000	99.276759 
2714.000000	99.277122 
2713.000000	99.277912 
2712.000000	99.278928 
2711.000000	99.279790 
2710.000000	99.280261 
2709.000000	99.280437 
2708.000000	99.280588 
2707.000000	99.280835 
2706.000000	99.281075 
2705.000000	99.281208 
2704.000000	99.281291 
2703.000000	99.281440 
2702.000000	99.281692 
2701.000000	99.281997 
2700.000000	99.282290 
2699.000000	99.282525 
2698.000000	99.282680 
2697.000000	99.282771 
2696.000000	99.282840 
2695.000000	99.282929 
2694.000000	99.283076 
2693.000000	99.283298 
2692.000000	99.283535 
2691.000000	99.283635 
2690.000000	99.283474 
2689.000000	99.283168 
2688.000000	99.283054 
2687.000000	99.283360 
2686.000000	99.283962 
2685.000000	99.284481 
2684.000000	99.284701 
2683.000000	99.284736 
2682.000000	99.284833 
2681.000000	99.285113 
2680.000000	99.285505 
2679.000000	99.285813 
2678.000000	99.285830 
2677.000000	99.285513 
2676.000000	99.285074 
2675.000000	99.284790 
2674.000000	99.284720 
2673.000000	99.284701 
2672.000000	99.284580 
2671.000000	99.284334 
2670.000000	99.283980 
2669.000000	99.283473 
2668.000000	99.282751 
2667.000000	99.281907 
2666.000000	99.281260 
2665.000000	99.281200 
2664.000000	99.281871 
2663.000000	99.283008 
2662.000000	99.284122 
2661.000000	99.284890 
2660.000000	99.285252 
2659.000000	99.285177 
2658.000000	99.284607 
2657.000000	99.283679 
2656.000000	99.282781 
2655.000000	99.282232 
2654.000000	99.282024 
2653.000000	99.281955 
2652.000000	99.281854 
2651.000000	99.281617 
2650.000000	99.281218 
2649.000000	99.280831 
2648.000000	99.280722 
2647.000000	99.280890 
2646.000000	99.281004 
2645.000000	99.280881 
2644.000000	99.280781 
2643.000000	99.281021 
2642.000000	99.281548 
2641.000000	99.282085 
2640.000000	99.282519 
2639.000000	99.282915 
2638.000000	99.283279 
2637.000000	99.283534 
2636.000000	99.283623 
2635.000000	99.283479 
2634.000000	99.283054 
2633.000000	99.282544 
2632.000000	99.282402 
2631.000000	99.282852 
2630.000000	99.283647 
2629.000000	99.284275 
2628.000000	99.284505 
2627.000000	99.284520 
2626.000000	99.284576 
2625.000000	99.284695 
2624.000000	99.284750 
2623.000000	99.284714 
2622.000000	99.284646 
2621.000000	99.284569 
2620.000000	99.284479 
2619.000000	99.284389 
2618.000000	99.284327 
2617.000000	99.284301 
2616.000000	99.284333 
2615.000000	99.284458 
2614.000000	99.284674 
2613.000000	99.284913 
2612.000000	99.285096 
2611.000000	99.285193 
2610.000000	99.285228 
2609.000000	99.285248 
2608.000000	99.285288 
2607.000000	99.285343 
2606.000000	99.285378 
2605.000000	99.285362 
2604.000000	99.285296 
2603.000000	99.285182 
2602.000000	99.285005 
2601.000000	99.284763 
2600.000000	99.284510 
2599.000000	99.284321 
2598.000000	99.284221 
2597.000000	99.284169 
2596.000000	99.284103 
2595.000000	99.283988 
2594.000000	99.283822 
2593.000000	99.283625 
2592.000000	99.283442 
2591.000000	99.283334 
2590.000000	99.283321 
2589.000000	99.283374 
2588.000000	99.283423 
2587.000000	99.283405 
2586.000000	99.283295 
2585.000000	99.283097 
2584.000000	99.282845 
2583.000000	99.282597 
2582.000000	99.282402 
2581.000000	99.282264 
2580.000000	99.282157 
2579.000000	99.282047 
2578.000000	99.281921 
2577.000000	99.281789 
2576.000000	99.281667 
2575.000000	99.281555 
2574.000000	99.281446 
2573.000000	99.281328 
2572.000000	99.281194 
2571.000000	99.281037 
2570.000000	99.280859 
2569.000000	99.280677 
2568.000000	99.280513 
2567.000000	99.280384 
2566.000000	99.280289 
2565.000000	99.280211 
2564.000000	99.280141 
2563.000000	99.280086 
2562.000000	99.280076 
2561.000000	99.280143 
2560.000000	99.280301 
2559.000000	99.280528 
2558.000000	99.280780 
2557.000000	99.280984 
2556.000000	99.281022 
2555.000000	99.280820 
2554.000000	99.280543 
2553.000000	99.280569 
2552.000000	99.281129 
2551.000000	99.281960 
2550.000000	99.282507 
2549.000000	99.282527 
2548.000000	99.282217 
2547.000000	99.281761 
2546.000000	99.281105 
2545.000000	99.280338 
2544.000000	99.279932 
2543.000000	99.280250 
2542.000000	99.281046 
2541.000000	99.281720 
2540.000000	99.281993 
2539.000000	99.282054 
2538.000000	99.282083 
2537.000000	99.281909 
2536.000000	99.281165 
2535.000000	99.279679 
2534.000000	99.277815 
2533.000000	99.276469 
2532.000000	99.276462 
2531.000000	99.277800 
2530.000000	99.279686 
2529.000000	99.281339 
2528.000000	99.282531 
2527.000000	99.283285 
2526.000000	99.283603 
2525.000000	99.283744 
2524.000000	99.284324 
2523.000000	99.285614 
2522.000000	99.286976 
2521.000000	99.287464 
2520.000000	99.286838 
2519.000000	99.285616 
2518.000000	99.284340 
2517.000000	99.283168 
2516.000000	99.282098 
2515.000000	99.281203 
2514.000000	99.280608 
2513.000000	99.280415 
2512.000000	99.280571 
2511.000000	99.280712 
2510.000000	99.280393 
2509.000000	99.279707 
2508.000000	99.279395 
2507.000000	99.280008 
2506.000000	99.281155 
2505.000000	99.281877 
2504.000000	99.281692 
2503.000000	99.280924 
2502.000000	99.280167 
2501.000000	99.279751 
2500.000000	99.279742 
2499.000000	99.280137 
2498.000000	99.280879 
2497.000000	99.281794 
2496.000000	99.282641 
2495.000000	99.283178 
2494.000000	99.283207 
2493.000000	99.282667 
2492.000000	99.281732 
2491.000000	99.280758 
2490.000000	99.280074 
2489.000000	99.279820 
2488.000000	99.279936 
2487.000000	99.280204 
2486.000000	99.280355 
2485.000000	99.280281 
2484.000000	99.280103 
2483.000000	99.279997 
2482.000000	99.279973 
2481.000000	99.279877 
2480.000000	99.279611 
2479.000000	99.279252 
2478.000000	99.278947 
2477.000000	99.278748 
2476.000000	99.278602 
2475.000000	99.278451 
2474.000000	99.278290 
2473.000000	99.278151 
2472.000000	99.278056 
2471.000000	99.278007 
2470.000000	99.277966 
2469.000000	99.277840 
2468.000000	99.277509 
2467.000000	99.276925 
2466.000000	99.276193 
2465.000000	99.275561 
2464.000000	99.275243 
2463.000000	99.275255 
2462.000000	99.275374 
2461.000000	99.275312 
2460.000000	99.274989 
2459.000000	99.274580 
2458.000000	99.274329 
2457.000000	99.274326 
2456.000000	99.274431 
2455.000000	99.274375 
2454.000000	99.273971 
2453.000000	99.273221 
2452.000000	99.272305 
2451.000000	99.271443 
2450.000000	99.270747 
2449.000000	99.270202 
2448.000000	99.269765 
2447.000000	99.269468 
2446.000000	99.269397 
2445.000000	99.269618 
2444.000000	99.270139 
2443.000000	99.270855 
2442.000000	99.271500 
2441.000000	99.271759 
2440.000000	99.271481 
2439.000000	99.270773 
2438.000000	99.269933 
2437.000000	99.269278 
2436.000000	99.268979 
2435.000000	99.268958 
2434.000000	99.268888 
2433.000000	99.268443 
2432.000000	99.267634 
2431.000000	99.266858 
2430.000000	99.266537 
2429.000000	99.266734 
2428.000000	99.267222 
2427.000000	99.267823 
2426.000000	99.268514 
2425.000000	99.269160 
2424.000000	99.269394 
2423.000000	99.268955 
2422.000000	99.268049 
2421.000000	99.267282 
2420.000000	99.267078 
2419.000000	99.267352 
2418.000000	99.267797 
2417.000000	99.268260 
2416.000000	99.268752 
2415.000000	99.269178 
2414.000000	99.269344 
2413.000000	99.269241 
2412.000000	99.269095 
2411.000000	99.269072 
2410.000000	99.269120 
2409.000000	99.269191 
2408.000000	99.269455 
2407.000000	99.270126 
2406.000000	99.271146 
2405.000000	99.272211 
2404.000000	99.273067 
2403.000000	99.273607 
2402.000000	99.273808 
2401.000000	99.273704 
2400.000000	99.273421 
2399.000000	99.273159 
2398.000000	99.273084 
2397.000000	99.273303 
2396.000000	99.273867 
2395.000000	99.274721 
2394.000000	99.275671 
2393.000000	99.276485 
2392.000000	99.277092 
2391.000000	99.277613 
2390.000000	99.278195 
2389.000000	99.278855 
2388.000000	99.279484 
2387.000000	99.279973 
2386.000000	99.280312 
2385.000000	99.280576 
2384.000000	99.280849 
2383.000000	99.281166 
2382.000000	99.281520 
2381.000000	99.281893 
2380.000000	99.282268 
2379.000000	99.282638 
2378.000000	99.282999 
2377.000000	99.283352 
2376.000000	99.283697 
2375.000000	99.284041 
2374.000000	99.284387 
2373.000000	99.284731 
2372.000000	99.285067 
2371.000000	99.285389 
2370.000000	99.285691 
2369.000000	99.285970 
2368.000000	99.286221 
2367.000000	99.286438 
2366.000000	99.286624 
2365.000000	99.286784 
2364.000000	99.286931 
2363.000000	99.287071 
2362.000000	99.287209 
2361.000000	99.287343 
2360.000000	99.287475 
2359.000000	99.287609 
2358.000000	99.287747 
2357.000000	99.287885 
2356.000000	99.288012 
2355.000000	99.288118 
2354.000000	99.288197 
2353.000000	99.288248 
2352.000000	99.288283 
2351.000000	99.288318 
2350.000000	99.288365 
2349.000000	99.288428 
2348.000000	99.288499 
2347.000000	99.288569 
2346.000000	99.288629 
2345.000000	99.288679 
2344.000000	99.288725 
2343.000000	99.288773 
2342.000000	99.288825 
2341.000000	99.288875 
2340.000000	99.288914 
2339.000000	99.288938 
2338.000000	99.288943 
2337.000000	99.288915 
2336.000000	99.288855 
2335.000000	99.288797 
2334.000000	99.288770 
2333.000000	99.288763 
2332.000000	99.288713 
2331.000000	99.288554 
2330.000000	99.288259 
2329.000000	99.287899 
2328.000000	99.287639 
2327.000000	99.287530 
2326.000000	99.287435 
2325.000000	99.287044 
2324.000000	99.286264 
2323.000000	99.285396 
2322.000000	99.284972 
2321.000000	99.285388 
2320.000000	99.286509 
2319.000000	99.287696 
2318.000000	99.288159 
2317.000000	99.287552 
2316.000000	99.286171 
2315.000000	99.284741 
2314.000000	99.283822 
2313.000000	99.283477 
2312.000000	99.283440 
2311.000000	99.283477 
2310.000000	99.283688 
2309.000000	99.284200 
2308.000000	99.284660 
2307.000000	99.284191 
2306.000000	99.282343 
2305.000000	99.279609 
2304.000000	99.276959 
2303.000000	99.274885 
2302.000000	99.273275 
2301.000000	99.271961 
2300.000000	99.270959 
2299.000000	99.270123 
2298.000000	99.269118 
2297.000000	99.267885 
2296.000000	99.266838 
2295.000000	99.266256 
2294.000000	99.265795 
2293.000000	99.264839 
2292.000000	99.263290 
2291.000000	99.261649 
2290.000000	99.260385 
2289.000000	99.259438 
2288.000000	99.258434 
2287.000000	99.257185 
2286.000000	99.255840 
2285.000000	99.254657 
2284.000000	99.253703 
2283.000000	99.252780 
2282.000000	99.251578 
2281.000000	99.249925 
2280.000000	99.247952 
2279.000000	99.246089 
2278.000000	99.244809 
2277.000000	99.244274 
2276.000000	99.244214 
2275.000000	99.244072 
2274.000000	99.243390 
2273.000000	99.242059 
2272.000000	99.240205 
2271.000000	99.237940 
2270.000000	99.235426 
2269.000000	99.233241 
2268.000000	99.232214 
2267.000000	99.232671 
2266.000000	99.234031 
2265.000000	99.235227 
2264.000000	99.235522 
2263.000000	99.234743 
2262.000000	99.233248 
2261.000000	99.231924 
2260.000000	99.231631 
2259.000000	99.232138 
2258.000000	99.232004 
2257.000000	99.230193 
2256.000000	99.227383 
2255.000000	99.225035 
2254.000000	99.223400 
2253.000000	99.221520 
2252.000000	99.219176 
2251.000000	99.217656 
2250.000000	99.218226 
2249.000000	99.220709 
2248.000000	99.223819 
2247.000000	99.226175 
2246.000000	99.226884 
2245.000000	99.225723 
2244.000000	99.223214 
2243.000000	99.220244 
2242.000000	99.217448 
2241.000000	99.215154 
2240.000000	99.213555 
2239.000000	99.212390 
2238.000000	99.210775 
2237.000000	99.208031 
2236.000000	99.204445 
2235.000000	99.200729 
2234.000000	99.197282 
2233.000000	99.194726 
2232.000000	99.194493 
2231.000000	99.197712 
2230.000000	99.203775 
2229.000000	99.210675 
2228.000000	99.216511 
2227.000000	99.220096 
2226.000000	99.220766 
2225.000000	99.218756 
2224.000000	99.215476 
2223.000000	99.212489 
2222.000000	99.210531 
2221.000000	99.210011 
2220.000000	99.211407 
2219.000000	99.214280 
2218.000000	99.216840 
2217.000000	99.217779 
2216.000000	99.217906 
2215.000000	99.218723 
2214.000000	99.219947 
2213.000000	99.219765 
2212.000000	99.217201 
2211.000000	99.213177 
2210.000000	99.209640 
2209.000000	99.208403 
2208.000000	99.210126 
2207.000000	99.213274 
2206.000000	99.214571 
2205.000000	99.211747 
2204.000000	99.205494 
2203.000000	99.198373 
2202.000000	99.192427 
2201.000000	99.188610 
2200.000000	99.187491 
2199.000000	99.188751 
2198.000000	99.190469 
2197.000000	99.190724 
2196.000000	99.190015 
2195.000000	99.190505 
2194.000000	99.193041 
2193.000000	99.196327 
2192.000000	99.198614 
2191.000000	99.199086 
2190.000000	99.197707 
2189.000000	99.195064 
2188.000000	99.192518 
2187.000000	99.191379 
2186.000000	99.191789 
2185.000000	99.193023 
2184.000000	99.194530 
2183.000000	99.195973 
2182.000000	99.196582 
2181.000000	99.195756 
2180.000000	99.194177 
2179.000000	99.193270 
2178.000000	99.193425 
2177.000000	99.193664 
2176.000000	99.193106 
2175.000000	99.191888 
2174.000000	99.190616 
2173.000000	99.189696 
2172.000000	99.189387 
2171.000000	99.189819 
2170.000000	99.190785 
2169.000000	99.191906 
2168.000000	99.193058 
2167.000000	99.194283 
2166.000000	99.195382 
2165.000000	99.196103 
2164.000000	99.196599 
2163.000000	99.197239 
2162.000000	99.198103 
2161.000000	99.198971 
2160.000000	99.199690 
2159.000000	99.200298 
2158.000000	99.200879 
2157.000000	99.201489 
2156.000000	99.202148 
2155.000000	99.202839 
2154.000000	99.203533 
2153.000000	99.204215 
2152.000000	99.204883 
2151.000000	99.205548 
2150.000000	99.206230 
2149.000000	99.206942 
2148.000000	99.207680 
2147.000000	99.208421 
2146.000000	99.209139 
2145.000000	99.209807 
2144.000000	99.210416 
2143.000000	99.210973 
2142.000000	99.211487 
2141.000000	99.211957 
2140.000000	99.212382 
2139.000000	99.212767 
2138.000000	99.213125 
2137.000000	99.213471 
2136.000000	99.213807 
2135.000000	99.214130 
2134.000000	99.214436 
2133.000000	99.214718 
2132.000000	99.214964 
2131.000000	99.215162 
2130.000000	99.215298 
2129.000000	99.215353 
2128.000000	99.215317 
2127.000000	99.215209 
2126.000000	99.215077 
2125.000000	99.214941 
2124.000000	99.214778 
2123.000000	99.214626 
2122.000000	99.214629 
2121.000000	99.214804 
2120.000000	99.214878 
2119.000000	99.214559 
2118.000000	99.213958 
2117.000000	99.213526 
2116.000000	99.213518 
2115.000000	99.213717 
2114.000000	99.213759 
2113.000000	99.213585 
2112.000000	99.213375 
2111.000000	99.213098 
2110.000000	99.212399 
2109.000000	99.211162 
2108.000000	99.209929 
2107.000000	99.209338 
2106.000000	99.209216 
2105.000000	99.208518 
2104.000000	99.206402 
2103.000000	99.203216 
2102.000000	99.200381 
2101.000000	99.199224 
2100.000000	99.200045 
2099.000000	99.201977 
2098.000000	99.203758 
2097.000000	99.204897 
2096.000000	99.205824 
2095.000000	99.206724 
2094.000000	99.206509 
2093.000000	99.203781 
2092.000000	99.198889 
2091.000000	99.194436 
2090.000000	99.192891 
2089.000000	99.194205 
2088.000000	99.196172 
2087.000000	99.196995 
2086.000000	99.196959 
2085.000000	99.197345 
2084.000000	99.198636 
2083.000000	99.200243 
2082.000000	99.201570 
2081.000000	99.202766 
2080.000000	99.204202 
2079.000000	99.205518 
2078.000000	99.205781 
2077.000000	99.204905 
2076.000000	99.204382 
2075.000000	99.205851 
2074.000000	99.208944 
2073.000000	99.211336 
2072.000000	99.211235 
2071.000000	99.208959 
2070.000000	99.205932 
2069.000000	99.203004 
2068.000000	99.200364 
2067.000000	99.198404 
2066.000000	99.197595 
2065.000000	99.197613 
2064.000000	99.197509 
2063.000000	99.196889 
2062.000000	99.196329 
2061.000000	99.196497 
2060.000000	99.197333 
2059.000000	99.198201 
2058.000000	99.198427 
2057.000000	99.197685 
2056.000000	99.196016 
2055.000000	99.193638 
2054.000000	99.190906 
2053.000000	99.188369 
2052.000000	99.186636 
2051.000000	99.186002 
2050.000000	99.186125 
2049.000000	99.186204 
2048.000000	99.185634 
2047.000000	99.184372 
2046.000000	99.182704 
2045.000000	99.180847 
2044.000000	99.178954 
2043.000000	99.177190 
2042.000000	99.175691 
2041.000000	99.174528 
2040.000000	99.173739 
2039.000000	99.173286 
2038.000000	99.172900 
2037.000000	99.172170 
2036.000000	99.170910 
2035.000000	99.169343 
2034.000000	99.167914 
2033.000000	99.166908 
2032.000000	99.166284 
2031.000000	99.165811 
2030.000000	99.165305 
2029.000000	99.164728 
2028.000000	99.164126 
2027.000000	99.163548 
2026.000000	99.163090 
2025.000000	99.162957 
2024.000000	99.163288 
2023.000000	99.163870 
2022.000000	99.164140 
2021.000000	99.163701 
2020.000000	99.162729 
2019.000000	99.161928 
2018.000000	99.161822 
2017.000000	99.162243 
2016.000000	99.162519 
2015.000000	99.162224 
2014.000000	99.161541 
2013.000000	99.160979 
2012.000000	99.160894 
2011.000000	99.161323 
2010.000000	99.162140 
2009.000000	99.163332 
2008.000000	99.164962 
2007.000000	99.166825 
2006.000000	99.168293 
2005.000000	99.168792 
2004.000000	99.168405 
2003.000000	99.167873 
2002.000000	99.167825 
2001.000000	99.168156 
2000.000000	99.168342 
1999.000000	99.168111 
1998.000000	99.167704 
1997.000000	99.167610 
1996.000000	99.168127 
1995.000000	99.169212 
1994.000000	99.170568 
1993.000000	99.171767 
1992.000000	99.172459 
1991.000000	99.172542 
1990.000000	99.172219 
1989.000000	99.171883 
1988.000000	99.171829 
1987.000000	99.172027 
1986.000000	99.172193 
1985.000000	99.172107 
1984.000000	99.171823 
1983.000000	99.171557 
1982.000000	99.171417 
1981.000000	99.171293 
1980.000000	99.171015 
1979.000000	99.170560 
1978.000000	99.170071 
1977.000000	99.169680 
1976.000000	99.169405 
1975.000000	99.169185 
1974.000000	99.168990 
1973.000000	99.168921 
1972.000000	99.169120 
1971.000000	99.169564 
1970.000000	99.169985 
1969.000000	99.170040 
1968.000000	99.169597 
1967.000000	99.168822 
1966.000000	99.168148 
1965.000000	99.167872 
1964.000000	99.167984 
1963.000000	99.168261 
1962.000000	99.168463 
1961.000000	99.168457 
1960.000000	99.168296 
1959.000000	99.168283 
1958.000000	99.168790 
1957.000000	99.169824 
1956.000000	99.170825 
1955.000000	99.171115 
1954.000000	99.170529 
1953.000000	99.169572 
1952.000000	99.168870 
1951.000000	99.168570 
1950.000000	99.168419 
1949.000000	99.168276 
1948.000000	99.168336 
1947.000000	99.168615 
1946.000000	99.168328 
1945.000000	99.166277 
1944.000000	99.162308 
1943.000000	99.158314 
1942.000000	99.156915 
1941.000000	99.158733 
1940.000000	99.161658 
1939.000000	99.163199 
1938.000000	99.163346 
1937.000000	99.164442 
1936.000000	99.168267 
1935.000000	99.173684 
1934.000000	99.177698 
1933.000000	99.178932 
1932.000000	99.179139 
1931.000000	99.181003 
1930.000000	99.184755 
1929.000000	99.187964 
1928.000000	99.188813 
1927.000000	99.188090 
1926.000000	99.187815 
1925.000000	99.188807 
1924.000000	99.190325 
1923.000000	99.191553 
1922.000000	99.192378 
1921.000000	99.192841 
1920.000000	99.192458 
1919.000000	99.190455 
1918.000000	99.186543 
1917.000000	99.181746 
1916.000000	99.177922 
1915.000000	99.175968 
1914.000000	99.175441 
1913.000000	99.175848 
1912.000000	99.177318 
1911.000000	99.179834 
1910.000000	99.182198 
1909.000000	99.183147 
1908.000000	99.183451 
1907.000000	99.185095 
1906.000000	99.188609 
1905.000000	99.192252 
1904.000000	99.194157 
1903.000000	99.194209 
1902.000000	99.193101 
1901.000000	99.191335 
1900.000000	99.189584 
1899.000000	99.188706 
1898.000000	99.188960 
1897.000000	99.189779 
1896.000000	99.190664 
1895.000000	99.191560 
1894.000000	99.192047 
1893.000000	99.191452 
1892.000000	99.190112 
1891.000000	99.189334 
1890.000000	99.189558 
1889.000000	99.189768 
1888.000000	99.189470 
1887.000000	99.189570 
1886.000000	99.190798 
1885.000000	99.192698 
1884.000000	99.194557 
1883.000000	99.196449 
1882.000000	99.198445 
1881.000000	99.199829 
1880.000000	99.200186 
1879.000000	99.200433 
1878.000000	99.201997 
1877.000000	99.205109 
1876.000000	99.208410 
1875.000000	99.210341 
1874.000000	99.210305 
1873.000000	99.208635 
1872.000000	99.206322 
1871.000000	99.204575 
1870.000000	99.203902 
1869.000000	99.203500 
1868.000000	99.202554 
1867.000000	99.201746 
1866.000000	99.202144 
1865.000000	99.203675 
1864.000000	99.205188 
1863.000000	99.205427 
1862.000000	99.204066 
1861.000000	99.202128 
1860.000000	99.201459 
1859.000000	99.203239 
1858.000000	99.206752 
1857.000000	99.209808 
1856.000000	99.211039 
1855.000000	99.211280 
1854.000000	99.212171 
1853.000000	99.214017 
1852.000000	99.215797 
1851.000000	99.216729 
1850.000000	99.217328 
1849.000000	99.218809 
1848.000000	99.221570 
1847.000000	99.224605 
1846.000000	99.226353 
1845.000000	99.226078 
1844.000000	99.224627 
1843.000000	99.223832 
1842.000000	99.224237 
1841.000000	99.224846 
1840.000000	99.224950 
1839.000000	99.224673 
1838.000000	99.224429 
1837.000000	99.224421 
1836.000000	99.224731 
1835.000000	99.225471 
1834.000000	99.226505 
1833.000000	99.227466 
1832.000000	99.228047 
1831.000000	99.228017 
1830.000000	99.227426 
1829.000000	99.227042 
1828.000000	99.227590 
1827.000000	99.228703 
1826.000000	99.229430 
1825.000000	99.229172 
1824.000000	99.228177 
1823.000000	99.227124 
1822.000000	99.226131 
1821.000000	99.225059 
1820.000000	99.224440 
1819.000000	99.225229 
1818.000000	99.227545 
1817.000000	99.229939 
1816.000000	99.230942 
1815.000000	99.231057 
1814.000000	99.231843 
1813.000000	99.233822 
1812.000000	99.235969 
1811.000000	99.237470 
1810.000000	99.238730 
1809.000000	99.239859 
1808.000000	99.240042 
1807.000000	99.238846 
1806.000000	99.236851 
1805.000000	99.234980 
1804.000000	99.233790 
1803.000000	99.233345 
1802.000000	99.233140 
1801.000000	99.232513 
1800.000000	99.231560 
1799.000000	99.231413 
1798.000000	99.232839 
1797.000000	99.235195 
1796.000000	99.237289 
1795.000000	99.238641 
1794.000000	99.239435 
1793.000000	99.239639 
1792.000000	99.238930 
1791.000000	99.237883 
1790.000000	99.237434 
1789.000000	99.237509 
1788.000000	99.237718 
1787.000000	99.238179 
1786.000000	99.239182 
1785.000000	99.240431 
1784.000000	99.241282 
1783.000000	99.241512 
1782.000000	99.241212 
1781.000000	99.240616 
1780.000000	99.239923 
1779.000000	99.239356 
1778.000000	99.239181 
1777.000000	99.239497 
1776.000000	99.240235 
1775.000000	99.241045 
1774.000000	99.241594 
1773.000000	99.241878 
1772.000000	99.242051 
1771.000000	99.242313 
1770.000000	99.242669 
1769.000000	99.242899 
1768.000000	99.242978 
1767.000000	99.243098 
1766.000000	99.243371 
1765.000000	99.243684 
1764.000000	99.243838 
1763.000000	99.243804 
1762.000000	99.243800 
1761.000000	99.244161 
1760.000000	99.244789 
1759.000000	99.245280 
1758.000000	99.245614 
1757.000000	99.246271 
1756.000000	99.247519 
1755.000000	99.248810 
1754.000000	99.249495 
1753.000000	99.249710 
1752.000000	99.250050 
1751.000000	99.250436 
1750.000000	99.250330 
1749.000000	99.249791 
1748.000000	99.249461 
1747.000000	99.249662 
1746.000000	99.250083 
1745.000000	99.250424 
1744.000000	99.250684 
1743.000000	99.250975 
1742.000000	99.251351 
1741.000000	99.251795 
1740.000000	99.252261 
1739.000000	99.252759 
1738.000000	99.253235 
1737.000000	99.253498 
1736.000000	99.253553 
1735.000000	99.253721 
1734.000000	99.253863 
1733.000000	99.253841 
1732.000000	99.253867 
1731.000000	99.253900 
1730.000000	99.253893 
1729.000000	99.253911 
1728.000000	99.253981 
1727.000000	99.254085 
1726.000000	99.254211 
1725.000000	99.254384 
1724.000000	99.254561 
1723.000000	99.254697 
1722.000000	99.254786 
1721.000000	99.254837 
1720.000000	99.254872 
1719.000000	99.254948 
1718.000000	99.255030 
1717.000000	99.254962 
1716.000000	99.254721 
1715.000000	99.254436 
1714.000000	99.254205 
1713.000000	99.253997 
1712.000000	99.253773 
1711.000000	99.253544 
1710.000000	99.253332 
1709.000000	99.253128 
1708.000000	99.252900 
1707.000000	99.252627 
1706.000000	99.252305 
1705.000000	99.251928 
1704.000000	99.251508 
1703.000000	99.251073 
1702.000000	99.250647 
1701.000000	99.250233 
1700.000000	99.249805 
1699.000000	99.249351 
1698.000000	99.248886 
1697.000000	99.248405 
1696.000000	99.247901 
1695.000000	99.247380 
1694.000000	99.246857 
1693.000000	99.246333 
1692.000000	99.245805 
1691.000000	99.245285 
1690.000000	99.244778 
1689.000000	99.244270 
1688.000000	99.243748 
1687.000000	99.243212 
1686.000000	99.242685 
1685.000000	99.242186 
1684.000000	99.241660 
1683.000000	99.241092 
1682.000000	99.240517 
1681.000000	99.239929 
1680.000000	99.239358 
1679.000000	99.238836 
1678.000000	99.238325 
1677.000000	99.237788 
1676.000000	99.237271 
1675.000000	99.236836 
1674.000000	99.236484 
1673.000000	99.236196 
1672.000000	99.235943 
1671.000000	99.235709 
1670.000000	99.235395 
1669.000000	99.234902 
1668.000000	99.234348 
1667.000000	99.233858 
1666.000000	99.233384 
1665.000000	99.232897 
1664.000000	99.232499 
1663.000000	99.232288 
1662.000000	99.232073 
1661.000000	99.231646 
1660.000000	99.231173 
1659.000000	99.230993 
1658.000000	99.231133 
1657.000000	99.231205 
1656.000000	99.230875 
1655.000000	99.230382 
1654.000000	99.230355 
1653.000000	99.229539 
1652.000000	99.228886 
1651.000000	99.230065 
1650.000000	99.231304 
1649.000000	99.231800 
1648.000000	99.232229 
1647.000000	99.232338 
1646.000000	99.231821 
1645.000000	99.231621 
1644.000000	99.232324 
1643.000000	99.233615 
1642.000000	99.234867 
1641.000000	99.235602 
1640.000000	99.235764 
1639.000000	99.235442 
1638.000000	99.234848 
1637.000000	99.234699 
1636.000000	99.235231 
1635.000000	99.235852 
1634.000000	99.236474 
1633.000000	99.236417 
1632.000000	99.235038 
1631.000000	99.233180 
1630.000000	99.231786 
1629.000000	99.231165 
1628.000000	99.231382 
1627.000000	99.232184 
1626.000000	99.232434 
1625.000000	99.231463 
1624.000000	99.230311 
1623.000000	99.230275 
1622.000000	99.231172 
1621.000000	99.231945 
1620.000000	99.232168 
1619.000000	99.232431 
1618.000000	99.233914 
1617.000000	99.236421 
1616.000000	99.239640 
1615.000000	99.243635 
1614.000000	99.246869 
1613.000000	99.248479 
1612.000000	99.249976 
1611.000000	99.252397 
1610.000000	99.254211 
1609.000000	99.254109 
1608.000000	99.253494 
1607.000000	99.253972 
1606.000000	99.254735 
1605.000000	99.254957 
1604.000000	99.255538 
1603.000000	99.257012 
1602.000000	99.258484 
1601.000000	99.259472 
1600.000000	99.260822 
1599.000000	99.262994 
1598.000000	99.265152 
1597.000000	99.266472 
1596.000000	99.267098 
1595.000000	99.267548 
1594.000000	99.268027 
1593.000000	99.268829 
1592.000000	99.270426 
1591.000000	99.272579 
1590.000000	99.274201 
1589.000000	99.274776 
1588.000000	99.275052 
1587.000000	99.275837 
1586.000000	99.276909 
1585.000000	99.277725 
1584.000000	99.278493 
1583.000000	99.279410 
1582.000000	99.280063 
1581.000000	99.280170 
1580.000000	99.279965 
1579.000000	99.279664 
1578.000000	99.279345 
1577.000000	99.279226 
1576.000000	99.279540 
1575.000000	99.280315 
1574.000000	99.281177 
1573.000000	99.281808 
1572.000000	99.282311 
1571.000000	99.282903 
1570.000000	99.283471 
1569.000000	99.283859 
1568.000000	99.284198 
1567.000000	99.284505 
1566.000000	99.284677 
1565.000000	99.284721 
1564.000000	99.284733 
1563.000000	99.284737 
1562.000000	99.284757 
1561.000000	99.284841 
1560.000000	99.285044 
1559.000000	99.285241 
1558.000000	99.285321 
1557.000000	99.285373 
1556.000000	99.285408 
1555.000000	99.285408 
1554.000000	99.285376 
1553.000000	99.285306 
1552.000000	99.285196 
1551.000000	99.285043 
1550.000000	99.284858 
1549.000000	99.284658 
1548.000000	99.284450 
1547.000000	99.284222 
1546.000000	99.283956 
1545.000000	99.283643 
1544.000000	99.283296 
1543.000000	99.282951 
1542.000000	99.282637 
1541.000000	99.282342 
1540.000000	99.281983 
1539.000000	99.281537 
1538.000000	99.281081 
1537.000000	99.280615 
1536.000000	99.280106 
1535.000000	99.279620 
1534.000000	99.279134 
1533.000000	99.278461 
1532.000000	99.277606 
1531.000000	99.276832 
1530.000000	99.276261 
1529.000000	99.275737 
1528.000000	99.275022 
1527.000000	99.274164 
1526.000000	99.273410 
1525.000000	99.272784 
1524.000000	99.272101 
1523.000000	99.271500 
1522.000000	99.271252 
1521.000000	99.270928 
1520.000000	99.270020 
1519.000000	99.268465 
1518.000000	99.266344 
1517.000000	99.263976 
1516.000000	99.261811 
1515.000000	99.260131 
1514.000000	99.258862 
1513.000000	99.257958 
1512.000000	99.257319 
1511.000000	99.256548 
1510.000000	99.255412 
1509.000000	99.253994 
1508.000000	99.252831 
1507.000000	99.251824 
1506.000000	99.250862 
1505.000000	99.249964 
1504.000000	99.248792 
1503.000000	99.247403 
1502.000000	99.246192 
1501.000000	99.245201 
1500.000000	99.243879 
1499.000000	99.241695 
1498.000000	99.239020 
1497.000000	99.236687 
1496.000000	99.235059 
1495.000000	99.234433 
1494.000000	99.234878 
1493.000000	99.235908 
1492.000000	99.236878 
1491.000000	99.237174 
1490.000000	99.236131 
1489.000000	99.233540 
1488.000000	99.230028 
1487.000000	99.226862 
1486.000000	99.224610 
1485.000000	99.222596 
1484.000000	99.220416 
1483.000000	99.218456 
1482.000000	99.217318 
1481.000000	99.216835 
1480.000000	99.216160 
1479.000000	99.214929 
1478.000000	99.213458 
1477.000000	99.211828 
1476.000000	99.209775 
1475.000000	99.208049 
1474.000000	99.207865 
1473.000000	99.208716 
1472.000000	99.208722 
1471.000000	99.207868 
1470.000000	99.207060 
1469.000000	99.205867 
1468.000000	99.203912 
1467.000000	99.202253 
1466.000000	99.202255 
1465.000000	99.203306 
1464.000000	99.203751 
1463.000000	99.203408 
1462.000000	99.203150 
1461.000000	99.202796 
1460.000000	99.201368 
1459.000000	99.197887 
1458.000000	99.191510 
1457.000000	99.180706 
1456.000000	99.168210 
1455.000000	99.158971 
1454.000000	99.153823 
1453.000000	99.152892 
1452.000000	99.156059 
1451.000000	99.160915 
1450.000000	99.164538 
1449.000000	99.165657 
1448.000000	99.164593 
1447.000000	99.163238 
1446.000000	99.163144 
1445.000000	99.164579 
1444.000000	99.166732 
1443.000000	99.168535 
1442.000000	99.169991 
1441.000000	99.171219 
1440.000000	99.171326 
1439.000000	99.169284 
1438.000000	99.167044 
1437.000000	99.166439 
1436.000000	99.165880 
1435.000000	99.163857 
1434.000000	99.160737 
1433.000000	99.156860 
1432.000000	99.152480 
1431.000000	99.147519 
1430.000000	99.142476 
1429.000000	99.138445 
1428.000000	99.134980 
1427.000000	99.130796 
1426.000000	99.125348 
1425.000000	99.120066 
1424.000000	99.115892 
1423.000000	99.111001 
1422.000000	99.103482 
1421.000000	99.093716 
1420.000000	99.083391 
1419.000000	99.072785 
1418.000000	99.062873 
1417.000000	99.054310 
1416.000000	99.044659 
1415.000000	99.032162 
1414.000000	99.018074 
1413.000000	99.005278 
1412.000000	98.995705 
1411.000000	98.988582 
1410.000000	98.981903 
1409.000000	98.974683 
1408.000000	98.967737 
1407.000000	98.963319 
1406.000000	98.962977 
1405.000000	98.966505 
1404.000000	98.972572 
1403.000000	98.979905 
1402.000000	98.988309 
1401.000000	98.998006 
1400.000000	99.008043 
1399.000000	99.015069 
1398.000000	99.014927 
1397.000000	99.004906 
1396.000000	98.985759 
1395.000000	98.965567 
1394.000000	98.957380 
1393.000000	98.967273 
1392.000000	98.988791 
1391.000000	99.010279 
1390.000000	99.024442 
1389.000000	99.030600 
1388.000000	99.031300 
1387.000000	99.029046 
1386.000000	99.025839 
1385.000000	99.023386 
1384.000000	99.022515 
1383.000000	99.022981 
1382.000000	99.024413 
1381.000000	99.027058 
1380.000000	99.031559 
1379.000000	99.037990 
1378.000000	99.045585 
1377.000000	99.053624 
1376.000000	99.061953 
1375.000000	99.070435 
1374.000000	99.078822 
1373.000000	99.087664 
1372.000000	99.097585 
1371.000000	99.107933 
1370.000000	99.117099 
1369.000000	99.124439 
1368.000000	99.130998 
1367.000000	99.137981 
1366.000000	99.145646 
1365.000000	99.153813 
1364.000000	99.162410 
1363.000000	99.170977 
1362.000000	99.178620 
1361.000000	99.184954 
1360.000000	99.190460 
1359.000000	99.195964 
1358.000000	99.202225 
1357.000000	99.209799 
1356.000000	99.218494 
1355.000000	99.226975 
1354.000000	99.233992 
1353.000000	99.239817 
1352.000000	99.245246 
1351.000000	99.249856 
1350.000000	99.252414 
1349.000000	99.253920 
1348.000000	99.256520 
1347.000000	99.260117 
1346.000000	99.262670 
1345.000000	99.263509 
1344.000000	99.264232 
1343.000000	99.265893 
1342.000000	99.267668 
1341.000000	99.269024 
1340.000000	99.270995 
1339.000000	99.273961 
1338.000000	99.276361 
1337.000000	99.277170 
1336.000000	99.277443 
1335.000000	99.278191 
1334.000000	99.278731 
1333.000000	99.278372 
1332.000000	99.278089 
1331.000000	99.279001 
1330.000000	99.280434 
1329.000000	99.281178 
1328.000000	99.281400 
1327.000000	99.281813 
1326.000000	99.281983 
1325.000000	99.281484 
1324.000000	99.281280 
1323.000000	99.282321 
1322.000000	99.283986 
1321.000000	99.285141 
1320.000000	99.285937 
1319.000000	99.287204 
1318.000000	99.288702 
1317.000000	99.289206 
1316.000000	99.288099 
1315.000000	99.285939 
1314.000000	99.283701 
1313.000000	99.282110 
1312.000000	99.281434 
1311.000000	99.281369 
1310.000000	99.281352 
1309.000000	99.281343 
1308.000000	99.281848 
1307.000000	99.282989 
1306.000000	99.283939 
1305.000000	99.284098 
1304.000000	99.283963 
1303.000000	99.284181 
1302.000000	99.284399 
1301.000000	99.283832 
1300.000000	99.282654 
1299.000000	99.282089 
1298.000000	99.283210 
1297.000000	99.285979 
1296.000000	99.289417 
1295.000000	99.292190 
1294.000000	99.293144 
1293.000000	99.291721 
1292.000000	99.288155 
1291.000000	99.283585 
1290.000000	99.279972 
1289.000000	99.279199 
1288.000000	99.281378 
1287.000000	99.284082 
1286.000000	99.284292 
1285.000000	99.281248 
1284.000000	99.276737 
1283.000000	99.272901 
1282.000000	99.270207 
1281.000000	99.267712 
1280.000000	99.264743 
1279.000000	99.261408 
1278.000000	99.258074 
1277.000000	99.255232 
1276.000000	99.253431 
1275.000000	99.252442 
1274.000000	99.250749 
1273.000000	99.246703 
1272.000000	99.240254 
1271.000000	99.233144 
1270.000000	99.227286 
1269.000000	99.223145 
1268.000000	99.219645 
1267.000000	99.215208 
1266.000000	99.208955 
1265.000000	99.201316 
1264.000000	99.193604 
1263.000000	99.186854 
1262.000000	99.181025 
1261.000000	99.175417 
1260.000000	99.169728 
1259.000000	99.164321 
1258.000000	99.159533 
1257.000000	99.155197 
1256.000000	99.151051 
1255.000000	99.147265 
1254.000000	99.144193 
1253.000000	99.141757 
1252.000000	99.139562 
1251.000000	99.137749 
1250.000000	99.137373 
1249.000000	99.139584 
1248.000000	99.144412 
1247.000000	99.150245 
1246.000000	99.154112 
1245.000000	99.152465 
1244.000000	99.143067 
1243.000000	99.128101 
1242.000000	99.115309 
1241.000000	99.113041 
1240.000000	99.122540 
1239.000000	99.135766 
1238.000000	99.142564 
1237.000000	99.139808 
1236.000000	99.131921 
1235.000000	99.124065 
1234.000000	99.117207 
1233.000000	99.109733 
1232.000000	99.100819 
1231.000000	99.090819 
1230.000000	99.080538 
1229.000000	99.071710 
1228.000000	99.066739 
1227.000000	99.066247 
1226.000000	99.067618 
1225.000000	99.067308 
1224.000000	99.063951 
1223.000000	99.058350 
1222.000000	99.051544 
1221.000000	99.044323 
1220.000000	99.037815 
1219.000000	99.032869 
1218.000000	99.028805 
1217.000000	99.023756 
1216.000000	99.016152 
1215.000000	99.005377 
1214.000000	98.991598 
1213.000000	98.975732 
1212.000000	98.959120 
1211.000000	98.942581 
1210.000000	98.926130 
1209.000000	98.909865 
1208.000000	98.894193 
1207.000000	98.878703 
1206.000000	98.862124 
1205.000000	98.844252 
1204.000000	98.826534 
1203.000000	98.809606 
1202.000000	98.791793 
1201.000000	98.771685 
1200.000000	98.750853 
1199.000000	98.731934 
1198.000000	98.714996 
1197.000000	98.697829 
1196.000000	98.678862 
1195.000000	98.657798 
1194.000000	98.634374 
1193.000000	98.608775 
1192.000000	98.582895 
1191.000000	98.558840 
1190.000000	98.535973 
1189.000000	98.511642 
1188.000000	98.485066 
1187.000000	98.458415 
1186.000000	98.433642 
1185.000000	98.410164 
1184.000000	98.386282 
1183.000000	98.361156 
1182.000000	98.334814 
1181.000000	98.307704 
1180.000000	98.280701 
1179.000000	98.254154 
1178.000000	98.226724 
1177.000000	98.196697 
1176.000000	98.164498 
1175.000000	98.131977 
1174.000000	98.098993 
1173.000000	98.063118 
1172.000000	98.023659 
1171.000000	97.983882 
1170.000000	97.947780 
1169.000000	97.916093 
1168.000000	97.886762 
1167.000000	97.858308 
1166.000000	97.831921 
1165.000000	97.811240 
1164.000000	97.800655 
1163.000000	97.802541 
1162.000000	97.815086 
1161.000000	97.833287 
1160.000000	97.852007 
1159.000000	97.867027 
1158.000000	97.873884 
1157.000000	97.868246 
1156.000000	97.848598 
1155.000000	97.817887 
1154.000000	97.782170 
1153.000000	97.747607 
1152.000000	97.717685 
1151.000000	97.691546 
1150.000000	97.664985 
1149.000000	97.634725 
1148.000000	97.601877 
1147.000000	97.570013 
1146.000000	97.540416 
1145.000000	97.511181 
1144.000000	97.480553 
1143.000000	97.448590 
1142.000000	97.415624 
1141.000000	97.381927 
1140.000000	97.349364 
1139.000000	97.320477 
1138.000000	97.294714 
1137.000000	97.267887 
1136.000000	97.236597 
1135.000000	97.201332 
1134.000000	97.164364 
1133.000000	97.126701 
1132.000000	97.088526 
1131.000000	97.050981 
1130.000000	97.015748 
1129.000000	96.983322 
1128.000000	96.952133 
1127.000000	96.918880 
1126.000000	96.880495 
1125.000000	96.837528 
1124.000000	96.795028 
1123.000000	96.757739 
1122.000000	96.724542 
1121.000000	96.690045 
1120.000000	96.651425 
1119.000000	96.610844 
1118.000000	96.571156 
1117.000000	96.532612 
1116.000000	96.494562 
1115.000000	96.457298 
1114.000000	96.420953 
1113.000000	96.384970 
1112.000000	96.349373 
1111.000000	96.314263 
1110.000000	96.277865 
1109.000000	96.237944 
1108.000000	96.195603 
1107.000000	96.154944 
1106.000000	96.118212 
1105.000000	96.083777 
1104.000000	96.049275 
1103.000000	96.014523 
1102.000000	95.980599 
1101.000000	95.948192 
1100.000000	95.917415 
1099.000000	95.887986 
1098.000000	95.858852 
1097.000000	95.829078 
1096.000000	95.799180 
1095.000000	95.769841 
1094.000000	95.739222 
1093.000000	95.703494 
1092.000000	95.660617 
1091.000000	95.612264 
1090.000000	95.561971 
1089.000000	95.512854 
1088.000000	95.467081 
1087.000000	95.425315 
1086.000000	95.385807 
1085.000000	95.345873 
1084.000000	95.304999 
1083.000000	95.264777 
1082.000000	95.225549 
1081.000000	95.185546 
1080.000000	95.144066 
1079.000000	95.102960 
1078.000000	95.064111 
1077.000000	95.028086 
1076.000000	94.996185 
1075.000000	94.970766 
1074.000000	94.952034 
1073.000000	94.936651 
1072.000000	94.919511 
1071.000000	94.893566 
1070.000000	94.848830 
1069.000000	94.778459 
1068.000000	94.689359 
1067.000000	94.602874 
1066.000000	94.539296 
1065.000000	94.502346 
1064.000000	94.480420 
1063.000000	94.458345 
1062.000000	94.424705 
1061.000000	94.372498 
1060.000000	94.300769 
1059.000000	94.217995 
1058.000000	94.139686 
1057.000000	94.078511 
1056.000000	94.035831 
1055.000000	94.002280 
1054.000000	93.966212 
1053.000000	93.922700 
1052.000000	93.875086 
1051.000000	93.828273 
1050.000000	93.782349 
1049.000000	93.734209 
1048.000000	93.683063 
1047.000000	93.631424 
1046.000000	93.582420 
1045.000000	93.538637 
1044.000000	93.501429 
1043.000000	93.468414 
1042.000000	93.433801 
1041.000000	93.394657 
1040.000000	93.355295 
1039.000000	93.322797 
1038.000000	93.300554 
1037.000000	93.288773 
1036.000000	93.287391 
1035.000000	93.294066 
1034.000000	93.302723 
1033.000000	93.308717 
1032.000000	93.311703 
1031.000000	93.309283 
1030.000000	93.294519 
1029.000000	93.268072 
1028.000000	93.247564 
1027.000000	93.253321 
1026.000000	93.285427 
1025.000000	93.323486 
1024.000000	93.348773 
1023.000000	93.358323 
1022.000000	93.358309 
1021.000000	93.354676 
1020.000000	93.352565 
1019.000000	93.355775 
1018.000000	93.362590 
1017.000000	93.367930 
1016.000000	93.371656 
1015.000000	93.378998 
1014.000000	93.391631 
1013.000000	93.404823 
1012.000000	93.415033 
1011.000000	93.424071 
1010.000000	93.434118 
1009.000000	93.444756 
1008.000000	93.456763 
1007.000000	93.473042 
1006.000000	93.493689 
1005.000000	93.515117 
1004.000000	93.535543 
1003.000000	93.556656 
1002.000000	93.578950 
1001.000000	93.600530 
1000.000000	93.621491 
999.000000	 93.644467 
998.000000	 93.669943 
997.000000	 93.696013 
996.000000	 93.723340 
995.000000	 93.754966 
994.000000	 93.790346 
993.000000	 93.824907 
992.000000	 93.856534 
991.000000	 93.887339 
990.000000	 93.918102 
989.000000	 93.946524 
988.000000	 93.972775 
987.000000	 94.001961 
986.000000	 94.039095 
985.000000	 94.085215 
984.000000	 94.138701 
983.000000	 94.196182 
982.000000	 94.252618 
981.000000	 94.304968 
980.000000	 94.356172 
979.000000	 94.412144 
978.000000	 94.475107 
977.000000	 94.543459 
976.000000	 94.616532 
975.000000	 94.694049 
974.000000	 94.771887 
973.000000	 94.844776 
972.000000	 94.913710 
971.000000	 94.985230 
970.000000	 95.062686 
969.000000	 95.142861 
968.000000	 95.221470 
967.000000	 95.297216 
966.000000	 95.369985 
965.000000	 95.439607 
964.000000	 95.507124 
963.000000	 95.573697 
962.000000	 95.638397 
961.000000	 95.700574 
960.000000	 95.763180 
959.000000	 95.829136 
958.000000	 95.895281 
957.000000	 95.955095 
956.000000	 96.007028 
955.000000	 96.055288 
954.000000	 96.102858 
953.000000	 96.148891 
952.000000	 96.193053 
951.000000	 96.236818 
950.000000	 96.279532 
949.000000	 96.318122 
948.000000	 96.351739 
947.000000	 96.382338 
946.000000	 96.409979 
945.000000	 96.432234 
944.000000	 96.449709 
943.000000	 96.468067 
942.000000	 96.492635 
941.000000	 96.523432 
940.000000	 96.556094 
939.000000	 96.585014 
938.000000	 96.606149 
937.000000	 96.620596 
936.000000	 96.635518 
935.000000	 96.657923 
934.000000	 96.687257 
933.000000	 96.717368 
932.000000	 96.744875 
931.000000	 96.771455 
930.000000	 96.798600 
929.000000	 96.824945 
928.000000	 96.849013 
927.000000	 96.870350 
926.000000	 96.887864 
925.000000	 96.901294 
924.000000	 96.914472 
923.000000	 96.932617 
922.000000	 96.955653 
921.000000	 96.978024 
920.000000	 96.995419 
919.000000	 97.008040 
918.000000	 97.017627 
917.000000	 97.025686 
916.000000	 97.034792 
915.000000	 97.047074 
914.000000	 97.060864 
913.000000	 97.072982 
912.000000	 97.084814 
911.000000	 97.101933 
910.000000	 97.127391 
909.000000	 97.159566 
908.000000	 97.196439 
907.000000	 97.237090 
906.000000	 97.278657 
905.000000	 97.317314 
904.000000	 97.353628 
903.000000	 97.392538 
902.000000	 97.436969 
901.000000	 97.485286 
900.000000	 97.535310 
899.000000	 97.586468 
898.000000	 97.637076 
897.000000	 97.683860 
896.000000	 97.725407 
895.000000	 97.762881 
894.000000	 97.797223 
893.000000	 97.829355 
892.000000	 97.863174 
891.000000	 97.903733 
890.000000	 97.951178 
889.000000	 98.000038 
888.000000	 98.045335 
887.000000	 98.086083 
886.000000	 98.122791 
885.000000	 98.155795 
884.000000	 98.186778 
883.000000	 98.217787 
882.000000	 98.247609 
881.000000	 98.273081 
880.000000	 98.295224 
879.000000	 98.320063 
878.000000	 98.351721 
877.000000	 98.388100 
876.000000	 98.424475 
875.000000	 98.457608 
874.000000	 98.485751 
873.000000	 98.509145 
872.000000	 98.531960 
871.000000	 98.559766 
870.000000	 98.593684 
869.000000	 98.630482 
868.000000	 98.668740 
867.000000	 98.710002 
866.000000	 98.752494 
865.000000	 98.789090 
864.000000	 98.815090 
863.000000	 98.834972 
862.000000	 98.858214 
861.000000	 98.889767 
860.000000	 98.926920 
859.000000	 98.963804 
858.000000	 98.996474 
857.000000	 99.024532 
856.000000	 99.050097 
855.000000	 99.075602 
854.000000	 99.101723 
853.000000	 99.127115 
852.000000	 99.149880 
851.000000	 99.169074 
850.000000	 99.185695 
849.000000	 99.202832 
848.000000	 99.223490 
847.000000	 99.246744 
846.000000	 99.267220 
845.000000	 99.280219 
844.000000	 99.286401 
843.000000	 99.289943 
842.000000	 99.293559 
841.000000	 99.296995 
840.000000	 99.298411 
839.000000	 99.294945 
838.000000	 99.284091 
837.000000	 99.267464 
836.000000	 99.251374 
835.000000	 99.240504 
834.000000	 99.232905 
833.000000	 99.225040 
832.000000	 99.219542 
831.000000	 99.222241 
830.000000	 99.231856 
829.000000	 99.238895 
828.000000	 99.236767 
827.000000	 99.229379 
826.000000	 99.225404 
825.000000	 99.228535 
824.000000	 99.235937 
823.000000	 99.243682 
822.000000	 99.251274 
821.000000	 99.261521 
820.000000	 99.276168 
819.000000	 99.291557 
818.000000	 99.300800 
817.000000	 99.301410 
816.000000	 99.297174 
815.000000	 99.289719 
814.000000	 99.272357 
813.000000	 99.237239 
812.000000	 99.185298 
811.000000	 99.122401 
810.000000	 99.047180 
809.000000	 98.950388 
808.000000	 98.827339 
807.000000	 98.684490 
806.000000	 98.531801 
805.000000	 98.374760 
804.000000	 98.217555 
803.000000	 98.068637 
802.000000	 97.937978 
801.000000	 97.831430 
800.000000	 97.750829 
799.000000	 97.696787 
798.000000	 97.669269 
797.000000	 97.667726 
796.000000	 97.690672 
795.000000	 97.732008 
794.000000	 97.779408 
793.000000	 97.821697 
792.000000	 97.857316 
791.000000	 97.890744 
790.000000	 97.921925 
789.000000	 97.944436 
788.000000	 97.952399 
787.000000	 97.943092 
786.000000	 97.914162 
785.000000	 97.865602 
784.000000	 97.805158 
783.000000	 97.745498 
782.000000	 97.694455 
781.000000	 97.652527 
780.000000	 97.619416 
779.000000	 97.596988 
778.000000	 97.586294 
777.000000	 97.588690 
776.000000	 97.609746 
775.000000	 97.654114 
774.000000	 97.715423 
773.000000	 97.778901 
772.000000	 97.836049 
771.000000	 97.890008 
770.000000	 97.944918 
769.000000	 97.996961 
768.000000	 98.038650 
767.000000	 98.066811 
766.000000	 98.084223 
765.000000	 98.097592 
764.000000	 98.114799 
763.000000	 98.139252 
762.000000	 98.165469 
761.000000	 98.184386 
760.000000	 98.193931 
759.000000	 98.200907 
758.000000	 98.213061 
757.000000	 98.233234 
756.000000	 98.259451 
755.000000	 98.285146 
754.000000	 98.301251 
753.000000	 98.305387 
752.000000	 98.308643 
751.000000	 98.326283 
750.000000	 98.360875 
749.000000	 98.400105 
748.000000	 98.431266 
747.000000	 98.452089 
746.000000	 98.467644 
745.000000	 98.483914 
744.000000	 98.505822 
743.000000	 98.535270 
742.000000	 98.569191 
741.000000	 98.604009 
740.000000	 98.641635 
739.000000	 98.685336 
738.000000	 98.730706 
737.000000	 98.767892 
736.000000	 98.792852 
735.000000	 98.809865 
734.000000	 98.823730 
733.000000	 98.837035 
732.000000	 98.854894 
731.000000	 98.882753 
730.000000	 98.916643 
729.000000	 98.944220 
728.000000	 98.959247 
727.000000	 98.967866 
726.000000	 98.977592 
725.000000	 98.987397 
724.000000	 98.992905 
723.000000	 98.994825 
722.000000	 98.998069 
721.000000	 99.007697 
720.000000	 99.028274 
719.000000	 99.061013 
718.000000	 99.098687 
717.000000	 99.129370 
716.000000	 99.147509 
715.000000	 99.156543 
714.000000	 99.161156 
713.000000	 99.164358 
712.000000	 99.172840 
711.000000	 99.194655 
710.000000	 99.226566 
709.000000	 99.252296 
708.000000	 99.258916 
707.000000	 99.248227 
706.000000	 99.228235 
705.000000	 99.201808 
704.000000	 99.170329 
703.000000	 99.140655 
702.000000	 99.118904 
701.000000	 99.100131 
700.000000	 99.070993 
699.000000	 99.021409 
698.000000	 98.951825 
697.000000	 98.873790 
696.000000	 98.805949 
695.000000	 98.764204 
694.000000	 98.751589 
693.000000	 98.760171 
692.000000	 98.782903 
691.000000	 98.817942 
690.000000	 98.861637 
689.000000	 98.906509 
688.000000	 98.948837 
687.000000	 98.989419 
686.000000	 99.023799 
685.000000	 99.042445 
684.000000	 99.045136 
683.000000	 99.044843 
682.000000	 99.052845 
681.000000	 99.068687 
680.000000	 99.087647 
679.000000	 99.107554 
678.000000	 99.124110 
677.000000	 99.131129 
676.000000	 99.133054 
675.000000	 99.143249 
674.000000	 99.164259 
673.000000	 99.181070 
672.000000	 99.180456 
671.000000	 99.167543 
670.000000	 99.158840 
669.000000	 99.168461 
668.000000	 99.194725 
667.000000	 99.222124 
666.000000	 99.242384 
665.000000	 99.252470 
664.000000	 99.257405 
663.000000	 99.272038 
662.000000	 99.301754 
661.000000	 99.330210 
660.000000	 99.338002 
659.000000	 99.324118 
658.000000	 99.300896 
657.000000	 99.277406 
656.000000	 99.258982 
655.000000	 99.253188 
654.000000	 99.261552 
653.000000	 99.272003 
652.000000	 99.272875 
651.000000	 99.268772 
650.000000	 99.271325 

