4000.000000	99.263703 
3999.000000	99.262879 
3998.000000	99.262497 
3997.000000	99.262979 
3996.000000	99.264029 
3995.000000	99.264886 
3994.000000	99.265164 
3993.000000	99.265089 
3992.000000	99.265003 
3991.000000	99.264850 
3990.000000	99.264251 
3989.000000	99.262987 
3988.000000	99.261307 
3987.000000	99.259801 
3986.000000	99.259005 
3985.000000	99.259057 
3984.000000	99.259655 
3983.000000	99.260405 
3982.000000	99.261255 
3981.000000	99.262450 
3980.000000	99.264041 
3979.000000	99.265606 
3978.000000	99.266562 
3977.000000	99.266682 
3976.000000	99.266134 
3975.000000	99.265147 
3974.000000	99.263801 
3973.000000	99.262210 
3972.000000	99.260734 
3971.000000	99.259880 
3970.000000	99.260042 
3969.000000	99.261226 
3968.000000	99.262962 
3967.000000	99.264491 
3966.000000	99.265204 
3965.000000	99.264971 
3964.000000	99.264105 
3963.000000	99.263163 
3962.000000	99.262615 
3961.000000	99.262531 
3960.000000	99.262481 
3959.000000	99.261906 
3958.000000	99.260769 
3957.000000	99.259661 
3956.000000	99.259213 
3955.000000	99.259422 
3954.000000	99.259753 
3953.000000	99.259747 
3952.000000	99.259356 
3951.000000	99.258798 
3950.000000	99.258209 
3949.000000	99.257561 
3948.000000	99.256879 
3947.000000	99.256390 
3946.000000	99.256287 
3945.000000	99.256449 
3944.000000	99.256526 
3943.000000	99.256299 
3942.000000	99.255892 
3941.000000	99.255569 
3940.000000	99.255344 
3939.000000	99.255012 
3938.000000	99.254541 
3937.000000	99.254115 
3936.000000	99.253889 
3935.000000	99.253779 
3934.000000	99.253645 
3933.000000	99.253529 
3932.000000	99.253554 
3931.000000	99.253694 
3930.000000	99.253766 
3929.000000	99.253648 
3928.000000	99.253397 
3927.000000	99.252980 
3926.000000	99.252265 
3925.000000	99.251361 
3924.000000	99.250769 
3923.000000	99.250781 
3922.000000	99.250976 
3921.000000	99.250760 
3920.000000	99.250230 
3919.000000	99.249913 
3918.000000	99.249950 
3917.000000	99.250052 
3916.000000	99.250134 
3915.000000	99.250385 
3914.000000	99.250760 
3913.000000	99.250941 
3912.000000	99.250831 
3911.000000	99.250549 
3910.000000	99.250307 
3909.000000	99.250176 
3908.000000	99.250196 
3907.000000	99.250327 
3906.000000	99.250435 
3905.000000	99.250358 
3904.000000	99.250093 
3903.000000	99.249830 
3902.000000	99.249667 
3901.000000	99.249443 
3900.000000	99.249030 
3899.000000	99.248529 
3898.000000	99.248117 
3897.000000	99.247821 
3896.000000	99.247569 
3895.000000	99.247354 
3894.000000	99.247284 
3893.000000	99.247339 
3892.000000	99.247351 
3891.000000	99.247214 
3890.000000	99.247053 
3889.000000	99.246959 
3888.000000	99.246845 
3887.000000	99.246625 
3886.000000	99.246317 
3885.000000	99.246004 
3884.000000	99.245752 
3883.000000	99.245519 
3882.000000	99.245252 
3881.000000	99.244956 
3880.000000	99.244665 
3879.000000	99.244398 
3878.000000	99.244148 
3877.000000	99.243892 
3876.000000	99.243615 
3875.000000	99.243318 
3874.000000	99.243011 
3873.000000	99.242706 
3872.000000	99.242404 
3871.000000	99.242107 
3870.000000	99.241824 
3869.000000	99.241576 
3868.000000	99.241366 
3867.000000	99.241186 
3866.000000	99.241015 
3865.000000	99.240849 
3864.000000	99.240697 
3863.000000	99.240564 
3862.000000	99.240445 
3861.000000	99.240331 
3860.000000	99.240230 
3859.000000	99.240139 
3858.000000	99.240052 
3857.000000	99.239982 
3856.000000	99.239976 
3855.000000	99.240050 
3854.000000	99.240157 
3853.000000	99.240243 
3852.000000	99.240336 
3851.000000	99.240451 
3850.000000	99.240574 
3849.000000	99.240696 
3848.000000	99.240820 
3847.000000	99.240948 
3846.000000	99.241082 
3845.000000	99.241224 
3844.000000	99.241373 
3843.000000	99.241520 
3842.000000	99.241661 
3841.000000	99.241793 
3840.000000	99.241913 
3839.000000	99.242020 
3838.000000	99.242109 
3837.000000	99.242179 
3836.000000	99.242229 
3835.000000	99.242267 
3834.000000	99.242298 
3833.000000	99.242330 
3832.000000	99.242368 
3831.000000	99.242412 
3830.000000	99.242459 
3829.000000	99.242502 
3828.000000	99.242537 
3827.000000	99.242561 
3826.000000	99.242574 
3825.000000	99.242585 
3824.000000	99.242602 
3823.000000	99.242626 
3822.000000	99.242644 
3821.000000	99.242645 
3820.000000	99.242632 
3819.000000	99.242614 
3818.000000	99.242587 
3817.000000	99.242544 
3816.000000	99.242491 
3815.000000	99.242440 
3814.000000	99.242394 
3813.000000	99.242339 
3812.000000	99.242264 
3811.000000	99.242175 
3810.000000	99.242083 
3809.000000	99.241985 
3808.000000	99.241874 
3807.000000	99.241745 
3806.000000	99.241606 
3805.000000	99.241466 
3804.000000	99.241324 
3803.000000	99.241176 
3802.000000	99.241027 
3801.000000	99.240886 
3800.000000	99.240751 
3799.000000	99.240654 
3798.000000	99.240576 
3797.000000	99.240443 
3796.000000	99.240296 
3795.000000	99.240270 
3794.000000	99.240400 
3793.000000	99.240573 
3792.000000	99.240720 
3791.000000	99.240904 
3790.000000	99.241123 
3789.000000	99.241294 
3788.000000	99.241453 
3787.000000	99.241801 
3786.000000	99.242401 
3785.000000	99.243028 
3784.000000	99.243506 
3783.000000	99.243890 
3782.000000	99.244142 
3781.000000	99.243975 
3780.000000	99.243269 
3779.000000	99.242278 
3778.000000	99.241529 
3777.000000	99.241175 
3776.000000	99.240907 
3775.000000	99.240550 
3774.000000	99.240355 
3773.000000	99.240498 
3772.000000	99.240735 
3771.000000	99.240684 
3770.000000	99.240319 
3769.000000	99.239961 
3768.000000	99.239820 
3767.000000	99.239730 
3766.000000	99.239520 
3765.000000	99.239291 
3764.000000	99.239236 
3763.000000	99.239354 
3762.000000	99.239446 
3761.000000	99.239405 
3760.000000	99.239301 
3759.000000	99.239171 
3758.000000	99.238972 
3757.000000	99.238688 
3756.000000	99.238383 
3755.000000	99.238092 
3754.000000	99.237803 
3753.000000	99.237538 
3752.000000	99.237325 
3751.000000	99.237052 
3750.000000	99.236558 
3749.000000	99.235914 
3748.000000	99.235352 
3747.000000	99.234897 
3746.000000	99.234408 
3745.000000	99.233778 
3744.000000	99.233045 
3743.000000	99.232610 
3742.000000	99.232562 
3741.000000	99.232298 
3740.000000	99.231606 
3739.000000	99.230928 
3738.000000	99.230649 
3737.000000	99.230567 
3736.000000	99.230212 
3735.000000	99.229552 
3734.000000	99.228830 
3733.000000	99.227912 
3732.000000	99.226693 
3731.000000	99.225789 
3730.000000	99.225730 
3729.000000	99.226002 
3728.000000	99.225730 
3727.000000	99.225002 
3726.000000	99.224728 
3725.000000	99.225247 
3724.000000	99.225482 
3723.000000	99.224290 
3722.000000	99.221895 
3721.000000	99.219502 
3720.000000	99.218046 
3719.000000	99.217436 
3718.000000	99.217053 
3717.000000	99.216408 
3716.000000	99.215302 
3715.000000	99.213441 
3714.000000	99.210696 
3713.000000	99.207566 
3712.000000	99.204414 
3711.000000	99.201187 
3710.000000	99.198442 
3709.000000	99.196699 
3708.000000	99.195471 
3707.000000	99.193936 
3706.000000	99.191764 
3705.000000	99.189106 
3704.000000	99.186310 
3703.000000	99.183805 
3702.000000	99.181798 
3701.000000	99.180304 
3700.000000	99.179407 
3699.000000	99.178406 
3698.000000	99.175869 
3697.000000	99.171584 
3696.000000	99.167242 
3695.000000	99.164517 
3694.000000	99.163225 
3693.000000	99.162138 
3692.000000	99.160691 
3691.000000	99.158779 
3690.000000	99.155762 
3689.000000	99.151127 
3688.000000	99.146713 
3687.000000	99.145161 
3686.000000	99.146008 
3685.000000	99.146591 
3684.000000	99.146071 
3683.000000	99.145735 
3682.000000	99.145992 
3681.000000	99.145084 
3680.000000	99.141452 
3679.000000	99.136432 
3678.000000	99.132470 
3677.000000	99.130225 
3676.000000	99.127854 
3675.000000	99.124991 
3674.000000	99.125748 
3673.000000	99.130331 
3672.000000	99.133302 
3671.000000	99.133032 
3670.000000	99.131694 
3669.000000	99.130950 
3668.000000	99.131455 
3667.000000	99.131780 
3666.000000	99.130716 
3665.000000	99.129385 
3664.000000	99.129334 
3663.000000	99.130750 
3662.000000	99.132804 
3661.000000	99.134823 
3660.000000	99.136852 
3659.000000	99.139254 
3658.000000	99.141798 
3657.000000	99.143736 
3656.000000	99.144781 
3655.000000	99.146482 
3654.000000	99.149657 
3653.000000	99.152817 
3652.000000	99.155226 
3651.000000	99.157909 
3650.000000	99.160254 
3649.000000	99.159714 
3648.000000	99.156565 
3647.000000	99.154348 
3646.000000	99.155311 
3645.000000	99.158800 
3644.000000	99.163038 
3643.000000	99.166835 
3642.000000	99.170092 
3641.000000	99.173002 
3640.000000	99.175595 
3639.000000	99.177990 
3638.000000	99.180807 
3637.000000	99.184578 
3636.000000	99.188469 
3635.000000	99.190740 
3634.000000	99.190801 
3633.000000	99.190010 
3632.000000	99.189959 
3631.000000	99.191089 
3630.000000	99.192912 
3629.000000	99.193972 
3628.000000	99.194042 
3627.000000	99.195052 
3626.000000	99.196800 
3625.000000	99.198003 
3624.000000	99.198995 
3623.000000	99.200354 
3622.000000	99.201750 
3621.000000	99.202606 
3620.000000	99.202963 
3619.000000	99.203346 
3618.000000	99.204296 
3617.000000	99.205896 
3616.000000	99.207567 
3615.000000	99.208671 
3614.000000	99.209059 
3613.000000	99.209020 
3612.000000	99.208994 
3611.000000	99.209217 
3610.000000	99.209673 
3609.000000	99.210346 
3608.000000	99.211218 
3607.000000	99.212174 
3606.000000	99.213034 
3605.000000	99.213679 
3604.000000	99.214185 
3603.000000	99.214677 
3602.000000	99.215134 
3601.000000	99.215494 
3600.000000	99.215805 
3599.000000	99.216144 
3598.000000	99.216465 
3597.000000	99.216687 
3596.000000	99.216791 
3595.000000	99.216834 
3594.000000	99.216895 
3593.000000	99.217023 
3592.000000	99.217209 
3591.000000	99.217431 
3590.000000	99.217663 
3589.000000	99.217846 
3588.000000	99.217919 
3587.000000	99.217883 
3586.000000	99.217814 
3585.000000	99.217775 
3584.000000	99.217758 
3583.000000	99.217745 
3582.000000	99.217727 
3581.000000	99.217692 
3580.000000	99.217628 
3579.000000	99.217537 
3578.000000	99.217429 
3577.000000	99.217326 
3576.000000	99.217250 
3575.000000	99.217210 
3574.000000	99.217190 
3573.000000	99.217162 
3572.000000	99.217115 
3571.000000	99.217057 
3570.000000	99.216997 
3569.000000	99.216925 
3568.000000	99.216816 
3567.000000	99.216664 
3566.000000	99.216532 
3565.000000	99.216486 
3564.000000	99.216516 
3563.000000	99.216545 
3562.000000	99.216520 
3561.000000	99.216436 
3560.000000	99.216308 
3559.000000	99.216153 
3558.000000	99.215992 
3557.000000	99.215847 
3556.000000	99.215761 
3555.000000	99.215774 
3554.000000	99.215881 
3553.000000	99.216008 
3552.000000	99.216065 
3551.000000	99.216013 
3550.000000	99.215847 
3549.000000	99.215609 
3548.000000	99.215465 
3547.000000	99.215621 
3546.000000	99.216062 
3545.000000	99.216508 
3544.000000	99.216706 
3543.000000	99.216676 
3542.000000	99.216625 
3541.000000	99.216732 
3540.000000	99.217088 
3539.000000	99.217690 
3538.000000	99.218404 
3537.000000	99.218962 
3536.000000	99.219106 
3535.000000	99.218793 
3534.000000	99.218133 
3533.000000	99.217338 
3532.000000	99.216673 
3531.000000	99.216355 
3530.000000	99.216378 
3529.000000	99.216549 
3528.000000	99.216724 
3527.000000	99.216952 
3526.000000	99.217287 
3525.000000	99.217613 
3524.000000	99.217762 
3523.000000	99.217708 
3522.000000	99.217578 
3521.000000	99.217473 
3520.000000	99.217403 
3519.000000	99.217368 
3518.000000	99.217422 
3517.000000	99.217607 
3516.000000	99.217879 
3515.000000	99.218172 
3514.000000	99.218476 
3513.000000	99.218804 
3512.000000	99.219095 
3511.000000	99.219238 
3510.000000	99.219198 
3509.000000	99.219068 
3508.000000	99.218965 
3507.000000	99.218910 
3506.000000	99.218834 
3505.000000	99.218683 
3504.000000	99.218474 
3503.000000	99.218278 
3502.000000	99.218179 
3501.000000	99.218191 
3500.000000	99.218263 
3499.000000	99.218323 
3498.000000	99.218315 
3497.000000	99.218234 
3496.000000	99.218101 
3495.000000	99.217953 
3494.000000	99.217817 
3493.000000	99.217698 
3492.000000	99.217587 
3491.000000	99.217475 
3490.000000	99.217355 
3489.000000	99.217230 
3488.000000	99.217106 
3487.000000	99.216986 
3486.000000	99.216864 
3485.000000	99.216730 
3484.000000	99.216576 
3483.000000	99.216401 
3482.000000	99.216212 
3481.000000	99.216014 
3480.000000	99.215803 
3479.000000	99.215583 
3478.000000	99.215364 
3477.000000	99.215159 
3476.000000	99.214969 
3475.000000	99.214771 
3474.000000	99.214550 
3473.000000	99.214311 
3472.000000	99.214089 
3471.000000	99.213910 
3470.000000	99.213768 
3469.000000	99.213629 
3468.000000	99.213457 
3467.000000	99.213236 
3466.000000	99.212975 
3465.000000	99.212713 
3464.000000	99.212492 
3463.000000	99.212317 
3462.000000	99.212137 
3461.000000	99.211878 
3460.000000	99.211510 
3459.000000	99.211059 
3458.000000	99.210619 
3457.000000	99.210309 
3456.000000	99.210172 
3455.000000	99.210158 
3454.000000	99.210167 
3453.000000	99.210175 
3452.000000	99.210289 
3451.000000	99.210603 
3450.000000	99.211026 
3449.000000	99.211355 
3448.000000	99.211460 
3447.000000	99.211369 
3446.000000	99.211207 
3445.000000	99.211076 
3444.000000	99.210993 
3443.000000	99.210914 
3442.000000	99.210799 
3441.000000	99.210665 
3440.000000	99.210611 
3439.000000	99.210717 
3438.000000	99.210927 
3437.000000	99.211026 
3436.000000	99.210827 
3435.000000	99.210388 
3434.000000	99.210023 
3433.000000	99.210048 
3432.000000	99.210474 
3431.000000	99.210936 
3430.000000	99.210966 
3429.000000	99.210383 
3428.000000	99.209434 
3427.000000	99.208607 
3426.000000	99.208217 
3425.000000	99.208256 
3424.000000	99.208545 
3423.000000	99.208958 
3422.000000	99.209441 
3421.000000	99.209860 
3420.000000	99.209993 
3419.000000	99.209725 
3418.000000	99.209260 
3417.000000	99.209020 
3416.000000	99.209241 
3415.000000	99.209711 
3414.000000	99.209979 
3413.000000	99.209836 
3412.000000	99.209490 
3411.000000	99.209272 
3410.000000	99.209339 
3409.000000	99.209683 
3408.000000	99.210210 
3407.000000	99.210643 
3406.000000	99.210565 
3405.000000	99.209838 
3404.000000	99.208921 
3403.000000	99.208592 
3402.000000	99.209327 
3401.000000	99.210996 
3400.000000	99.212936 
3399.000000	99.214381 
3398.000000	99.215110 
3397.000000	99.215740 
3396.000000	99.217005 
3395.000000	99.218624 
3394.000000	99.219409 
3393.000000	99.218673 
3392.000000	99.217000 
3391.000000	99.215331 
3390.000000	99.213823 
3389.000000	99.212211 
3388.000000	99.210779 
3387.000000	99.210187 
3386.000000	99.210466 
3385.000000	99.210862 
3384.000000	99.210697 
3383.000000	99.209922 
3382.000000	99.208856 
3381.000000	99.207854 
3380.000000	99.207205 
3379.000000	99.207036 
3378.000000	99.207304 
3377.000000	99.208077 
3376.000000	99.209639 
3375.000000	99.212058 
3374.000000	99.214865 
3373.000000	99.217439 
3372.000000	99.219562 
3371.000000	99.221285 
3370.000000	99.222469 
3369.000000	99.222818 
3368.000000	99.222247 
3367.000000	99.220884 
3366.000000	99.218815 
3365.000000	99.216159 
3364.000000	99.213402 
3363.000000	99.211309 
3362.000000	99.210416 
3361.000000	99.210699 
3360.000000	99.211652 
3359.000000	99.212569 
3358.000000	99.212952 
3357.000000	99.212919 
3356.000000	99.213066 
3355.000000	99.213722 
3354.000000	99.214519 
3353.000000	99.214896 
3352.000000	99.214853 
3351.000000	99.214949 
3350.000000	99.215676 
3349.000000	99.217074 
3348.000000	99.218779 
3347.000000	99.220196 
3346.000000	99.220771 
3345.000000	99.220393 
3344.000000	99.219517 
3343.000000	99.218693 
3342.000000	99.218018 
3341.000000	99.217299 
3340.000000	99.216585 
3339.000000	99.216175 
3338.000000	99.216099 
3337.000000	99.215978 
3336.000000	99.215528 
3335.000000	99.214967 
3334.000000	99.214776 
3333.000000	99.215167 
3332.000000	99.215924 
3331.000000	99.216631 
3330.000000	99.217036 
3329.000000	99.217206 
3328.000000	99.217379 
3327.000000	99.217705 
3326.000000	99.218106 
3325.000000	99.218397 
3324.000000	99.218497 
3323.000000	99.218499 
3322.000000	99.218548 
3321.000000	99.218686 
3320.000000	99.218826 
3319.000000	99.218887 
3318.000000	99.218887 
3317.000000	99.218917 
3316.000000	99.219039 
3315.000000	99.219232 
3314.000000	99.219426 
3313.000000	99.219570 
3312.000000	99.219674 
3311.000000	99.219769 
3310.000000	99.219876 
3309.000000	99.219991 
3308.000000	99.220104 
3307.000000	99.220199 
3306.000000	99.220267 
3305.000000	99.220311 
3304.000000	99.220341 
3303.000000	99.220370 
3302.000000	99.220411 
3301.000000	99.220479 
3300.000000	99.220586 
3299.000000	99.220731 
3298.000000	99.220884 
3297.000000	99.221003 
3296.000000	99.221068 
3295.000000	99.221086 
3294.000000	99.221094 
3293.000000	99.221149 
3292.000000	99.221297 
3291.000000	99.221523 
3290.000000	99.221739 
3289.000000	99.221838 
3288.000000	99.221774 
3287.000000	99.221588 
3286.000000	99.221378 
3285.000000	99.221249 
3284.000000	99.221262 
3283.000000	99.221393 
3282.000000	99.221539 
3281.000000	99.221608 
3280.000000	99.221569 
3279.000000	99.221399 
3278.000000	99.221066 
3277.000000	99.220609 
3276.000000	99.220198 
3275.000000	99.220010 
3274.000000	99.220075 
3273.000000	99.220257 
3272.000000	99.220341 
3271.000000	99.220134 
3270.000000	99.219560 
3269.000000	99.218806 
3268.000000	99.218300 
3267.000000	99.218393 
3266.000000	99.219092 
3265.000000	99.220082 
3264.000000	99.220993 
3263.000000	99.221609 
3262.000000	99.221895 
3261.000000	99.221962 
3260.000000	99.221937 
3259.000000	99.221806 
3258.000000	99.221446 
3257.000000	99.220853 
3256.000000	99.220234 
3255.000000	99.219822 
3254.000000	99.219673 
3253.000000	99.219703 
3252.000000	99.219830 
3251.000000	99.219983 
3250.000000	99.220037 
3249.000000	99.219892 
3248.000000	99.219601 
3247.000000	99.219319 
3246.000000	99.219103 
3245.000000	99.218861 
3244.000000	99.218546 
3243.000000	99.218334 
3242.000000	99.218513 
3241.000000	99.219206 
3240.000000	99.220182 
3239.000000	99.220945 
3238.000000	99.221112 
3237.000000	99.220703 
3236.000000	99.220097 
3235.000000	99.219670 
3234.000000	99.219512 
3233.000000	99.219565 
3232.000000	99.219890 
3231.000000	99.220616 
3230.000000	99.221640 
3229.000000	99.222500 
3228.000000	99.222645 
3227.000000	99.221814 
3226.000000	99.220188 
3225.000000	99.218362 
3224.000000	99.217086 
3223.000000	99.216805 
3222.000000	99.217383 
3221.000000	99.218260 
3220.000000	99.218961 
3219.000000	99.219389 
3218.000000	99.219614 
3217.000000	99.219560 
3216.000000	99.219072 
3215.000000	99.218235 
3214.000000	99.217460 
3213.000000	99.217170 
3212.000000	99.217473 
3211.000000	99.218165 
3210.000000	99.219020 
3209.000000	99.219998 
3208.000000	99.221144 
3207.000000	99.222368 
3206.000000	99.223451 
3205.000000	99.224301 
3204.000000	99.225105 
3203.000000	99.226122 
3202.000000	99.227354 
3201.000000	99.228501 
3200.000000	99.229179 
3199.000000	99.229122 
3198.000000	99.228297 
3197.000000	99.227013 
3196.000000	99.225862 
3195.000000	99.225308 
3194.000000	99.225154 
3193.000000	99.224615 
3192.000000	99.223146 
3191.000000	99.221182 
3190.000000	99.219884 
3189.000000	99.220112 
3188.000000	99.221718 
3187.000000	99.223781 
3186.000000	99.225379 
3185.000000	99.226101 
3184.000000	99.226043 
3183.000000	99.225566 
3182.000000	99.225017 
3181.000000	99.224478 
3180.000000	99.223795 
3179.000000	99.222960 
3178.000000	99.222385 
3177.000000	99.222498 
3176.000000	99.223097 
3175.000000	99.223471 
3174.000000	99.223368 
3173.000000	99.223507 
3172.000000	99.224707 
3171.000000	99.226786 
3170.000000	99.228648 
3169.000000	99.229484 
3168.000000	99.229541 
3167.000000	99.229620 
3166.000000	99.230141 
3165.000000	99.230868 
3164.000000	99.231388 
3163.000000	99.231589 
3162.000000	99.231645 
3161.000000	99.231757 
3160.000000	99.231997 
3159.000000	99.232331 
3158.000000	99.232685 
3157.000000	99.232998 
3156.000000	99.233251 
3155.000000	99.233469 
3154.000000	99.233710 
3153.000000	99.234045 
3152.000000	99.234505 
3151.000000	99.235003 
3150.000000	99.235356 
3149.000000	99.235453 
3148.000000	99.235397 
3147.000000	99.235435 
3146.000000	99.235721 
3145.000000	99.236176 
3144.000000	99.236568 
3143.000000	99.236780 
3142.000000	99.236941 
3141.000000	99.237227 
3140.000000	99.237570 
3139.000000	99.237743 
3138.000000	99.237670 
3137.000000	99.237537 
3136.000000	99.237570 
3135.000000	99.237780 
3134.000000	99.238007 
3133.000000	99.238126 
3132.000000	99.238153 
3131.000000	99.238179 
3130.000000	99.238228 
3129.000000	99.238221 
3128.000000	99.238095 
3127.000000	99.237907 
3126.000000	99.237796 
3125.000000	99.237827 
3124.000000	99.237929 
3123.000000	99.237991 
3122.000000	99.237993 
3121.000000	99.238019 
3120.000000	99.238175 
3119.000000	99.238506 
3118.000000	99.238932 
3117.000000	99.239247 
3116.000000	99.239226 
3115.000000	99.238822 
3114.000000	99.238239 
3113.000000	99.237746 
3112.000000	99.237425 
3111.000000	99.237195 
3110.000000	99.237045 
3109.000000	99.237054 
3108.000000	99.237166 
3107.000000	99.237144 
3106.000000	99.236846 
3105.000000	99.236463 
3104.000000	99.236357 
3103.000000	99.236707 
3102.000000	99.237408 
3101.000000	99.238222 
3100.000000	99.238888 
3099.000000	99.239199 
3098.000000	99.239086 
3097.000000	99.238694 
3096.000000	99.238327 
3095.000000	99.238238 
3094.000000	99.238477 
3093.000000	99.238948 
3092.000000	99.239514 
3091.000000	99.240007 
3090.000000	99.240189 
3089.000000	99.239871 
3088.000000	99.239217 
3087.000000	99.238799 
3086.000000	99.239115 
3085.000000	99.240050 
3084.000000	99.240936 
3083.000000	99.241221 
3082.000000	99.240987 
3081.000000	99.240755 
3080.000000	99.240866 
3079.000000	99.241130 
3078.000000	99.241000 
3077.000000	99.239943 
3076.000000	99.237771 
3075.000000	99.234936 
3074.000000	99.232513 
3073.000000	99.231554 
3072.000000	99.232325 
3071.000000	99.234333 
3070.000000	99.236986 
3069.000000	99.239680 
3068.000000	99.241170 
3067.000000	99.239897 
3066.000000	99.235738 
3065.000000	99.230974 
3064.000000	99.228423 
3063.000000	99.228698 
3062.000000	99.230125 
3061.000000	99.231119 
3060.000000	99.231754 
3059.000000	99.232979 
3058.000000	99.235224 
3057.000000	99.238056 
3056.000000	99.240495 
3055.000000	99.241568 
3054.000000	99.241135 
3053.000000	99.240163 
3052.000000	99.239584 
3051.000000	99.238965 
3050.000000	99.237138 
3049.000000	99.233957 
3048.000000	99.230256 
3047.000000	99.226109 
3046.000000	99.220788 
3045.000000	99.214965 
3044.000000	99.211333 
3043.000000	99.211749 
3042.000000	99.214656 
3041.000000	99.216484 
3040.000000	99.215245 
3039.000000	99.211796 
3038.000000	99.208063 
3037.000000	99.205081 
3036.000000	99.202704 
3035.000000	99.200312 
3034.000000	99.197499 
3033.000000	99.194322 
3032.000000	99.190916 
3031.000000	99.186897 
3030.000000	99.181398 
3029.000000	99.173883 
3028.000000	99.164817 
3027.000000	99.155411 
3026.000000	99.146830 
3025.000000	99.139622 
3024.000000	99.133496 
3023.000000	99.127420 
3022.000000	99.120231 
3021.000000	99.111580 
3020.000000	99.102287 
3019.000000	99.093666 
3018.000000	99.086592 
3017.000000	99.081095 
3016.000000	99.076340 
3015.000000	99.070943 
3014.000000	99.063831 
3013.000000	99.054948 
3012.000000	99.044665 
3011.000000	99.032558 
3010.000000	99.017748 
3009.000000	99.000928 
3008.000000	98.985181 
3007.000000	98.973794 
3006.000000	98.967349 
3005.000000	98.963324 
3004.000000	98.958187 
3003.000000	98.949582 
3002.000000	98.937176 
3001.000000	98.922562 
3000.000000	98.908417 
2999.000000	98.896832 
2998.000000	98.888054 
2997.000000	98.881127 
2996.000000	98.875502 
2995.000000	98.871124 
2994.000000	98.866577 
2993.000000	98.858245 
2992.000000	98.842910 
2991.000000	98.821659 
2990.000000	98.800414 
2989.000000	98.785558 
2988.000000	98.779060 
2987.000000	98.778216 
2986.000000	98.779572 
2985.000000	98.782247 
2984.000000	98.786998 
2983.000000	98.793238 
2982.000000	98.798504 
2981.000000	98.800824 
2980.000000	98.800627 
2979.000000	98.799929 
2978.000000	98.800282 
2977.000000	98.801729 
2976.000000	98.803046 
2975.000000	98.802618 
2974.000000	98.799608 
2973.000000	98.794841 
2972.000000	98.790388 
2971.000000	98.788038 
2970.000000	98.788335 
2969.000000	98.790994 
2968.000000	98.795643 
2967.000000	98.801888 
2966.000000	98.809173 
2965.000000	98.817073 
2964.000000	98.825516 
2963.000000	98.834428 
2962.000000	98.843366 
2961.000000	98.851712 
2960.000000	98.859105 
2959.000000	98.865677 
2958.000000	98.872096 
2957.000000	98.879136 
2956.000000	98.886512 
2955.000000	98.892174 
2954.000000	98.893862 
2953.000000	98.892192 
2952.000000	98.891544 
2951.000000	98.896659 
2950.000000	98.908000 
2949.000000	98.920960 
2948.000000	98.929939 
2947.000000	98.932897 
2946.000000	98.931986 
2945.000000	98.930723 
2944.000000	98.930981 
2943.000000	98.932475 
2942.000000	98.934234 
2941.000000	98.935722 
2940.000000	98.936637 
2939.000000	98.936576 
2938.000000	98.935429 
2937.000000	98.933788 
2936.000000	98.932552 
2935.000000	98.932240 
2934.000000	98.932882 
2933.000000	98.934271 
2932.000000	98.935927 
2931.000000	98.937062 
2930.000000	98.937062 
2929.000000	98.935958 
2928.000000	98.934177 
2927.000000	98.932115 
2926.000000	98.930305 
2925.000000	98.929484 
2924.000000	98.929822 
2923.000000	98.930407 
2922.000000	98.930309 
2921.000000	98.929888 
2920.000000	98.930113 
2919.000000	98.930778 
2918.000000	98.930460 
2917.000000	98.928372 
2916.000000	98.925253 
2915.000000	98.922196 
2914.000000	98.919575 
2913.000000	98.917481 
2912.000000	98.916168 
2911.000000	98.915363 
2910.000000	98.913938 
2909.000000	98.911101 
2908.000000	98.907436 
2907.000000	98.904027 
2906.000000	98.900894 
2905.000000	98.896904 
2904.000000	98.891045 
2903.000000	98.883600 
2902.000000	98.876620 
2901.000000	98.873404 
2900.000000	98.876654 
2899.000000	98.886141 
2898.000000	98.897939 
2897.000000	98.907164 
2896.000000	98.911908 
2895.000000	98.914150 
2894.000000	98.916899 
2893.000000	98.921039 
2892.000000	98.924991 
2891.000000	98.926847 
2890.000000	98.926447 
2889.000000	98.925530 
2888.000000	98.926126 
2887.000000	98.928911 
2886.000000	98.933095 
2885.000000	98.937631 
2884.000000	98.942163 
2883.000000	98.946807 
2882.000000	98.951569 
2881.000000	98.956505 
2880.000000	98.962206 
2879.000000	98.969574 
2878.000000	98.978916 
2877.000000	98.989342 
2876.000000	98.999064 
2875.000000	99.006339 
2874.000000	99.010455 
2873.000000	99.012214 
2872.000000	99.013548 
2871.000000	99.016317 
2870.000000	99.021213 
2869.000000	99.027585 
2868.000000	99.034243 
2867.000000	99.040615 
2866.000000	99.047342 
2865.000000	99.055678 
2864.000000	99.065948 
2863.000000	99.076537 
2862.000000	99.084855 
2861.000000	99.089563 
2860.000000	99.091800 
2859.000000	99.094207 
2858.000000	99.098793 
2857.000000	99.105682 
2856.000000	99.113532 
2855.000000	99.120871 
2854.000000	99.127051 
2853.000000	99.132176 
2852.000000	99.136404 
2851.000000	99.139749 
2850.000000	99.142715 
2849.000000	99.146540 
2848.000000	99.152106 
2847.000000	99.158718 
2846.000000	99.164555 
2845.000000	99.168396 
2844.000000	99.170513 
2843.000000	99.172052 
2842.000000	99.174142 
2841.000000	99.177505 
2840.000000	99.182082 
2839.000000	99.186663 
2838.000000	99.189499 
2837.000000	99.189769 
2836.000000	99.188274 
2835.000000	99.186681 
2834.000000	99.186386 
2833.000000	99.188094 
2832.000000	99.191738 
2831.000000	99.196377 
2830.000000	99.200704 
2829.000000	99.204152 
2828.000000	99.207202 
2827.000000	99.210294 
2826.000000	99.212843 
2825.000000	99.213768 
2824.000000	99.212762 
2823.000000	99.210772 
2822.000000	99.209466 
2821.000000	99.210258 
2820.000000	99.213370 
2819.000000	99.217500 
2818.000000	99.220765 
2817.000000	99.222384 
2816.000000	99.223118 
2815.000000	99.223995 
2814.000000	99.225166 
2813.000000	99.226267 
2812.000000	99.227230 
2811.000000	99.228086 
2810.000000	99.228475 
2809.000000	99.228096 
2808.000000	99.227455 
2807.000000	99.227515 
2806.000000	99.228609 
2805.000000	99.230119 
2804.000000	99.231197 
2803.000000	99.231506 
2802.000000	99.231333 
2801.000000	99.231266 
2800.000000	99.231690 
2799.000000	99.232401 
2798.000000	99.232830 
2797.000000	99.232735 
2796.000000	99.232507 
2795.000000	99.232645 
2794.000000	99.233165 
2793.000000	99.233725 
2792.000000	99.234153 
2791.000000	99.234586 
2790.000000	99.235157 
2789.000000	99.235836 
2788.000000	99.236589 
2787.000000	99.237446 
2786.000000	99.238367 
2785.000000	99.239225 
2784.000000	99.239930 
2783.000000	99.240438 
2782.000000	99.240658 
2781.000000	99.240527 
2780.000000	99.240201 
2779.000000	99.240053 
2778.000000	99.240355 
2777.000000	99.241060 
2776.000000	99.241902 
2775.000000	99.242606 
2774.000000	99.242957 
2773.000000	99.242840 
2772.000000	99.242353 
2771.000000	99.241875 
2770.000000	99.241845 
2769.000000	99.242429 
2768.000000	99.243470 
2767.000000	99.244670 
2766.000000	99.245754 
2765.000000	99.246529 
2764.000000	99.246943 
2763.000000	99.247162 
2762.000000	99.247497 
2761.000000	99.248114 
2760.000000	99.248870 
2759.000000	99.249488 
2758.000000	99.249852 
2757.000000	99.250104 
2756.000000	99.250481 
2755.000000	99.251093 
2754.000000	99.251822 
2753.000000	99.252387 
2752.000000	99.252572 
2751.000000	99.252425 
2750.000000	99.252243 
2749.000000	99.252277 
2748.000000	99.252462 
2747.000000	99.252555 
2746.000000	99.252489 
2745.000000	99.252477 
2744.000000	99.252739 
2743.000000	99.253240 
2742.000000	99.253767 
2741.000000	99.254180 
2740.000000	99.254506 
2739.000000	99.254828 
2738.000000	99.255182 
2737.000000	99.255550 
2736.000000	99.255912 
2735.000000	99.256267 
2734.000000	99.256627 
2733.000000	99.256996 
2732.000000	99.257348 
2731.000000	99.257652 
2730.000000	99.257906 
2729.000000	99.258153 
2728.000000	99.258427 
2727.000000	99.258720 
2726.000000	99.258997 
2725.000000	99.259237 
2724.000000	99.259442 
2723.000000	99.259630 
2722.000000	99.259811 
2721.000000	99.259989 
2720.000000	99.260167 
2719.000000	99.260342 
2718.000000	99.260513 
2717.000000	99.260678 
2716.000000	99.260840 
2715.000000	99.261000 
2714.000000	99.261160 
2713.000000	99.261317 
2712.000000	99.261470 
2711.000000	99.261613 
2710.000000	99.261746 
2709.000000	99.261869 
2708.000000	99.261984 
2707.000000	99.262093 
2706.000000	99.262192 
2705.000000	99.262282 
2704.000000	99.262363 
2703.000000	99.262436 
2702.000000	99.262506 
2701.000000	99.262574 
2700.000000	99.262639 
2699.000000	99.262702 
2698.000000	99.262762 
2697.000000	99.262819 
2696.000000	99.262872 
2695.000000	99.262922 
2694.000000	99.262968 
2693.000000	99.263010 
2692.000000	99.263043 
2691.000000	99.263065 
2690.000000	99.263077 
2689.000000	99.263084 
2688.000000	99.263091 
2687.000000	99.263101 
2686.000000	99.263109 
2685.000000	99.263110 
2684.000000	99.263101 
2683.000000	99.263087 
2682.000000	99.263077 
2681.000000	99.263076 
2680.000000	99.263086 
2679.000000	99.263104 
2678.000000	99.263128 
2677.000000	99.263157 
2676.000000	99.263189 
2675.000000	99.263233 
2674.000000	99.263290 
2673.000000	99.263340 
2672.000000	99.263371 
2671.000000	99.263396 
2670.000000	99.263426 
2669.000000	99.263431 
2668.000000	99.263367 
2667.000000	99.263223 
2666.000000	99.263073 
2665.000000	99.263045 
2664.000000	99.263216 
2663.000000	99.263519 
2662.000000	99.263777 
2661.000000	99.263878 
2660.000000	99.263879 
2659.000000	99.263910 
2658.000000	99.264001 
2657.000000	99.264065 
2656.000000	99.264009 
2655.000000	99.263798 
2654.000000	99.263454 
2653.000000	99.263054 
2652.000000	99.262699 
2651.000000	99.262424 
2650.000000	99.262164 
2649.000000	99.261882 
2648.000000	99.261680 
2647.000000	99.261697 
2646.000000	99.261934 
2645.000000	99.262245 
2644.000000	99.262455 
2643.000000	99.262466 
2642.000000	99.262321 
2641.000000	99.262237 
2640.000000	99.262502 
2639.000000	99.263249 
2638.000000	99.264287 
2637.000000	99.265160 
2636.000000	99.265442 
2635.000000	99.265003 
2634.000000	99.264114 
2633.000000	99.263370 
2632.000000	99.263236 
2631.000000	99.263612 
2630.000000	99.263956 
2629.000000	99.263894 
2628.000000	99.263629 
2627.000000	99.263596 
2626.000000	99.263842 
2625.000000	99.263976 
2624.000000	99.263700 
2623.000000	99.263146 
2622.000000	99.262697 
2621.000000	99.262591 
2620.000000	99.262765 
2619.000000	99.262920 
2618.000000	99.262730 
2617.000000	99.262120 
2616.000000	99.261419 
2615.000000	99.261094 
2614.000000	99.261313 
2613.000000	99.261840 
2612.000000	99.262335 
2611.000000	99.262680 
2610.000000	99.262980 
2609.000000	99.263367 
2608.000000	99.263840 
2607.000000	99.264255 
2606.000000	99.264468 
2605.000000	99.264531 
2604.000000	99.264634 
2603.000000	99.264794 
2602.000000	99.264723 
2601.000000	99.264214 
2600.000000	99.263464 
2599.000000	99.262850 
2598.000000	99.262521 
2597.000000	99.262377 
2596.000000	99.262300 
2595.000000	99.262185 
2594.000000	99.261873 
2593.000000	99.261303 
2592.000000	99.260686 
2591.000000	99.260354 
2590.000000	99.260405 
2589.000000	99.260623 
2588.000000	99.260671 
2587.000000	99.260409 
2586.000000	99.259908 
2585.000000	99.259314 
2584.000000	99.258752 
2583.000000	99.258301 
2582.000000	99.257983 
2581.000000	99.257761 
2580.000000	99.257566 
2579.000000	99.257351 
2578.000000	99.257111 
2577.000000	99.256851 
2576.000000	99.256575 
2575.000000	99.256283 
2574.000000	99.255975 
2573.000000	99.255650 
2572.000000	99.255308 
2571.000000	99.254949 
2570.000000	99.254577 
2569.000000	99.254201 
2568.000000	99.253831 
2567.000000	99.253477 
2566.000000	99.253148 
2565.000000	99.252848 
2564.000000	99.252577 
2563.000000	99.252331 
2562.000000	99.252107 
2561.000000	99.251906 
2560.000000	99.251727 
2559.000000	99.251573 
2558.000000	99.251462 
2557.000000	99.251400 
2556.000000	99.251348 
2555.000000	99.251231 
2554.000000	99.251037 
2553.000000	99.250883 
2552.000000	99.250890 
2551.000000	99.251017 
2550.000000	99.251093 
2549.000000	99.251059 
2548.000000	99.251031 
2547.000000	99.251026 
2546.000000	99.250825 
2545.000000	99.250256 
2544.000000	99.249511 
2543.000000	99.249064 
2542.000000	99.249223 
2541.000000	99.249858 
2540.000000	99.250484 
2539.000000	99.250608 
2538.000000	99.250036 
2537.000000	99.248967 
2536.000000	99.247851 
2535.000000	99.247046 
2534.000000	99.246636 
2533.000000	99.246582 
2532.000000	99.246912 
2531.000000	99.247662 
2530.000000	99.248744 
2529.000000	99.249977 
2528.000000	99.251168 
2527.000000	99.252109 
2526.000000	99.252741 
2525.000000	99.253391 
2524.000000	99.254563 
2523.000000	99.256239 
2522.000000	99.257594 
2521.000000	99.257751 
2520.000000	99.256668 
2519.000000	99.255125 
2518.000000	99.253884 
2517.000000	99.253085 
2516.000000	99.252440 
2515.000000	99.251745 
2514.000000	99.251175 
2513.000000	99.251086 
2512.000000	99.251476 
2511.000000	99.251703 
2510.000000	99.251017 
2509.000000	99.249493 
2508.000000	99.248202 
2507.000000	99.248154 
2506.000000	99.249219 
2505.000000	99.250242 
2504.000000	99.250190 
2503.000000	99.249052 
2502.000000	99.247683 
2501.000000	99.247033 
2500.000000	99.247556 
2499.000000	99.249138 
2498.000000	99.251262 
2497.000000	99.253191 
2496.000000	99.254230 
2495.000000	99.254120 
2494.000000	99.253238 
2493.000000	99.252250 
2492.000000	99.251439 
2491.000000	99.250535 
2490.000000	99.249313 
2489.000000	99.248105 
2488.000000	99.247480 
2487.000000	99.247522 
2486.000000	99.247748 
2485.000000	99.247770 
2484.000000	99.247741 
2483.000000	99.247967 
2482.000000	99.248364 
2481.000000	99.248545 
2480.000000	99.248283 
2479.000000	99.247619 
2478.000000	99.246647 
2477.000000	99.245462 
2476.000000	99.244341 
2475.000000	99.243720 
2474.000000	99.243830 
2473.000000	99.244471 
2472.000000	99.245147 
2471.000000	99.245502 
2470.000000	99.245536 
2469.000000	99.245471 
2468.000000	99.245457 
2467.000000	99.245407 
2466.000000	99.245135 
2465.000000	99.244649 
2464.000000	99.244210 
2463.000000	99.244046 
2462.000000	99.244091 
2461.000000	99.244083 
2460.000000	99.243885 
2459.000000	99.243608 
2458.000000	99.243455 
2457.000000	99.243525 
2456.000000	99.243760 
2455.000000	99.243976 
2454.000000	99.243966 
2453.000000	99.243634 
2452.000000	99.243056 
2451.000000	99.242435 
2450.000000	99.241965 
2449.000000	99.241723 
2448.000000	99.241648 
2447.000000	99.241612 
2446.000000	99.241553 
2445.000000	99.241551 
2444.000000	99.241742 
2443.000000	99.242152 
2442.000000	99.242604 
2441.000000	99.242835 
2440.000000	99.242721 
2439.000000	99.242354 
2438.000000	99.241931 
2437.000000	99.241618 
2436.000000	99.241481 
2435.000000	99.241459 
2434.000000	99.241364 
2433.000000	99.241038 
2432.000000	99.240541 
2431.000000	99.240158 
2430.000000	99.240113 
2429.000000	99.240374 
2428.000000	99.240767 
2427.000000	99.241219 
2426.000000	99.241767 
2425.000000	99.242288 
2424.000000	99.242415 
2423.000000	99.241880 
2422.000000	99.240844 
2421.000000	99.239910 
2420.000000	99.239592 
2419.000000	99.239890 
2418.000000	99.240361 
2417.000000	99.240584 
2416.000000	99.240548 
2415.000000	99.240502 
2414.000000	99.240594 
2413.000000	99.240752 
2412.000000	99.240874 
2411.000000	99.240991 
2410.000000	99.241237 
2409.000000	99.241687 
2408.000000	99.242290 
2407.000000	99.242975 
2406.000000	99.243730 
2405.000000	99.244562 
2404.000000	99.245397 
2403.000000	99.246047 
2402.000000	99.246375 
2401.000000	99.246444 
2400.000000	99.246417 
2399.000000	99.246395 
2398.000000	99.246419 
2397.000000	99.246590 
2396.000000	99.247044 
2395.000000	99.247784 
2394.000000	99.248638 
2393.000000	99.249387 
2392.000000	99.249951 
2391.000000	99.250391 
2390.000000	99.250821 
2389.000000	99.251329 
2388.000000	99.251927 
2387.000000	99.252553 
2386.000000	99.253121 
2385.000000	99.253590 
2384.000000	99.253994 
2383.000000	99.254394 
2382.000000	99.254827 
2381.000000	99.255295 
2380.000000	99.255785 
2379.000000	99.256280 
2378.000000	99.256766 
2377.000000	99.257241 
2376.000000	99.257711 
2375.000000	99.258182 
2374.000000	99.258659 
2373.000000	99.259137 
2372.000000	99.259609 
2371.000000	99.260065 
2370.000000	99.260498 
2369.000000	99.260901 
2368.000000	99.261269 
2367.000000	99.261602 
2366.000000	99.261905 
2365.000000	99.262197 
2364.000000	99.262495 
2363.000000	99.262812 
2362.000000	99.263152 
2361.000000	99.263507 
2360.000000	99.263871 
2359.000000	99.264241 
2358.000000	99.264617 
2357.000000	99.265000 
2356.000000	99.265383 
2355.000000	99.265754 
2354.000000	99.266097 
2353.000000	99.266408 
2352.000000	99.266694 
2351.000000	99.266971 
2350.000000	99.267251 
2349.000000	99.267536 
2348.000000	99.267822 
2347.000000	99.268101 
2346.000000	99.268363 
2345.000000	99.268588 
2344.000000	99.268775 
2343.000000	99.268950 
2342.000000	99.269173 
2341.000000	99.269495 
2340.000000	99.269856 
2339.000000	99.270108 
2338.000000	99.270132 
2337.000000	99.270030 
2336.000000	99.270066 
2335.000000	99.270364 
2334.000000	99.270726 
2333.000000	99.270856 
2332.000000	99.270654 
2331.000000	99.270175 
2330.000000	99.269327 
2329.000000	99.268303 
2328.000000	99.267708 
2327.000000	99.268006 
2326.000000	99.268875 
2325.000000	99.269288 
2324.000000	99.268830 
2323.000000	99.268043 
2322.000000	99.267997 
2321.000000	99.269112 
2320.000000	99.270728 
2319.000000	99.271780 
2318.000000	99.271741 
2317.000000	99.271119 
2316.000000	99.270553 
2315.000000	99.269837 
2314.000000	99.268058 
2313.000000	99.265094 
2312.000000	99.262139 
2311.000000	99.260701 
2310.000000	99.261237 
2309.000000	99.262811 
2308.000000	99.263780 
2307.000000	99.262802 
2306.000000	99.259790 
2305.000000	99.255925 
2304.000000	99.252653 
2303.000000	99.250302 
2302.000000	99.248216 
2301.000000	99.246048 
2300.000000	99.244225 
2299.000000	99.242952 
2298.000000	99.241581 
2297.000000	99.239555 
2296.000000	99.237395 
2295.000000	99.235962 
2294.000000	99.235119 
2293.000000	99.233856 
2292.000000	99.231678 
2291.000000	99.229137 
2290.000000	99.227050 
2289.000000	99.225698 
2288.000000	99.224935 
2287.000000	99.224484 
2286.000000	99.223941 
2285.000000	99.222819 
2284.000000	99.220913 
2283.000000	99.218424 
2282.000000	99.215612 
2281.000000	99.212546 
2280.000000	99.209327 
2279.000000	99.206429 
2278.000000	99.204559 
2277.000000	99.204097 
2276.000000	99.204730 
2275.000000	99.205619 
2274.000000	99.205908 
2273.000000	99.205062 
2272.000000	99.202779 
2271.000000	99.198990 
2270.000000	99.194436 
2269.000000	99.190955 
2268.000000	99.190232 
2267.000000	99.192200 
2266.000000	99.194952 
2265.000000	99.196613 
2264.000000	99.196917 
2263.000000	99.196572 
2262.000000	99.196098 
2261.000000	99.195804 
2260.000000	99.196099 
2259.000000	99.196757 
2258.000000	99.196405 
2257.000000	99.193949 
2256.000000	99.190225 
2255.000000	99.187318 
2254.000000	99.186128 
2253.000000	99.185741 
2252.000000	99.185272 
2251.000000	99.185213 
2250.000000	99.186435 
2249.000000	99.188646 
2248.000000	99.190363 
2247.000000	99.190136 
2246.000000	99.187519 
2245.000000	99.183322 
2244.000000	99.179187 
2243.000000	99.176439 
2242.000000	99.175241 
2241.000000	99.174966 
2240.000000	99.175066 
2239.000000	99.175178 
2238.000000	99.174738 
2237.000000	99.173196 
2236.000000	99.170615 
2235.000000	99.167499 
2234.000000	99.164161 
2233.000000	99.160940 
2232.000000	99.158818 
2231.000000	99.158875 
2230.000000	99.161078 
2229.000000	99.164219 
2228.000000	99.167049 
2227.000000	99.168993 
2226.000000	99.169724 
2225.000000	99.168947 
2224.000000	99.166896 
2223.000000	99.164414 
2222.000000	99.162279 
2221.000000	99.160762 
2220.000000	99.159758 
2219.000000	99.159015 
2218.000000	99.158282 
2217.000000	99.157605 
2216.000000	99.157404 
2215.000000	99.157881 
2214.000000	99.158377 
2213.000000	99.157771 
2212.000000	99.155640 
2211.000000	99.152690 
2210.000000	99.150174 
2209.000000	99.148840 
2208.000000	99.148519 
2207.000000	99.148401 
2206.000000	99.147660 
2205.000000	99.146082 
2204.000000	99.144021 
2203.000000	99.141931 
2202.000000	99.140045 
2201.000000	99.138497 
2200.000000	99.137428 
2199.000000	99.136720 
2198.000000	99.135894 
2197.000000	99.134617 
2196.000000	99.133167 
2195.000000	99.132120 
2194.000000	99.131632 
2193.000000	99.131365 
2192.000000	99.130935 
2191.000000	99.130203 
2190.000000	99.129172 
2189.000000	99.127879 
2188.000000	99.126475 
2187.000000	99.125255 
2186.000000	99.124442 
2185.000000	99.124056 
2184.000000	99.123938 
2183.000000	99.123851 
2182.000000	99.123587 
2181.000000	99.123058 
2180.000000	99.122398 
2179.000000	99.121880 
2178.000000	99.121600 
2177.000000	99.121373 
2176.000000	99.120984 
2175.000000	99.120428 
2174.000000	99.119842 
2173.000000	99.119341 
2172.000000	99.118983 
2171.000000	99.118798 
2170.000000	99.118788 
2169.000000	99.118972 
2168.000000	99.119414 
2167.000000	99.120108 
2166.000000	99.120844 
2165.000000	99.121357 
2164.000000	99.121617 
2163.000000	99.121781 
2162.000000	99.122004 
2161.000000	99.122372 
2160.000000	99.122966 
2159.000000	99.123807 
2158.000000	99.124742 
2157.000000	99.125578 
2156.000000	99.126364 
2155.000000	99.127290 
2154.000000	99.128369 
2153.000000	99.129399 
2152.000000	99.130241 
2151.000000	99.131017 
2150.000000	99.131956 
2149.000000	99.133152 
2148.000000	99.134557 
2147.000000	99.136062 
2146.000000	99.137479 
2145.000000	99.138570 
2144.000000	99.139249 
2143.000000	99.139731 
2142.000000	99.140363 
2141.000000	99.141246 
2140.000000	99.142230 
2139.000000	99.143144 
2138.000000	99.143945 
2137.000000	99.144579 
2136.000000	99.144931 
2135.000000	99.145068 
2134.000000	99.145327 
2133.000000	99.146002 
2132.000000	99.147020 
2131.000000	99.147971 
2130.000000	99.148454 
2129.000000	99.148393 
2128.000000	99.148084 
2127.000000	99.147969 
2126.000000	99.148229 
2125.000000	99.148664 
2124.000000	99.149121 
2123.000000	99.149967 
2122.000000	99.151679 
2121.000000	99.153875 
2120.000000	99.155331 
2119.000000	99.155283 
2118.000000	99.154223 
2117.000000	99.153298 
2116.000000	99.153109 
2115.000000	99.153462 
2114.000000	99.153908 
2113.000000	99.154088 
2112.000000	99.153702 
2111.000000	99.152647 
2110.000000	99.151217 
2109.000000	99.149926 
2108.000000	99.149084 
2107.000000	99.148535 
2106.000000	99.147735 
2105.000000	99.146033 
2104.000000	99.143137 
2103.000000	99.139578 
2102.000000	99.136536 
2101.000000	99.134848 
2100.000000	99.134287 
2099.000000	99.134028 
2098.000000	99.133672 
2097.000000	99.133729 
2096.000000	99.134884 
2095.000000	99.136679 
2094.000000	99.137292 
2093.000000	99.135193 
2092.000000	99.131129 
2091.000000	99.127926 
2090.000000	99.127749 
2089.000000	99.129815 
2088.000000	99.131362 
2087.000000	99.130807 
2086.000000	99.129342 
2085.000000	99.129285 
2084.000000	99.131369 
2083.000000	99.133913 
2082.000000	99.134520 
2081.000000	99.132531 
2080.000000	99.129724 
2079.000000	99.128559 
2078.000000	99.129868 
2077.000000	99.132632 
2076.000000	99.135675 
2075.000000	99.138820 
2074.000000	99.141998 
2073.000000	99.144232 
2072.000000	99.144410 
2071.000000	99.142506 
2070.000000	99.139289 
2069.000000	99.135244 
2068.000000	99.130720 
2067.000000	99.126927 
2066.000000	99.125489 
2065.000000	99.126537 
2064.000000	99.128093 
2063.000000	99.128179 
2062.000000	99.126957 
2061.000000	99.126030 
2060.000000	99.126194 
2059.000000	99.126702 
2058.000000	99.126584 
2057.000000	99.125779 
2056.000000	99.124609 
2055.000000	99.122847 
2054.000000	99.120100 
2053.000000	99.116873 
2052.000000	99.114493 
2051.000000	99.113888 
2050.000000	99.114650 
2049.000000	99.115165 
2048.000000	99.113556 
2047.000000	99.108873 
2046.000000	99.101868 
2045.000000	99.094826 
2044.000000	99.090056 
2043.000000	99.088134 
2042.000000	99.087886 
2041.000000	99.087952 
2040.000000	99.088067 
2039.000000	99.088615 
2038.000000	99.089464 
2037.000000	99.089913 
2036.000000	99.089555 
2035.000000	99.088590 
2034.000000	99.087254 
2033.000000	99.085307 
2032.000000	99.082243 
2031.000000	99.077949 
2030.000000	99.073236 
2029.000000	99.069631 
2028.000000	99.068134 
2027.000000	99.068238 
2026.000000	99.068701 
2025.000000	99.069245 
2024.000000	99.070535 
2023.000000	99.072350 
2022.000000	99.072937 
2021.000000	99.071084 
2020.000000	99.068025 
2019.000000	99.066365 
2018.000000	99.067368 
2017.000000	99.069981 
2016.000000	99.072019 
2015.000000	99.072061 
2014.000000	99.070335 
2013.000000	99.068503 
2012.000000	99.068498 
2011.000000	99.070864 
2010.000000	99.074272 
2009.000000	99.076963 
2008.000000	99.078483 
2007.000000	99.079419 
2006.000000	99.079864 
2005.000000	99.079204 
2004.000000	99.077387 
2003.000000	99.075410 
2002.000000	99.074349 
2001.000000	99.074481 
2000.000000	99.075411 
1999.000000	99.076451 
1998.000000	99.076973 
1997.000000	99.076960 
1996.000000	99.077207 
1995.000000	99.078475 
1994.000000	99.080426 
1993.000000	99.081804 
1992.000000	99.081818 
1991.000000	99.080885 
1990.000000	99.079953 
1989.000000	99.079644 
1988.000000	99.080068 
1987.000000	99.080800 
1986.000000	99.080958 
1985.000000	99.079997 
1984.000000	99.078578 
1983.000000	99.078082 
1982.000000	99.078947 
1981.000000	99.079926 
1980.000000	99.079422 
1979.000000	99.077182 
1978.000000	99.074375 
1977.000000	99.072261 
1976.000000	99.071190 
1975.000000	99.070812 
1974.000000	99.070857 
1973.000000	99.071789 
1972.000000	99.074501 
1971.000000	99.079059 
1970.000000	99.083807 
1969.000000	99.086372 
1968.000000	99.085925 
1967.000000	99.083817 
1966.000000	99.081976 
1965.000000	99.080890 
1964.000000	99.079994 
1963.000000	99.079229 
1962.000000	99.079210 
1961.000000	99.080229 
1960.000000	99.081922 
1959.000000	99.083864 
1958.000000	99.085775 
1957.000000	99.087229 
1956.000000	99.087919 
1955.000000	99.088303 
1954.000000	99.089399 
1953.000000	99.091630 
1952.000000	99.094047 
1951.000000	99.095117 
1950.000000	99.094212 
1949.000000	99.092269 
1948.000000	99.091047 
1947.000000	99.091362 
1946.000000	99.092221 
1945.000000	99.092007 
1944.000000	99.090650 
1943.000000	99.090084 
1942.000000	99.092049 
1941.000000	99.096038 
1940.000000	99.099939 
1939.000000	99.102272 
1938.000000	99.103403 
1937.000000	99.105017 
1936.000000	99.108499 
1935.000000	99.113461 
1934.000000	99.117929 
1933.000000	99.120385 
1932.000000	99.121375 
1931.000000	99.122688 
1930.000000	99.124903 
1929.000000	99.126870 
1928.000000	99.127996 
1927.000000	99.129309 
1926.000000	99.131650 
1925.000000	99.133920 
1924.000000	99.134561 
1923.000000	99.133958 
1922.000000	99.133957 
1921.000000	99.135296 
1920.000000	99.136733 
1919.000000	99.136522 
1918.000000	99.133963 
1917.000000	99.130133 
1916.000000	99.127426 
1915.000000	99.127617 
1914.000000	99.130654 
1913.000000	99.134994 
1912.000000	99.138952 
1911.000000	99.141986 
1910.000000	99.144107 
1909.000000	99.145084 
1908.000000	99.145101 
1907.000000	99.145159 
1906.000000	99.146095 
1905.000000	99.147429 
1904.000000	99.148119 
1903.000000	99.148060 
1902.000000	99.147797 
1901.000000	99.147582 
1900.000000	99.147448 
1899.000000	99.147668 
1898.000000	99.148561 
1897.000000	99.149929 
1896.000000	99.151218 
1895.000000	99.152159 
1894.000000	99.152718 
1893.000000	99.152851 
1892.000000	99.152803 
1891.000000	99.153230 
1890.000000	99.154447 
1889.000000	99.155882 
1888.000000	99.156924 
1887.000000	99.157749 
1886.000000	99.158808 
1885.000000	99.160136 
1884.000000	99.161503 
1883.000000	99.162870 
1882.000000	99.164209 
1881.000000	99.165300 
1880.000000	99.166134 
1879.000000	99.167042 
1878.000000	99.168288 
1877.000000	99.169755 
1876.000000	99.171155 
1875.000000	99.172348 
1874.000000	99.173153 
1873.000000	99.173229 
1872.000000	99.172606 
1871.000000	99.171884 
1870.000000	99.171519 
1869.000000	99.171350 
1868.000000	99.171333 
1867.000000	99.171987 
1866.000000	99.173447 
1865.000000	99.174964 
1864.000000	99.175684 
1863.000000	99.175522 
1862.000000	99.175085 
1861.000000	99.175040 
1860.000000	99.175624 
1859.000000	99.176747 
1858.000000	99.178124 
1857.000000	99.179357 
1856.000000	99.180227 
1855.000000	99.180867 
1854.000000	99.181506 
1853.000000	99.182159 
1852.000000	99.182726 
1851.000000	99.183209 
1850.000000	99.183740 
1849.000000	99.184431 
1848.000000	99.185242 
1847.000000	99.186004 
1846.000000	99.186549 
1845.000000	99.186854 
1844.000000	99.187086 
1843.000000	99.187458 
1842.000000	99.187951 
1841.000000	99.188383 
1840.000000	99.188656 
1839.000000	99.188823 
1838.000000	99.188998 
1837.000000	99.189248 
1836.000000	99.189568 
1835.000000	99.189934 
1834.000000	99.190325 
1833.000000	99.190719 
1832.000000	99.191104 
1831.000000	99.191477 
1830.000000	99.191848 
1829.000000	99.192241 
1828.000000	99.192666 
1827.000000	99.193110 
1826.000000	99.193558 
1825.000000	99.194008 
1824.000000	99.194453 
1823.000000	99.194864 
1822.000000	99.195213 
1821.000000	99.195508 
1820.000000	99.195814 
1819.000000	99.196195 
1818.000000	99.196655 
1817.000000	99.197108 
1816.000000	99.197456 
1815.000000	99.197710 
1814.000000	99.197993 
1813.000000	99.198398 
1812.000000	99.198863 
1811.000000	99.199283 
1810.000000	99.199690 
1809.000000	99.200127 
1808.000000	99.200499 
1807.000000	99.200696 
1806.000000	99.200747 
1805.000000	99.200744 
1804.000000	99.200747 
1803.000000	99.200791 
1802.000000	99.200856 
1801.000000	99.200845 
1800.000000	99.200717 
1799.000000	99.200707 
1798.000000	99.201117 
1797.000000	99.201958 
1796.000000	99.202960 
1795.000000	99.203867 
1794.000000	99.204540 
1793.000000	99.204847 
1792.000000	99.204715 
1791.000000	99.204421 
1790.000000	99.204360 
1789.000000	99.204527 
1788.000000	99.204753 
1787.000000	99.205037 
1786.000000	99.205488 
1785.000000	99.205991 
1784.000000	99.206250 
1783.000000	99.206179 
1782.000000	99.205941 
1781.000000	99.205807 
1780.000000	99.205857 
1779.000000	99.205986 
1778.000000	99.206142 
1777.000000	99.206372 
1776.000000	99.206718 
1775.000000	99.207063 
1774.000000	99.207258 
1773.000000	99.207334 
1772.000000	99.207438 
1771.000000	99.207628 
1770.000000	99.207875 
1769.000000	99.208142 
1768.000000	99.208423 
1767.000000	99.208720 
1766.000000	99.209034 
1765.000000	99.209379 
1764.000000	99.209745 
1763.000000	99.210102 
1762.000000	99.210429 
1761.000000	99.210755 
1760.000000	99.211095 
1759.000000	99.211449 
1758.000000	99.211836 
1757.000000	99.212284 
1756.000000	99.212766 
1755.000000	99.213184 
1754.000000	99.213492 
1753.000000	99.213738 
1752.000000	99.214019 
1751.000000	99.214338 
1750.000000	99.214622 
1749.000000	99.214853 
1748.000000	99.215099 
1747.000000	99.215416 
1746.000000	99.215775 
1745.000000	99.216135 
1744.000000	99.216493 
1743.000000	99.216839 
1742.000000	99.217139 
1741.000000	99.217380 
1740.000000	99.217620 
1739.000000	99.217954 
1738.000000	99.218404 
1737.000000	99.218883 
1736.000000	99.219317 
1735.000000	99.219762 
1734.000000	99.220168 
1733.000000	99.220392 
1732.000000	99.220468 
1731.000000	99.220485 
1730.000000	99.220519 
1729.000000	99.220613 
1728.000000	99.220758 
1727.000000	99.220921 
1726.000000	99.221078 
1725.000000	99.221227 
1724.000000	99.221357 
1723.000000	99.221465 
1722.000000	99.221566 
1721.000000	99.221660 
1720.000000	99.221737 
1719.000000	99.221797 
1718.000000	99.221841 
1717.000000	99.221852 
1716.000000	99.221829 
1715.000000	99.221799 
1714.000000	99.221785 
1713.000000	99.221781 
1712.000000	99.221779 
1711.000000	99.221787 
1710.000000	99.221814 
1709.000000	99.221857 
1708.000000	99.221902 
1707.000000	99.221942 
1706.000000	99.221978 
1705.000000	99.222003 
1704.000000	99.222017 
1703.000000	99.222025 
1702.000000	99.222034 
1701.000000	99.222051 
1700.000000	99.222076 
1699.000000	99.222109 
1698.000000	99.222148 
1697.000000	99.222189 
1696.000000	99.222226 
1695.000000	99.222260 
1694.000000	99.222295 
1693.000000	99.222339 
1692.000000	99.222400 
1691.000000	99.222484 
1690.000000	99.222595 
1689.000000	99.222728 
1688.000000	99.222877 
1687.000000	99.223036 
1686.000000	99.223203 
1685.000000	99.223373 
1684.000000	99.223543 
1683.000000	99.223712 
1682.000000	99.223882 
1681.000000	99.224059 
1680.000000	99.224247 
1679.000000	99.224452 
1678.000000	99.224675 
1677.000000	99.224908 
1676.000000	99.225161 
1675.000000	99.225448 
1674.000000	99.225767 
1673.000000	99.226111 
1672.000000	99.226470 
1671.000000	99.226842 
1670.000000	99.227208 
1669.000000	99.227550 
1668.000000	99.227874 
1667.000000	99.228192 
1666.000000	99.228493 
1665.000000	99.228766 
1664.000000	99.229031 
1663.000000	99.229343 
1662.000000	99.229695 
1661.000000	99.230039 
1660.000000	99.230414 
1659.000000	99.230876 
1658.000000	99.231358 
1657.000000	99.231717 
1656.000000	99.231906 
1655.000000	99.232004 
1654.000000	99.232324 
1653.000000	99.232716 
1652.000000	99.233016 
1651.000000	99.233550 
1650.000000	99.234052 
1649.000000	99.234364 
1648.000000	99.234703 
1647.000000	99.235010 
1646.000000	99.235204 
1645.000000	99.235472 
1644.000000	99.235909 
1643.000000	99.236416 
1642.000000	99.236848 
1641.000000	99.237155 
1640.000000	99.237430 
1639.000000	99.237720 
1638.000000	99.237997 
1637.000000	99.238445 
1636.000000	99.239381 
1635.000000	99.240552 
1634.000000	99.241490 
1633.000000	99.241817 
1632.000000	99.241350 
1631.000000	99.240428 
1630.000000	99.239426 
1629.000000	99.238588 
1628.000000	99.238281 
1627.000000	99.238717 
1626.000000	99.239400 
1625.000000	99.239736 
1624.000000	99.239966 
1623.000000	99.240679 
1622.000000	99.241724 
1621.000000	99.242573 
1620.000000	99.243102 
1619.000000	99.243391 
1618.000000	99.243574 
1617.000000	99.243681 
1616.000000	99.244306 
1615.000000	99.245810 
1614.000000	99.247220 
1613.000000	99.247867 
1612.000000	99.248515 
1611.000000	99.249862 
1610.000000	99.251098 
1609.000000	99.251289 
1608.000000	99.251062 
1607.000000	99.251435 
1606.000000	99.252016 
1605.000000	99.252196 
1604.000000	99.252394 
1603.000000	99.252981 
1602.000000	99.253538 
1601.000000	99.253756 
1600.000000	99.254098 
1599.000000	99.254872 
1598.000000	99.255589 
1597.000000	99.255734 
1596.000000	99.255399 
1595.000000	99.254897 
1594.000000	99.254272 
1593.000000	99.253763 
1592.000000	99.253992 
1591.000000	99.255117 
1590.000000	99.256371 
1589.000000	99.257128 
1588.000000	99.257841 
1587.000000	99.259160 
1586.000000	99.260672 
1585.000000	99.261416 
1584.000000	99.261424 
1583.000000	99.261238 
1582.000000	99.260901 
1581.000000	99.260347 
1580.000000	99.259808 
1579.000000	99.259293 
1578.000000	99.258559 
1577.000000	99.257771 
1576.000000	99.257496 
1575.000000	99.257929 
1574.000000	99.258492 
1573.000000	99.258718 
1572.000000	99.258725 
1571.000000	99.258808 
1570.000000	99.258881 
1569.000000	99.258775 
1568.000000	99.258715 
1567.000000	99.258703 
1566.000000	99.258551 
1565.000000	99.258297 
1564.000000	99.258155 
1563.000000	99.258062 
1562.000000	99.257863 
1561.000000	99.257504 
1560.000000	99.257423 
1559.000000	99.257542 
1558.000000	99.257543 
1557.000000	99.257632 
1556.000000	99.257784 
1555.000000	99.257881 
1554.000000	99.257874 
1553.000000	99.257775 
1552.000000	99.257644 
1551.000000	99.257518 
1550.000000	99.257412 
1549.000000	99.257315 
1548.000000	99.257207 
1547.000000	99.257079 
1546.000000	99.256931 
1545.000000	99.256775 
1544.000000	99.256631 
1543.000000	99.256512 
1542.000000	99.256419 
1541.000000	99.256338 
1540.000000	99.256253 
1539.000000	99.256156 
1538.000000	99.256050 
1537.000000	99.255932 
1536.000000	99.255798 
1535.000000	99.255655 
1534.000000	99.255503 
1533.000000	99.255330 
1532.000000	99.255131 
1531.000000	99.254933 
1530.000000	99.254751 
1529.000000	99.254578 
1528.000000	99.254391 
1527.000000	99.254205 
1526.000000	99.254042 
1525.000000	99.253882 
1524.000000	99.253681 
1523.000000	99.253466 
1522.000000	99.253320 
1521.000000	99.253175 
1520.000000	99.252869 
1519.000000	99.252366 
1518.000000	99.251755 
1517.000000	99.251184 
1516.000000	99.250730 
1515.000000	99.250360 
1514.000000	99.250000 
1513.000000	99.249627 
1512.000000	99.249231 
1511.000000	99.248777 
1510.000000	99.248285 
1509.000000	99.247820 
1508.000000	99.247510 
1507.000000	99.247338 
1506.000000	99.247112 
1505.000000	99.246731 
1504.000000	99.246269 
1503.000000	99.245844 
1502.000000	99.245539 
1501.000000	99.245254 
1500.000000	99.244724 
1499.000000	99.243817 
1498.000000	99.242788 
1497.000000	99.241985 
1496.000000	99.241366 
1495.000000	99.240890 
1494.000000	99.240743 
1493.000000	99.240981 
1492.000000	99.241372 
1491.000000	99.241540 
1490.000000	99.241185 
1489.000000	99.240203 
1488.000000	99.238694 
1487.000000	99.237162 
1486.000000	99.236012 
1485.000000	99.235025 
1484.000000	99.234026 
1483.000000	99.233167 
1482.000000	99.232735 
1481.000000	99.232642 
1480.000000	99.232425 
1479.000000	99.231950 
1478.000000	99.231553 
1477.000000	99.231335 
1476.000000	99.230804 
1475.000000	99.229922 
1474.000000	99.229322 
1473.000000	99.229225 
1472.000000	99.228967 
1471.000000	99.228500 
1470.000000	99.228393 
1469.000000	99.228308 
1468.000000	99.227497 
1467.000000	99.226123 
1466.000000	99.225137 
1465.000000	99.225019 
1464.000000	99.225506 
1463.000000	99.226231 
1462.000000	99.227229 
1461.000000	99.228019 
1460.000000	99.227694 
1459.000000	99.225267 
1458.000000	99.220884 
1457.000000	99.215217 
1456.000000	99.209318 
1455.000000	99.204245 
1454.000000	99.200425 
1453.000000	99.199354 
1452.000000	99.201899 
1451.000000	99.206133 
1450.000000	99.209395 
1449.000000	99.210520 
1448.000000	99.209493 
1447.000000	99.207685 
1446.000000	99.206547 
1445.000000	99.206998 
1444.000000	99.208656 
1443.000000	99.209978 
1442.000000	99.210623 
1441.000000	99.211545 
1440.000000	99.213031 
1439.000000	99.213976 
1438.000000	99.215124 
1437.000000	99.217590 
1436.000000	99.218904 
1435.000000	99.216372 
1434.000000	99.211419 
1433.000000	99.206627 
1432.000000	99.203270 
1431.000000	99.200790 
1430.000000	99.198793 
1429.000000	99.198031 
1428.000000	99.197811 
1427.000000	99.196282 
1426.000000	99.192395 
1425.000000	99.188034 
1424.000000	99.185286 
1423.000000	99.182623 
1422.000000	99.177581 
1421.000000	99.170101 
1420.000000	99.161999 
1419.000000	99.154014 
1418.000000	99.146969 
1417.000000	99.141696 
1416.000000	99.136656 
1415.000000	99.130058 
1414.000000	99.122080 
1413.000000	99.114621 
1412.000000	99.109128 
1411.000000	99.104769 
1410.000000	99.100196 
1409.000000	99.095414 
1408.000000	99.091134 
1407.000000	99.088219 
1406.000000	99.087084 
1405.000000	99.088207 
1404.000000	99.091935 
1403.000000	99.097526 
1402.000000	99.103990 
1401.000000	99.110751 
1400.000000	99.116984 
1399.000000	99.120617 
1398.000000	99.119520 
1397.000000	99.112779 
1396.000000	99.101157 
1395.000000	99.088974 
1394.000000	99.083266 
1393.000000	99.087794 
1392.000000	99.099331 
1391.000000	99.111088 
1390.000000	99.118526 
1389.000000	99.121220 
1388.000000	99.120866 
1387.000000	99.119020 
1386.000000	99.116792 
1385.000000	99.115361 
1384.000000	99.115371 
1383.000000	99.116145 
1382.000000	99.116617 
1381.000000	99.116821 
1380.000000	99.118125 
1379.000000	99.121600 
1378.000000	99.126671 
1377.000000	99.131914 
1376.000000	99.136636 
1375.000000	99.141084 
1374.000000	99.145693 
1373.000000	99.150931 
1372.000000	99.156897 
1371.000000	99.162905 
1370.000000	99.167681 
1369.000000	99.170693 
1368.000000	99.172756 
1367.000000	99.174921 
1366.000000	99.177627 
1365.000000	99.181015 
1364.000000	99.185307 
1363.000000	99.190259 
1362.000000	99.194775 
1361.000000	99.197959 
1360.000000	99.200290 
1359.000000	99.203265 
1358.000000	99.208082 
1357.000000	99.214709 
1356.000000	99.221723 
1355.000000	99.227128 
1354.000000	99.230101 
1353.000000	99.231711 
1352.000000	99.233323 
1351.000000	99.235096 
1350.000000	99.236049 
1349.000000	99.236266 
1348.000000	99.237061 
1347.000000	99.238981 
1346.000000	99.241292 
1345.000000	99.243317 
1344.000000	99.245046 
1343.000000	99.246238 
1342.000000	99.246481 
1341.000000	99.246517 
1340.000000	99.248101 
1339.000000	99.251643 
1338.000000	99.255472 
1337.000000	99.258157 
1336.000000	99.259758 
1335.000000	99.260496 
1334.000000	99.259976 
1333.000000	99.258350 
1332.000000	99.256903 
1331.000000	99.256560 
1330.000000	99.256721 
1329.000000	99.256545 
1328.000000	99.256306 
1327.000000	99.256550 
1326.000000	99.256761 
1325.000000	99.256342 
1324.000000	99.255879 
1323.000000	99.256362 
1322.000000	99.258000 
1321.000000	99.260460 
1320.000000	99.263539 
1319.000000	99.266712 
1318.000000	99.268712 
1317.000000	99.268463 
1316.000000	99.266157 
1315.000000	99.263022 
1314.000000	99.260363 
1313.000000	99.258982 
1312.000000	99.259040 
1311.000000	99.260064 
1310.000000	99.261299 
1309.000000	99.262259 
1308.000000	99.262678 
1307.000000	99.262240 
1306.000000	99.260825 
1305.000000	99.259311 
1304.000000	99.259064 
1303.000000	99.260292 
1302.000000	99.261685 
1301.000000	99.262065 
1300.000000	99.261767 
1299.000000	99.261928 
1298.000000	99.263003 
1297.000000	99.264360 
1296.000000	99.265025 
1295.000000	99.264449 
1294.000000	99.262881 
1293.000000	99.261181 
1292.000000	99.259999 
1291.000000	99.259315 
1290.000000	99.259117 
1289.000000	99.259928 
1288.000000	99.261719 
1287.000000	99.262836 
1286.000000	99.261481 
1285.000000	99.257986 
1284.000000	99.254258 
1283.000000	99.251072 
1282.000000	99.247323 
1281.000000	99.242350 
1280.000000	99.237565 
1279.000000	99.234728 
1278.000000	99.233724 
1277.000000	99.233073 
1276.000000	99.231729 
1275.000000	99.229434 
1274.000000	99.226080 
1273.000000	99.221781 
1272.000000	99.217202 
1271.000000	99.212980 
1270.000000	99.208982 
1269.000000	99.204744 
1268.000000	99.200383 
1267.000000	99.196470 
1266.000000	99.193209 
1265.000000	99.190220 
1264.000000	99.186962 
1263.000000	99.183049 
1262.000000	99.178298 
1261.000000	99.172902 
1260.000000	99.167591 
1259.000000	99.163202 
1258.000000	99.160041 
1257.000000	99.157783 
1256.000000	99.155989 
1255.000000	99.154630 
1254.000000	99.154061 
1253.000000	99.154415 
1252.000000	99.155137 
1251.000000	99.155458 
1250.000000	99.155491 
1249.000000	99.156418 
1248.000000	99.159118 
1247.000000	99.162721 
1246.000000	99.164882 
1245.000000	99.163534 
1244.000000	99.158385 
1243.000000	99.151484 
1242.000000	99.146545 
1241.000000	99.146607 
1240.000000	99.151627 
1239.000000	99.158190 
1238.000000	99.162337 
1237.000000	99.162896 
1236.000000	99.161356 
1235.000000	99.159325 
1234.000000	99.157231 
1233.000000	99.155145 
1232.000000	99.153271 
1231.000000	99.151250 
1230.000000	99.148342 
1229.000000	99.144973 
1228.000000	99.143049 
1227.000000	99.143920 
1226.000000	99.146784 
1225.000000	99.149757 
1224.000000	99.152049 
1223.000000	99.154442 
1222.000000	99.158017 
1221.000000	99.163010 
1220.000000	99.168674 
1219.000000	99.173891 
1218.000000	99.178110 
1217.000000	99.181703 
1216.000000	99.185051 
1215.000000	99.187531 
1214.000000	99.188093 
1213.000000	99.186721 
1212.000000	99.184586 
1211.000000	99.182878 
1210.000000	99.182319 
1209.000000	99.183681 
1208.000000	99.187496 
1207.000000	99.192902 
1206.000000	99.197846 
1205.000000	99.201007 
1204.000000	99.202682 
1203.000000	99.203586 
1202.000000	99.203897 
1201.000000	99.203863 
1200.000000	99.204159 
1199.000000	99.205015 
1198.000000	99.205898 
1197.000000	99.206399 
1196.000000	99.206347 
1195.000000	99.205018 
1194.000000	99.201731 
1193.000000	99.197449 
1192.000000	99.194466 
1191.000000	99.193795 
1190.000000	99.193918 
1189.000000	99.192896 
1188.000000	99.190671 
1187.000000	99.188607 
1186.000000	99.187711 
1185.000000	99.188021 
1184.000000	99.189012 
1183.000000	99.189843 
1182.000000	99.189755 
1181.000000	99.188890 
1180.000000	99.188291 
1179.000000	99.188593 
1178.000000	99.189145 
1177.000000	99.188857 
1176.000000	99.187447 
1175.000000	99.185379 
1174.000000	99.182998 
1173.000000	99.180341 
1172.000000	99.177650 
1171.000000	99.175541 
1170.000000	99.174512 
1169.000000	99.174431 
1168.000000	99.174449 
1167.000000	99.173504 
1166.000000	99.171302 
1165.000000	99.168858 
1164.000000	99.167669 
1163.000000	99.168185 
1162.000000	99.169384 
1161.000000	99.169936 
1160.000000	99.169510 
1159.000000	99.168635 
1158.000000	99.167637 
1157.000000	99.166134 
1156.000000	99.163542 
1155.000000	99.159899 
1154.000000	99.156317 
1153.000000	99.154529 
1152.000000	99.155445 
1151.000000	99.157742 
1150.000000	99.158498 
1149.000000	99.155999 
1148.000000	99.151497 
1147.000000	99.147773 
1146.000000	99.146096 
1145.000000	99.145348 
1144.000000	99.143678 
1143.000000	99.140144 
1142.000000	99.135054 
1141.000000	99.129722 
1140.000000	99.125935 
1139.000000	99.124842 
1138.000000	99.125897 
1137.000000	99.127105 
1136.000000	99.126496 
1135.000000	99.123396 
1134.000000	99.118558 
1133.000000	99.113300 
1132.000000	99.108418 
1131.000000	99.103950 
1130.000000	99.100169 
1129.000000	99.098144 
1128.000000	99.098098 
1127.000000	99.097398 
1126.000000	99.092171 
1125.000000	99.081876 
1124.000000	99.070902 
1123.000000	99.064164 
1122.000000	99.061798 
1121.000000	99.059750 
1120.000000	99.054892 
1119.000000	99.047847 
1118.000000	99.041059 
1117.000000	99.035841 
1116.000000	99.031782 
1115.000000	99.027880 
1114.000000	99.023545 
1113.000000	99.018836 
1112.000000	99.013908 
1111.000000	99.008003 
1110.000000	98.999241 
1109.000000	98.986275 
1108.000000	98.970300 
1107.000000	98.954800 
1106.000000	98.943040 
1105.000000	98.935722 
1104.000000	98.930594 
1103.000000	98.924314 
1102.000000	98.915404 
1101.000000	98.905699 
1100.000000	98.898223 
1099.000000	98.894096 
1098.000000	98.891860 
1097.000000	98.889679 
1096.000000	98.886745 
1095.000000	98.882012 
1094.000000	98.873282 
1093.000000	98.858669 
1092.000000	98.838230 
1091.000000	98.813693 
1090.000000	98.787621 
1089.000000	98.763193 
1088.000000	98.743181 
1087.000000	98.727771 
1086.000000	98.714264 
1085.000000	98.700039 
1084.000000	98.684882 
1083.000000	98.669504 
1082.000000	98.653277 
1081.000000	98.635176 
1080.000000	98.615957 
1079.000000	98.597615 
1078.000000	98.581438 
1077.000000	98.568222 
1076.000000	98.559491 
1075.000000	98.556483 
1074.000000	98.558329 
1073.000000	98.562770 
1072.000000	98.567608 
1071.000000	98.569511 
1070.000000	98.563101 
1069.000000	98.545184 
1068.000000	98.520673 
1067.000000	98.501455 
1066.000000	98.497261 
1065.000000	98.508646 
1064.000000	98.528469 
1063.000000	98.547573 
1062.000000	98.558497 
1061.000000	98.556716 
1060.000000	98.542233 
1059.000000	98.520996 
1058.000000	98.502418 
1057.000000	98.493127 
1056.000000	98.492883 
1055.000000	98.496551 
1054.000000	98.499581 
1053.000000	98.501370 
1052.000000	98.503800 
1051.000000	98.507902 
1050.000000	98.512831 
1049.000000	98.517222 
1048.000000	98.520278 
1047.000000	98.522142 
1046.000000	98.524526 
1045.000000	98.530186 
1044.000000	98.539995 
1043.000000	98.550918 
1042.000000	98.558902 
1041.000000	98.563913 
1040.000000	98.570099 
1039.000000	98.580809 
1038.000000	98.595716 
1037.000000	98.613132 
1036.000000	98.632412 
1035.000000	98.652802 
1034.000000	98.672253 
1033.000000	98.688900 
1032.000000	98.701898 
1031.000000	98.709901 
1030.000000	98.711452 
1029.000000	98.708952 
1028.000000	98.709847 
1027.000000	98.720568 
1026.000000	98.739932 
1025.000000	98.760646 
1024.000000	98.776567 
1023.000000	98.786496 
1022.000000	98.792348 
1021.000000	98.796570 
1020.000000	98.801330 
1019.000000	98.807832 
1018.000000	98.815414 
1017.000000	98.822516 
1016.000000	98.828812 
1015.000000	98.835454 
1014.000000	98.843418 
1013.000000	98.852443 
1012.000000	98.861307 
1011.000000	98.868495 
1010.000000	98.873274 
1009.000000	98.876881 
1008.000000	98.881996 
1007.000000	98.890208 
1006.000000	98.900537 
1005.000000	98.910936 
1004.000000	98.920293 
1003.000000	98.928375 
1002.000000	98.935117 
1001.000000	98.941166 
1000.000000	98.948015 
999.000000	 98.956142 
998.000000	 98.963790 
997.000000	 98.969138 
996.000000	 98.973179 
995.000000	 98.978885 
994.000000	 98.987489 
993.000000	 98.997086 
992.000000	 99.005065 
991.000000	 99.010443 
990.000000	 99.013560 
989.000000	 99.015071 
988.000000	 99.015981 
987.000000	 99.017694 
986.000000	 99.021146 
985.000000	 99.026256 
984.000000	 99.032371 
983.000000	 99.038722 
982.000000	 99.044518 
981.000000	 99.049186 
980.000000	 99.052671 
979.000000	 99.055149 
978.000000	 99.056890 
977.000000	 99.058789 
976.000000	 99.062043 
975.000000	 99.066562 
974.000000	 99.070637 
973.000000	 99.073200 
972.000000	 99.075630 
971.000000	 99.080123 
970.000000	 99.086798 
969.000000	 99.093606 
968.000000	 99.098814 
967.000000	 99.102389 
966.000000	 99.105141 
965.000000	 99.107700 
964.000000	 99.110333 
963.000000	 99.112892 
962.000000	 99.115001 
961.000000	 99.116894 
960.000000	 99.119664 
959.000000	 99.123863 
958.000000	 99.128306 
957.000000	 99.131264 
956.000000	 99.132514 
955.000000	 99.133273 
954.000000	 99.134534 
953.000000	 99.136488 
952.000000	 99.139262 
951.000000	 99.142883 
950.000000	 99.146459 
949.000000	 99.148593 
948.000000	 99.148880 
947.000000	 99.148130 
946.000000	 99.147043 
945.000000	 99.145574 
944.000000	 99.143923 
943.000000	 99.143240 
942.000000	 99.144702 
941.000000	 99.148262 
940.000000	 99.152488 
939.000000	 99.155397 
938.000000	 99.155697 
937.000000	 99.153742 
936.000000	 99.151531 
935.000000	 99.151185 
934.000000	 99.153167 
933.000000	 99.156243 
932.000000	 99.159035 
931.000000	 99.161170 
930.000000	 99.162881 
929.000000	 99.164148 
928.000000	 99.164457 
927.000000	 99.163119 
926.000000	 99.159878 
925.000000	 99.155698 
924.000000	 99.152751 
923.000000	 99.152745 
922.000000	 99.155249 
921.000000	 99.158158 
920.000000	 99.159759 
919.000000	 99.159625 
918.000000	 99.157742 
917.000000	 99.154198 
916.000000	 99.149995 
915.000000	 99.146786 
914.000000	 99.145062 
913.000000	 99.143563 
912.000000	 99.141137 
911.000000	 99.138416 
910.000000	 99.136891 
909.000000	 99.137106 
908.000000	 99.138565 
907.000000	 99.140685 
906.000000	 99.142911 
905.000000	 99.144388 
904.000000	 99.144504 
903.000000	 99.143709 
902.000000	 99.143191 
901.000000	 99.143689 
900.000000	 99.144949 
899.000000	 99.146181 
898.000000	 99.146623 
897.000000	 99.145750 
896.000000	 99.143232 
895.000000	 99.139022 
894.000000	 99.133900 
893.000000	 99.129936 
892.000000	 99.129502 
891.000000	 99.133099 
890.000000	 99.138607 
889.000000	 99.143534 
888.000000	 99.147594 
887.000000	 99.151887 
886.000000	 99.156338 
885.000000	 99.159598 
884.000000	 99.161226 
883.000000	 99.162157 
882.000000	 99.162731 
881.000000	 99.162074 
880.000000	 99.160328 
879.000000	 99.159791 
878.000000	 99.162416 
877.000000	 99.167344 
876.000000	 99.172006 
875.000000	 99.174905 
874.000000	 99.176148 
873.000000	 99.176131 
872.000000	 99.175229 
871.000000	 99.174492 
870.000000	 99.175328 
869.000000	 99.178371 
868.000000	 99.183349 
867.000000	 99.189497 
866.000000	 99.195465 
865.000000	 99.199593 
864.000000	 99.201424 
863.000000	 99.202806 
862.000000	 99.206354 
861.000000	 99.212478 
860.000000	 99.218772 
859.000000	 99.222716 
858.000000	 99.224177 
857.000000	 99.224739 
856.000000	 99.225573 
855.000000	 99.226896 
854.000000	 99.228928 
853.000000	 99.231969 
852.000000	 99.235366 
851.000000	 99.237692 
850.000000	 99.238659 
849.000000	 99.239912 
848.000000	 99.242997 
847.000000	 99.247123 
846.000000	 99.250104 
845.000000	 99.251100 
844.000000	 99.251166 
843.000000	 99.251386 
842.000000	 99.251928 
841.000000	 99.253001 
840.000000	 99.254990 
839.000000	 99.257018 
838.000000	 99.257121 
837.000000	 99.254897 
836.000000	 99.252662 
835.000000	 99.252641 
834.000000	 99.253972 
833.000000	 99.254236 
832.000000	 99.253346 
831.000000	 99.253874 
830.000000	 99.257138 
829.000000	 99.260730 
828.000000	 99.261097 
827.000000	 99.257750 
826.000000	 99.253761 
825.000000	 99.252299 
824.000000	 99.253433 
823.000000	 99.254823 
822.000000	 99.254816 
821.000000	 99.253992 
820.000000	 99.253693 
819.000000	 99.254252 
818.000000	 99.255511 
817.000000	 99.258223 
816.000000	 99.263294 
815.000000	 99.269332 
814.000000	 99.272699 
813.000000	 99.271194 
812.000000	 99.266536 
811.000000	 99.262251 
810.000000	 99.259409 
809.000000	 99.256017 
808.000000	 99.250279 
807.000000	 99.242825 
806.000000	 99.235743 
805.000000	 99.230484 
804.000000	 99.227211 
803.000000	 99.225605 
802.000000	 99.225595 
801.000000	 99.227171 
800.000000	 99.229319 
799.000000	 99.229819 
798.000000	 99.227380 
797.000000	 99.223592 
796.000000	 99.221316 
795.000000	 99.221058 
794.000000	 99.220738 
793.000000	 99.219210 
792.000000	 99.217957 
791.000000	 99.218491 
790.000000	 99.220145 
789.000000	 99.221541 
788.000000	 99.222393 
787.000000	 99.222381 
786.000000	 99.220052 
785.000000	 99.214753 
784.000000	 99.208593 
783.000000	 99.204624 
782.000000	 99.203662 
781.000000	 99.204197 
780.000000	 99.204573 
779.000000	 99.203865 
778.000000	 99.201522 
777.000000	 99.198041 
776.000000	 99.195552 
775.000000	 99.196063 
774.000000	 99.199228 
773.000000	 99.202907 
772.000000	 99.205855 
771.000000	 99.208461 
770.000000	 99.211304 
769.000000	 99.214389 
768.000000	 99.217426 
767.000000	 99.219945 
766.000000	 99.221516 
765.000000	 99.222623 
764.000000	 99.224745 
763.000000	 99.228585 
762.000000	 99.232525 
761.000000	 99.234048 
760.000000	 99.232557 
759.000000	 99.229911 
758.000000	 99.228592 
757.000000	 99.229512 
756.000000	 99.231708 
755.000000	 99.233349 
754.000000	 99.233166 
753.000000	 99.231496 
752.000000	 99.230137 
751.000000	 99.230768 
750.000000	 99.233499 
749.000000	 99.237085 
748.000000	 99.240174 
747.000000	 99.242262 
746.000000	 99.243574 
745.000000	 99.244616 
744.000000	 99.245852 
743.000000	 99.247390 
742.000000	 99.248975 
741.000000	 99.250403 
740.000000	 99.251821 
739.000000	 99.253404 
738.000000	 99.254946 
737.000000	 99.256010 
736.000000	 99.256388 
735.000000	 99.256209 
734.000000	 99.255775 
733.000000	 99.255480 
732.000000	 99.255669 
731.000000	 99.256376 
730.000000	 99.257319 
729.000000	 99.258121 
728.000000	 99.258688 
727.000000	 99.259173 
726.000000	 99.259668 
725.000000	 99.260055 
724.000000	 99.260221 
723.000000	 99.260230 
722.000000	 99.260240 
721.000000	 99.260363 
720.000000	 99.260619 
719.000000	 99.260961 
718.000000	 99.261306 
717.000000	 99.261563 
716.000000	 99.261697 
715.000000	 99.261721 
714.000000	 99.261692 
713.000000	 99.261661 
712.000000	 99.261634 
711.000000	 99.261596 
710.000000	 99.261546 
709.000000	 99.261465 
708.000000	 99.261331 
707.000000	 99.261131 
706.000000	 99.260871 
705.000000	 99.260568 
704.000000	 99.260247 
703.000000	 99.259944 
702.000000	 99.259677 
701.000000	 99.259436 
700.000000	 99.259188 
699.000000	 99.258899 
698.000000	 99.258550 
697.000000	 99.258151 
696.000000	 99.257727 
695.000000	 99.257310 
694.000000	 99.256917 
693.000000	 99.256556 
692.000000	 99.256230 
691.000000	 99.255939 
690.000000	 99.255673 
689.000000	 99.255423 
688.000000	 99.255185 
687.000000	 99.254971 
686.000000	 99.254787 
685.000000	 99.254631 
684.000000	 99.254498 
683.000000	 99.254390 
682.000000	 99.254311 
681.000000	 99.254259 
680.000000	 99.254230 
679.000000	 99.254211 
678.000000	 99.254187 
677.000000	 99.254155 
676.000000	 99.254130 
675.000000	 99.254138 
674.000000	 99.254197 
673.000000	 99.254297 
672.000000	 99.254425 
671.000000	 99.254576 
670.000000	 99.254753 
669.000000	 99.254962 
668.000000	 99.255203 
667.000000	 99.255467 
666.000000	 99.255743 
665.000000	 99.256029 
664.000000	 99.256339 
663.000000	 99.256689 
662.000000	 99.257084 
661.000000	 99.257498 
660.000000	 99.257901 
659.000000	 99.258286 
658.000000	 99.258683 
657.000000	 99.259135 
656.000000	 99.259683 
655.000000	 99.260297 
654.000000	 99.261003 
653.000000	 99.261857 
652.000000	 99.262777 
651.000000	 99.263723 
650.000000	 99.264685 

