4000.000000	100.414848 
3999.000000	100.413583 
3998.000000	100.412526 
3997.000000	100.413144 
3996.000000	100.415103 
3995.000000	100.416605 
3994.000000	100.416623 
3993.000000	100.416318 
3992.000000	100.417833 
3991.000000	100.421521 
3990.000000	100.424803 
3989.000000	100.424537 
3988.000000	100.420597 
3987.000000	100.416220 
3986.000000	100.414510 
3985.000000	100.415549 
3984.000000	100.417474 
3983.000000	100.419581 
3982.000000	100.422974 
3981.000000	100.428445 
3980.000000	100.434924 
3979.000000	100.440383 
3978.000000	100.443341 
3977.000000	100.443277 
3976.000000	100.440571 
3975.000000	100.436483 
3974.000000	100.432335 
3973.000000	100.428570 
3972.000000	100.425426 
3971.000000	100.424072 
3970.000000	100.425951 
3969.000000	100.430619 
3968.000000	100.435654 
3967.000000	100.438657 
3966.000000	100.438735 
3965.000000	100.436346 
3964.000000	100.432902 
3963.000000	100.430581 
3962.000000	100.430896 
3961.000000	100.432822 
3960.000000	100.433667 
3959.000000	100.431899 
3958.000000	100.428571 
3957.000000	100.425681 
3956.000000	100.424664 
3955.000000	100.425728 
3954.000000	100.427688 
3953.000000	100.428865 
3952.000000	100.428487 
3951.000000	100.427551 
3950.000000	100.427382 
3949.000000	100.427932 
3948.000000	100.428073 
3947.000000	100.427223 
3946.000000	100.426490 
3945.000000	100.428063 
3944.000000	100.432578 
3943.000000	100.437002 
3942.000000	100.437017 
3941.000000	100.432400 
3940.000000	100.427845 
3939.000000	100.427563 
3938.000000	100.430555 
3937.000000	100.431421 
3936.000000	100.427141 
3935.000000	100.421143 
3934.000000	100.418842 
3933.000000	100.421012 
3932.000000	100.423696 
3931.000000	100.425303 
3930.000000	100.428087 
3929.000000	100.431993 
3928.000000	100.432757 
3927.000000	100.428494 
3926.000000	100.424202 
3925.000000	100.424415 
3924.000000	100.426452 
3923.000000	100.426441 
3922.000000	100.426134 
3921.000000	100.428418 
3920.000000	100.430960 
3919.000000	100.429364 
3918.000000	100.424988 
3917.000000	100.422806 
3916.000000	100.423864 
3915.000000	100.425580 
3914.000000	100.427618 
3913.000000	100.430683 
3912.000000	100.432860 
3911.000000	100.430408 
3910.000000	100.424496 
3909.000000	100.420077 
3908.000000	100.420902 
3907.000000	100.427032 
3906.000000	100.437610 
3905.000000	100.451283 
3904.000000	100.461635 
3903.000000	100.460918 
3902.000000	100.449399 
3901.000000	100.436402 
3900.000000	100.429672 
3899.000000	100.426991 
3898.000000	100.422247 
3897.000000	100.415666 
3896.000000	100.412285 
3895.000000	100.413697 
3894.000000	100.418011 
3893.000000	100.424437 
3892.000000	100.435497 
3891.000000	100.448686 
3890.000000	100.456151 
3889.000000	100.452817 
3888.000000	100.444355 
3887.000000	100.443274 
3886.000000	100.449168 
3885.000000	100.446581 
3884.000000	100.431584 
3883.000000	100.419802 
3882.000000	100.425905 
3881.000000	100.444248 
3880.000000	100.454117 
3879.000000	100.447178 
3878.000000	100.434326 
3877.000000	100.427779 
3876.000000	100.432214 
3875.000000	100.443677 
3874.000000	100.449374 
3873.000000	100.439211 
3872.000000	100.422031 
3871.000000	100.419648 
3870.000000	100.434568 
3869.000000	100.443297 
3868.000000	100.434689 
3867.000000	100.425839 
3866.000000	100.436069 
3865.000000	100.456446 
3864.000000	100.461122 
3863.000000	100.447233 
3862.000000	100.436244 
3861.000000	100.437311 
3860.000000	100.441397 
3859.000000	100.437931 
3858.000000	100.425625 
3857.000000	100.407776 
3856.000000	100.392827 
3855.000000	100.398935 
3854.000000	100.425968 
3853.000000	100.439982 
3852.000000	100.431658 
3851.000000	100.425067 
3850.000000	100.434274 
3849.000000	100.452104 
3848.000000	100.462617 
3847.000000	100.458448 
3846.000000	100.447089 
3845.000000	100.439656 
3844.000000	100.440177 
3843.000000	100.443281 
3842.000000	100.442365 
3841.000000	100.438184 
3840.000000	100.439264 
3839.000000	100.447800 
3838.000000	100.457012 
3837.000000	100.461416 
3836.000000	100.461535 
3835.000000	100.458876 
3834.000000	100.454643 
3833.000000	100.451593 
3832.000000	100.450464 
3831.000000	100.447887 
3830.000000	100.441776 
3829.000000	100.434755 
3828.000000	100.432886 
3827.000000	100.438970 
3826.000000	100.447200 
3825.000000	100.448126 
3824.000000	100.442429 
3823.000000	100.444072 
3822.000000	100.463129 
3821.000000	100.482144 
3820.000000	100.478395 
3819.000000	100.457373 
3818.000000	100.442548 
3817.000000	100.449988 
3816.000000	100.464195 
3815.000000	100.458500 
3814.000000	100.437509 
3813.000000	100.426511 
3812.000000	100.433976 
3811.000000	100.444078 
3810.000000	100.439987 
3809.000000	100.428022 
3808.000000	100.429789 
3807.000000	100.447201 
3806.000000	100.458088 
3805.000000	100.449189 
3804.000000	100.432303 
3803.000000	100.430661 
3802.000000	100.447521 
3801.000000	100.454924 
3800.000000	100.439847 
3799.000000	100.422174 
3798.000000	100.420753 
3797.000000	100.432382 
3796.000000	100.438379 
3795.000000	100.430774 
3794.000000	100.421497 
3793.000000	100.423390 
3792.000000	100.432889 
3791.000000	100.437622 
3790.000000	100.433433 
3789.000000	100.427230 
3788.000000	100.426146 
3787.000000	100.431810 
3786.000000	100.443174 
3785.000000	100.457671 
3784.000000	100.469042 
3783.000000	100.471187 
3782.000000	100.465952 
3781.000000	100.461608 
3780.000000	100.462155 
3779.000000	100.461198 
3778.000000	100.452961 
3777.000000	100.441545 
3776.000000	100.435999 
3775.000000	100.438736 
3774.000000	100.443138 
3773.000000	100.443362 
3772.000000	100.443553 
3771.000000	100.449893 
3770.000000	100.456908 
3769.000000	100.454502 
3768.000000	100.445432 
3767.000000	100.442369 
3766.000000	100.451067 
3765.000000	100.462555 
3764.000000	100.464530 
3763.000000	100.458120 
3762.000000	100.456352 
3761.000000	100.465068 
3760.000000	100.473841 
3759.000000	100.472677 
3758.000000	100.469787 
3757.000000	100.474613 
3756.000000	100.481204 
3755.000000	100.480609 
3754.000000	100.476772 
3753.000000	100.480099 
3752.000000	100.487616 
3751.000000	100.487577 
3750.000000	100.483371 
3749.000000	100.484518 
3748.000000	100.483250 
3747.000000	100.469762 
3746.000000	100.459884 
3745.000000	100.469887 
3744.000000	100.475022 
3743.000000	100.458328 
3742.000000	100.443201 
3741.000000	100.449192 
3740.000000	100.467564 
3739.000000	100.473971 
3738.000000	100.462905 
3737.000000	100.454877 
3736.000000	100.461258 
3735.000000	100.467191 
3734.000000	100.461305 
3733.000000	100.455274 
3732.000000	100.459053 
3731.000000	100.465667 
3730.000000	100.465935 
3729.000000	100.462150 
3728.000000	100.463006 
3727.000000	100.468871 
3726.000000	100.470086 
3725.000000	100.465048 
3724.000000	100.463499 
3723.000000	100.468972 
3722.000000	100.473108 
3721.000000	100.469624 
3720.000000	100.463465 
3719.000000	100.462158 
3718.000000	100.466803 
3717.000000	100.469824 
3716.000000	100.463151 
3715.000000	100.448233 
3714.000000	100.434081 
3713.000000	100.426667 
3712.000000	100.422874 
3711.000000	100.418289 
3710.000000	100.415547 
3709.000000	100.417829 
3708.000000	100.423273 
3707.000000	100.426963 
3706.000000	100.424622 
3705.000000	100.415951 
3704.000000	100.404952 
3703.000000	100.396208 
3702.000000	100.390798 
3701.000000	100.386597 
3700.000000	100.381693 
3699.000000	100.376280 
3698.000000	100.372385 
3697.000000	100.369960 
3696.000000	100.364804 
3695.000000	100.356579 
3694.000000	100.352149 
3693.000000	100.355730 
3692.000000	100.361880 
3691.000000	100.362776 
3690.000000	100.358742 
3689.000000	100.353770 
3688.000000	100.349039 
3687.000000	100.344373 
3686.000000	100.341221 
3685.000000	100.342647 
3684.000000	100.347515 
3683.000000	100.347954 
3682.000000	100.339974 
3681.000000	100.331398 
3680.000000	100.327485 
3679.000000	100.319202 
3678.000000	100.298685 
3677.000000	100.283037 
3676.000000	100.289608 
3675.000000	100.302282 
3674.000000	100.303682 
3673.000000	100.299614 
3672.000000	100.304880 
3671.000000	100.322653 
3670.000000	100.331473 
3669.000000	100.316003 
3668.000000	100.293824 
3667.000000	100.284327 
3666.000000	100.284961 
3665.000000	100.283940 
3664.000000	100.276385 
3663.000000	100.267294 
3662.000000	100.264453 
3661.000000	100.269620 
3660.000000	100.276963 
3659.000000	100.281022 
3658.000000	100.282437 
3657.000000	100.285448 
3656.000000	100.288762 
3655.000000	100.289681 
3654.000000	100.291286 
3653.000000	100.299143 
3652.000000	100.315455 
3651.000000	100.331803 
3650.000000	100.331430 
3649.000000	100.312556 
3648.000000	100.294079 
3647.000000	100.287274 
3646.000000	100.286375 
3645.000000	100.285138 
3644.000000	100.284633 
3643.000000	100.286509 
3642.000000	100.288203 
3641.000000	100.286881 
3640.000000	100.286350 
3639.000000	100.293340 
3638.000000	100.306676 
3637.000000	100.317536 
3636.000000	100.320611 
3635.000000	100.319811 
3634.000000	100.318834 
3633.000000	100.314947 
3632.000000	100.306353 
3631.000000	100.301848 
3630.000000	100.311179 
3629.000000	100.319378 
3628.000000	100.307108 
3627.000000	100.287668 
3626.000000	100.283210 
3625.000000	100.295170 
3624.000000	100.309509 
3623.000000	100.312876 
3622.000000	100.305429 
3621.000000	100.298379 
3620.000000	100.299114 
3619.000000	100.304490 
3618.000000	100.310967 
3617.000000	100.319480 
3616.000000	100.330030 
3615.000000	100.341166 
3614.000000	100.350001 
3613.000000	100.351826 
3612.000000	100.344698 
3611.000000	100.333649 
3610.000000	100.326681 
3609.000000	100.326631 
3608.000000	100.328981 
3607.000000	100.329540 
3606.000000	100.330597 
3605.000000	100.335609 
3604.000000	100.343475 
3603.000000	100.350108 
3602.000000	100.353694 
3601.000000	100.356365 
3600.000000	100.360203 
3599.000000	100.366214 
3598.000000	100.374154 
3597.000000	100.381591 
3596.000000	100.384869 
3595.000000	100.383652 
3594.000000	100.381073 
3593.000000	100.381459 
3592.000000	100.386652 
3591.000000	100.394642 
3590.000000	100.402143 
3589.000000	100.406432 
3588.000000	100.404380 
3587.000000	100.394961 
3586.000000	100.383991 
3585.000000	100.378597 
3584.000000	100.378872 
3583.000000	100.379594 
3582.000000	100.376648 
3581.000000	100.370777 
3580.000000	100.365138 
3579.000000	100.361595 
3578.000000	100.359631 
3577.000000	100.358118 
3576.000000	100.356927 
3575.000000	100.356880 
3574.000000	100.358936 
3573.000000	100.363216 
3572.000000	100.368723 
3571.000000	100.372698 
3570.000000	100.372344 
3569.000000	100.367546 
3568.000000	100.360352 
3567.000000	100.353243 
3566.000000	100.350424 
3565.000000	100.355464 
3564.000000	100.365933 
3563.000000	100.374818 
3562.000000	100.377057 
3561.000000	100.373340 
3560.000000	100.368060 
3559.000000	100.364107 
3558.000000	100.361024 
3557.000000	100.357004 
3556.000000	100.351453 
3555.000000	100.345810 
3554.000000	100.342882 
3553.000000	100.344282 
3552.000000	100.348269 
3551.000000	100.351317 
3550.000000	100.351679 
3549.000000	100.350569 
3548.000000	100.349922 
3547.000000	100.350261 
3546.000000	100.351180 
3545.000000	100.352611 
3544.000000	100.354636 
3543.000000	100.356959 
3542.000000	100.359324 
3541.000000	100.361458 
3540.000000	100.362714 
3539.000000	100.362536 
3538.000000	100.361347 
3537.000000	100.359979 
3536.000000	100.358217 
3535.000000	100.355386 
3534.000000	100.351665 
3533.000000	100.348304 
3532.000000	100.346069 
3531.000000	100.344874 
3530.000000	100.344894 
3529.000000	100.346877 
3528.000000	100.350786 
3527.000000	100.355223 
3526.000000	100.358782 
3525.000000	100.360748 
3524.000000	100.360544 
3523.000000	100.358106 
3522.000000	100.355165 
3521.000000	100.354212 
3520.000000	100.355683 
3519.000000	100.357456 
3518.000000	100.357347 
3517.000000	100.355627 
3516.000000	100.354551 
3515.000000	100.355984 
3514.000000	100.359564 
3513.000000	100.363332 
3512.000000	100.365342 
3511.000000	100.364556 
3510.000000	100.361299 
3509.000000	100.357473 
3508.000000	100.355661 
3507.000000	100.357159 
3506.000000	100.360645 
3505.000000	100.362706 
3504.000000	100.360213 
3503.000000	100.353678 
3502.000000	100.348045 
3501.000000	100.348524 
3500.000000	100.355267 
3499.000000	100.363221 
3498.000000	100.367062 
3497.000000	100.365724 
3496.000000	100.362582 
3495.000000	100.361621 
3494.000000	100.363383 
3493.000000	100.364513 
3492.000000	100.361415 
3491.000000	100.354291 
3490.000000	100.347359 
3489.000000	100.344947 
3488.000000	100.347493 
3487.000000	100.351795 
3486.000000	100.354835 
3485.000000	100.356408 
3484.000000	100.358159 
3483.000000	100.361121 
3482.000000	100.364300 
3481.000000	100.365330 
3480.000000	100.362537 
3479.000000	100.356802 
3478.000000	100.351227 
3477.000000	100.348304 
3476.000000	100.347417 
3475.000000	100.345945 
3474.000000	100.343072 
3473.000000	100.341158 
3472.000000	100.342804 
3471.000000	100.347497 
3470.000000	100.352114 
3469.000000	100.354262 
3468.000000	100.354030 
3467.000000	100.352502 
3466.000000	100.349949 
3465.000000	100.346238 
3464.000000	100.342083 
3463.000000	100.338786 
3462.000000	100.336753 
3461.000000	100.335015 
3460.000000	100.332521 
3459.000000	100.329585 
3458.000000	100.327790 
3457.000000	100.328413 
3456.000000	100.330824 
3455.000000	100.332745 
3454.000000	100.332438 
3453.000000	100.330531 
3452.000000	100.328874 
3451.000000	100.328329 
3450.000000	100.328547 
3449.000000	100.329281 
3448.000000	100.330495 
3447.000000	100.331257 
3446.000000	100.330509 
3445.000000	100.328918 
3444.000000	100.328500 
3443.000000	100.330152 
3442.000000	100.332721 
3441.000000	100.334897 
3440.000000	100.336797 
3439.000000	100.338775 
3438.000000	100.339631 
3437.000000	100.337534 
3436.000000	100.332547 
3435.000000	100.327423 
3434.000000	100.325644 
3433.000000	100.328712 
3432.000000	100.334713 
3431.000000	100.339636 
3430.000000	100.340378 
3429.000000	100.336525 
3428.000000	100.329744 
3427.000000	100.322151 
3426.000000	100.315662 
3425.000000	100.311889 
3424.000000	100.311703 
3423.000000	100.314749 
3422.000000	100.319441 
3421.000000	100.323431 
3420.000000	100.324573 
3419.000000	100.322517 
3418.000000	100.319437 
3417.000000	100.318254 
3416.000000	100.319656 
3415.000000	100.321497 
3414.000000	100.321526 
3413.000000	100.319965 
3412.000000	100.318831 
3411.000000	100.319554 
3410.000000	100.322086 
3409.000000	100.325470 
3408.000000	100.328208 
3407.000000	100.328630 
3406.000000	100.326134 
3405.000000	100.322224 
3404.000000	100.319735 
3403.000000	100.320783 
3402.000000	100.325222 
3401.000000	100.330849 
3400.000000	100.334993 
3399.000000	100.336385 
3398.000000	100.335933 
3397.000000	100.335631 
3396.000000	100.336557 
3395.000000	100.337909 
3394.000000	100.338106 
3393.000000	100.336488 
3392.000000	100.333691 
3391.000000	100.330590 
3390.000000	100.327382 
3389.000000	100.323862 
3388.000000	100.320308 
3387.000000	100.317706 
3386.000000	100.316932 
3385.000000	100.317838 
3384.000000	100.319384 
3383.000000	100.320783 
3382.000000	100.322168 
3381.000000	100.323978 
3380.000000	100.325885 
3379.000000	100.326711 
3378.000000	100.325612 
3377.000000	100.323431 
3376.000000	100.322871 
3375.000000	100.326798 
3374.000000	100.335697 
3373.000000	100.346471 
3372.000000	100.354223 
3371.000000	100.355868 
3370.000000	100.352418 
3369.000000	100.347891 
3368.000000	100.345891 
3367.000000	100.346950 
3366.000000	100.348746 
3365.000000	100.348625 
3364.000000	100.345937 
3363.000000	100.342239 
3362.000000	100.339532 
3361.000000	100.338331 
3360.000000	100.337376 
3359.000000	100.335235 
3358.000000	100.332205 
3357.000000	100.330457 
3356.000000	100.332111 
3355.000000	100.337076 
3354.000000	100.342883 
3353.000000	100.346651 
3352.000000	100.347284 
3351.000000	100.345979 
3350.000000	100.345001 
3349.000000	100.346109 
3348.000000	100.349714 
3347.000000	100.354842 
3346.000000	100.359657 
3345.000000	100.362377 
3344.000000	100.362137 
3343.000000	100.359225 
3342.000000	100.354631 
3341.000000	100.349693 
3340.000000	100.346107 
3339.000000	100.345260 
3338.000000	100.346675 
3337.000000	100.347467 
3336.000000	100.344589 
3335.000000	100.338241 
3334.000000	100.332407 
3333.000000	100.331399 
3332.000000	100.335901 
3331.000000	100.342623 
3330.000000	100.347689 
3329.000000	100.349985 
3328.000000	100.351260 
3327.000000	100.353426 
3326.000000	100.356206 
3325.000000	100.357719 
3324.000000	100.357241 
3323.000000	100.356709 
3322.000000	100.358587 
3321.000000	100.362478 
3320.000000	100.364917 
3319.000000	100.363030 
3318.000000	100.357820 
3317.000000	100.353191 
3316.000000	100.352181 
3315.000000	100.354700 
3314.000000	100.358536 
3313.000000	100.361783 
3312.000000	100.364250 
3311.000000	100.367049 
3310.000000	100.370975 
3309.000000	100.375271 
3308.000000	100.378249 
3307.000000	100.379195 
3306.000000	100.378930 
3305.000000	100.378033 
3304.000000	100.375490 
3303.000000	100.370386 
3302.000000	100.364584 
3301.000000	100.362200 
3300.000000	100.365649 
3299.000000	100.372948 
3298.000000	100.379429 
3297.000000	100.381786 
3296.000000	100.380342 
3295.000000	100.378046 
3294.000000	100.377777 
3293.000000	100.380259 
3292.000000	100.383901 
3291.000000	100.386373 
3290.000000	100.386408 
3289.000000	100.384302 
3288.000000	100.381234 
3287.000000	100.378593 
3286.000000	100.377566 
3285.000000	100.378336 
3284.000000	100.379628 
3283.000000	100.379819 
3282.000000	100.378652 
3281.000000	100.377193 
3280.000000	100.376079 
3279.000000	100.374669 
3278.000000	100.372349 
3277.000000	100.369989 
3276.000000	100.369413 
3275.000000	100.371735 
3274.000000	100.376520 
3273.000000	100.382034 
3272.000000	100.385799 
3271.000000	100.385519 
3270.000000	100.380644 
3269.000000	100.373358 
3268.000000	100.367554 
3267.000000	100.366484 
3266.000000	100.371060 
3265.000000	100.379756 
3264.000000	100.389750 
3263.000000	100.398406 
3262.000000	100.404221 
3261.000000	100.406809 
3260.000000	100.406332 
3259.000000	100.403109 
3258.000000	100.397877 
3257.000000	100.392127 
3256.000000	100.387579 
3255.000000	100.385233 
3254.000000	100.385074 
3253.000000	100.386565 
3252.000000	100.389003 
3251.000000	100.391465 
3250.000000	100.392948 
3249.000000	100.393105 
3248.000000	100.392645 
3247.000000	100.392475 
3246.000000	100.392355 
3245.000000	100.390931 
3244.000000	100.387754 
3243.000000	100.385111 
3242.000000	100.386890 
3241.000000	100.394881 
3240.000000	100.406171 
3239.000000	100.414688 
3238.000000	100.416006 
3237.000000	100.410979 
3236.000000	100.404629 
3235.000000	100.401511 
3234.000000	100.402347 
3233.000000	100.404834 
3232.000000	100.406869 
3231.000000	100.408325 
3230.000000	100.409946 
3229.000000	100.411473 
3228.000000	100.411412 
3227.000000	100.408381 
3226.000000	100.402503 
3225.000000	100.395693 
3224.000000	100.390730 
3223.000000	100.389692 
3222.000000	100.392619 
3221.000000	100.397558 
3220.000000	100.402202 
3219.000000	100.405363 
3218.000000	100.406841 
3217.000000	100.406525 
3216.000000	100.404478 
3215.000000	100.401708 
3214.000000	100.399979 
3213.000000	100.400338 
3212.000000	100.402174 
3211.000000	100.404244 
3210.000000	100.406486 
3209.000000	100.410098 
3208.000000	100.415525 
3207.000000	100.420913 
3206.000000	100.423424 
3205.000000	100.422228 
3204.000000	100.419711 
3203.000000	100.419321 
3202.000000	100.422515 
3201.000000	100.428101 
3200.000000	100.433983 
3199.000000	100.438596 
3198.000000	100.440945 
3197.000000	100.440669 
3196.000000	100.438662 
3195.000000	100.436606 
3194.000000	100.435024 
3193.000000	100.432559 
3192.000000	100.428183 
3191.000000	100.423670 
3190.000000	100.422424 
3189.000000	100.425627 
3188.000000	100.430648 
3187.000000	100.433652 
3186.000000	100.433041 
3185.000000	100.430064 
3184.000000	100.427013 
3183.000000	100.425497 
3182.000000	100.425960 
3181.000000	100.427872 
3180.000000	100.430097 
3179.000000	100.431555 
3178.000000	100.431724 
3177.000000	100.430454 
3176.000000	100.427638 
3175.000000	100.423753 
3174.000000	100.420668 
3173.000000	100.420890 
3172.000000	100.425172 
3171.000000	100.431091 
3170.000000	100.434817 
3169.000000	100.434696 
3168.000000	100.432851 
3167.000000	100.432940 
3166.000000	100.436555 
3165.000000	100.442118 
3164.000000	100.446931 
3163.000000	100.449602 
3162.000000	100.450511 
3161.000000	100.450676 
3160.000000	100.450654 
3159.000000	100.450365 
3158.000000	100.449576 
3157.000000	100.448487 
3156.000000	100.447906 
3155.000000	100.448733 
3154.000000	100.451122 
3153.000000	100.454186 
3152.000000	100.456578 
3151.000000	100.457221 
3150.000000	100.455596 
3149.000000	100.452000 
3148.000000	100.448052 
3147.000000	100.446381 
3146.000000	100.448651 
3145.000000	100.453577 
3144.000000	100.457770 
3143.000000	100.459214 
3142.000000	100.459312 
3141.000000	100.460714 
3140.000000	100.463639 
3139.000000	100.465497 
3138.000000	100.464253 
3137.000000	100.461280 
3136.000000	100.460102 
3135.000000	100.462492 
3134.000000	100.466521 
3133.000000	100.468751 
3132.000000	100.467812 
3131.000000	100.465119 
3130.000000	100.462396 
3129.000000	100.459815 
3128.000000	100.457020 
3127.000000	100.454959 
3126.000000	100.455534 
3125.000000	100.459379 
3124.000000	100.464653 
3123.000000	100.468494 
3122.000000	100.469499 
3121.000000	100.468601 
3120.000000	100.467880 
3119.000000	100.468676 
3118.000000	100.470363 
3117.000000	100.470774 
3116.000000	100.468351 
3115.000000	100.464064 
3114.000000	100.460785 
3113.000000	100.460509 
3112.000000	100.462569 
3111.000000	100.464840 
3110.000000	100.466055 
3109.000000	100.466339 
3108.000000	100.465967 
3107.000000	100.464789 
3106.000000	100.463097 
3105.000000	100.462008 
3104.000000	100.462446 
3103.000000	100.464510 
3102.000000	100.468153 
3101.000000	100.473306 
3100.000000	100.478733 
3099.000000	100.481827 
3098.000000	100.480669 
3097.000000	100.476178 
3096.000000	100.471597 
3095.000000	100.469871 
3094.000000	100.471709 
3093.000000	100.475745 
3092.000000	100.479811 
3091.000000	100.482169 
3090.000000	100.482378 
3089.000000	100.481580 
3088.000000	100.481836 
3087.000000	100.484699 
3086.000000	100.489911 
3085.000000	100.495286 
3084.000000	100.498243 
3083.000000	100.497951 
3082.000000	100.496010 
3081.000000	100.494762 
3080.000000	100.495067 
3079.000000	100.495891 
3078.000000	100.495556 
3077.000000	100.492887 
3076.000000	100.487694 
3075.000000	100.481135 
3074.000000	100.475586 
3073.000000	100.473262 
3072.000000	100.474582 
3071.000000	100.478405 
3070.000000	100.483483 
3069.000000	100.488474 
3068.000000	100.490899 
3067.000000	100.488184 
3066.000000	100.480874 
3065.000000	100.473457 
3064.000000	100.470531 
3063.000000	100.472631 
3062.000000	100.476587 
3061.000000	100.479244 
3060.000000	100.479977 
3059.000000	100.480252 
3058.000000	100.481760 
3057.000000	100.484907 
3056.000000	100.488418 
3055.000000	100.490474 
3054.000000	100.490517 
3053.000000	100.489619 
3052.000000	100.488875 
3051.000000	100.488154 
3050.000000	100.486825 
3049.000000	100.484859 
3048.000000	100.482502 
3047.000000	100.479497 
3046.000000	100.475637 
3045.000000	100.471856 
3044.000000	100.469819 
3043.000000	100.470176 
3042.000000	100.471641 
3041.000000	100.471920 
3040.000000	100.469507 
3039.000000	100.464854 
3038.000000	100.460146 
3037.000000	100.457589 
3036.000000	100.457420 
3035.000000	100.457642 
3034.000000	100.455880 
3033.000000	100.451400 
3032.000000	100.445247 
3031.000000	100.438729 
3030.000000	100.432112 
3029.000000	100.424599 
3028.000000	100.415345 
3027.000000	100.404734 
3026.000000	100.394754 
3025.000000	100.387547 
3024.000000	100.383087 
3023.000000	100.378780 
3022.000000	100.371936 
3021.000000	100.362218 
3020.000000	100.351300 
3019.000000	100.340882 
3018.000000	100.331782 
3017.000000	100.324191 
3016.000000	100.317537 
3015.000000	100.310318 
3014.000000	100.301076 
3013.000000	100.289522 
3012.000000	100.275843 
3011.000000	100.259229 
3010.000000	100.238591 
3009.000000	100.215290 
3008.000000	100.193943 
3007.000000	100.179255 
3006.000000	100.171924 
3005.000000	100.167976 
3004.000000	100.161942 
3003.000000	100.150673 
3002.000000	100.134838 
3001.000000	100.117763 
3000.000000	100.102957 
2999.000000	100.091927 
2998.000000	100.083693 
2997.000000	100.076537 
2996.000000	100.070303 
2995.000000	100.065998 
2994.000000	100.062284 
2993.000000	100.053423 
2992.000000	100.033363 
2991.000000	100.003129 
2990.000000	99.972717  
2989.000000	99.953564  
2988.000000	99.949155  
2987.000000	99.954086  
2986.000000	99.961397  
2985.000000	99.968613  
2984.000000	99.976450  
2983.000000	99.984411  
2982.000000	99.989947  
2981.000000	99.991222  
2980.000000	99.989017  
2979.000000	99.985772  
2978.000000	99.983615  
2977.000000	99.983247  
2976.000000	99.983876  
2975.000000	99.984042  
2974.000000	99.982913  
2973.000000	99.980869  
2972.000000	99.978843  
2971.000000	99.977583  
2970.000000	99.977916  
2969.000000	99.981103  
2968.000000	99.988058  
2967.000000	99.998197  
2966.000000	100.009569 
2965.000000	100.020287 
2964.000000	100.029734 
2963.000000	100.038560 
2962.000000	100.047679 
2961.000000	100.057105 
2960.000000	100.065706 
2959.000000	100.072473 
2958.000000	100.078093 
2957.000000	100.084509 
2956.000000	100.092365 
2955.000000	100.099516 
2954.000000	100.103137 
2953.000000	100.103460 
2952.000000	100.104677 
2951.000000	100.111507 
2950.000000	100.124724 
2949.000000	100.140116 
2948.000000	100.152022 
2947.000000	100.158017 
2946.000000	100.160152 
2945.000000	100.161731 
2944.000000	100.163761 
2943.000000	100.165318 
2942.000000	100.166445 
2941.000000	100.168697 
2940.000000	100.172357 
2939.000000	100.174809 
2938.000000	100.173048 
2937.000000	100.167182 
2936.000000	100.160487 
2935.000000	100.156501 
2934.000000	100.156753 
2933.000000	100.160433 
2932.000000	100.164925 
2931.000000	100.166932 
2930.000000	100.164392 
2929.000000	100.157821 
2928.000000	100.149683 
2927.000000	100.142616 
2926.000000	100.138248 
2925.000000	100.136691 
2924.000000	100.136503 
2923.000000	100.135930 
2922.000000	100.134912 
2921.000000	100.135093 
2920.000000	100.137087 
2919.000000	100.138735 
2918.000000	100.137251 
2917.000000	100.132465 
2916.000000	100.126822 
2915.000000	100.122845 
2914.000000	100.121750 
2913.000000	100.123700 
2912.000000	100.127464 
2911.000000	100.129893 
2910.000000	100.127732 
2909.000000	100.120734 
2908.000000	100.112085 
2907.000000	100.105111 
2906.000000	100.100158 
2905.000000	100.094786 
2904.000000	100.086533 
2903.000000	100.075383 
2902.000000	100.064937 
2901.000000	100.061283 
2900.000000	100.068693 
2899.000000	100.085466 
2898.000000	100.104108 
2897.000000	100.116911 
2896.000000	100.121809 
2895.000000	100.123112 
2894.000000	100.126953 
2893.000000	100.135922 
2892.000000	100.147334 
2891.000000	100.156004 
2890.000000	100.158816 
2889.000000	100.157111 
2888.000000	100.154948 
2887.000000	100.155423 
2886.000000	100.158889 
2885.000000	100.164036 
2884.000000	100.169641 
2883.000000	100.175190 
2882.000000	100.180783 
2881.000000	100.187144 
2880.000000	100.195388 
2879.000000	100.206317 
2878.000000	100.219839 
2877.000000	100.234814 
2876.000000	100.249052 
2875.000000	100.259744 
2874.000000	100.264929 
2873.000000	100.265257 
2872.000000	100.264021 
2871.000000	100.264932 
2870.000000	100.269716 
2869.000000	100.277603 
2868.000000	100.286724 
2867.000000	100.295894 
2866.000000	100.305461 
2865.000000	100.316614 
2864.000000	100.329549 
2863.000000	100.342170 
2862.000000	100.351072 
2861.000000	100.354414 
2860.000000	100.354057 
2859.000000	100.354684 
2858.000000	100.360336 
2857.000000	100.371268 
2856.000000	100.383898 
2855.000000	100.394101 
2854.000000	100.400647 
2853.000000	100.405297 
2852.000000	100.409919 
2851.000000	100.414590 
2850.000000	100.418917 
2849.000000	100.423855 
2848.000000	100.430826 
2847.000000	100.439443 
2846.000000	100.447401 
2845.000000	100.452670 
2844.000000	100.455084 
2843.000000	100.456018 
2842.000000	100.457584 
2841.000000	100.461850 
2840.000000	100.469329 
2839.000000	100.477630 
2838.000000	100.482636 
2837.000000	100.481882 
2836.000000	100.476638 
2835.000000	100.470739 
2834.000000	100.468002 
2833.000000	100.470470 
2832.000000	100.477582 
2831.000000	100.486235 
2830.000000	100.492616 
2829.000000	100.495138 
2828.000000	100.495536 
2827.000000	100.496637 
2826.000000	100.499472 
2825.000000	100.502913 
2824.000000	100.505551 
2823.000000	100.507174 
2822.000000	100.508580 
2821.000000	100.510553 
2820.000000	100.513116 
2819.000000	100.515603 
2818.000000	100.517468 
2817.000000	100.518970 
2816.000000	100.520777 
2815.000000	100.522979 
2814.000000	100.524999 
2813.000000	100.526501 
2812.000000	100.527680 
2811.000000	100.528421 
2810.000000	100.527968 
2809.000000	100.525998 
2808.000000	100.523556 
2807.000000	100.522293 
2806.000000	100.522965 
2805.000000	100.525085 
2804.000000	100.527785 
2803.000000	100.530626 
2802.000000	100.533673 
2801.000000	100.536956 
2800.000000	100.539727 
2799.000000	100.540376 
2798.000000	100.537820 
2797.000000	100.533194 
2796.000000	100.529406 
2795.000000	100.528439 
2794.000000	100.529603 
2793.000000	100.530937 
2792.000000	100.531628 
2791.000000	100.532287 
2790.000000	100.533414 
2789.000000	100.534758 
2788.000000	100.536062 
2787.000000	100.537474 
2786.000000	100.539058 
2785.000000	100.540663 
2784.000000	100.542348 
2783.000000	100.544180 
2782.000000	100.545490 
2781.000000	100.545215 
2780.000000	100.543373 
2779.000000	100.541548 
2778.000000	100.541390 
2777.000000	100.543040 
2776.000000	100.545328 
2775.000000	100.546966 
2774.000000	100.547180 
2773.000000	100.545805 
2772.000000	100.543556 
2771.000000	100.541945 
2770.000000	100.542240 
2769.000000	100.544510 
2768.000000	100.548022 
2767.000000	100.552139 
2766.000000	100.556168 
2765.000000	100.558738 
2764.000000	100.558547 
2763.000000	100.556081 
2762.000000	100.553730 
2761.000000	100.553666 
2760.000000	100.556018 
2759.000000	100.559428 
2758.000000	100.562721 
2757.000000	100.565539 
2756.000000	100.567905 
2755.000000	100.569887 
2754.000000	100.571407 
2753.000000	100.571859 
2752.000000	100.570308 
2751.000000	100.566746 
2750.000000	100.562805 
2749.000000	100.560304 
2748.000000	100.559102 
2747.000000	100.557251 
2746.000000	100.553484 
2745.000000	100.548949 
2744.000000	100.546256 
2743.000000	100.547258 
2742.000000	100.551821 
2741.000000	100.558071 
2740.000000	100.563493 
2739.000000	100.566331 
2738.000000	100.566531 
2737.000000	100.565428 
2736.000000	100.564505 
2735.000000	100.564467 
2734.000000	100.565154 
2733.000000	100.565811 
2732.000000	100.565552 
2731.000000	100.564205 
2730.000000	100.562797 
2729.000000	100.562744 
2728.000000	100.564515 
2727.000000	100.567457 
2726.000000	100.570647 
2725.000000	100.573262 
2724.000000	100.574457 
2723.000000	100.573970 
2722.000000	100.572918 
2721.000000	100.572919 
2720.000000	100.574188 
2719.000000	100.575460 
2718.000000	100.575992 
2717.000000	100.576434 
2716.000000	100.577420 
2715.000000	100.578678 
2714.000000	100.580182 
2713.000000	100.582654 
2712.000000	100.585761 
2711.000000	100.587246 
2710.000000	100.585637 
2709.000000	100.582985 
2708.000000	100.582889 
2707.000000	100.585841 
2706.000000	100.588313 
2705.000000	100.586935 
2704.000000	100.582301 
2703.000000	100.577971 
2702.000000	100.576646 
2701.000000	100.577993 
2700.000000	100.579692 
2699.000000	100.579828 
2698.000000	100.578238 
2697.000000	100.576056 
2696.000000	100.574521 
2695.000000	100.574493 
2694.000000	100.576600 
2693.000000	100.580662 
2692.000000	100.584690 
2691.000000	100.585742 
2690.000000	100.582906 
2689.000000	100.578929 
2688.000000	100.577711 
2687.000000	100.580364 
2686.000000	100.584497 
2685.000000	100.587102 
2684.000000	100.587203 
2683.000000	100.585876 
2682.000000	100.584776 
2681.000000	100.584907 
2680.000000	100.586088 
2679.000000	100.587236 
2678.000000	100.587486 
2677.000000	100.587050 
2676.000000	100.586732 
2675.000000	100.586895 
2674.000000	100.587366 
2673.000000	100.588020 
2672.000000	100.588769 
2671.000000	100.589082 
2670.000000	100.588113 
2669.000000	100.585317 
2668.000000	100.580801 
2667.000000	100.575614 
2666.000000	100.572023 
2665.000000	100.572601 
2664.000000	100.577966 
2663.000000	100.585782 
2662.000000	100.592811 
2661.000000	100.597547 
2660.000000	100.600024 
2659.000000	100.599968 
2658.000000	100.596932 
2657.000000	100.592286 
2656.000000	100.589351 
2655.000000	100.590683 
2654.000000	100.595721 
2653.000000	100.601253 
2652.000000	100.603708 
2651.000000	100.601457 
2650.000000	100.596146 
2649.000000	100.591759 
2648.000000	100.591212 
2647.000000	100.593709 
2646.000000	100.596260 
2645.000000	100.597445 
2644.000000	100.598266 
2643.000000	100.599658 
2642.000000	100.601247 
2641.000000	100.602979 
2640.000000	100.605923 
2639.000000	100.610435 
2638.000000	100.614997 
2637.000000	100.617866 
2636.000000	100.618665 
2635.000000	100.617688 
2634.000000	100.615279 
2633.000000	100.612879 
2632.000000	100.612903 
2631.000000	100.615812 
2630.000000	100.618545 
2629.000000	100.617650 
2628.000000	100.613285 
2627.000000	100.608630 
2626.000000	100.606184 
2625.000000	100.606322 
2624.000000	100.608669 
2623.000000	100.612643 
2622.000000	100.616637 
2621.000000	100.618674 
2620.000000	100.618510 
2619.000000	100.617789 
2618.000000	100.617690 
2617.000000	100.617547 
2616.000000	100.616285 
2615.000000	100.614149 
2614.000000	100.612317 
2613.000000	100.611515 
2612.000000	100.611746 
2611.000000	100.613043 
2610.000000	100.615869 
2609.000000	100.620614 
2608.000000	100.626852 
2607.000000	100.633296 
2606.000000	100.638785 
2605.000000	100.643165 
2604.000000	100.646579 
2603.000000	100.647864 
2602.000000	100.644973 
2601.000000	100.638020 
2600.000000	100.630913 
2599.000000	100.628301 
2598.000000	100.630961 
2597.000000	100.635405 
2596.000000	100.637812 
2595.000000	100.636859 
2594.000000	100.632825 
2593.000000	100.626305 
2592.000000	100.619166 
2591.000000	100.615147 
2590.000000	100.617354 
2589.000000	100.625220 
2588.000000	100.635040 
2587.000000	100.643077 
2586.000000	100.647010 
2585.000000	100.645271 
2584.000000	100.637585 
2583.000000	100.626950 
2582.000000	100.619016 
2581.000000	100.617578 
2580.000000	100.621124 
2579.000000	100.624929 
2578.000000	100.626023 
2577.000000	100.625185 
2576.000000	100.624824 
2575.000000	100.626450 
2574.000000	100.630010 
2573.000000	100.634047 
2572.000000	100.636099 
2571.000000	100.634171 
2570.000000	100.628616 
2569.000000	100.622158 
2568.000000	100.617858 
2567.000000	100.617334 
2566.000000	100.620430 
2565.000000	100.625503 
2564.000000	100.630119 
2563.000000	100.632717 
2562.000000	100.633795 
2561.000000	100.634726 
2560.000000	100.635777 
2559.000000	100.636491 
2558.000000	100.637289 
2557.000000	100.638629 
2556.000000	100.639006 
2555.000000	100.636636 
2554.000000	100.633490 
2553.000000	100.634349 
2552.000000	100.640422 
2551.000000	100.646992 
2550.000000	100.649511 
2549.000000	100.649014 
2548.000000	100.648515 
2547.000000	100.646799 
2546.000000	100.640361 
2545.000000	100.630582 
2544.000000	100.624372 
2543.000000	100.626782 
2542.000000	100.636055 
2541.000000	100.646582 
2540.000000	100.653942 
2539.000000	100.656261 
2538.000000	100.653531 
2537.000000	100.647499 
2536.000000	100.640811 
2535.000000	100.635146 
2534.000000	100.631124 
2533.000000	100.629979 
2532.000000	100.633172 
2531.000000	100.639641 
2530.000000	100.645545 
2529.000000	100.648052 
2528.000000	100.648076 
2527.000000	100.648355 
2526.000000	100.650324 
2525.000000	100.653819 
2524.000000	100.658181 
2523.000000	100.662100 
2522.000000	100.663546 
2521.000000	100.661640 
2520.000000	100.658244 
2519.000000	100.656446 
2518.000000	100.657519 
2517.000000	100.659987 
2516.000000	100.661425 
2515.000000	100.660778 
2514.000000	100.659200 
2513.000000	100.658693 
2512.000000	100.659342 
2511.000000	100.658178 
2510.000000	100.652297 
2509.000000	100.643546 
2508.000000	100.638383 
2507.000000	100.641538 
2506.000000	100.650446 
2505.000000	100.657267 
2504.000000	100.656347 
2503.000000	100.649024 
2502.000000	100.641478 
2501.000000	100.638914 
2500.000000	100.641894 
2499.000000	100.647318 
2498.000000	100.652036 
2497.000000	100.655213 
2496.000000	100.657663 
2495.000000	100.659799 
2494.000000	100.660812 
2493.000000	100.659360 
2492.000000	100.654471 
2491.000000	100.646319 
2490.000000	100.637038 
2489.000000	100.630254 
2488.000000	100.628397 
2487.000000	100.630454 
2486.000000	100.633571 
2485.000000	100.636853 
2484.000000	100.642080 
2483.000000	100.650213 
2482.000000	100.658782 
2481.000000	100.663904 
2480.000000	100.664103 
2479.000000	100.661122 
2478.000000	100.657552 
2477.000000	100.654657 
2476.000000	100.652226 
2475.000000	100.649595 
2474.000000	100.646680 
2473.000000	100.644536 
2472.000000	100.644927 
2471.000000	100.648883 
2470.000000	100.655322 
2469.000000	100.661102 
2468.000000	100.662780 
2467.000000	100.658995 
2466.000000	100.651769 
2465.000000	100.645436 
2464.000000	100.643563 
2463.000000	100.646269 
2462.000000	100.650329 
2461.000000	100.651970 
2460.000000	100.650027 
2459.000000	100.646933 
2458.000000	100.646637 
2457.000000	100.650809 
2456.000000	100.656751 
2455.000000	100.659571 
2454.000000	100.656787 
2453.000000	100.650315 
2452.000000	100.643948 
2451.000000	100.639984 
2450.000000	100.638746 
2449.000000	100.639794 
2448.000000	100.642162 
2447.000000	100.644453 
2446.000000	100.646397 
2445.000000	100.649810 
2444.000000	100.656322 
2443.000000	100.664413 
2442.000000	100.670313 
2441.000000	100.671870 
2440.000000	100.670092 
2439.000000	100.666978 
2438.000000	100.663565 
2437.000000	100.660488 
2436.000000	100.658522 
2435.000000	100.657328 
2434.000000	100.654758 
2433.000000	100.648870 
2432.000000	100.640612 
2431.000000	100.633676 
2430.000000	100.631476 
2429.000000	100.634432 
2428.000000	100.640306 
2427.000000	100.646874 
2426.000000	100.653406 
2425.000000	100.658888 
2424.000000	100.660001 
2423.000000	100.653433 
2422.000000	100.640989 
2421.000000	100.630128 
2420.000000	100.627261 
2419.000000	100.631637 
2418.000000	100.637564 
2417.000000	100.641305 
2416.000000	100.643243 
2415.000000	100.644304 
2414.000000	100.643933 
2413.000000	100.642418 
2412.000000	100.642161 
2411.000000	100.644730 
2410.000000	100.648325 
2409.000000	100.649916 
2408.000000	100.648931 
2407.000000	100.647424 
2406.000000	100.647287 
2405.000000	100.648520 
2404.000000	100.649836 
2403.000000	100.649897 
2402.000000	100.648035 
2401.000000	100.644518 
2400.000000	100.640231 
2399.000000	100.635954 
2398.000000	100.632122 
2397.000000	100.629285 
2396.000000	100.628232 
2395.000000	100.629410 
2394.000000	100.632461 
2393.000000	100.636311 
2392.000000	100.639479 
2391.000000	100.640794 
2390.000000	100.640586 
2389.000000	100.640946 
2388.000000	100.643734 
2387.000000	100.648295 
2386.000000	100.652072 
2385.000000	100.653560 
2384.000000	100.653651 
2383.000000	100.653811 
2382.000000	100.654011 
2381.000000	100.652978 
2380.000000	100.649558 
2379.000000	100.643198 
2378.000000	100.634088 
2377.000000	100.624241 
2376.000000	100.617720 
2375.000000	100.617855 
2374.000000	100.623582 
2373.000000	100.630084 
2372.000000	100.634086 
2371.000000	100.637354 
2370.000000	100.643739 
2369.000000	100.653540 
2368.000000	100.661789 
2367.000000	100.661918 
2366.000000	100.651542 
2365.000000	100.635991 
2364.000000	100.625248 
2363.000000	100.626011 
2362.000000	100.636471 
2361.000000	100.648278 
2360.000000	100.654656 
2359.000000	100.655004 
2358.000000	100.652256 
2357.000000	100.649613 
2356.000000	100.649058 
2355.000000	100.650386 
2354.000000	100.651221 
2353.000000	100.649912 
2352.000000	100.647912 
2351.000000	100.648098 
2350.000000	100.651721 
2349.000000	100.656310 
2348.000000	100.658015 
2347.000000	100.656335 
2346.000000	100.653722 
2345.000000	100.652036 
2344.000000	100.651757 
2343.000000	100.654407 
2342.000000	100.661642 
2341.000000	100.671632 
2340.000000	100.679780 
2339.000000	100.681829 
2338.000000	100.677477 
2337.000000	100.671156 
2336.000000	100.667592 
2335.000000	100.666798 
2334.000000	100.665430 
2333.000000	100.662447 
2332.000000	100.659776 
2331.000000	100.657398 
2330.000000	100.653488 
2329.000000	100.649174 
2328.000000	100.648818 
2327.000000	100.655122 
2326.000000	100.665304 
2325.000000	100.674320 
2324.000000	100.678776 
2323.000000	100.679644 
2322.000000	100.681817 
2321.000000	100.689293 
2320.000000	100.699890 
2319.000000	100.706020 
2318.000000	100.703144 
2317.000000	100.694535 
2316.000000	100.686819 
2315.000000	100.682819 
2314.000000	100.681662 
2313.000000	100.683112 
2312.000000	100.688389 
2311.000000	100.697285 
2310.000000	100.707632 
2309.000000	100.717085 
2308.000000	100.723072 
2307.000000	100.722591 
2306.000000	100.715057 
2305.000000	100.704729 
2304.000000	100.697066 
2303.000000	100.693348 
2302.000000	100.691421 
2301.000000	100.690375 
2300.000000	100.690857 
2299.000000	100.691720 
2298.000000	100.690565 
2297.000000	100.688176 
2296.000000	100.688437 
2295.000000	100.692726 
2294.000000	100.697480 
2293.000000	100.698824 
2292.000000	100.696987 
2291.000000	100.694820 
2290.000000	100.694383 
2289.000000	100.696318 
2288.000000	100.700378 
2287.000000	100.704982 
2286.000000	100.707883 
2285.000000	100.708404 
2284.000000	100.707722 
2283.000000	100.706230 
2282.000000	100.702216 
2281.000000	100.694182 
2280.000000	100.683738 
2279.000000	100.676010 
2278.000000	100.677423 
2277.000000	100.691216 
2276.000000	100.712868 
2275.000000	100.731326 
2274.000000	100.737557 
2273.000000	100.731475 
2272.000000	100.718676 
2271.000000	100.703317 
2270.000000	100.688742 
2269.000000	100.682256 
2268.000000	100.691382 
2267.000000	100.713933 
2266.000000	100.737445 
2265.000000	100.750593 
2264.000000	100.751626 
2263.000000	100.745689 
2262.000000	100.739826 
2261.000000	100.741620 
2260.000000	100.755272 
2259.000000	100.774965 
2258.000000	100.787251 
2257.000000	100.784585 
2256.000000	100.773208 
2255.000000	100.764212 
2254.000000	100.760791 
2253.000000	100.758484 
2252.000000	100.754658 
2251.000000	100.752430 
2250.000000	100.756139 
2249.000000	100.766546 
2248.000000	100.779941 
2247.000000	100.790565 
2246.000000	100.794568 
2245.000000	100.792813 
2244.000000	100.788700 
2243.000000	100.783375 
2242.000000	100.775756 
2241.000000	100.767095 
2240.000000	100.761461 
2239.000000	100.760451 
2238.000000	100.760961 
2237.000000	100.759332 
2236.000000	100.754349 
2235.000000	100.745747 
2234.000000	100.734661 
2233.000000	100.727196 
2232.000000	100.732193 
2231.000000	100.752160 
2230.000000	100.779843 
2229.000000	100.806032 
2228.000000	100.827024 
2227.000000	100.841967 
2226.000000	100.847651 
2225.000000	100.840890 
2224.000000	100.824065 
2223.000000	100.804816 
2222.000000	100.791365 
2221.000000	100.788934 
2220.000000	100.797231 
2219.000000	100.809640 
2218.000000	100.818343 
2217.000000	100.822537 
2216.000000	100.828777 
2215.000000	100.841355 
2214.000000	100.855557 
2213.000000	100.862427 
2212.000000	100.857761 
2211.000000	100.845687 
2210.000000	100.836615 
2209.000000	100.841339 
2208.000000	100.861283 
2207.000000	100.883210 
2206.000000	100.889213 
2205.000000	100.874312 
2204.000000	100.849931 
2203.000000	100.829671 
2202.000000	100.818731 
2201.000000	100.817740 
2200.000000	100.826327 
2199.000000	100.837758 
2198.000000	100.839193 
2197.000000	100.825753 
2196.000000	100.809263 
2195.000000	100.805831 
2194.000000	100.818938 
2193.000000	100.840158 
2192.000000	100.861011 
2191.000000	100.876984 
2190.000000	100.884606 
2189.000000	100.883724 
2188.000000	100.881073 
2187.000000	100.884378 
2186.000000	100.893981 
2185.000000	100.905267 
2184.000000	100.916321 
2183.000000	100.927271 
2182.000000	100.935611 
2181.000000	100.939866 
2180.000000	100.945217 
2179.000000	100.957009 
2178.000000	100.969953 
2177.000000	100.971656 
2176.000000	100.957475 
2175.000000	100.935949 
2174.000000	100.919025 
2173.000000	100.911783 
2172.000000	100.911602 
2171.000000	100.912884 
2170.000000	100.912607 
2169.000000	100.914582 
2168.000000	100.926710 
2167.000000	100.950272 
2166.000000	100.974662 
2165.000000	100.988488 
2164.000000	100.994326 
2163.000000	101.005380 
2162.000000	101.027753 
2161.000000	101.052446 
2160.000000	101.064993 
2159.000000	101.057328 
2158.000000	101.030604 
2157.000000	100.993746 
2156.000000	100.960521 
2155.000000	100.941793 
2154.000000	100.937694 
2153.000000	100.938608 
2152.000000	100.934397 
2151.000000	100.922223 
2150.000000	100.907186 
2149.000000	100.898145 
2148.000000	100.901096 
2147.000000	100.912709 
2146.000000	100.920813 
2145.000000	100.914838 
2144.000000	100.896191 
2143.000000	100.875808 
2142.000000	100.862336 
2141.000000	100.855938 
2140.000000	100.853015 
2139.000000	100.852554 
2138.000000	100.855240 
2137.000000	100.858601 
2136.000000	100.856774 
2135.000000	100.846397 
2134.000000	100.831364 
2133.000000	100.819606 
2132.000000	100.814254 
2131.000000	100.809629 
2130.000000	100.798005 
2129.000000	100.779703 
2128.000000	100.763662 
2127.000000	100.756952 
2126.000000	100.756648 
2125.000000	100.754845 
2124.000000	100.750138 
2123.000000	100.749960 
2122.000000	100.760284 
2121.000000	100.776127 
2120.000000	100.785513 
2119.000000	100.782469 
2118.000000	100.773182 
2117.000000	100.768418 
2116.000000	100.772007 
2115.000000	100.778877 
2114.000000	100.783068 
2113.000000	100.784186 
2112.000000	100.785181 
2111.000000	100.786835 
2110.000000	100.787094 
2109.000000	100.784463 
2108.000000	100.779384 
2107.000000	100.772469 
2106.000000	100.763547 
2105.000000	100.752854 
2104.000000	100.742183 
2103.000000	100.734896 
2102.000000	100.734961 
2101.000000	100.744022 
2100.000000	100.757800 
2099.000000	100.767600 
2098.000000	100.768221 
2097.000000	100.763673 
2096.000000	100.762038 
2095.000000	100.764811 
2094.000000	100.764828 
2093.000000	100.755583 
2092.000000	100.739973 
2091.000000	100.728544 
2090.000000	100.730164 
2089.000000	100.744067 
2088.000000	100.759894 
2087.000000	100.766629 
2086.000000	100.762906 
2085.000000	100.757752 
2084.000000	100.759850 
2083.000000	100.768031 
2082.000000	100.775017 
2081.000000	100.778062 
2080.000000	100.781105 
2079.000000	100.787262 
2078.000000	100.794971 
2077.000000	100.803124 
2076.000000	100.814689 
2075.000000	100.831541 
2074.000000	100.849123 
2073.000000	100.859741 
2072.000000	100.860109 
2071.000000	100.853326 
2070.000000	100.844511 
2069.000000	100.836937 
2068.000000	100.831540 
2067.000000	100.828164 
2066.000000	100.826800 
2065.000000	100.827792 
2064.000000	100.830982 
2063.000000	100.835676 
2062.000000	100.842578 
2061.000000	100.854505 
2060.000000	100.872932 
2059.000000	100.894243 
2058.000000	100.911461 
2057.000000	100.919574 
2056.000000	100.918051 
2055.000000	100.909889 
2054.000000	100.901116 
2053.000000	100.899378 
2052.000000	100.908536 
2051.000000	100.924427 
2050.000000	100.938510 
2049.000000	100.945567 
2048.000000	100.945836 
2047.000000	100.940415 
2046.000000	100.929788 
2045.000000	100.918143 
2044.000000	100.913439 
2043.000000	100.920176 
2042.000000	100.935135 
2041.000000	100.951595 
2040.000000	100.965216 
2039.000000	100.975274 
2038.000000	100.983384 
2037.000000	100.991826 
2036.000000	100.999922 
2035.000000	101.002224 
2034.000000	100.994503 
2033.000000	100.981217 
2032.000000	100.971593 
2031.000000	100.968418 
2030.000000	100.967150 
2029.000000	100.965344 
2028.000000	100.965821 
2027.000000	100.969485 
2026.000000	100.972834 
2025.000000	100.974845 
2024.000000	100.979517 
2023.000000	100.988016 
2022.000000	100.993300 
2021.000000	100.987439 
2020.000000	100.971627 
2019.000000	100.955520 
2018.000000	100.948262 
2017.000000	100.950915 
2016.000000	100.955633 
2015.000000	100.952816 
2014.000000	100.941446 
2013.000000	100.931357 
2012.000000	100.932339 
2011.000000	100.942857 
2010.000000	100.954232 
2009.000000	100.963294 
2008.000000	100.973723 
2007.000000	100.985269 
2006.000000	100.990815 
2005.000000	100.986441 
2004.000000	100.976753 
2003.000000	100.967677 
2002.000000	100.959907 
2001.000000	100.952431 
2000.000000	100.945369 
1999.000000	100.937191 
1998.000000	100.925126 
1997.000000	100.910940 
1996.000000	100.902894 
1995.000000	100.909044 
1994.000000	100.929805 
1993.000000	100.956332 
1992.000000	100.974923 
1991.000000	100.975935 
1990.000000	100.962051 
1989.000000	100.947272 
1988.000000	100.944910 
1987.000000	100.955619 
1986.000000	100.968596 
1985.000000	100.974230 
1984.000000	100.973041 
1983.000000	100.973305 
1982.000000	100.982863 
1981.000000	101.002363 
1980.000000	101.021921 
1979.000000	101.026923 
1978.000000	101.012457 
1977.000000	100.989746 
1976.000000	100.972715 
1975.000000	100.962251 
1974.000000	100.952372 
1973.000000	100.946243 
1972.000000	100.954113 
1971.000000	100.975870 
1970.000000	100.995980 
1969.000000	100.998713 
1968.000000	100.983181 
1967.000000	100.961322 
1966.000000	100.945078 
1965.000000	100.938139 
1964.000000	100.936483 
1963.000000	100.933457 
1962.000000	100.925328 
1961.000000	100.913381 
1960.000000	100.900760 
1959.000000	100.889196 
1958.000000	100.880314 
1957.000000	100.876723 
1956.000000	100.878481 
1955.000000	100.880762 
1954.000000	100.878786 
1953.000000	100.872548 
1952.000000	100.864351 
1951.000000	100.853997 
1950.000000	100.840622 
1949.000000	100.828056 
1948.000000	100.821723 
1947.000000	100.820479 
1946.000000	100.816802 
1945.000000	100.805266 
1944.000000	100.788021 
1943.000000	100.772708 
1942.000000	100.767117 
1941.000000	100.773410 
1940.000000	100.784769 
1939.000000	100.791090 
1938.000000	100.790548 
1937.000000	100.791823 
1936.000000	100.801265 
1935.000000	100.812227 
1934.000000	100.813911 
1933.000000	100.806940 
1932.000000	100.802839 
1931.000000	100.807479 
1930.000000	100.813560 
1929.000000	100.812891 
1928.000000	100.805835 
1927.000000	100.797656 
1926.000000	100.790759 
1925.000000	100.785138 
1924.000000	100.782361 
1923.000000	100.783064 
1922.000000	100.784993 
1921.000000	100.785833 
1920.000000	100.783992 
1919.000000	100.777292 
1918.000000	100.764519 
1917.000000	100.750352 
1916.000000	100.742277 
1915.000000	100.740870 
1914.000000	100.741834 
1913.000000	100.744256 
1912.000000	100.750749 
1911.000000	100.759858 
1910.000000	100.764861 
1909.000000	100.762937 
1908.000000	100.758308 
1907.000000	100.755916 
1906.000000	100.755802 
1905.000000	100.756070 
1904.000000	100.756183 
1903.000000	100.753606 
1902.000000	100.745616 
1901.000000	100.735824 
1900.000000	100.730781 
1899.000000	100.731104 
1898.000000	100.731509 
1897.000000	100.730025 
1896.000000	100.731042 
1895.000000	100.735866 
1894.000000	100.738772 
1893.000000	100.736305 
1892.000000	100.732582 
1891.000000	100.732391 
1890.000000	100.734446 
1889.000000	100.734523 
1888.000000	100.731867 
1887.000000	100.727440 
1886.000000	100.721747 
1885.000000	100.717777 
1884.000000	100.719977 
1883.000000	100.726937 
1882.000000	100.731142 
1881.000000	100.728922 
1880.000000	100.724757 
1879.000000	100.725207 
1878.000000	100.732174 
1877.000000	100.742444 
1876.000000	100.751557 
1875.000000	100.755346 
1874.000000	100.750547 
1873.000000	100.738155 
1872.000000	100.723439 
1871.000000	100.711200 
1870.000000	100.703490 
1869.000000	100.701073 
1868.000000	100.704134 
1867.000000	100.709844 
1866.000000	100.713220 
1865.000000	100.712810 
1864.000000	100.710483 
1863.000000	100.705845 
1862.000000	100.696805 
1861.000000	100.686843 
1860.000000	100.684788 
1859.000000	100.694147 
1858.000000	100.708110 
1857.000000	100.717871 
1856.000000	100.720912 
1855.000000	100.719769 
1854.000000	100.717282 
1853.000000	100.716722 
1852.000000	100.718565 
1851.000000	100.719511 
1850.000000	100.718717 
1849.000000	100.720517 
1848.000000	100.728416 
1847.000000	100.737777 
1846.000000	100.740867 
1845.000000	100.737526 
1844.000000	100.735182 
1843.000000	100.738605 
1842.000000	100.744036 
1841.000000	100.745287 
1840.000000	100.740282 
1839.000000	100.731951 
1838.000000	100.724191 
1837.000000	100.719824 
1836.000000	100.719608 
1835.000000	100.720593 
1834.000000	100.719481 
1833.000000	100.716383 
1832.000000	100.712350 
1831.000000	100.708734 
1830.000000	100.707457 
1829.000000	100.709722 
1828.000000	100.715243 
1827.000000	100.719945 
1826.000000	100.720546 
1825.000000	100.719237 
1824.000000	100.720639 
1823.000000	100.723576 
1822.000000	100.720419 
1821.000000	100.708222 
1820.000000	100.694690 
1819.000000	100.689860 
1818.000000	100.693085 
1817.000000	100.695875 
1816.000000	100.695161 
1815.000000	100.694149 
1814.000000	100.696126 
1813.000000	100.701752 
1812.000000	100.711312 
1811.000000	100.723771 
1810.000000	100.732754 
1809.000000	100.733730 
1808.000000	100.730263 
1807.000000	100.726261 
1806.000000	100.720202 
1805.000000	100.711150 
1804.000000	100.704068 
1803.000000	100.702190 
1802.000000	100.702142 
1801.000000	100.698511 
1800.000000	100.692656 
1799.000000	100.690437 
1798.000000	100.692490 
1797.000000	100.696866 
1796.000000	100.703864 
1795.000000	100.712542 
1794.000000	100.719723 
1793.000000	100.722729 
1792.000000	100.722500 
1791.000000	100.721777 
1790.000000	100.719405 
1789.000000	100.713810 
1788.000000	100.708173 
1787.000000	100.706670 
1786.000000	100.709036 
1785.000000	100.712559 
1784.000000	100.717013 
1783.000000	100.720569 
1782.000000	100.721185 
1781.000000	100.718624 
1780.000000	100.714061 
1779.000000	100.709254 
1778.000000	100.704151 
1777.000000	100.700599 
1776.000000	100.700645 
1775.000000	100.702818 
1774.000000	100.705011 
1773.000000	100.707465 
1772.000000	100.710500 
1771.000000	100.716150 
1770.000000	100.722645 
1769.000000	100.722835 
1768.000000	100.716234 
1767.000000	100.710442 
1766.000000	100.710474 
1765.000000	100.711842 
1764.000000	100.709186 
1763.000000	100.704380 
1762.000000	100.703299 
1761.000000	100.706545 
1760.000000	100.711787 
1759.000000	100.717004 
1758.000000	100.721402 
1757.000000	100.726293 
1756.000000	100.730724 
1755.000000	100.734493 
1754.000000	100.737258 
1753.000000	100.737234 
1752.000000	100.733683 
1751.000000	100.729661 
1750.000000	100.728670 
1749.000000	100.730300 
1748.000000	100.731605 
1747.000000	100.731087 
1746.000000	100.731191 
1745.000000	100.731348 
1744.000000	100.728931 
1743.000000	100.725867 
1742.000000	100.725581 
1741.000000	100.726479 
1740.000000	100.725792 
1739.000000	100.725557 
1738.000000	100.730208 
1737.000000	100.736470 
1736.000000	100.737612 
1735.000000	100.733791 
1734.000000	100.726566 
1733.000000	100.722114 
1732.000000	100.726371 
1731.000000	100.731001 
1730.000000	100.728778 
1729.000000	100.723640 
1728.000000	100.721109 
1727.000000	100.721159 
1726.000000	100.722320 
1725.000000	100.723224 
1724.000000	100.723778 
1723.000000	100.724012 
1722.000000	100.721927 
1721.000000	100.717471 
1720.000000	100.714704 
1719.000000	100.720175 
1718.000000	100.730038 
1717.000000	100.730579 
1716.000000	100.726600 
1715.000000	100.727577 
1714.000000	100.728102 
1713.000000	100.724600 
1712.000000	100.722650 
1711.000000	100.723963 
1710.000000	100.723857 
1709.000000	100.721145 
1708.000000	100.719782 
1707.000000	100.721897 
1706.000000	100.722532 
1705.000000	100.717902 
1704.000000	100.714858 
1703.000000	100.714935 
1702.000000	100.710624 
1701.000000	100.699973 
1700.000000	100.689768 
1699.000000	100.696458 
1698.000000	100.713189 
1697.000000	100.720419 
1696.000000	100.716133 
1695.000000	100.709264 
1694.000000	100.707581 
1693.000000	100.707991 
1692.000000	100.706150 
1691.000000	100.703999 
1690.000000	100.704121 
1689.000000	100.706922 
1688.000000	100.709588 
1687.000000	100.710069 
1686.000000	100.710284 
1685.000000	100.714828 
1684.000000	100.717442 
1683.000000	100.713799 
1682.000000	100.712528 
1681.000000	100.713409 
1680.000000	100.711105 
1679.000000	100.706508 
1678.000000	100.702788 
1677.000000	100.699818 
1676.000000	100.695118 
1675.000000	100.688040 
1674.000000	100.687342 
1673.000000	100.696069 
1672.000000	100.705587 
1671.000000	100.709675 
1670.000000	100.708622 
1669.000000	100.705862 
1668.000000	100.703723 
1667.000000	100.701941 
1666.000000	100.699363 
1665.000000	100.694655 
1664.000000	100.689894 
1663.000000	100.687243 
1662.000000	100.687766 
1661.000000	100.692927 
1660.000000	100.698363 
1659.000000	100.699382 
1658.000000	100.698173 
1657.000000	100.697405 
1656.000000	100.692134 
1655.000000	100.682035 
1654.000000	100.681652 
1653.000000	100.682883 
1652.000000	100.681884 
1651.000000	100.694239 
1650.000000	100.708307 
1649.000000	100.710450 
1648.000000	100.706380 
1647.000000	100.702666 
1646.000000	100.697224 
1645.000000	100.693027 
1644.000000	100.695549 
1643.000000	100.701378 
1642.000000	100.704469 
1641.000000	100.703770 
1640.000000	100.701206 
1639.000000	100.699359 
1638.000000	100.698401 
1637.000000	100.700276 
1636.000000	100.704324 
1635.000000	100.703825 
1634.000000	100.702239 
1633.000000	100.702773 
1632.000000	100.702338 
1631.000000	100.697927 
1630.000000	100.690506 
1629.000000	100.684454 
1628.000000	100.683494 
1627.000000	100.686012 
1626.000000	100.688829 
1625.000000	100.690773 
1624.000000	100.692028 
1623.000000	100.691464 
1622.000000	100.690287 
1621.000000	100.692612 
1620.000000	100.695349 
1619.000000	100.693374 
1618.000000	100.689035 
1617.000000	100.690320 
1616.000000	100.698122 
1615.000000	100.707513 
1614.000000	100.715007 
1613.000000	100.719768 
1612.000000	100.722497 
1611.000000	100.722313 
1610.000000	100.719424 
1609.000000	100.717103 
1608.000000	100.716762 
1607.000000	100.715853 
1606.000000	100.714714 
1605.000000	100.716389 
1604.000000	100.719598 
1603.000000	100.721695 
1602.000000	100.723584 
1601.000000	100.727282 
1600.000000	100.731147 
1599.000000	100.732037 
1598.000000	100.730931 
1597.000000	100.731055 
1596.000000	100.732928 
1595.000000	100.734251 
1594.000000	100.734476 
1593.000000	100.736025 
1592.000000	100.739775 
1591.000000	100.743273 
1590.000000	100.745090 
1589.000000	100.747282 
1588.000000	100.751230 
1587.000000	100.755162 
1586.000000	100.757216 
1585.000000	100.759379 
1584.000000	100.761659 
1583.000000	100.760989 
1582.000000	100.758471 
1581.000000	100.758597 
1580.000000	100.760812 
1579.000000	100.760173 
1578.000000	100.756739 
1577.000000	100.755573 
1576.000000	100.755578 
1575.000000	100.752971 
1574.000000	100.753326 
1573.000000	100.757408 
1572.000000	100.759112 
1571.000000	100.757101 
1570.000000	100.755480 
1569.000000	100.758925 
1568.000000	100.764774 
1567.000000	100.767166 
1566.000000	100.765288 
1565.000000	100.763473 
1564.000000	100.761120 
1563.000000	100.755828 
1562.000000	100.744901 
1561.000000	100.736579 
1560.000000	100.742392 
1559.000000	100.754572 
1558.000000	100.752538 
1557.000000	100.757558 
1556.000000	100.769951 
1555.000000	100.773252 
1554.000000	100.769671 
1553.000000	100.766490 
1552.000000	100.763843 
1551.000000	100.759111 
1550.000000	100.754461 
1549.000000	100.754801 
1548.000000	100.759527 
1547.000000	100.760030 
1546.000000	100.750687 
1545.000000	100.736018 
1544.000000	100.726049 
1543.000000	100.728344 
1542.000000	100.742841 
1541.000000	100.762702 
1540.000000	100.773423 
1539.000000	100.764730 
1538.000000	100.754306 
1537.000000	100.753884 
1536.000000	100.756902 
1535.000000	100.756727 
1534.000000	100.752755 
1533.000000	100.745416 
1532.000000	100.739209 
1531.000000	100.738375 
1530.000000	100.738279 
1529.000000	100.734575 
1528.000000	100.729065 
1527.000000	100.724592 
1526.000000	100.722954 
1525.000000	100.725341 
1524.000000	100.730913 
1523.000000	100.737412 
1522.000000	100.741107 
1521.000000	100.738124 
1520.000000	100.733674 
1519.000000	100.731983 
1518.000000	100.728251 
1517.000000	100.720089 
1516.000000	100.712806 
1515.000000	100.711356 
1514.000000	100.712647 
1513.000000	100.710022 
1512.000000	100.704122 
1511.000000	100.701265 
1510.000000	100.701273 
1509.000000	100.700229 
1508.000000	100.702182 
1507.000000	100.712380 
1506.000000	100.712818 
1505.000000	100.706309 
1504.000000	100.707846 
1503.000000	100.715494 
1502.000000	100.722621 
1501.000000	100.725174 
1500.000000	100.722918 
1499.000000	100.719622 
1498.000000	100.717161 
1497.000000	100.708399 
1496.000000	100.692138 
1495.000000	100.679987 
1494.000000	100.677461 
1493.000000	100.678338 
1492.000000	100.677473 
1491.000000	100.675200 
1490.000000	100.671170 
1489.000000	100.663128 
1488.000000	100.655571 
1487.000000	100.652986 
1486.000000	100.650710 
1485.000000	100.647348 
1484.000000	100.645092 
1483.000000	100.644693 
1482.000000	100.645927 
1481.000000	100.648064 
1480.000000	100.651288 
1479.000000	100.653892 
1478.000000	100.652683 
1477.000000	100.647424 
1476.000000	100.644330 
1475.000000	100.647242 
1474.000000	100.652464 
1473.000000	100.653413 
1472.000000	100.648612 
1471.000000	100.645520 
1470.000000	100.646826 
1469.000000	100.647526 
1468.000000	100.645750 
1467.000000	100.643759 
1466.000000	100.643244 
1465.000000	100.643941 
1464.000000	100.644546 
1463.000000	100.646952 
1462.000000	100.650373 
1461.000000	100.651153 
1460.000000	100.648051 
1459.000000	100.644554 
1458.000000	100.642891 
1457.000000	100.633000 
1456.000000	100.613420 
1455.000000	100.602536 
1454.000000	100.603981 
1453.000000	100.606779 
1452.000000	100.605860 
1451.000000	100.603803 
1450.000000	100.602708 
1449.000000	100.599385 
1448.000000	100.594528 
1447.000000	100.593499 
1446.000000	100.599339 
1445.000000	100.607296 
1444.000000	100.610596 
1443.000000	100.610728 
1442.000000	100.612323 
1441.000000	100.615727 
1440.000000	100.617488 
1439.000000	100.617518 
1438.000000	100.618292 
1437.000000	100.618246 
1436.000000	100.614735 
1435.000000	100.613909 
1434.000000	100.618293 
1433.000000	100.620316 
1432.000000	100.615661 
1431.000000	100.608815 
1430.000000	100.605725 
1429.000000	100.604563 
1428.000000	100.602142 
1427.000000	100.598861 
1426.000000	100.596835 
1425.000000	100.596130 
1424.000000	100.593716 
1423.000000	100.590770 
1422.000000	100.588836 
1421.000000	100.583606 
1420.000000	100.569833 
1419.000000	100.552994 
1418.000000	100.544411 
1417.000000	100.542110 
1416.000000	100.535361 
1415.000000	100.522250 
1414.000000	100.509042 
1413.000000	100.498851 
1412.000000	100.489326 
1411.000000	100.480465 
1410.000000	100.474891 
1409.000000	100.470630 
1408.000000	100.465222 
1407.000000	100.460864 
1406.000000	100.461754 
1405.000000	100.467630 
1404.000000	100.473993 
1403.000000	100.482002 
1402.000000	100.495355 
1401.000000	100.511697 
1400.000000	100.524691 
1399.000000	100.531187 
1398.000000	100.531470 
1397.000000	100.521464 
1396.000000	100.495841 
1395.000000	100.462753 
1394.000000	100.446867 
1393.000000	100.463151 
1392.000000	100.499641 
1391.000000	100.535672 
1390.000000	100.559672 
1389.000000	100.569597 
1388.000000	100.567876 
1387.000000	100.559191 
1386.000000	100.550004 
1385.000000	100.544267 
1384.000000	100.540340 
1383.000000	100.536281 
1382.000000	100.533074 
1381.000000	100.532845 
1380.000000	100.537055 
1379.000000	100.545741 
1378.000000	100.557804 
1377.000000	100.570770 
1376.000000	100.581534 
1375.000000	100.588549 
1374.000000	100.594557 
1373.000000	100.603833 
1372.000000	100.616849 
1371.000000	100.629181 
1370.000000	100.637255 
1369.000000	100.642156 
1368.000000	100.646319 
1367.000000	100.651210 
1366.000000	100.657192 
1365.000000	100.663937 
1364.000000	100.671184 
1363.000000	100.678551 
1362.000000	100.685018 
1361.000000	100.690014 
1360.000000	100.694014 
1359.000000	100.697845 
1358.000000	100.702874 
1357.000000	100.710118 
1356.000000	100.718435 
1355.000000	100.725331 
1354.000000	100.730050 
1353.000000	100.733759 
1352.000000	100.737963 
1351.000000	100.741401 
1350.000000	100.741926 
1349.000000	100.740541 
1348.000000	100.739730 
1347.000000	100.740300 
1346.000000	100.741029 
1345.000000	100.741049 
1344.000000	100.740606 
1343.000000	100.739768 
1342.000000	100.738317 
1341.000000	100.737438 
1340.000000	100.739483 
1339.000000	100.744879 
1338.000000	100.751144 
1337.000000	100.755732 
1336.000000	100.758526 
1335.000000	100.760862 
1334.000000	100.762959 
1333.000000	100.763492 
1332.000000	100.761716 
1331.000000	100.758626 
1330.000000	100.756021 
1329.000000	100.754954 
1328.000000	100.755626 
1327.000000	100.757537 
1326.000000	100.759788 
1325.000000	100.761450 
1324.000000	100.761820 
1323.000000	100.761377 
1322.000000	100.761427 
1321.000000	100.762555 
1320.000000	100.764225 
1319.000000	100.765933 
1318.000000	100.767383 
1317.000000	100.767468 
1316.000000	100.764824 
1315.000000	100.760047 
1314.000000	100.755923 
1313.000000	100.754368 
1312.000000	100.754410 
1311.000000	100.754023 
1310.000000	100.752875 
1309.000000	100.751950 
1308.000000	100.751752 
1307.000000	100.751565 
1306.000000	100.750614 
1305.000000	100.749207 
1304.000000	100.748373 
1303.000000	100.749025 
1302.000000	100.750796 
1301.000000	100.751853 
1300.000000	100.750670 
1299.000000	100.748136 
1298.000000	100.746681 
1297.000000	100.747191 
1296.000000	100.748009 
1295.000000	100.747106 
1294.000000	100.743987 
1293.000000	100.738881 
1292.000000	100.731832 
1291.000000	100.723717 
1290.000000	100.716775 
1289.000000	100.712789 
1288.000000	100.711222 
1287.000000	100.709918 
1286.000000	100.707238 
1285.000000	100.703032 
1284.000000	100.698179 
1283.000000	100.693774 
1282.000000	100.690051 
1281.000000	100.686006 
1280.000000	100.680557 
1279.000000	100.674099 
1278.000000	100.668221 
1277.000000	100.663888 
1276.000000	100.660772 
1275.000000	100.658083 
1274.000000	100.655038 
1273.000000	100.650613 
1272.000000	100.644212 
1271.000000	100.636772 
1270.000000	100.629930 
1269.000000	100.623947 
1268.000000	100.617509 
1267.000000	100.609690 
1266.000000	100.600699 
1265.000000	100.590743 
1264.000000	100.580046 
1263.000000	100.570010 
1262.000000	100.561990 
1261.000000	100.554809 
1260.000000	100.545781 
1259.000000	100.534856 
1258.000000	100.525325 
1257.000000	100.519457 
1256.000000	100.516129 
1255.000000	100.513713 
1254.000000	100.512373 
1253.000000	100.511828 
1252.000000	100.509631 
1251.000000	100.504372 
1250.000000	100.498896 
1249.000000	100.497590 
1248.000000	100.501195 
1247.000000	100.506227 
1246.000000	100.508069 
1245.000000	100.502548 
1244.000000	100.487006 
1243.000000	100.464053 
1242.000000	100.443572 
1241.000000	100.436312 
1240.000000	100.443684 
1239.000000	100.455846 
1238.000000	100.460943 
1237.000000	100.454919 
1236.000000	100.442006 
1235.000000	100.428406 
1234.000000	100.417385 
1233.000000	100.408623 
1232.000000	100.399471 
1231.000000	100.386716 
1230.000000	100.369207 
1229.000000	100.349810 
1228.000000	100.333949 
1227.000000	100.324858 
1226.000000	100.320076 
1225.000000	100.313427 
1224.000000	100.300799 
1223.000000	100.283300 
1222.000000	100.264586 
1221.000000	100.246416 
1220.000000	100.227960 
1219.000000	100.208408 
1218.000000	100.188078 
1217.000000	100.166742 
1216.000000	100.142765 
1215.000000	100.114835 
1214.000000	100.083439 
1213.000000	100.049817 
1212.000000	100.014584 
1211.000000	99.978376  
1210.000000	99.942865  
1209.000000	99.909818  
1208.000000	99.879296  
1207.000000	99.849477  
1206.000000	99.818281  
1205.000000	99.784996  
1204.000000	99.750448  
1203.000000	99.715898  
1202.000000	99.682014  
1201.000000	99.648911  
1200.000000	99.616651  
1199.000000	99.585007  
1198.000000	99.552975  
1197.000000	99.519434  
1196.000000	99.484415  
1195.000000	99.448739  
1194.000000	99.412448  
1193.000000	99.374954  
1192.000000	99.336844  
1191.000000	99.299758  
1190.000000	99.263700  
1189.000000	99.226226  
1188.000000	99.185563  
1187.000000	99.143218  
1186.000000	99.102194  
1185.000000	99.063555  
1184.000000	99.025767  
1183.000000	98.986291  
1182.000000	98.943047  
1181.000000	98.895717  
1180.000000	98.846415  
1179.000000	98.797589  
1178.000000	98.748634  
1177.000000	98.696469  
1176.000000	98.640150  
1175.000000	98.582321  
1174.000000	98.524784  
1173.000000	98.465627  
1172.000000	98.403150  
1171.000000	98.340233  
1170.000000	98.281776  
1169.000000	98.229296  
1168.000000	98.181037  
1167.000000	98.136708  
1166.000000	98.099905  
1165.000000	98.076431  
1164.000000	98.071570  
1163.000000	98.087446  
1162.000000	98.120686  
1161.000000	98.162930  
1160.000000	98.204402  
1159.000000	98.236448  
1158.000000	98.251455  
1157.000000	98.243431  
1156.000000	98.210968  
1155.000000	98.159355  
1154.000000	98.098541  
1153.000000	98.038447  
1152.000000	97.985119  
1151.000000	97.938869  
1150.000000	97.895169  
1149.000000	97.849260  
1148.000000	97.800960  
1147.000000	97.753785  
1146.000000	97.709506  
1145.000000	97.666032  
1144.000000	97.620981  
1143.000000	97.574547  
1142.000000	97.528086  
1141.000000	97.482637  
1140.000000	97.439665  
1139.000000	97.400257  
1138.000000	97.362341  
1137.000000	97.321592  
1136.000000	97.276377  
1135.000000	97.229116  
1134.000000	97.181724  
1133.000000	97.132864  
1132.000000	97.081294  
1131.000000	97.029021  
1130.000000	96.979312  
1129.000000	96.933629  
1128.000000	96.891176  
1127.000000	96.848656  
1126.000000	96.800361  
1125.000000	96.742761  
1124.000000	96.680227  
1123.000000	96.622143  
1122.000000	96.572755  
1121.000000	96.527676  
1120.000000	96.481583  
1119.000000	96.434424  
1118.000000	96.387891  
1117.000000	96.340880  
1116.000000	96.291970  
1115.000000	96.242665  
1114.000000	96.194911  
1113.000000	96.148384  
1112.000000	96.102606  
1111.000000	96.058195  
1110.000000	96.013846  
1109.000000	95.965844  
1108.000000	95.913349  
1107.000000	95.860844  
1106.000000	95.812421  
1105.000000	95.767006  
1104.000000	95.721916  
1103.000000	95.677480  
1102.000000	95.635777  
1101.000000	95.597431  
1100.000000	95.562683  
1099.000000	95.532271  
1098.000000	95.504833  
1097.000000	95.477174  
1096.000000	95.448312  
1095.000000	95.420133  
1094.000000	95.392429  
1093.000000	95.361131  
1092.000000	95.323214  
1091.000000	95.279972  
1090.000000	95.234319  
1089.000000	95.188702  
1088.000000	95.146602  
1087.000000	95.111356  
1086.000000	95.081715  
1085.000000	95.052914  
1084.000000	95.023494  
1083.000000	94.996449  
1082.000000	94.972565  
1081.000000	94.947986  
1080.000000	94.920242  
1079.000000	94.891692  
1078.000000	94.865234  
1077.000000	94.841453  
1076.000000	94.821342  
1075.000000	94.806312  
1074.000000	94.793689  
1073.000000	94.777183  
1072.000000	94.752365  
1071.000000	94.715562  
1070.000000	94.657634  
1069.000000	94.568719  
1068.000000	94.453826  
1067.000000	94.336495  
1066.000000	94.240382  
1065.000000	94.170556  
1064.000000	94.115979  
1063.000000	94.063296  
1062.000000	94.002757  
1061.000000	93.927788  
1060.000000	93.838203  
1059.000000	93.743355  
1058.000000	93.656633  
1057.000000	93.585874  
1056.000000	93.529901  
1055.000000	93.481164  
1054.000000	93.429816  
1053.000000	93.369020  
1052.000000	93.299345  
1051.000000	93.225832  
1050.000000	93.150115  
1049.000000	93.069865  
1048.000000	92.986438  
1047.000000	92.906672  
1046.000000	92.835272  
1045.000000	92.770430  
1044.000000	92.707765  
1043.000000	92.644000  
1042.000000	92.577069  
1041.000000	92.507987  
1040.000000	92.442952  
1039.000000	92.388685  
1038.000000	92.345642  
1037.000000	92.310406  
1036.000000	92.283128  
1035.000000	92.266121  
1034.000000	92.256576  
1033.000000	92.247914  
1032.000000	92.237190  
1031.000000	92.224023  
1030.000000	92.204886  
1029.000000	92.178447  
1028.000000	92.155621  
1027.000000	92.152771  
1026.000000	92.172170  
1025.000000	92.198223  
1024.000000	92.215077  
1023.000000	92.219521  
1022.000000	92.215814  
1021.000000	92.208148  
1020.000000	92.201563  
1019.000000	92.201320  
1018.000000	92.206557  
1017.000000	92.210747  
1016.000000	92.211019  
1015.000000	92.210749  
1014.000000	92.211632  
1013.000000	92.210819  
1012.000000	92.207947  
1011.000000	92.207348  
1010.000000	92.210866  
1009.000000	92.215780  
1008.000000	92.222092  
1007.000000	92.234286  
1006.000000	92.253125  
1005.000000	92.273030  
1004.000000	92.290624  
1003.000000	92.309199  
1002.000000	92.331945  
1001.000000	92.357045  
1000.000000	92.381990  
999.000000	 92.406689  
998.000000	 92.430372  
997.000000	 92.451779  
996.000000	 92.474294  
995.000000	 92.504259  
994.000000	 92.541925  
993.000000	 92.580450  
992.000000	 92.615808  
991.000000	 92.651020  
990.000000	 92.688603  
989.000000	 92.726130  
988.000000	 92.762473  
987.000000	 92.802046  
986.000000	 92.849249  
985.000000	 92.903817  
984.000000	 92.964327  
983.000000	 93.031066  
982.000000	 93.102893  
981.000000	 93.176287  
980.000000	 93.250053  
979.000000	 93.326927  
978.000000	 93.409144  
977.000000	 93.496432  
976.000000	 93.588595  
975.000000	 93.684921  
974.000000	 93.780905  
973.000000	 93.871525  
972.000000	 93.958744  
971.000000	 94.050054  
970.000000	 94.148446  
969.000000	 94.249165  
968.000000	 94.347191  
967.000000	 94.442056  
966.000000	 94.534031  
965.000000	 94.621535  
964.000000	 94.704539  
963.000000	 94.785799  
962.000000	 94.866703  
961.000000	 94.945853  
960.000000	 95.022713  
959.000000	 95.098214  
958.000000	 95.171013  
957.000000	 95.238131  
956.000000	 95.300396  
955.000000	 95.362341  
954.000000	 95.425288  
953.000000	 95.485303  
952.000000	 95.539517  
951.000000	 95.589742  
950.000000	 95.638012  
949.000000	 95.683037  
948.000000	 95.723184  
947.000000	 95.758974  
946.000000	 95.790685  
945.000000	 95.817345  
944.000000	 95.840219  
943.000000	 95.863962  
942.000000	 95.892165  
941.000000	 95.924111  
940.000000	 95.956794  
939.000000	 95.987339  
938.000000	 96.013345  
937.000000	 96.034743  
936.000000	 96.056083  
935.000000	 96.083222  
934.000000	 96.116841  
933.000000	 96.152617  
932.000000	 96.187884  
931.000000	 96.223698  
930.000000	 96.259751  
929.000000	 96.291960  
928.000000	 96.316747  
927.000000	 96.334318  
926.000000	 96.347051  
925.000000	 96.358398  
924.000000	 96.373800  
923.000000	 96.397994  
922.000000	 96.429521  
921.000000	 96.461182  
920.000000	 96.486914  
919.000000	 96.505278  
918.000000	 96.516821  
917.000000	 96.522784  
916.000000	 96.526983  
915.000000	 96.534233  
914.000000	 96.545580  
913.000000	 96.558990  
912.000000	 96.575291  
911.000000	 96.598897  
910.000000	 96.632010  
909.000000	 96.672911  
908.000000	 96.720607  
907.000000	 96.775669  
906.000000	 96.835120  
905.000000	 96.891915  
904.000000	 96.941815  
903.000000	 96.987309  
902.000000	 97.034218  
901.000000	 97.088133  
900.000000	 97.153471  
899.000000	 97.229651  
898.000000	 97.306982  
897.000000	 97.372488  
896.000000	 97.422109  
895.000000	 97.463131  
894.000000	 97.503864  
893.000000	 97.546322  
892.000000	 97.590508  
891.000000	 97.639448  
890.000000	 97.695652  
889.000000	 97.756067  
888.000000	 97.813884  
887.000000	 97.863376  
886.000000	 97.902096  
885.000000	 97.931645  
884.000000	 97.957334  
883.000000	 97.983698  
882.000000	 98.009457  
881.000000	 98.030815  
880.000000	 98.050211  
879.000000	 98.076164  
878.000000	 98.112335  
877.000000	 98.152297  
876.000000	 98.188130  
875.000000	 98.219069  
874.000000	 98.248609  
873.000000	 98.278304  
872.000000	 98.308512  
871.000000	 98.341270  
870.000000	 98.378436  
869.000000	 98.419841  
868.000000	 98.465692  
867.000000	 98.516800  
866.000000	 98.569507  
865.000000	 98.614863  
864.000000	 98.647506  
863.000000	 98.672848  
862.000000	 98.700957  
861.000000	 98.734729  
860.000000	 98.768333  
859.000000	 98.796415  
858.000000	 98.820440  
857.000000	 98.845547  
856.000000	 98.874835  
855.000000	 98.908091  
854.000000	 98.943176  
853.000000	 98.976509  
852.000000	 99.003896  
851.000000	 99.023682  
850.000000	 99.039500  
849.000000	 99.057839  
848.000000	 99.081332  
847.000000	 99.105143  
846.000000	 99.121658  
845.000000	 99.128635  
844.000000	 99.130853  
843.000000	 99.133603  
842.000000	 99.137049  
841.000000	 99.137898  
840.000000	 99.133704  
839.000000	 99.123367  
838.000000	 99.106203  
837.000000	 99.083926  
836.000000	 99.061848  
835.000000	 99.044341  
834.000000	 99.030170  
833.000000	 99.016406  
832.000000	 99.005986  
831.000000	 99.005803  
830.000000	 99.016283  
829.000000	 99.028492  
828.000000	 99.034736  
827.000000	 99.037615  
826.000000	 99.044353  
825.000000	 99.055207  
824.000000	 99.062895  
823.000000	 99.062922  
822.000000	 99.059700  
821.000000	 99.060919  
820.000000	 99.068507  
819.000000	 99.076929  
818.000000	 99.079669  
817.000000	 99.075744  
816.000000	 99.067870  
815.000000	 99.054198  
814.000000	 99.025229  
813.000000	 98.971495  
812.000000	 98.891789  
811.000000	 98.789939  
810.000000	 98.664869  
809.000000	 98.508744  
808.000000	 98.315900  
807.000000	 98.090076  
806.000000	 97.842059  
805.000000	 97.584478  
804.000000	 97.331114  
803.000000	 97.096675  
802.000000	 96.892599  
801.000000	 96.724750  
800.000000	 96.597065  
799.000000	 96.514005  
798.000000	 96.477538  
797.000000	 96.484653  
796.000000	 96.527856  
795.000000	 96.594559  
794.000000	 96.668259  
793.000000	 96.736758  
792.000000	 96.798806  
791.000000	 96.857676  
790.000000	 96.909724  
789.000000	 96.944663  
788.000000	 96.954970  
787.000000	 96.938425  
786.000000	 96.893212  
785.000000	 96.818747  
784.000000	 96.722394  
783.000000	 96.618695  
782.000000	 96.519890  
781.000000	 96.431945  
780.000000	 96.360059  
779.000000	 96.311374  
778.000000	 96.290799  
777.000000	 96.299921  
776.000000	 96.340221  
775.000000	 96.410317  
774.000000	 96.499535  
773.000000	 96.591768  
772.000000	 96.677519  
771.000000	 96.756950  
770.000000	 96.831617  
769.000000	 96.899509  
768.000000	 96.958174  
767.000000	 97.006710  
766.000000	 97.044831  
765.000000	 97.075502  
764.000000	 97.106961  
763.000000	 97.144752  
762.000000	 97.182242  
761.000000	 97.207262  
760.000000	 97.219189  
759.000000	 97.231934  
758.000000	 97.258152  
757.000000	 97.296517  
756.000000	 97.335666  
755.000000	 97.364800  
754.000000	 97.380354  
753.000000	 97.389095  
752.000000	 97.405596  
751.000000	 97.440325  
750.000000	 97.488228  
749.000000	 97.533384  
748.000000	 97.564976  
747.000000	 97.584538  
746.000000	 97.600115  
745.000000	 97.620438  
744.000000	 97.653383  
743.000000	 97.701552  
742.000000	 97.758398  
741.000000	 97.815175  
740.000000	 97.870979  
739.000000	 97.929093  
738.000000	 97.985430  
737.000000	 98.029500  
736.000000	 98.056510  
735.000000	 98.070473  
734.000000	 98.076607  
733.000000	 98.080073  
732.000000	 98.091328  
731.000000	 98.120482  
730.000000	 98.163196  
729.000000	 98.202392  
728.000000	 98.226846  
727.000000	 98.239879  
726.000000	 98.248150  
725.000000	 98.251494  
724.000000	 98.248351  
723.000000	 98.242945  
722.000000	 98.241664  
721.000000	 98.248170  
720.000000	 98.265634  
719.000000	 98.297388  
718.000000	 98.341080  
717.000000	 98.387000  
716.000000	 98.425216  
715.000000	 98.450932  
714.000000	 98.463743  
713.000000	 98.468207  
712.000000	 98.475232  
711.000000	 98.494742  
710.000000	 98.523762  
709.000000	 98.548102  
708.000000	 98.557579  
707.000000	 98.553724  
706.000000	 98.542169  
705.000000	 98.523865  
704.000000	 98.496304  
703.000000	 98.457573  
702.000000	 98.405047  
701.000000	 98.334400  
700.000000	 98.241942  
699.000000	 98.124922  
698.000000	 97.984399  
697.000000	 97.834488  
696.000000	 97.705063  
695.000000	 97.625016  
694.000000	 97.601653  
693.000000	 97.625450  
692.000000	 97.688890  
691.000000	 97.784735  
690.000000	 97.891426  
689.000000	 97.980279  
688.000000	 98.041723  
687.000000	 98.087882  
686.000000	 98.124300  
685.000000	 98.140958  
684.000000	 98.137505  
683.000000	 98.135005  
682.000000	 98.153569  
681.000000	 98.193270  
680.000000	 98.242149  
679.000000	 98.287242  
678.000000	 98.314502  
677.000000	 98.319304  
676.000000	 98.320656  
675.000000	 98.344209  
674.000000	 98.389998  
673.000000	 98.429668  
672.000000	 98.438552  
671.000000	 98.415908  
670.000000	 98.373198  
669.000000	 98.336677  
668.000000	 98.346518  
667.000000	 98.400088  
666.000000	 98.460626  
665.000000	 98.507338  
664.000000	 98.536284  
663.000000	 98.570077  
662.000000	 98.622172  
661.000000	 98.670986  
660.000000	 98.683007  
659.000000	 98.655430  
658.000000	 98.612237  
657.000000	 98.570421  
656.000000	 98.529885  
655.000000	 98.493338  
654.000000	 98.474153  
653.000000	 98.474832  
652.000000	 98.478517  
651.000000	 98.471957  
650.000000	 98.461764  

