4000.000000	99.120208 
3999.000000	99.115279 
3998.000000	99.110499 
3997.000000	99.108891 
3996.000000	99.110543 
3995.000000	99.113122 
3994.000000	99.114621 
3993.000000	99.114945 
3992.000000	99.115003 
3991.000000	99.115026 
3990.000000	99.114188 
3989.000000	99.111551 
3988.000000	99.107226 
3987.000000	99.102784 
3986.000000	99.100488 
3985.000000	99.101694 
3984.000000	99.105767 
3983.000000	99.110822 
3982.000000	99.115530 
3981.000000	99.119905 
3980.000000	99.124348 
3979.000000	99.128415 
3978.000000	99.130913 
3977.000000	99.130965 
3976.000000	99.128631 
3975.000000	99.124660 
3974.000000	99.119985 
3973.000000	99.115547 
3972.000000	99.112320 
3971.000000	99.111316 
3970.000000	99.113392 
3969.000000	99.118407 
3968.000000	99.124643 
3967.000000	99.129449 
3966.000000	99.130975 
3965.000000	99.129288 
3964.000000	99.125951 
3963.000000	99.122923 
3962.000000	99.121651 
3961.000000	99.122354 
3960.000000	99.123520 
3959.000000	99.122801 
3958.000000	99.119548 
3957.000000	99.115867 
3956.000000	99.114731 
3955.000000	99.116870 
3954.000000	99.120213 
3953.000000	99.122045 
3952.000000	99.121101 
3951.000000	99.118076 
3950.000000	99.114371 
3949.000000	99.110896 
3948.000000	99.108203 
3947.000000	99.107341 
3946.000000	99.109337 
3945.000000	99.113654 
3944.000000	99.117882 
3943.000000	99.119522 
3942.000000	99.118252 
3941.000000	99.115988 
3940.000000	99.114084 
3939.000000	99.111971 
3938.000000	99.109282 
3937.000000	99.106854 
3936.000000	99.105661 
3935.000000	99.105516 
3934.000000	99.106110 
3933.000000	99.108272 
3932.000000	99.112518 
3931.000000	99.117524 
3930.000000	99.120841 
3929.000000	99.121198 
3928.000000	99.119354 
3927.000000	99.116272 
3926.000000	99.112374 
3925.000000	99.108892 
3924.000000	99.108354 
3923.000000	99.111453 
3922.000000	99.114803 
3921.000000	99.115036 
3920.000000	99.113450 
3919.000000	99.113416 
3918.000000	99.114852 
3917.000000	99.114573 
3916.000000	99.111607 
3915.000000	99.108448 
3914.000000	99.106975 
3913.000000	99.106685 
3912.000000	99.106787 
3911.000000	99.106589 
3910.000000	99.105913 
3909.000000	99.104925 
3908.000000	99.105159 
3907.000000	99.108064 
3906.000000	99.113126 
3905.000000	99.117415 
3904.000000	99.118440 
3903.000000	99.117537 
3902.000000	99.117166 
3901.000000	99.115796 
3900.000000	99.110297 
3899.000000	99.101771 
3898.000000	99.094549 
3897.000000	99.090454 
3896.000000	99.087690 
3895.000000	99.086060 
3894.000000	99.089312 
3893.000000	99.098676 
3892.000000	99.108340 
3891.000000	99.111551 
3890.000000	99.111983 
3889.000000	99.115037 
3888.000000	99.117916 
3887.000000	99.116123 
3886.000000	99.110369 
3885.000000	99.105519 
3884.000000	99.106666 
3883.000000	99.110769 
3882.000000	99.110917 
3881.000000	99.106958 
3880.000000	99.103851 
3879.000000	99.106099 
3878.000000	99.113789 
3877.000000	99.120842 
3876.000000	99.122281 
3875.000000	99.118207 
3874.000000	99.112484 
3873.000000	99.110010 
3872.000000	99.109627 
3871.000000	99.104117 
3870.000000	99.091743 
3869.000000	99.083710 
3868.000000	99.091092 
3867.000000	99.105492 
3866.000000	99.112152 
3865.000000	99.110988 
3864.000000	99.110203 
3863.000000	99.111518 
3862.000000	99.111145 
3861.000000	99.107217 
3860.000000	99.101922 
3859.000000	99.094256 
3858.000000	99.081238 
3857.000000	99.064518 
3856.000000	99.055068 
3855.000000	99.064229 
3854.000000	99.081190 
3853.000000	99.081175 
3852.000000	99.074876 
3851.000000	99.083658 
3850.000000	99.097403 
3849.000000	99.104664 
3848.000000	99.108055 
3847.000000	99.111772 
3846.000000	99.115429 
3845.000000	99.117651 
3844.000000	99.118964 
3843.000000	99.120555 
3842.000000	99.122765 
3841.000000	99.123713 
3840.000000	99.122412 
3839.000000	99.119893 
3838.000000	99.117507 
3837.000000	99.114987 
3836.000000	99.112491 
3835.000000	99.110090 
3834.000000	99.107465 
3833.000000	99.105071 
3832.000000	99.104349 
3831.000000	99.106514 
3830.000000	99.111433 
3829.000000	99.116547 
3828.000000	99.118328 
3827.000000	99.115342 
3826.000000	99.111108 
3825.000000	99.111267 
3824.000000	99.117549 
3823.000000	99.126337 
3822.000000	99.131195 
3821.000000	99.125644 
3820.000000	99.116858 
3819.000000	99.115863 
3818.000000	99.116318 
3817.000000	99.110231 
3816.000000	99.100989 
3815.000000	99.097655 
3814.000000	99.103458 
3813.000000	99.108669 
3812.000000	99.104543 
3811.000000	99.096746 
3810.000000	99.095408 
3809.000000	99.102249 
3808.000000	99.109496 
3807.000000	99.109940 
3806.000000	99.107691 
3805.000000	99.110623 
3804.000000	99.115035 
3803.000000	99.113284 
3802.000000	99.104966 
3801.000000	99.094456 
3800.000000	99.091585 
3799.000000	99.097111 
3798.000000	99.099128 
3797.000000	99.094321 
3796.000000	99.090062 
3795.000000	99.092546 
3794.000000	99.099929 
3793.000000	99.106651 
3792.000000	99.110681 
3791.000000	99.113459 
3790.000000	99.114967 
3789.000000	99.114581 
3788.000000	99.114330 
3787.000000	99.117496 
3786.000000	99.123667 
3785.000000	99.129029 
3784.000000	99.131874 
3783.000000	99.133973 
3782.000000	99.136004 
3781.000000	99.135840 
3780.000000	99.131681 
3779.000000	99.124471 
3778.000000	99.118040 
3777.000000	99.114143 
3776.000000	99.110877 
3775.000000	99.107745 
3774.000000	99.108447 
3773.000000	99.115106 
3772.000000	99.123541 
3771.000000	99.126456 
3770.000000	99.121730 
3769.000000	99.115506 
3768.000000	99.114752 
3767.000000	99.117954 
3766.000000	99.119283 
3765.000000	99.117795 
3764.000000	99.118036 
3763.000000	99.122543 
3762.000000	99.128320 
3761.000000	99.133187 
3760.000000	99.138508 
3759.000000	99.142691 
3758.000000	99.141681 
3757.000000	99.135179 
3756.000000	99.127680 
3755.000000	99.122184 
3754.000000	99.118665 
3753.000000	99.118543 
3752.000000	99.123347 
3751.000000	99.126077 
3750.000000	99.116993 
3749.000000	99.100987 
3748.000000	99.089277 
3747.000000	99.082000 
3746.000000	99.075394 
3745.000000	99.069403 
3744.000000	99.065152 
3743.000000	99.073598 
3742.000000	99.094776 
3741.000000	99.107179 
3740.000000	99.104927 
3739.000000	99.101725 
3738.000000	99.107213 
3737.000000	99.116592 
3736.000000	99.120930 
3735.000000	99.118689 
3734.000000	99.112983 
3733.000000	99.105164 
3732.000000	99.098373 
3731.000000	99.099595 
3730.000000	99.109688 
3729.000000	99.119717 
3728.000000	99.122473 
3727.000000	99.121554 
3726.000000	99.124590 
3725.000000	99.132277 
3724.000000	99.136971 
3723.000000	99.133380 
3722.000000	99.124737 
3721.000000	99.117707 
3720.000000	99.115391 
3719.000000	99.115338 
3718.000000	99.114203 
3717.000000	99.111227 
3716.000000	99.107572 
3715.000000	99.103368 
3714.000000	99.098447 
3713.000000	99.093986 
3712.000000	99.089582 
3711.000000	99.083344 
3710.000000	99.077178 
3709.000000	99.073633 
3708.000000	99.071204 
3707.000000	99.067071 
3706.000000	99.060721 
3705.000000	99.053742 
3704.000000	99.047941 
3703.000000	99.044016 
3702.000000	99.040655 
3701.000000	99.036553 
3700.000000	99.033045 
3699.000000	99.029948 
3698.000000	99.023602 
3697.000000	99.012763 
3696.000000	99.001393 
3695.000000	98.993785 
3694.000000	98.989621 
3693.000000	98.986646 
3692.000000	98.984952 
3691.000000	98.984541 
3690.000000	98.980929 
3689.000000	98.968956 
3688.000000	98.954131 
3687.000000	98.948530 
3686.000000	98.953096 
3685.000000	98.958131 
3684.000000	98.959190 
3683.000000	98.960401 
3682.000000	98.964548 
3681.000000	98.966493 
3680.000000	98.959161 
3679.000000	98.943556 
3678.000000	98.926245 
3677.000000	98.912661 
3676.000000	98.902005 
3675.000000	98.893480 
3674.000000	98.896655 
3673.000000	98.910742 
3672.000000	98.920256 
3671.000000	98.923009 
3670.000000	98.925853 
3669.000000	98.929839 
3668.000000	98.934392 
3667.000000	98.936644 
3666.000000	98.934678 
3665.000000	98.931730 
3664.000000	98.931315 
3663.000000	98.933297 
3662.000000	98.935577 
3661.000000	98.937062 
3660.000000	98.938753 
3659.000000	98.942615 
3658.000000	98.948863 
3657.000000	98.955455 
3656.000000	98.960387 
3655.000000	98.967282 
3654.000000	98.978476 
3653.000000	98.989287 
3652.000000	98.997802 
3651.000000	99.008292 
3650.000000	99.018266 
3649.000000	99.016579 
3648.000000	99.003099 
3647.000000	98.991507 
3646.000000	98.991120 
3645.000000	98.999553 
3644.000000	99.010272 
3643.000000	99.019813 
3642.000000	99.028699 
3641.000000	99.037719 
3640.000000	99.046374 
3639.000000	99.054297 
3638.000000	99.063001 
3637.000000	99.074001 
3636.000000	99.084410 
3635.000000	99.088300 
3634.000000	99.083466 
3633.000000	99.074703 
3632.000000	99.068075 
3631.000000	99.066440 
3630.000000	99.069079 
3629.000000	99.068607 
3628.000000	99.062417 
3627.000000	99.062203 
3626.000000	99.070293 
3625.000000	99.078954 
3624.000000	99.087079 
3623.000000	99.096466 
3622.000000	99.104974 
3621.000000	99.108648 
3620.000000	99.106540 
3619.000000	99.101255 
3618.000000	99.098202 
3617.000000	99.101310 
3616.000000	99.107675 
3615.000000	99.111087 
3614.000000	99.108301 
3613.000000	99.100708 
3612.000000	99.092362 
3611.000000	99.086440 
3610.000000	99.083917 
3609.000000	99.085255 
3608.000000	99.089970 
3607.000000	99.095955 
3606.000000	99.100720 
3605.000000	99.102965 
3604.000000	99.103770 
3603.000000	99.105022 
3602.000000	99.106776 
3601.000000	99.108492 
3600.000000	99.111636 
3599.000000	99.117947 
3598.000000	99.125545 
3597.000000	99.130571 
3596.000000	99.130318 
3595.000000	99.125220 
3594.000000	99.118247 
3593.000000	99.114046 
3592.000000	99.115734 
3591.000000	99.123210 
3590.000000	99.133704 
3589.000000	99.142767 
3588.000000	99.144543 
3587.000000	99.136865 
3586.000000	99.125914 
3585.000000	99.118921 
3584.000000	99.116738 
3583.000000	99.116980 
3582.000000	99.117662 
3581.000000	99.117590 
3580.000000	99.115969 
3579.000000	99.112691 
3578.000000	99.107994 
3577.000000	99.103029 
3576.000000	99.099762 
3575.000000	99.099681 
3574.000000	99.102457 
3573.000000	99.106287 
3572.000000	99.109812 
3571.000000	99.112938 
3570.000000	99.116130 
3569.000000	99.119032 
3568.000000	99.119853 
3567.000000	99.116980 
3566.000000	99.112513 
3565.000000	99.110381 
3564.000000	99.110531 
3563.000000	99.110404 
3562.000000	99.109172 
3561.000000	99.107881 
3560.000000	99.107472 
3559.000000	99.107871 
3558.000000	99.108355 
3557.000000	99.108504 
3556.000000	99.109045 
3555.000000	99.111000 
3554.000000	99.114199 
3553.000000	99.117003 
3552.000000	99.118040 
3551.000000	99.117438 
3550.000000	99.115853 
3549.000000	99.113689 
3548.000000	99.112093 
3547.000000	99.112654 
3546.000000	99.115321 
3545.000000	99.118225 
3544.000000	99.119773 
3543.000000	99.119692 
3542.000000	99.118583 
3541.000000	99.117381 
3540.000000	99.117428 
3539.000000	99.119705 
3538.000000	99.123769 
3537.000000	99.127693 
3536.000000	99.129468 
3535.000000	99.128479 
3534.000000	99.125329 
3533.000000	99.121403 
3532.000000	99.118320 
3531.000000	99.117254 
3530.000000	99.117701 
3529.000000	99.118114 
3528.000000	99.118065 
3527.000000	99.119029 
3526.000000	99.122073 
3525.000000	99.125828 
3524.000000	99.127851 
3523.000000	99.127378 
3522.000000	99.125778 
3521.000000	99.124368 
3520.000000	99.122928 
3519.000000	99.120629 
3518.000000	99.117633 
3517.000000	99.115169 
3516.000000	99.114255 
3515.000000	99.115168 
3514.000000	99.117845 
3513.000000	99.122038 
3512.000000	99.126560 
3511.000000	99.129287 
3510.000000	99.128531 
3509.000000	99.124741 
3508.000000	99.120403 
3507.000000	99.117953 
3506.000000	99.117630 
3505.000000	99.117497 
3504.000000	99.115166 
3503.000000	99.110328 
3502.000000	99.106095 
3501.000000	99.106840 
3500.000000	99.113670 
3499.000000	99.122250 
3498.000000	99.125844 
3497.000000	99.121213 
3496.000000	99.111794 
3495.000000	99.104571 
3494.000000	99.103824 
3493.000000	99.108104 
3492.000000	99.112757 
3491.000000	99.114610 
3490.000000	99.114298 
3489.000000	99.114783 
3488.000000	99.118048 
3487.000000	99.123174 
3486.000000	99.127357 
3485.000000	99.128662 
3484.000000	99.127663 
3483.000000	99.126468 
3482.000000	99.126113 
3481.000000	99.125392 
3480.000000	99.122483 
3479.000000	99.117604 
3478.000000	99.113448 
3477.000000	99.112575 
3476.000000	99.114509 
3475.000000	99.115940 
3474.000000	99.114358 
3473.000000	99.110932 
3472.000000	99.109222 
3471.000000	99.111512 
3470.000000	99.117004 
3469.000000	99.123025 
3468.000000	99.126978 
3467.000000	99.127340 
3466.000000	99.124084 
3465.000000	99.118731 
3464.000000	99.113514 
3463.000000	99.109784 
3462.000000	99.107180 
3461.000000	99.104656 
3460.000000	99.102105 
3459.000000	99.100687 
3458.000000	99.101615 
3457.000000	99.104813 
3456.000000	99.108795 
3455.000000	99.111875 
3454.000000	99.113353 
3453.000000	99.113761 
3452.000000	99.114085 
3451.000000	99.115024 
3450.000000	99.116645 
3449.000000	99.118437 
3448.000000	99.119365 
3447.000000	99.118254 
3446.000000	99.114940 
3445.000000	99.111116 
3444.000000	99.109288 
3443.000000	99.110578 
3442.000000	99.113653 
3441.000000	99.116274 
3440.000000	99.117772 
3439.000000	99.119175 
3438.000000	99.121073 
3437.000000	99.122427 
3436.000000	99.122114 
3435.000000	99.120968 
3434.000000	99.121120 
3433.000000	99.123527 
3432.000000	99.126764 
3431.000000	99.128491 
3430.000000	99.127509 
3429.000000	99.124418 
3428.000000	99.120689 
3427.000000	99.117334 
3426.000000	99.114515 
3425.000000	99.112192 
3424.000000	99.110764 
3423.000000	99.110680 
3422.000000	99.111556 
3421.000000	99.112156 
3420.000000	99.111564 
3419.000000	99.110261 
3418.000000	99.109825 
3417.000000	99.111523 
3416.000000	99.115058 
3415.000000	99.118618 
3414.000000	99.120339 
3413.000000	99.120005 
3412.000000	99.119236 
3411.000000	99.119885 
3410.000000	99.122427 
3409.000000	99.125809 
3408.000000	99.128282 
3407.000000	99.128156 
3406.000000	99.124664 
3405.000000	99.119099 
3404.000000	99.114861 
3403.000000	99.115289 
3402.000000	99.120791 
3401.000000	99.128229 
3400.000000	99.133349 
3399.000000	99.134072 
3398.000000	99.131826 
3397.000000	99.129841 
3396.000000	99.129929 
3395.000000	99.130966 
3394.000000	99.130762 
3393.000000	99.129034 
3392.000000	99.127802 
3391.000000	99.128772 
3390.000000	99.131250 
3389.000000	99.133078 
3388.000000	99.132916 
3387.000000	99.130979 
3386.000000	99.128216 
3385.000000	99.125604 
3384.000000	99.123903 
3383.000000	99.123269 
3382.000000	99.122960 
3381.000000	99.121846 
3380.000000	99.119257 
3379.000000	99.115451 
3378.000000	99.111720 
3377.000000	99.110259 
3376.000000	99.113167 
3375.000000	99.120714 
3374.000000	99.130611 
3373.000000	99.139403 
3372.000000	99.144740 
3371.000000	99.146352 
3370.000000	99.145370 
3369.000000	99.143212 
3368.000000	99.140899 
3367.000000	99.138724 
3366.000000	99.136291 
3365.000000	99.133099 
3364.000000	99.129342 
3363.000000	99.126110 
3362.000000	99.124643 
3361.000000	99.125107 
3360.000000	99.126010 
3359.000000	99.125232 
3358.000000	99.122200 
3357.000000	99.118889 
3356.000000	99.117961 
3355.000000	99.119771 
3354.000000	99.122029 
3353.000000	99.122788 
3352.000000	99.122962 
3351.000000	99.125248 
3350.000000	99.131107 
3349.000000	99.139452 
3348.000000	99.147810 
3347.000000	99.153881 
3346.000000	99.156242 
3345.000000	99.154704 
3344.000000	99.150385 
3343.000000	99.144929 
3342.000000	99.139444 
3341.000000	99.134562 
3340.000000	99.131273 
3339.000000	99.130742 
3338.000000	99.132821 
3337.000000	99.135408 
3336.000000	99.136077 
3335.000000	99.134394 
3334.000000	99.132176 
3333.000000	99.131503 
3332.000000	99.132790 
3331.000000	99.134816 
3330.000000	99.136311 
3329.000000	99.137237 
3328.000000	99.138506 
3327.000000	99.140582 
3326.000000	99.142605 
3325.000000	99.143127 
3324.000000	99.141675 
3323.000000	99.139369 
3322.000000	99.137760 
3321.000000	99.137094 
3320.000000	99.135957 
3319.000000	99.132996 
3318.000000	99.128924 
3317.000000	99.126389 
3316.000000	99.127491 
3315.000000	99.131625 
3314.000000	99.136103 
3313.000000	99.138786 
3312.000000	99.139734 
3311.000000	99.140437 
3310.000000	99.142117 
3309.000000	99.145034 
3308.000000	99.148888 
3307.000000	99.153111 
3306.000000	99.156609 
3305.000000	99.157645 
3304.000000	99.154622 
3303.000000	99.147563 
3302.000000	99.139028 
3301.000000	99.133095 
3300.000000	99.132606 
3299.000000	99.137075 
3298.000000	99.143394 
3297.000000	99.148600 
3296.000000	99.151782 
3295.000000	99.153628 
3294.000000	99.154934 
3293.000000	99.155932 
3292.000000	99.156467 
3291.000000	99.156259 
3290.000000	99.155075 
3289.000000	99.153010 
3288.000000	99.150637 
3287.000000	99.148769 
3286.000000	99.148057 
3285.000000	99.148776 
3284.000000	99.150703 
3283.000000	99.153106 
3282.000000	99.155060 
3281.000000	99.155803 
3280.000000	99.154682 
3279.000000	99.151184 
3278.000000	99.145690 
3277.000000	99.140148 
3276.000000	99.137183 
3275.000000	99.138074 
3274.000000	99.141823 
3273.000000	99.146171 
3272.000000	99.148966 
3271.000000	99.148601 
3270.000000	99.144334 
3269.000000	99.137198 
3268.000000	99.130295 
3267.000000	99.127163 
3266.000000	99.129298 
3265.000000	99.135212 
3264.000000	99.141781 
3263.000000	99.146538 
3262.000000	99.149156 
3261.000000	99.151029 
3260.000000	99.153437 
3259.000000	99.156127 
3258.000000	99.157687 
3257.000000	99.156951 
3256.000000	99.153804 
3255.000000	99.149123 
3254.000000	99.144671 
3253.000000	99.142706 
3252.000000	99.144410 
3251.000000	99.148353 
3250.000000	99.151402 
3249.000000	99.151750 
3248.000000	99.150432 
3247.000000	99.149421 
3246.000000	99.148987 
3245.000000	99.147848 
3244.000000	99.145621 
3243.000000	99.144209 
3242.000000	99.146434 
3241.000000	99.153298 
3240.000000	99.162324 
3239.000000	99.168625 
3238.000000	99.168454 
3237.000000	99.162358 
3236.000000	99.154698 
3235.000000	99.149764 
3234.000000	99.148610 
3233.000000	99.149738 
3232.000000	99.151791 
3231.000000	99.154533 
3230.000000	99.157546 
3229.000000	99.159299 
3228.000000	99.158122 
3227.000000	99.153733 
3226.000000	99.147541 
3225.000000	99.141750 
3224.000000	99.138247 
3223.000000	99.137826 
3222.000000	99.139958 
3221.000000	99.143263 
3220.000000	99.146486 
3219.000000	99.149263 
3218.000000	99.151991 
3217.000000	99.154883 
3216.000000	99.157252 
3215.000000	99.157950 
3214.000000	99.156554 
3213.000000	99.153939 
3212.000000	99.151646 
3211.000000	99.150941 
3210.000000	99.152446 
3209.000000	99.156073 
3208.000000	99.160831 
3207.000000	99.165023 
3206.000000	99.167377 
3205.000000	99.168082 
3204.000000	99.168336 
3203.000000	99.168995 
3202.000000	99.170237 
3201.000000	99.172246 
3200.000000	99.175129 
3199.000000	99.177701 
3198.000000	99.177515 
3197.000000	99.173313 
3196.000000	99.167190 
3195.000000	99.163131 
3194.000000	99.163033 
3193.000000	99.164878 
3192.000000	99.165338 
3191.000000	99.163696 
3190.000000	99.162487 
3189.000000	99.164375 
3188.000000	99.169108 
3187.000000	99.173765 
3186.000000	99.175393 
3185.000000	99.172989 
3184.000000	99.167665 
3183.000000	99.161936 
3182.000000	99.158558 
3181.000000	99.158685 
3180.000000	99.160601 
3179.000000	99.161048 
3178.000000	99.158450 
3177.000000	99.154309 
3176.000000	99.151100 
3175.000000	99.149818 
3174.000000	99.150367 
3173.000000	99.153203 
3172.000000	99.158804 
3171.000000	99.165681 
3170.000000	99.170688 
3169.000000	99.172090 
3168.000000	99.171402 
3167.000000	99.171564 
3166.000000	99.173921 
3165.000000	99.177458 
3164.000000	99.180339 
3163.000000	99.181411 
3162.000000	99.180603 
3161.000000	99.178786 
3160.000000	99.177499 
3159.000000	99.178147 
3158.000000	99.180837 
3157.000000	99.184001 
3156.000000	99.185548 
3155.000000	99.184728 
3154.000000	99.182870 
3153.000000	99.182068 
3152.000000	99.183093 
3151.000000	99.184808 
3150.000000	99.185627 
3149.000000	99.185156 
3148.000000	99.184187 
3147.000000	99.183516 
3146.000000	99.183160 
3145.000000	99.182535 
3144.000000	99.181144 
3143.000000	99.179398 
3142.000000	99.178903 
3141.000000	99.181244 
3140.000000	99.185902 
3139.000000	99.190102 
3138.000000	99.191701 
3137.000000	99.191676 
3136.000000	99.192498 
3135.000000	99.194431 
3134.000000	99.195077 
3133.000000	99.192916 
3132.000000	99.189781 
3131.000000	99.188816 
3130.000000	99.190744 
3129.000000	99.193142 
3128.000000	99.193168 
3127.000000	99.190404 
3126.000000	99.187106 
3125.000000	99.186055 
3124.000000	99.188050 
3123.000000	99.191153 
3122.000000	99.192502 
3121.000000	99.191196 
3120.000000	99.189248 
3119.000000	99.189421 
3118.000000	99.192270 
3117.000000	99.195595 
3116.000000	99.196720 
3115.000000	99.195072 
3114.000000	99.192338 
3113.000000	99.190271 
3112.000000	99.188817 
3111.000000	99.186807 
3110.000000	99.184106 
3109.000000	99.182097 
3108.000000	99.181743 
3107.000000	99.182104 
3106.000000	99.181585 
3105.000000	99.180235 
3104.000000	99.179841 
3103.000000	99.181853 
3102.000000	99.186078 
3101.000000	99.191288 
3100.000000	99.196001 
3099.000000	99.198469 
3098.000000	99.197317 
3097.000000	99.193108 
3096.000000	99.188584 
3095.000000	99.186566 
3094.000000	99.187862 
3093.000000	99.191350 
3092.000000	99.195082 
3091.000000	99.196893 
3090.000000	99.195315 
3089.000000	99.191362 
3088.000000	99.188804 
3087.000000	99.191044 
3086.000000	99.197456 
3085.000000	99.203828 
3084.000000	99.206692 
3083.000000	99.206326 
3082.000000	99.205368 
3081.000000	99.205462 
3080.000000	99.205980 
3079.000000	99.205419 
3078.000000	99.203074 
3077.000000	99.199337 
3076.000000	99.195173 
3075.000000	99.191787 
3074.000000	99.190329 
3073.000000	99.191273 
3072.000000	99.194028 
3071.000000	99.197519 
3070.000000	99.200971 
3069.000000	99.203545 
3068.000000	99.203412 
3067.000000	99.198635 
3066.000000	99.190002 
3065.000000	99.182068 
3064.000000	99.179622 
3063.000000	99.182954 
3062.000000	99.187803 
3061.000000	99.190109 
3060.000000	99.189682 
3059.000000	99.189046 
3058.000000	99.190142 
3057.000000	99.193029 
3056.000000	99.196691 
3055.000000	99.199938 
3054.000000	99.201866 
3053.000000	99.202405 
3052.000000	99.202303 
3051.000000	99.202046 
3050.000000	99.201032 
3049.000000	99.198163 
3048.000000	99.192871 
3047.000000	99.185350 
3046.000000	99.176566 
3045.000000	99.168595 
3044.000000	99.163961 
3043.000000	99.163478 
3042.000000	99.164983 
3041.000000	99.165038 
3040.000000	99.161925 
3039.000000	99.156647 
3038.000000	99.151494 
3037.000000	99.148284 
3036.000000	99.147436 
3035.000000	99.147621 
3034.000000	99.146287 
3033.000000	99.141346 
3032.000000	99.132640 
3031.000000	99.121506 
3030.000000	99.109109 
3029.000000	99.095742 
3028.000000	99.081620 
3027.000000	99.067613 
3026.000000	99.054806 
3025.000000	99.043615 
3024.000000	99.033504 
3023.000000	99.023435 
3022.000000	99.012591 
3021.000000	99.000859 
3020.000000	98.988670 
3019.000000	98.976329 
3018.000000	98.963750 
3017.000000	98.950955 
3016.000000	98.938356 
3015.000000	98.926122 
3014.000000	98.913501 
3013.000000	98.899082 
3012.000000	98.881538 
3011.000000	98.860043 
3010.000000	98.834806 
3009.000000	98.807893 
3008.000000	98.782961 
3007.000000	98.763032 
3006.000000	98.748126 
3005.000000	98.735298 
3004.000000	98.720895 
3003.000000	98.702745 
3002.000000	98.681068 
3001.000000	98.658529 
3000.000000	98.639053 
2999.000000	98.625057 
2998.000000	98.615408 
2997.000000	98.607135 
2996.000000	98.599163 
2995.000000	98.592386 
2994.000000	98.584861 
2993.000000	98.569205 
2992.000000	98.538443 
2991.000000	98.495279 
2990.000000	98.453318 
2989.000000	98.427045 
2988.000000	98.420795 
2987.000000	98.428018 
2986.000000	98.439623 
2985.000000	98.450932 
2984.000000	98.461220 
2983.000000	98.469897 
2982.000000	98.475343 
2981.000000	98.476586 
2980.000000	98.474472 
2979.000000	98.471004 
2978.000000	98.468114 
2977.000000	98.466753 
2976.000000	98.466350 
2975.000000	98.465209 
2974.000000	98.462175 
2973.000000	98.457989 
2972.000000	98.454671 
2971.000000	98.453846 
2970.000000	98.456242 
2969.000000	98.462456 
2968.000000	98.473093 
2967.000000	98.487742 
2966.000000	98.504501 
2965.000000	98.521047 
2964.000000	98.536076 
2963.000000	98.549662 
2962.000000	98.562527 
2961.000000	98.574995 
2960.000000	98.586389 
2959.000000	98.595584 
2958.000000	98.602587 
2957.000000	98.609296 
2956.000000	98.617756 
2955.000000	98.627566 
2954.000000	98.636119 
2953.000000	98.642291 
2952.000000	98.649100 
2951.000000	98.661230 
2950.000000	98.679464 
2949.000000	98.698496 
2948.000000	98.711241 
2947.000000	98.715243 
2946.000000	98.714318 
2945.000000	98.713969 
2944.000000	98.716250 
2943.000000	98.719576 
2942.000000	98.722280 
2941.000000	98.724421 
2940.000000	98.726035 
2939.000000	98.725679 
2938.000000	98.722256 
2937.000000	98.717554 
2936.000000	98.715495 
2935.000000	98.718775 
2934.000000	98.726783 
2933.000000	98.736379 
2932.000000	98.743785 
2931.000000	98.746114 
2930.000000	98.742525 
2929.000000	98.734610 
2928.000000	98.725412 
2927.000000	98.717785 
2926.000000	98.713512 
2925.000000	98.712962 
2924.000000	98.714746 
2923.000000	98.716266 
2922.000000	98.715748 
2921.000000	98.713661 
2920.000000	98.711379 
2919.000000	98.708917 
2918.000000	98.705041 
2917.000000	98.699229 
2916.000000	98.692248 
2915.000000	98.684944 
2914.000000	98.677901 
2913.000000	98.672391 
2912.000000	98.669955 
2911.000000	98.670207 
2910.000000	98.670181 
2909.000000	98.666982 
2908.000000	98.660509 
2907.000000	98.652709 
2906.000000	98.644491 
2905.000000	98.634252 
2904.000000	98.619817 
2903.000000	98.601984 
2902.000000	98.586430 
2901.000000	98.581328 
2900.000000	98.591654 
2899.000000	98.614662 
2898.000000	98.640908 
2897.000000	98.660766 
2896.000000	98.670485 
2895.000000	98.673136 
2894.000000	98.674715 
2893.000000	98.679272 
2892.000000	98.686570 
2891.000000	98.693342 
2890.000000	98.696790 
2889.000000	98.697112 
2888.000000	98.696732 
2887.000000	98.697691 
2886.000000	98.700620 
2885.000000	98.705854 
2884.000000	98.714046 
2883.000000	98.725137 
2882.000000	98.737761 
2881.000000	98.750502 
2880.000000	98.763128 
2879.000000	98.776088 
2878.000000	98.789480 
2877.000000	98.803037 
2876.000000	98.816359 
2875.000000	98.828327 
2874.000000	98.837006 
2873.000000	98.841369 
2872.000000	98.843038 
2871.000000	98.845476 
2870.000000	98.851301 
2869.000000	98.860784 
2868.000000	98.872730 
2867.000000	98.886128 
2866.000000	98.900808 
2865.000000	98.916931 
2864.000000	98.933980 
2863.000000	98.950103 
2862.000000	98.962777 
2861.000000	98.970798 
2860.000000	98.975886 
2859.000000	98.981906 
2858.000000	98.991984 
2857.000000	99.006076 
2856.000000	99.021140 
2855.000000	99.033738 
2854.000000	99.042682 
2853.000000	99.049340 
2852.000000	99.055621 
2851.000000	99.062107 
2850.000000	99.068371 
2849.000000	99.074420 
2848.000000	99.080952 
2847.000000	99.088257 
2846.000000	99.095640 
2845.000000	99.102138 
2844.000000	99.107352 
2843.000000	99.111611 
2842.000000	99.115914 
2841.000000	99.121494 
2840.000000	99.128504 
2839.000000	99.134949 
2838.000000	99.137954 
2837.000000	99.136680 
2836.000000	99.133445 
2835.000000	99.131674 
2834.000000	99.133294 
2833.000000	99.138210 
2832.000000	99.145179 
2831.000000	99.152451 
2830.000000	99.158362 
2829.000000	99.162334 
2828.000000	99.165152 
2827.000000	99.167696 
2826.000000	99.169672 
2825.000000	99.170136 
2824.000000	99.169027 
2823.000000	99.167695 
2822.000000	99.167992 
2821.000000	99.170972 
2820.000000	99.176088 
2819.000000	99.181463 
2818.000000	99.185382 
2817.000000	99.187728 
2816.000000	99.189518 
2815.000000	99.191088 
2814.000000	99.191728 
2813.000000	99.191387 
2812.000000	99.191446 
2811.000000	99.192771 
2810.000000	99.193954 
2809.000000	99.192942 
2808.000000	99.190109 
2807.000000	99.188346 
2806.000000	99.189904 
2805.000000	99.194095 
2804.000000	99.198386 
2803.000000	99.201002 
2802.000000	99.202063 
2801.000000	99.202656 
2800.000000	99.203329 
2799.000000	99.203542 
2798.000000	99.202558 
2797.000000	99.200717 
2796.000000	99.199406 
2795.000000	99.199579 
2794.000000	99.200717 
2793.000000	99.201614 
2792.000000	99.201808 
2791.000000	99.201820 
2790.000000	99.202397 
2789.000000	99.204012 
2788.000000	99.206669 
2787.000000	99.209613 
2786.000000	99.211610 
2785.000000	99.212300 
2784.000000	99.212945 
2783.000000	99.214958 
2782.000000	99.217864 
2781.000000	99.219725 
2780.000000	99.219615 
2779.000000	99.218685 
2778.000000	99.218522 
2777.000000	99.219414 
2776.000000	99.220616 
2775.000000	99.221368 
2774.000000	99.220987 
2773.000000	99.218799 
2772.000000	99.215026 
2771.000000	99.211407 
2770.000000	99.210045 
2769.000000	99.211608 
2768.000000	99.215198 
2767.000000	99.219695 
2766.000000	99.224430 
2765.000000	99.228639 
2764.000000	99.231289 
2763.000000	99.231986 
2762.000000	99.231540 
2761.000000	99.231265 
2760.000000	99.232041 
2759.000000	99.234172 
2758.000000	99.237484 
2757.000000	99.241126 
2756.000000	99.243845 
2755.000000	99.245072 
2754.000000	99.245304 
2753.000000	99.244870 
2752.000000	99.243012 
2751.000000	99.239215 
2750.000000	99.234984 
2749.000000	99.232774 
2748.000000	99.232876 
2747.000000	99.232768 
2746.000000	99.230283 
2745.000000	99.226416 
2744.000000	99.224043 
2743.000000	99.224616 
2742.000000	99.227235 
2741.000000	99.230499 
2740.000000	99.233949 
2739.000000	99.237534 
2738.000000	99.240707 
2737.000000	99.242680 
2736.000000	99.243214 
2735.000000	99.242787 
2734.000000	99.242048 
2733.000000	99.241255 
2732.000000	99.240243 
2731.000000	99.239061 
2730.000000	99.238532 
2729.000000	99.239815 
2728.000000	99.243228 
2727.000000	99.247773 
2726.000000	99.251894 
2725.000000	99.254334 
2724.000000	99.254425 
2723.000000	99.252445 
2722.000000	99.250053 
2721.000000	99.249454 
2720.000000	99.251362 
2719.000000	99.254253 
2718.000000	99.256100 
2717.000000	99.256242 
2716.000000	99.255216 
2715.000000	99.253899 
2714.000000	99.253586 
2713.000000	99.255669 
2712.000000	99.259780 
2711.000000	99.263094 
2710.000000	99.263221 
2709.000000	99.261351 
2708.000000	99.260785 
2707.000000	99.262511 
2706.000000	99.264069 
2705.000000	99.263106 
2704.000000	99.260303 
2703.000000	99.258075 
2702.000000	99.257735 
2701.000000	99.258756 
2700.000000	99.259873 
2699.000000	99.260035 
2698.000000	99.258943 
2697.000000	99.257372 
2696.000000	99.256696 
2695.000000	99.257772 
2694.000000	99.260423 
2693.000000	99.263650 
2692.000000	99.265666 
2691.000000	99.264345 
2690.000000	99.259290 
2689.000000	99.253661 
2688.000000	99.252246 
2687.000000	99.256729 
2686.000000	99.263708 
2685.000000	99.268056 
2684.000000	99.267549 
2683.000000	99.263860 
2682.000000	99.260166 
2681.000000	99.258694 
2680.000000	99.259756 
2679.000000	99.262043 
2678.000000	99.264012 
2677.000000	99.265460 
2676.000000	99.267404 
2675.000000	99.270226 
2674.000000	99.272712 
2673.000000	99.273416 
2672.000000	99.272208 
2671.000000	99.269788 
2670.000000	99.266305 
2669.000000	99.261368 
2668.000000	99.255271 
2667.000000	99.249624 
2666.000000	99.246720 
2665.000000	99.248291 
2664.000000	99.254338 
2663.000000	99.262836 
2662.000000	99.270833 
2661.000000	99.276034 
2660.000000	99.277230 
2659.000000	99.273827 
2658.000000	99.266250 
2657.000000	99.257076 
2656.000000	99.250463 
2655.000000	99.249312 
2654.000000	99.253015 
2653.000000	99.258137 
2652.000000	99.260997 
2651.000000	99.259977 
2650.000000	99.256500 
2649.000000	99.253990 
2648.000000	99.254732 
2647.000000	99.257361 
2646.000000	99.258417 
2645.000000	99.256627 
2644.000000	99.254206 
2643.000000	99.253415 
2642.000000	99.253543 
2641.000000	99.252576 
2640.000000	99.250647 
2639.000000	99.250239 
2638.000000	99.253385 
2637.000000	99.259622 
2636.000000	99.266171 
2635.000000	99.269576 
2634.000000	99.268204 
2633.000000	99.264126 
2632.000000	99.261657 
2631.000000	99.263016 
2630.000000	99.266248 
2629.000000	99.268143 
2628.000000	99.267926 
2627.000000	99.266985 
2626.000000	99.266436 
2625.000000	99.266701 
2624.000000	99.268275 
2623.000000	99.270878 
2622.000000	99.272574 
2621.000000	99.271816 
2620.000000	99.269890 
2619.000000	99.269277 
2618.000000	99.269879 
2617.000000	99.269019 
2616.000000	99.265324 
2615.000000	99.260579 
2614.000000	99.257235 
2613.000000	99.255895 
2612.000000	99.256006 
2611.000000	99.257562 
2610.000000	99.260908 
2609.000000	99.265474 
2608.000000	99.269602 
2607.000000	99.271783 
2606.000000	99.272129 
2605.000000	99.272512 
2604.000000	99.274387 
2603.000000	99.276077 
2602.000000	99.273686 
2601.000000	99.266141 
2600.000000	99.258197 
2599.000000	99.256366 
2598.000000	99.262212 
2597.000000	99.271490 
2596.000000	99.279296 
2595.000000	99.283627 
2594.000000	99.284054 
2593.000000	99.280163 
2592.000000	99.272956 
2591.000000	99.265766 
2590.000000	99.261863 
2589.000000	99.261941 
2588.000000	99.264762 
2587.000000	99.268754 
2586.000000	99.271706 
2585.000000	99.270585 
2584.000000	99.264127 
2583.000000	99.255389 
2582.000000	99.249750 
2581.000000	99.249815 
2580.000000	99.253230 
2579.000000	99.255655 
2578.000000	99.254872 
2577.000000	99.251806 
2576.000000	99.248812 
2575.000000	99.247972 
2574.000000	99.250413 
2573.000000	99.255781 
2572.000000	99.261702 
2571.000000	99.264444 
2570.000000	99.261440 
2569.000000	99.253942 
2568.000000	99.246812 
2567.000000	99.244775 
2566.000000	99.248378 
2565.000000	99.253827 
2564.000000	99.256823 
2563.000000	99.256151 
2562.000000	99.253524 
2561.000000	99.251147 
2560.000000	99.250589 
2559.000000	99.253241 
2558.000000	99.259519 
2557.000000	99.266722 
2556.000000	99.269743 
2555.000000	99.266217 
2554.000000	99.260240 
2553.000000	99.258542 
2552.000000	99.262919 
2551.000000	99.268932 
2550.000000	99.272584 
2549.000000	99.275026 
2548.000000	99.278575 
2547.000000	99.280957 
2546.000000	99.277570 
2545.000000	99.268735 
2544.000000	99.260796 
2543.000000	99.259186 
2542.000000	99.263184 
2541.000000	99.268323 
2540.000000	99.271180 
2539.000000	99.270316 
2538.000000	99.265075 
2537.000000	99.256160 
2536.000000	99.246581 
2535.000000	99.240056 
2534.000000	99.238537 
2533.000000	99.241906 
2532.000000	99.249112 
2531.000000	99.258449 
2530.000000	99.267488 
2529.000000	99.274081 
2528.000000	99.277418 
2527.000000	99.277844 
2526.000000	99.276509 
2525.000000	99.275720 
2524.000000	99.278267 
2523.000000	99.284908 
2522.000000	99.292896 
2521.000000	99.297942 
2520.000000	99.297499 
2519.000000	99.291960 
2518.000000	99.283731 
2517.000000	99.275916 
2516.000000	99.270871 
2515.000000	99.268841 
2514.000000	99.268228 
2513.000000	99.267514 
2512.000000	99.266124 
2511.000000	99.263443 
2510.000000	99.258977 
2509.000000	99.254623 
2508.000000	99.254813 
2507.000000	99.262044 
2506.000000	99.272913 
2505.000000	99.280584 
2504.000000	99.281154 
2503.000000	99.276282 
2502.000000	99.270178 
2501.000000	99.266025 
2500.000000	99.265347 
2499.000000	99.268676 
2498.000000	99.275561 
2497.000000	99.284439 
2496.000000	99.292968 
2495.000000	99.298275 
2494.000000	99.297407 
2493.000000	99.288998 
2492.000000	99.275003 
2491.000000	99.260074 
2490.000000	99.248741 
2489.000000	99.243224 
2488.000000	99.243279 
2487.000000	99.246990 
2486.000000	99.251642 
2485.000000	99.255092 
2484.000000	99.257122 
2483.000000	99.259075 
2482.000000	99.261894 
2481.000000	99.265007 
2480.000000	99.267278 
2479.000000	99.268266 
2478.000000	99.268031 
2477.000000	99.266420 
2476.000000	99.263490 
2475.000000	99.260392 
2474.000000	99.258823 
2473.000000	99.259338 
2472.000000	99.261025 
2471.000000	99.263269 
2470.000000	99.266861 
2469.000000	99.272206 
2468.000000	99.276956 
2467.000000	99.277193 
2466.000000	99.271629 
2465.000000	99.263537 
2464.000000	99.257628 
2463.000000	99.255706 
2462.000000	99.256032 
2461.000000	99.255945 
2460.000000	99.254073 
2459.000000	99.250841 
2458.000000	99.248261 
2457.000000	99.248840 
2456.000000	99.253195 
2455.000000	99.258653 
2454.000000	99.261244 
2453.000000	99.259110 
2452.000000	99.253373 
2451.000000	99.246381 
2450.000000	99.240348 
2449.000000	99.236980 
2448.000000	99.236562 
2447.000000	99.237511 
2446.000000	99.238411 
2445.000000	99.240305 
2444.000000	99.245218 
2443.000000	99.252572 
2442.000000	99.259131 
2441.000000	99.262718 
2440.000000	99.263970 
2439.000000	99.264132 
2438.000000	99.263504 
2437.000000	99.262776 
2436.000000	99.263269 
2435.000000	99.264163 
2434.000000	99.261598 
2433.000000	99.252853 
2432.000000	99.240490 
2431.000000	99.230453 
2430.000000	99.226568 
2429.000000	99.228292 
2428.000000	99.233255 
2427.000000	99.240132 
2426.000000	99.248455 
2425.000000	99.256485 
2424.000000	99.260363 
2423.000000	99.256542 
2422.000000	99.245910 
2421.000000	99.234900 
2420.000000	99.230787 
2419.000000	99.235413 
2418.000000	99.244401 
2417.000000	99.252170 
2416.000000	99.256027 
2415.000000	99.255626 
2414.000000	99.251379 
2413.000000	99.244982 
2412.000000	99.239517 
2411.000000	99.237022 
2410.000000	99.236865 
2409.000000	99.237803 
2408.000000	99.240404 
2407.000000	99.245845 
2406.000000	99.253266 
2405.000000	99.260017 
2404.000000	99.264176 
2403.000000	99.265509 
2402.000000	99.264427 
2401.000000	99.261326 
2400.000000	99.256832 
2399.000000	99.251705 
2398.000000	99.246601 
2397.000000	99.242475 
2396.000000	99.240720 
2395.000000	99.242095 
2394.000000	99.245785 
2393.000000	99.250079 
2392.000000	99.253763 
2391.000000	99.256638 
2390.000000	99.259276 
2389.000000	99.262569 
2388.000000	99.266791 
2387.000000	99.270750 
2386.000000	99.272662 
2385.000000	99.272271 
2384.000000	99.271329 
2383.000000	99.271616 
2382.000000	99.273391 
2381.000000	99.275999 
2380.000000	99.278597 
2379.000000	99.279576 
2378.000000	99.276952 
2377.000000	99.271087 
2376.000000	99.266061 
2375.000000	99.266197 
2374.000000	99.271550 
2373.000000	99.278494 
2372.000000	99.284552 
2371.000000	99.290619 
2370.000000	99.297919 
2369.000000	99.304605 
2368.000000	99.306458 
2367.000000	99.300477 
2366.000000	99.287950 
2365.000000	99.274996 
2364.000000	99.269259 
2363.000000	99.273348 
2362.000000	99.282090 
2361.000000	99.288358 
2360.000000	99.289307 
2359.000000	99.286965 
2358.000000	99.284755 
2357.000000	99.284529 
2356.000000	99.287153 
2355.000000	99.291416 
2354.000000	99.293863 
2353.000000	99.292204 
2352.000000	99.288198 
2351.000000	99.285999 
2350.000000	99.286026 
2349.000000	99.285926 
2348.000000	99.285173 
2347.000000	99.285153 
2346.000000	99.286067 
2345.000000	99.284443 
2344.000000	99.279039 
2343.000000	99.273298 
2342.000000	99.271428 
2341.000000	99.274440 
2340.000000	99.278946 
2339.000000	99.281788 
2338.000000	99.281909 
2337.000000	99.280597 
2336.000000	99.279561 
2335.000000	99.279654 
2334.000000	99.280566 
2333.000000	99.282083 
2332.000000	99.283891 
2331.000000	99.284803 
2330.000000	99.281998 
2329.000000	99.274945 
2328.000000	99.267576 
2327.000000	99.263875 
2326.000000	99.264286 
2325.000000	99.264512 
2324.000000	99.262178 
2323.000000	99.259411 
2322.000000	99.261269 
2321.000000	99.270085 
2320.000000	99.281801 
2319.000000	99.289621 
2318.000000	99.289313 
2317.000000	99.282790 
2316.000000	99.274524 
2315.000000	99.267477 
2314.000000	99.262374 
2313.000000	99.260459 
2312.000000	99.264102 
2311.000000	99.273878 
2310.000000	99.287103 
2309.000000	99.299087 
2308.000000	99.305774 
2307.000000	99.304190 
2306.000000	99.293830 
2305.000000	99.277660 
2304.000000	99.261184 
2303.000000	99.248503 
2302.000000	99.240707 
2301.000000	99.237479 
2300.000000	99.238181 
2299.000000	99.240449 
2298.000000	99.240879 
2297.000000	99.238909 
2296.000000	99.238287 
2295.000000	99.241664 
2294.000000	99.245769 
2293.000000	99.244201 
2292.000000	99.235293 
2291.000000	99.224128 
2290.000000	99.217365 
2289.000000	99.217441 
2288.000000	99.222094 
2287.000000	99.227133 
2286.000000	99.229193 
2285.000000	99.227093 
2284.000000	99.221725 
2283.000000	99.214588 
2282.000000	99.206385 
2281.000000	99.197195 
2280.000000	99.187610 
2279.000000	99.179722 
2278.000000	99.177057 
2277.000000	99.182628 
2276.000000	99.195400 
2275.000000	99.209441 
2274.000000	99.218374 
2273.000000	99.220277 
2272.000000	99.216264 
2271.000000	99.206015 
2270.000000	99.189746 
2269.000000	99.174532 
2268.000000	99.172162 
2267.000000	99.187006 
2266.000000	99.209614 
2265.000000	99.225580 
2264.000000	99.228109 
2263.000000	99.220060 
2262.000000	99.208494 
2261.000000	99.200870 
2260.000000	99.201990 
2259.000000	99.209209 
2258.000000	99.213286 
2257.000000	99.208602 
2256.000000	99.199875 
2255.000000	99.194349 
2254.000000	99.190750 
2253.000000	99.182589 
2252.000000	99.170359 
2251.000000	99.163179 
2250.000000	99.167952 
2249.000000	99.182185 
2248.000000	99.198035 
2247.000000	99.208665 
2246.000000	99.210167 
2245.000000	99.202281 
2244.000000	99.189253 
2243.000000	99.177186 
2242.000000	99.169272 
2241.000000	99.164785 
2240.000000	99.161635 
2239.000000	99.157573 
2238.000000	99.150436 
2237.000000	99.140551 
2236.000000	99.131714 
2235.000000	99.126407 
2234.000000	99.121588 
2233.000000	99.113364 
2232.000000	99.104621 
2231.000000	99.103243 
2230.000000	99.112856 
2229.000000	99.129466 
2228.000000	99.147143 
2227.000000	99.162598 
2226.000000	99.173552 
2225.000000	99.177245 
2224.000000	99.172829 
2223.000000	99.163138 
2222.000000	99.153232 
2221.000000	99.148224 
2220.000000	99.150963 
2219.000000	99.159211 
2218.000000	99.166497 
2217.000000	99.168912 
2216.000000	99.169871 
2215.000000	99.174652 
2214.000000	99.181536 
2213.000000	99.182589 
2212.000000	99.173298 
2211.000000	99.158452 
2210.000000	99.148637 
2209.000000	99.152571 
2208.000000	99.170465 
2207.000000	99.192035 
2206.000000	99.203309 
2205.000000	99.198794 
2204.000000	99.185115 
2203.000000	99.170526 
2202.000000	99.155661 
2201.000000	99.138774 
2200.000000	99.123898 
2199.000000	99.116062 
2198.000000	99.112369 
2197.000000	99.106759 
2196.000000	99.101798 
2195.000000	99.106698 
2194.000000	99.123541 
2193.000000	99.143284 
2192.000000	99.155934 
2191.000000	99.157632 
2190.000000	99.147966 
2189.000000	99.129268 
2188.000000	99.110241 
2187.000000	99.102002 
2186.000000	99.107493 
2185.000000	99.120289 
2184.000000	99.134698 
2183.000000	99.149944 
2182.000000	99.163354 
2181.000000	99.168799 
2180.000000	99.165921 
2179.000000	99.162709 
2178.000000	99.164207 
2177.000000	99.164870 
2176.000000	99.156260 
2175.000000	99.137311 
2174.000000	99.113407 
2173.000000	99.090295 
2172.000000	99.072675 
2171.000000	99.064414 
2170.000000	99.066118 
2169.000000	99.074724 
2168.000000	99.087374 
2167.000000	99.102622 
2166.000000	99.116671 
2165.000000	99.123357 
2164.000000	99.120680 
2163.000000	99.113257 
2162.000000	99.106290 
2161.000000	99.101649 
2160.000000	99.101220 
2159.000000	99.107897 
2158.000000	99.120052 
2157.000000	99.131060 
2156.000000	99.137363 
2155.000000	99.140930 
2154.000000	99.142234 
2153.000000	99.137256 
2152.000000	99.123824 
2151.000000	99.106751 
2150.000000	99.095076 
2149.000000	99.096814 
2148.000000	99.115036 
2147.000000	99.143742 
2146.000000	99.167613 
2145.000000	99.172794 
2144.000000	99.160920 
2143.000000	99.147682 
2142.000000	99.145994 
2141.000000	99.154994 
2140.000000	99.165969 
2139.000000	99.172861 
2138.000000	99.174063 
2137.000000	99.169647 
2136.000000	99.161905 
2135.000000	99.156005 
2134.000000	99.156461 
2133.000000	99.163680 
2132.000000	99.174542 
2131.000000	99.183871 
2130.000000	99.185457 
2129.000000	99.176348 
2128.000000	99.161941 
2127.000000	99.152594 
2126.000000	99.152878 
2125.000000	99.157569 
2124.000000	99.160469 
2123.000000	99.163010 
2122.000000	99.169988 
2121.000000	99.180013 
2120.000000	99.185788 
2119.000000	99.183319 
2118.000000	99.176263 
2117.000000	99.170500 
2116.000000	99.168032 
2115.000000	99.167700 
2114.000000	99.169191 
2113.000000	99.173490 
2112.000000	99.179651 
2111.000000	99.183332 
2110.000000	99.180281 
2109.000000	99.171563 
2108.000000	99.163915 
2107.000000	99.163040 
2106.000000	99.166574 
2105.000000	99.165314 
2104.000000	99.152463 
2103.000000	99.131177 
2102.000000	99.112656 
2101.000000	99.107093 
2100.000000	99.115836 
2099.000000	99.131242 
2098.000000	99.144015 
2097.000000	99.150972 
2096.000000	99.155029 
2095.000000	99.157424 
2094.000000	99.153128 
2093.000000	99.137506 
2092.000000	99.115664 
2091.000000	99.100168 
2090.000000	99.098565 
2089.000000	99.106262 
2088.000000	99.113195 
2087.000000	99.114940 
2086.000000	99.115044 
2085.000000	99.118476 
2084.000000	99.125486 
2083.000000	99.131645 
2082.000000	99.132564 
2081.000000	99.128457 
2080.000000	99.124059 
2079.000000	99.123472 
2078.000000	99.126081 
2077.000000	99.129256 
2076.000000	99.133939 
2075.000000	99.143825 
2074.000000	99.158380 
2073.000000	99.170619 
2072.000000	99.173931 
2071.000000	99.168542 
2070.000000	99.159253 
2069.000000	99.149311 
2068.000000	99.139050 
2067.000000	99.128835 
2066.000000	99.120584 
2065.000000	99.116303 
2064.000000	99.116464 
2063.000000	99.119818 
2062.000000	99.124349 
2061.000000	99.129007 
2060.000000	99.134677 
2059.000000	99.142252 
2058.000000	99.149578 
2057.000000	99.152146 
2056.000000	99.147693 
2055.000000	99.138644 
2054.000000	99.129310 
2053.000000	99.122087 
2052.000000	99.116904 
2051.000000	99.112971 
2050.000000	99.110067 
2049.000000	99.108366 
2048.000000	99.107089 
2047.000000	99.103365 
2046.000000	99.094093 
2045.000000	99.080510 
2044.000000	99.069211 
2043.000000	99.065721 
2042.000000	99.068004 
2041.000000	99.069501 
2040.000000	99.068104 
2039.000000	99.067925 
2038.000000	99.071702 
2037.000000	99.075937 
2036.000000	99.075380 
2035.000000	99.069252 
2034.000000	99.061171 
2033.000000	99.055382 
2032.000000	99.054274 
2031.000000	99.056904 
2030.000000	99.058652 
2029.000000	99.054674 
2028.000000	99.044939 
2027.000000	99.034458 
2026.000000	99.028687 
2025.000000	99.030573 
2024.000000	99.039713 
2023.000000	99.050314 
2022.000000	99.051681 
2021.000000	99.037407 
2020.000000	99.015959 
2019.000000	99.005864 
2018.000000	99.016759 
2017.000000	99.038044 
2016.000000	99.050235 
2015.000000	99.045422 
2014.000000	99.032249 
2013.000000	99.024258 
2012.000000	99.028113 
2011.000000	99.041749 
2010.000000	99.059681 
2009.000000	99.077383 
2008.000000	99.091084 
2007.000000	99.096190 
2006.000000	99.089982 
2005.000000	99.077722 
2004.000000	99.071263 
2003.000000	99.077177 
2002.000000	99.088885 
2001.000000	99.094413 
2000.000000	99.090316 
1999.000000	99.082345 
1998.000000	99.074807 
1997.000000	99.067652 
1996.000000	99.063860 
1995.000000	99.070875 
1994.000000	99.090515 
1993.000000	99.112123 
1992.000000	99.120962 
1991.000000	99.112327 
1990.000000	99.093505 
1989.000000	99.075054 
1988.000000	99.064298 
1987.000000	99.063108 
1986.000000	99.067330 
1985.000000	99.070653 
1984.000000	99.072051 
1983.000000	99.076782 
1982.000000	99.086948 
1981.000000	99.094220 
1980.000000	99.087380 
1979.000000	99.065925 
1978.000000	99.042133 
1977.000000	99.028386 
1976.000000	99.024780 
1975.000000	99.022204 
1974.000000	99.016056 
1973.000000	99.013609 
1972.000000	99.026254 
1971.000000	99.054587 
1970.000000	99.083281 
1969.000000	99.093553 
1968.000000	99.081637 
1967.000000	99.062928 
1966.000000	99.055791 
1965.000000	99.063868 
1964.000000	99.076598 
1963.000000	99.082769 
1962.000000	99.079701 
1961.000000	99.072492 
1960.000000	99.068507 
1959.000000	99.072318 
1958.000000	99.083194 
1957.000000	99.095729 
1956.000000	99.103792 
1955.000000	99.104985 
1954.000000	99.101499 
1953.000000	99.096798 
1952.000000	99.091638 
1951.000000	99.084717 
1950.000000	99.076883 
1949.000000	99.072680 
1948.000000	99.076250 
1947.000000	99.085278 
1946.000000	99.090829 
1945.000000	99.084906 
1944.000000	99.068138 
1943.000000	99.049911 
1942.000000	99.040994 
1941.000000	99.045081 
1940.000000	99.056722 
1939.000000	99.067125 
1938.000000	99.072080 
1937.000000	99.075159 
1936.000000	99.082423 
1935.000000	99.093673 
1934.000000	99.102314 
1933.000000	99.105212 
1932.000000	99.107898 
1931.000000	99.116945 
1930.000000	99.129728 
1929.000000	99.137342 
1928.000000	99.137182 
1927.000000	99.135443 
1926.000000	99.137603 
1925.000000	99.141168 
1924.000000	99.140477 
1923.000000	99.135347 
1922.000000	99.130643 
1921.000000	99.129289 
1920.000000	99.129082 
1919.000000	99.125621 
1918.000000	99.116558 
1917.000000	99.104979 
1916.000000	99.097967 
1915.000000	99.099320 
1914.000000	99.105962 
1913.000000	99.112326 
1912.000000	99.116183 
1911.000000	99.119048 
1910.000000	99.120874 
1909.000000	99.119481 
1908.000000	99.116440 
1907.000000	99.116908 
1906.000000	99.122617 
1905.000000	99.128355 
1904.000000	99.128517 
1903.000000	99.124360 
1902.000000	99.120516 
1901.000000	99.118711 
1900.000000	99.118049 
1899.000000	99.118172 
1898.000000	99.119869 
1897.000000	99.123213 
1896.000000	99.127108 
1895.000000	99.130140 
1894.000000	99.130508 
1893.000000	99.127827 
1892.000000	99.125507 
1891.000000	99.128123 
1890.000000	99.134738 
1889.000000	99.138472 
1888.000000	99.135903 
1887.000000	99.131409 
1886.000000	99.130246 
1885.000000	99.133009 
1884.000000	99.137717 
1883.000000	99.143413 
1882.000000	99.148678 
1881.000000	99.150794 
1880.000000	99.150232 
1879.000000	99.151925 
1878.000000	99.159626 
1877.000000	99.170952 
1876.000000	99.179809 
1875.000000	99.182594 
1874.000000	99.179435 
1873.000000	99.171682 
1872.000000	99.161921 
1871.000000	99.154363 
1870.000000	99.151539 
1869.000000	99.150849 
1868.000000	99.149603 
1867.000000	99.150413 
1866.000000	99.154732 
1865.000000	99.157625 
1864.000000	99.153064 
1863.000000	99.140935 
1862.000000	99.127309 
1861.000000	99.118985 
1860.000000	99.119634 
1859.000000	99.129367 
1858.000000	99.144269 
1857.000000	99.157391 
1856.000000	99.164116 
1855.000000	99.166345 
1854.000000	99.168475 
1853.000000	99.170774 
1852.000000	99.170813 
1851.000000	99.168064 
1850.000000	99.165529 
1849.000000	99.166907 
1848.000000	99.172175 
1847.000000	99.177019 
1846.000000	99.176244 
1845.000000	99.168844 
1844.000000	99.160482 
1843.000000	99.159265 
1842.000000	99.165846 
1841.000000	99.173410 
1840.000000	99.177021 
1839.000000	99.176313 
1838.000000	99.172840 
1837.000000	99.167798 
1836.000000	99.163135 
1835.000000	99.162212 
1834.000000	99.166450 
1833.000000	99.173513 
1832.000000	99.179240 
1831.000000	99.179691 
1830.000000	99.174315 
1829.000000	99.168770 
1828.000000	99.168834 
1827.000000	99.172964 
1826.000000	99.175511 
1825.000000	99.173292 
1824.000000	99.168345 
1823.000000	99.164664 
1822.000000	99.162288 
1821.000000	99.158854 
1820.000000	99.155013 
1819.000000	99.154809 
1818.000000	99.160542 
1817.000000	99.167805 
1816.000000	99.170801 
1815.000000	99.170744 
1814.000000	99.172987 
1813.000000	99.179258 
1812.000000	99.185552 
1811.000000	99.188810 
1810.000000	99.190726 
1809.000000	99.191699 
1808.000000	99.189330 
1807.000000	99.183718 
1806.000000	99.178316 
1805.000000	99.175489 
1804.000000	99.174847 
1803.000000	99.175318 
1802.000000	99.175020 
1801.000000	99.171685 
1800.000000	99.165549 
1799.000000	99.161515 
1798.000000	99.164105 
1797.000000	99.171480 
1796.000000	99.179057 
1795.000000	99.185067 
1794.000000	99.189854 
1793.000000	99.191757 
1792.000000	99.187799 
1791.000000	99.181604 
1790.000000	99.179631 
1789.000000	99.181242 
1788.000000	99.182876 
1787.000000	99.184561 
1786.000000	99.188337 
1785.000000	99.192705 
1784.000000	99.193930 
1783.000000	99.191683 
1782.000000	99.187654 
1781.000000	99.183535 
1780.000000	99.179339 
1779.000000	99.174928 
1778.000000	99.171946 
1777.000000	99.171958 
1776.000000	99.175327 
1775.000000	99.179544 
1774.000000	99.181324 
1773.000000	99.179958 
1772.000000	99.176634 
1771.000000	99.173757 
1770.000000	99.172818 
1769.000000	99.172596 
1768.000000	99.171919 
1767.000000	99.170941 
1766.000000	99.170328 
1765.000000	99.170670 
1764.000000	99.171905 
1763.000000	99.173587 
1762.000000	99.174420 
1761.000000	99.174548 
1760.000000	99.174850 
1759.000000	99.175591 
1758.000000	99.177534 
1757.000000	99.182125 
1756.000000	99.189097 
1755.000000	99.194442 
1754.000000	99.195320 
1753.000000	99.194687 
1752.000000	99.197666 
1751.000000	99.201844 
1750.000000	99.200372 
1749.000000	99.193000 
1748.000000	99.186231 
1747.000000	99.184425 
1746.000000	99.185873 
1745.000000	99.188391 
1744.000000	99.190869 
1743.000000	99.191952 
1742.000000	99.190968 
1741.000000	99.188934 
1740.000000	99.187701 
1739.000000	99.189056 
1738.000000	99.192469 
1737.000000	99.194661 
1736.000000	99.194733 
1735.000000	99.197609 
1734.000000	99.200997 
1733.000000	99.199840 
1732.000000	99.197066 
1731.000000	99.193429 
1730.000000	99.188532 
1729.000000	99.184110 
1728.000000	99.181586 
1727.000000	99.180925 
1726.000000	99.181548 
1725.000000	99.184080 
1724.000000	99.187247 
1723.000000	99.189363 
1722.000000	99.190539 
1721.000000	99.191085 
1720.000000	99.191723 
1719.000000	99.195397 
1718.000000	99.202427 
1717.000000	99.204622 
1716.000000	99.198122 
1715.000000	99.191306 
1714.000000	99.191051 
1713.000000	99.194583 
1712.000000	99.195995 
1711.000000	99.194676 
1710.000000	99.193853 
1709.000000	99.194623 
1708.000000	99.195562 
1707.000000	99.196158 
1706.000000	99.197746 
1705.000000	99.197924 
1704.000000	99.193290 
1703.000000	99.184643 
1702.000000	99.178678 
1701.000000	99.182782 
1700.000000	99.187428 
1699.000000	99.186812 
1698.000000	99.187645 
1697.000000	99.188405 
1696.000000	99.186447 
1695.000000	99.184477 
1694.000000	99.185759 
1693.000000	99.187926 
1692.000000	99.187535 
1691.000000	99.187560 
1690.000000	99.190845 
1689.000000	99.195130 
1688.000000	99.197287 
1687.000000	99.196021 
1686.000000	99.195694 
1685.000000	99.200850 
1684.000000	99.203492 
1683.000000	99.202146 
1682.000000	99.200954 
1681.000000	99.197066 
1680.000000	99.192906 
1679.000000	99.191564 
1678.000000	99.190637 
1677.000000	99.188569 
1676.000000	99.188426 
1675.000000	99.191540 
1674.000000	99.194967 
1673.000000	99.198449 
1672.000000	99.203021 
1671.000000	99.209476 
1670.000000	99.213213 
1669.000000	99.208359 
1668.000000	99.200061 
1667.000000	99.194675 
1666.000000	99.191688 
1665.000000	99.189730 
1664.000000	99.189955 
1663.000000	99.193284 
1662.000000	99.195921 
1661.000000	99.195553 
1660.000000	99.195430 
1659.000000	99.198639 
1658.000000	99.203754 
1657.000000	99.206077 
1656.000000	99.203049 
1655.000000	99.196819 
1654.000000	99.195137 
1653.000000	99.191289 
1652.000000	99.188152 
1651.000000	99.196254 
1650.000000	99.204367 
1649.000000	99.205710 
1648.000000	99.204686 
1647.000000	99.203216 
1646.000000	99.201782 
1645.000000	99.202816 
1644.000000	99.206509 
1643.000000	99.210728 
1642.000000	99.212994 
1641.000000	99.212153 
1640.000000	99.208985 
1639.000000	99.204790 
1638.000000	99.201343 
1637.000000	99.201969 
1636.000000	99.206952 
1635.000000	99.210925 
1634.000000	99.212170 
1633.000000	99.210890 
1632.000000	99.206261 
1631.000000	99.200601 
1630.000000	99.196637 
1629.000000	99.195412 
1628.000000	99.196979 
1627.000000	99.200222 
1626.000000	99.201834 
1625.000000	99.199991 
1624.000000	99.197168 
1623.000000	99.196487 
1622.000000	99.197673 
1621.000000	99.198719 
1620.000000	99.198476 
1619.000000	99.196607 
1618.000000	99.194296 
1617.000000	99.192209 
1616.000000	99.193439 
1615.000000	99.200566 
1614.000000	99.208373 
1613.000000	99.211907 
1612.000000	99.214056 
1611.000000	99.218790 
1610.000000	99.223158 
1609.000000	99.222576 
1608.000000	99.218962 
1607.000000	99.216835 
1606.000000	99.215742 
1605.000000	99.214121 
1604.000000	99.213674 
1603.000000	99.215137 
1602.000000	99.216286 
1601.000000	99.215888 
1600.000000	99.216041 
1599.000000	99.218291 
1598.000000	99.221338 
1597.000000	99.223952 
1596.000000	99.226277 
1595.000000	99.227457 
1594.000000	99.225267 
1593.000000	99.220546 
1592.000000	99.218108 
1591.000000	99.220493 
1590.000000	99.224124 
1589.000000	99.224991 
1588.000000	99.224624 
1587.000000	99.226536 
1586.000000	99.229884 
1585.000000	99.231258 
1584.000000	99.231578 
1583.000000	99.233144 
1582.000000	99.234479 
1581.000000	99.233272 
1580.000000	99.229925 
1579.000000	99.224730 
1578.000000	99.217429 
1577.000000	99.210820 
1576.000000	99.208721 
1575.000000	99.212538 
1574.000000	99.218179 
1573.000000	99.221069 
1572.000000	99.222252 
1571.000000	99.225891 
1570.000000	99.229971 
1569.000000	99.230171 
1568.000000	99.230404 
1567.000000	99.232651 
1566.000000	99.233588 
1565.000000	99.231502 
1564.000000	99.228461 
1563.000000	99.222288 
1562.000000	99.211032 
1561.000000	99.198125 
1560.000000	99.203717 
1559.000000	99.219065 
1558.000000	99.222969 
1557.000000	99.224918 
1556.000000	99.228354 
1555.000000	99.230830 
1554.000000	99.232057 
1553.000000	99.232201 
1552.000000	99.232236 
1551.000000	99.230910 
1550.000000	99.228166 
1549.000000	99.225461 
1548.000000	99.225048 
1547.000000	99.226640 
1546.000000	99.226782 
1545.000000	99.222475 
1544.000000	99.215819 
1543.000000	99.213981 
1542.000000	99.221993 
1541.000000	99.234956 
1540.000000	99.238689 
1539.000000	99.233293 
1538.000000	99.230272 
1537.000000	99.230038 
1536.000000	99.228901 
1535.000000	99.228963 
1534.000000	99.229865 
1533.000000	99.226625 
1532.000000	99.220222 
1531.000000	99.216792 
1530.000000	99.217972 
1529.000000	99.220077 
1528.000000	99.219616 
1527.000000	99.218392 
1526.000000	99.219852 
1525.000000	99.223165 
1524.000000	99.225194 
1523.000000	99.227198 
1522.000000	99.232474 
1521.000000	99.237458 
1520.000000	99.237896 
1519.000000	99.233815 
1518.000000	99.226024 
1517.000000	99.216564 
1516.000000	99.208501 
1515.000000	99.204283 
1514.000000	99.203663 
1513.000000	99.205578 
1512.000000	99.208158 
1511.000000	99.208347 
1510.000000	99.205709 
1509.000000	99.201992 
1508.000000	99.201483 
1507.000000	99.202705 
1506.000000	99.203140 
1505.000000	99.203834 
1504.000000	99.204695 
1503.000000	99.205018 
1502.000000	99.205534 
1501.000000	99.206307 
1500.000000	99.204997 
1499.000000	99.199186 
1498.000000	99.190562 
1497.000000	99.182123 
1496.000000	99.174621 
1495.000000	99.172346 
1494.000000	99.178978 
1493.000000	99.191393 
1492.000000	99.203881 
1491.000000	99.212355 
1490.000000	99.214387 
1489.000000	99.209710 
1488.000000	99.200267 
1487.000000	99.191044 
1486.000000	99.185206 
1485.000000	99.180082 
1484.000000	99.174374 
1483.000000	99.170087 
1482.000000	99.169818 
1481.000000	99.172412 
1480.000000	99.173828 
1479.000000	99.172652 
1478.000000	99.170589 
1477.000000	99.168373 
1476.000000	99.165230 
1475.000000	99.164066 
1474.000000	99.168858 
1473.000000	99.177056 
1472.000000	99.181170 
1471.000000	99.180555 
1470.000000	99.179430 
1469.000000	99.178163 
1468.000000	99.175567 
1467.000000	99.172829 
1466.000000	99.171834 
1465.000000	99.171962 
1464.000000	99.172151 
1463.000000	99.173022 
1462.000000	99.175236 
1461.000000	99.176922 
1460.000000	99.175720 
1459.000000	99.170354 
1458.000000	99.160884 
1457.000000	99.145545 
1456.000000	99.128067 
1455.000000	99.116172 
1454.000000	99.110404 
1453.000000	99.109563 
1452.000000	99.113623 
1451.000000	99.120917 
1450.000000	99.129147 
1449.000000	99.136287 
1448.000000	99.140068 
1447.000000	99.140841 
1446.000000	99.140797 
1445.000000	99.141889 
1444.000000	99.143797 
1443.000000	99.144754 
1442.000000	99.145250 
1441.000000	99.146938 
1440.000000	99.149647 
1439.000000	99.151428 
1438.000000	99.153935 
1437.000000	99.158526 
1436.000000	99.160995 
1435.000000	99.158388 
1434.000000	99.153233 
1433.000000	99.148368 
1432.000000	99.144985 
1431.000000	99.141825 
1430.000000	99.137453 
1429.000000	99.132584 
1428.000000	99.127471 
1427.000000	99.122043 
1426.000000	99.116516 
1425.000000	99.113280 
1424.000000	99.112884 
1423.000000	99.110394 
1422.000000	99.101849 
1421.000000	99.088794 
1420.000000	99.075060 
1419.000000	99.059947 
1418.000000	99.043948 
1417.000000	99.029901 
1416.000000	99.015235 
1415.000000	98.996541 
1414.000000	98.974879 
1413.000000	98.954417 
1412.000000	98.938200 
1411.000000	98.925314 
1410.000000	98.913965 
1409.000000	98.904010 
1408.000000	98.895756 
1407.000000	98.890198 
1406.000000	98.888335 
1405.000000	98.891551 
1404.000000	98.900670 
1403.000000	98.914151 
1402.000000	98.930475 
1401.000000	98.949649 
1400.000000	98.970477 
1399.000000	98.986074 
1398.000000	98.986520 
1397.000000	98.964872 
1396.000000	98.921751 
1395.000000	98.873018 
1394.000000	98.846941 
1393.000000	98.860455 
1392.000000	98.902241 
1391.000000	98.946993 
1390.000000	98.976878 
1389.000000	98.988249 
1388.000000	98.985901 
1387.000000	98.975674 
1386.000000	98.962767 
1385.000000	98.952007 
1384.000000	98.946042 
1383.000000	98.943773 
1382.000000	98.942480 
1381.000000	98.941231 
1380.000000	98.942468 
1379.000000	98.949203 
1378.000000	98.961316 
1377.000000	98.975880 
1376.000000	98.990042 
1375.000000	99.002326 
1374.000000	99.012821 
1373.000000	99.023992 
1372.000000	99.037771 
1371.000000	99.052619 
1370.000000	99.064624 
1369.000000	99.072063 
1368.000000	99.076988 
1367.000000	99.081772 
1366.000000	99.087123 
1365.000000	99.093513 
1364.000000	99.101822 
1363.000000	99.111070 
1362.000000	99.118055 
1361.000000	99.121221 
1360.000000	99.122881 
1359.000000	99.126638 
1358.000000	99.134034 
1357.000000	99.144004 
1356.000000	99.154043 
1355.000000	99.161578 
1354.000000	99.165788 
1353.000000	99.168279 
1352.000000	99.171069 
1351.000000	99.174975 
1350.000000	99.178876 
1349.000000	99.182064 
1348.000000	99.184888 
1347.000000	99.186722 
1346.000000	99.186381 
1345.000000	99.184645 
1344.000000	99.183957 
1343.000000	99.184962 
1342.000000	99.185923 
1341.000000	99.186134 
1340.000000	99.187436 
1339.000000	99.190899 
1338.000000	99.194762 
1337.000000	99.197512 
1336.000000	99.200037 
1335.000000	99.203067 
1334.000000	99.205110 
1333.000000	99.204675 
1332.000000	99.202724 
1331.000000	99.201187 
1330.000000	99.200467 
1329.000000	99.200248 
1328.000000	99.200929 
1327.000000	99.202337 
1326.000000	99.202271 
1325.000000	99.199200 
1324.000000	99.194834 
1323.000000	99.192105 
1322.000000	99.192104 
1321.000000	99.194315 
1320.000000	99.198381 
1319.000000	99.203632 
1318.000000	99.207929 
1317.000000	99.208896 
1316.000000	99.206184 
1315.000000	99.201539 
1314.000000	99.197192 
1313.000000	99.194774 
1312.000000	99.194878 
1311.000000	99.196786 
1310.000000	99.198973 
1309.000000	99.200397 
1308.000000	99.200819 
1307.000000	99.200122 
1306.000000	99.198139 
1305.000000	99.195919 
1304.000000	99.195494 
1303.000000	99.197492 
1302.000000	99.200186 
1301.000000	99.201607 
1300.000000	99.201684 
1299.000000	99.201605 
1298.000000	99.202231 
1297.000000	99.203796 
1296.000000	99.206186 
1295.000000	99.208463 
1294.000000	99.208984 
1293.000000	99.206936 
1292.000000	99.203130 
1291.000000	99.198909 
1290.000000	99.195036 
1289.000000	99.191986 
1288.000000	99.190161 
1287.000000	99.189092 
1286.000000	99.187472 
1285.000000	99.184729 
1284.000000	99.181508 
1283.000000	99.178007 
1282.000000	99.173194 
1281.000000	99.166603 
1280.000000	99.159801 
1279.000000	99.154631 
1278.000000	99.151084 
1277.000000	99.148259 
1276.000000	99.146449 
1275.000000	99.146320 
1274.000000	99.146454 
1273.000000	99.143748 
1272.000000	99.136532 
1271.000000	99.126122 
1270.000000	99.115079 
1269.000000	99.104916 
1268.000000	99.095621 
1267.000000	99.086260 
1266.000000	99.075837 
1265.000000	99.064405 
1264.000000	99.053400 
1263.000000	99.044188 
1262.000000	99.036288 
1261.000000	99.028009 
1260.000000	99.019059 
1259.000000	99.011203 
1258.000000	99.005897 
1257.000000	99.002424 
1256.000000	98.999175 
1255.000000	98.995907 
1254.000000	98.993539 
1253.000000	98.992081 
1252.000000	98.990305 
1251.000000	98.987975 
1250.000000	98.987358 
1249.000000	98.991468 
1248.000000	99.000951 
1247.000000	99.012866 
1246.000000	99.021820 
1245.000000	99.021941 
1244.000000	99.010063 
1243.000000	98.990350 
1242.000000	98.975206 
1241.000000	98.976883 
1240.000000	98.995606 
1239.000000	99.018048 
1238.000000	99.029829 
1237.000000	99.028025 
1236.000000	99.019671 
1235.000000	99.011203 
1234.000000	99.003557 
1233.000000	98.995844 
1232.000000	98.988383 
1231.000000	98.981183 
1230.000000	98.973713 
1229.000000	98.967913 
1228.000000	98.968161 
1227.000000	98.976052 
1226.000000	98.987428 
1225.000000	98.996609 
1224.000000	99.001883 
1223.000000	99.005233 
1222.000000	99.008751 
1221.000000	99.013569 
1220.000000	99.020882 
1219.000000	99.031384 
1218.000000	99.043773 
1217.000000	99.055322 
1216.000000	99.063878 
1215.000000	99.068762 
1214.000000	99.070446 
1213.000000	99.070237 
1212.000000	99.069731 
1211.000000	99.070068 
1210.000000	99.071950 
1209.000000	99.076038 
1208.000000	99.082170 
1207.000000	99.088249 
1206.000000	99.091550 
1205.000000	99.091549 
1204.000000	99.090189 
1203.000000	99.089263 
1202.000000	99.089075 
1201.000000	99.089744 
1200.000000	99.091697 
1199.000000	99.094218 
1198.000000	99.095543 
1197.000000	99.095278 
1196.000000	99.094812 
1195.000000	99.094609 
1194.000000	99.093199 
1193.000000	99.089920 
1192.000000	99.086374 
1191.000000	99.083577 
1190.000000	99.079828 
1189.000000	99.073513 
1188.000000	99.066424 
1187.000000	99.062081 
1186.000000	99.061718 
1185.000000	99.063708 
1184.000000	99.065918 
1183.000000	99.066909 
1182.000000	99.065932 
1181.000000	99.063720 
1180.000000	99.062376 
1179.000000	99.062679 
1178.000000	99.062446 
1177.000000	99.059495 
1176.000000	99.055115 
1175.000000	99.052238 
1174.000000	99.050815 
1173.000000	99.047695 
1172.000000	99.041208 
1171.000000	99.033462 
1170.000000	99.027475 
1169.000000	99.023787 
1168.000000	99.020652 
1167.000000	99.016404 
1166.000000	99.011149 
1165.000000	99.006905 
1164.000000	99.006166 
1163.000000	99.009551 
1162.000000	99.014994 
1161.000000	99.020130 
1160.000000	99.025002 
1159.000000	99.031030 
1158.000000	99.037488 
1157.000000	99.040539 
1156.000000	99.036413 
1155.000000	99.025238 
1154.000000	99.011879 
1153.000000	99.003115 
1152.000000	99.002800 
1151.000000	99.008411 
1150.000000	99.012689 
1149.000000	99.010038 
1148.000000	99.001336 
1147.000000	98.991895 
1146.000000	98.985415 
1145.000000	98.980995 
1144.000000	98.975439 
1143.000000	98.966896 
1142.000000	98.956376 
1141.000000	98.947039 
1140.000000	98.942111 
1139.000000	98.942283 
1138.000000	98.944792 
1137.000000	98.945777 
1136.000000	98.943532 
1135.000000	98.938955 
1134.000000	98.933284 
1133.000000	98.926379 
1132.000000	98.917312 
1131.000000	98.906139 
1130.000000	98.895076 
1129.000000	98.887614 
1128.000000	98.885158 
1127.000000	98.884039 
1126.000000	98.877650 
1125.000000	98.863353 
1124.000000	98.846257 
1123.000000	98.834294 
1122.000000	98.830077 
1121.000000	98.829228 
1120.000000	98.826101 
1119.000000	98.818930 
1118.000000	98.809463 
1117.000000	98.799807 
1116.000000	98.790515 
1115.000000	98.780580 
1114.000000	98.768626 
1113.000000	98.754629 
1112.000000	98.740214 
1111.000000	98.726361 
1110.000000	98.711400 
1109.000000	98.693092 
1108.000000	98.672489 
1107.000000	98.653945 
1106.000000	98.640556 
1105.000000	98.630740 
1104.000000	98.620190 
1103.000000	98.606467 
1102.000000	98.591135 
1101.000000	98.578059 
1100.000000	98.569473 
1099.000000	98.564156 
1098.000000	98.559104 
1097.000000	98.553174 
1096.000000	98.547875 
1095.000000	98.543415 
1094.000000	98.535413 
1093.000000	98.517387 
1092.000000	98.486407 
1091.000000	98.445328 
1090.000000	98.400172 
1089.000000	98.356433 
1088.000000	98.316929 
1087.000000	98.281041 
1086.000000	98.245917 
1085.000000	98.209959 
1084.000000	98.174909 
1083.000000	98.143045 
1082.000000	98.113158 
1081.000000	98.081754 
1080.000000	98.048111 
1079.000000	98.015809 
1078.000000	97.989132 
1077.000000	97.970109 
1076.000000	97.959092 
1075.000000	97.955938 
1074.000000	97.960348 
1073.000000	97.972296 
1072.000000	97.990127 
1071.000000	98.004863 
1070.000000	97.999266 
1069.000000	97.960748 
1068.000000	97.898657 
1067.000000	97.844128 
1066.000000	97.826958 
1065.000000	97.852067 
1064.000000	97.899454 
1063.000000	97.942773 
1062.000000	97.964382 
1061.000000	97.957726 
1060.000000	97.925430 
1059.000000	97.879680 
1058.000000	97.839282 
1057.000000	97.818917 
1056.000000	97.819251 
1055.000000	97.828859 
1054.000000	97.835867 
1053.000000	97.836990 
1052.000000	97.836401 
1051.000000	97.838905 
1050.000000	97.845643 
1049.000000	97.854300 
1048.000000	97.861216 
1047.000000	97.864478 
1046.000000	97.866845 
1045.000000	97.874160 
1044.000000	97.888765 
1043.000000	97.905823 
1042.000000	97.918768 
1041.000000	97.927437 
1040.000000	97.937957 
1039.000000	97.955808 
1038.000000	97.982648 
1037.000000	98.018785 
1036.000000	98.063427 
1035.000000	98.111740 
1034.000000	98.156418 
1033.000000	98.193004 
1032.000000	98.219044 
1031.000000	98.228581 
1030.000000	98.216183 
1029.000000	98.190479 
1028.000000	98.176042 
1027.000000	98.193309 
1026.000000	98.238056 
1025.000000	98.286329 
1024.000000	98.317954 
1023.000000	98.330486 
1022.000000	98.333323 
1021.000000	98.335708 
1020.000000	98.341515 
1019.000000	98.350120 
1018.000000	98.359021 
1017.000000	98.367168 
1016.000000	98.376607 
1015.000000	98.389716 
1014.000000	98.405492 
1013.000000	98.420441 
1012.000000	98.432283 
1011.000000	98.440768 
1010.000000	98.446310 
1009.000000	98.450725 
1008.000000	98.458345 
1007.000000	98.472914 
1006.000000	98.493048 
1005.000000	98.513222 
1004.000000	98.529427 
1003.000000	98.541970 
1002.000000	98.553232 
1001.000000	98.564958 
1000.000000	98.577493 
999.000000	 98.589448 
998.000000	 98.598212 
997.000000	 98.602835 
996.000000	 98.606292 
995.000000	 98.613041 
994.000000	 98.624424 
993.000000	 98.638017 
992.000000	 98.650853 
991.000000	 98.661242 
990.000000	 98.668080 
989.000000	 98.671027 
988.000000	 98.671776 
987.000000	 98.673350 
986.000000	 98.677702 
985.000000	 98.684957 
984.000000	 98.694464 
983.000000	 98.705044 
982.000000	 98.714691 
981.000000	 98.721759 
980.000000	 98.726350 
979.000000	 98.729597 
978.000000	 98.732509 
977.000000	 98.736641 
976.000000	 98.744206 
975.000000	 98.755244 
974.000000	 98.766008 
973.000000	 98.772929 
972.000000	 98.777463 
971.000000	 98.784175 
970.000000	 98.794390 
969.000000	 98.804738 
968.000000	 98.812260 
967.000000	 98.818108 
966.000000	 98.825291 
965.000000	 98.834765 
964.000000	 98.844801 
963.000000	 98.853022 
962.000000	 98.858560 
961.000000	 98.862943 
960.000000	 98.868573 
959.000000	 98.875373 
958.000000	 98.879851 
957.000000	 98.879240 
956.000000	 98.875818 
955.000000	 98.875029 
954.000000	 98.879609 
953.000000	 98.887637 
952.000000	 98.896061 
951.000000	 98.903584 
950.000000	 98.909754 
949.000000	 98.913666 
948.000000	 98.914699 
947.000000	 98.913200 
946.000000	 98.909706 
945.000000	 98.904497 
944.000000	 98.898464 
943.000000	 98.893643 
942.000000	 98.892442 
941.000000	 98.896248 
940.000000	 98.903898 
939.000000	 98.911038 
938.000000	 98.912745 
937.000000	 98.908630 
936.000000	 98.904154 
935.000000	 98.904966 
934.000000	 98.910876 
933.000000	 98.917521 
932.000000	 98.922761 
931.000000	 98.928195 
930.000000	 98.934358 
929.000000	 98.937669 
928.000000	 98.933750 
927.000000	 98.922648 
926.000000	 98.910039 
925.000000	 98.903642 
924.000000	 98.907816 
923.000000	 98.920104 
922.000000	 98.932970 
921.000000	 98.939902 
920.000000	 98.939564 
919.000000	 98.933857 
918.000000	 98.924304 
917.000000	 98.912331 
916.000000	 98.901029 
915.000000	 98.893174 
914.000000	 98.887901 
913.000000	 98.882246 
912.000000	 98.875953 
911.000000	 98.872072 
910.000000	 98.872812 
909.000000	 98.877303 
908.000000	 98.883392 
907.000000	 98.888927 
906.000000	 98.891192 
905.000000	 98.888206 
904.000000	 98.881615 
903.000000	 98.876247 
902.000000	 98.875855 
901.000000	 98.880427 
900.000000	 98.887434 
899.000000	 98.893760 
898.000000	 98.896429 
897.000000	 98.893856 
896.000000	 98.886934 
895.000000	 98.877691 
894.000000	 98.867344 
893.000000	 98.857403 
892.000000	 98.851875 
891.000000	 98.855590 
890.000000	 98.869761 
889.000000	 98.890649 
888.000000	 98.912120 
887.000000	 98.928172 
886.000000	 98.935082 
885.000000	 98.934383 
884.000000	 98.932456 
883.000000	 98.933388 
882.000000	 98.933001 
881.000000	 98.924521 
880.000000	 98.910253 
879.000000	 98.902186 
878.000000	 98.908779 
877.000000	 98.925385 
876.000000	 98.940421 
875.000000	 98.947137 
874.000000	 98.946474 
873.000000	 98.942019 
872.000000	 98.936557 
871.000000	 98.932504 
870.000000	 98.932312 
869.000000	 98.938044 
868.000000	 98.951039 
867.000000	 98.970200 
866.000000	 98.989721 
865.000000	 99.001701 
864.000000	 99.004161 
863.000000	 99.004838 
862.000000	 99.013260 
861.000000	 99.029042 
860.000000	 99.041662 
859.000000	 99.042927 
858.000000	 99.036460 
857.000000	 99.032475 
856.000000	 99.035972 
855.000000	 99.044137 
854.000000	 99.053741 
853.000000	 99.065266 
852.000000	 99.078019 
851.000000	 99.086618 
850.000000	 99.087081 
849.000000	 99.083553 
848.000000	 99.083865 
847.000000	 99.089644 
846.000000	 99.095524 
845.000000	 99.097513 
844.000000	 99.097119 
843.000000	 99.097243 
842.000000	 99.099218 
841.000000	 99.104363 
840.000000	 99.112838 
839.000000	 99.119614 
838.000000	 99.117618 
837.000000	 99.107359 
836.000000	 99.097709 
835.000000	 99.094180 
834.000000	 99.092544 
833.000000	 99.088510 
832.000000	 99.087268 
831.000000	 99.095802 
830.000000	 99.109591 
829.000000	 99.116136 
828.000000	 99.111457 
827.000000	 99.105024 
826.000000	 99.106508 
825.000000	 99.114039 
824.000000	 99.118578 
823.000000	 99.115193 
822.000000	 99.107122 
821.000000	 99.101554 
820.000000	 99.103227 
819.000000	 99.110704 
818.000000	 99.118479 
817.000000	 99.123190 
816.000000	 99.125783 
815.000000	 99.126682 
814.000000	 99.122982 
813.000000	 99.113887 
812.000000	 99.104912 
811.000000	 99.101041 
810.000000	 99.097937 
809.000000	 99.086101 
808.000000	 99.063054 
807.000000	 99.035844 
806.000000	 99.011581 
805.000000	 98.991185 
804.000000	 98.973670 
803.000000	 98.961092 
802.000000	 98.956179 
801.000000	 98.957827 
800.000000	 98.961346 
799.000000	 98.962398 
798.000000	 98.960547 
797.000000	 98.959612 
796.000000	 98.963303 
795.000000	 98.969600 
794.000000	 98.972036 
793.000000	 98.968411 
792.000000	 98.964846 
791.000000	 98.967988 
790.000000	 98.976413 
789.000000	 98.983575 
788.000000	 98.985900 
787.000000	 98.983197 
786.000000	 98.974211 
785.000000	 98.957952 
784.000000	 98.938131 
783.000000	 98.920964 
782.000000	 98.909304 
781.000000	 98.903014 
780.000000	 98.902744 
779.000000	 98.907643 
778.000000	 98.911371 
777.000000	 98.907374 
776.000000	 98.897918 
775.000000	 98.891837 
774.000000	 98.893163 
773.000000	 98.897636 
772.000000	 98.900886 
771.000000	 98.904322 
770.000000	 98.911656 
769.000000	 98.923936 
768.000000	 98.939100 
767.000000	 98.953383 
766.000000	 98.963489 
765.000000	 98.970399 
764.000000	 98.979411 
763.000000	 98.992570 
762.000000	 99.003164 
761.000000	 99.002638 
760.000000	 98.991523 
759.000000	 98.978775 
758.000000	 98.971926 
757.000000	 98.972266 
756.000000	 98.976731 
755.000000	 98.978734 
754.000000	 98.970691 
753.000000	 98.953598 
752.000000	 98.941887 
751.000000	 98.950227 
750.000000	 98.975624 
749.000000	 98.999995 
748.000000	 99.010070 
747.000000	 99.007311 
746.000000	 98.999351 
745.000000	 98.990969 
744.000000	 98.985059 
743.000000	 98.984312 
742.000000	 98.989015 
741.000000	 98.998498 
740.000000	 99.014781 
739.000000	 99.038226 
738.000000	 99.060160 
737.000000	 99.067835 
736.000000	 99.057408 
735.000000	 99.035678 
734.000000	 99.010390 
733.000000	 98.987271 
732.000000	 98.975143 
731.000000	 98.981720 
730.000000	 99.001449 
729.000000	 99.018234 
728.000000	 99.024046 
727.000000	 99.025608 
726.000000	 99.029947 
725.000000	 99.033579 
724.000000	 99.030731 
723.000000	 99.023066 
722.000000	 99.015728 
721.000000	 99.011440 
720.000000	 99.013416 
719.000000	 99.026039 
718.000000	 99.046739 
717.000000	 99.064129 
716.000000	 99.069072 
715.000000	 99.061937 
714.000000	 99.046851 
713.000000	 99.027286 
712.000000	 99.011336 
711.000000	 99.011138 
710.000000	 99.028716 
709.000000	 99.049084 
708.000000	 99.055039 
707.000000	 99.044053 
706.000000	 99.025246 
705.000000	 99.005950 
704.000000	 98.988641 
703.000000	 98.976160 
702.000000	 98.971493 
701.000000	 98.973911 
700.000000	 98.980298 
699.000000	 98.987847 
698.000000	 98.993190 
697.000000	 98.993425 
696.000000	 98.990481 
695.000000	 98.989401 
694.000000	 98.989857 
693.000000	 98.986138 
692.000000	 98.978515 
691.000000	 98.976436 
690.000000	 98.986357 
689.000000	 99.004109 
688.000000	 99.023159 
687.000000	 99.041020 
686.000000	 99.051705 
685.000000	 99.043903 
684.000000	 99.016758 
683.000000	 98.988406 
682.000000	 98.979574 
681.000000	 98.993753 
680.000000	 99.017950 
679.000000	 99.035678 
678.000000	 99.035387 
677.000000	 99.016686 
676.000000	 98.996184 
675.000000	 98.993396 
674.000000	 99.006125 
673.000000	 99.010993 
672.000000	 98.993735 
671.000000	 98.967871 
670.000000	 98.959414 
669.000000	 98.982650 
668.000000	 99.018748 
667.000000	 99.033474 
666.000000	 99.023704 
665.000000	 99.002207 
664.000000	 98.983932 
663.000000	 98.989026 
662.000000	 99.021413 
661.000000	 99.054132 
660.000000	 99.056404 
659.000000	 99.027094 
658.000000	 98.988213 
657.000000	 98.954990 
656.000000	 98.930004 
655.000000	 98.917421 
654.000000	 98.923365 
653.000000	 98.943828 
652.000000	 98.967233 
651.000000	 98.987000 
650.000000	 99.000057 

