4000.000000	99.493851 
3999.000000	99.491533 
3998.000000	99.490483 
3997.000000	99.493229 
3996.000000	99.499174 
3995.000000	99.505455 
3994.000000	99.509868 
3993.000000	99.512242 
3992.000000	99.513278 
3991.000000	99.512957 
3990.000000	99.510547 
3989.000000	99.505854 
3988.000000	99.500121 
3987.000000	99.495644 
3986.000000	99.494351 
3985.000000	99.496409 
3984.000000	99.500156 
3983.000000	99.503750 
3982.000000	99.506909 
3981.000000	99.510815 
3980.000000	99.516312 
3979.000000	99.522615 
3978.000000	99.527905 
3977.000000	99.530825 
3976.000000	99.531061 
3975.000000	99.528703 
3974.000000	99.523686 
3973.000000	99.516335 
3972.000000	99.508360 
3971.000000	99.502747 
3970.000000	99.502144 
3969.000000	99.506779 
3968.000000	99.514037 
3967.000000	99.520192 
3966.000000	99.522826 
3965.000000	99.521919 
3964.000000	99.519265 
3963.000000	99.517299 
3962.000000	99.517782 
3961.000000	99.520522 
3960.000000	99.523057 
3959.000000	99.522387 
3958.000000	99.517900 
3957.000000	99.512199 
3956.000000	99.508771 
3955.000000	99.508813 
3954.000000	99.510856 
3953.000000	99.512948 
3952.000000	99.514394 
3951.000000	99.515510 
3950.000000	99.516126 
3949.000000	99.515267 
3948.000000	99.512656 
3947.000000	99.510075 
3946.000000	99.509997 
3945.000000	99.512710 
3944.000000	99.515353 
3943.000000	99.514406 
3942.000000	99.509260 
3941.000000	99.502877 
3940.000000	99.498505 
3939.000000	99.497081 
3938.000000	99.498096 
3937.000000	99.500872 
3936.000000	99.504699 
3935.000000	99.508450 
3934.000000	99.511393 
3933.000000	99.514004 
3932.000000	99.517020 
3931.000000	99.520313 
3930.000000	99.522890 
3929.000000	99.523967 
3928.000000	99.523505 
3927.000000	99.521580 
3926.000000	99.518429 
3925.000000	99.515266 
3924.000000	99.514249 
3923.000000	99.515940 
3922.000000	99.517562 
3921.000000	99.516083 
3920.000000	99.512080 
3919.000000	99.508517 
3918.000000	99.506600 
3917.000000	99.505054 
3916.000000	99.503349 
3915.000000	99.502803 
3914.000000	99.503940 
3913.000000	99.505223 
3912.000000	99.504979 
3911.000000	99.502896 
3910.000000	99.500528 
3909.000000	99.500081 
3908.000000	99.503508 
3907.000000	99.510862 
3906.000000	99.519783 
3905.000000	99.526713 
3904.000000	99.529989 
3903.000000	99.531783 
3902.000000	99.534040 
3901.000000	99.534015 
3900.000000	99.527642 
3899.000000	99.516029 
3898.000000	99.505075 
3897.000000	99.498923 
3896.000000	99.497026 
3895.000000	99.498130 
3894.000000	99.502960 
3893.000000	99.510546 
3892.000000	99.516113 
3891.000000	99.516460 
3890.000000	99.516535 
3889.000000	99.520851 
3888.000000	99.525934 
3887.000000	99.526617 
3886.000000	99.523148 
3885.000000	99.521240 
3884.000000	99.526249 
3883.000000	99.533920 
3882.000000	99.534521 
3881.000000	99.525106 
3880.000000	99.512019 
3879.000000	99.505167 
3878.000000	99.508853 
3877.000000	99.517484 
3876.000000	99.523611 
3875.000000	99.525163 
3874.000000	99.525396 
3873.000000	99.528447 
3872.000000	99.532139 
3871.000000	99.528805 
3870.000000	99.516844 
3869.000000	99.507711 
3868.000000	99.512962 
3867.000000	99.526539 
3866.000000	99.534512 
3865.000000	99.533505 
3864.000000	99.529795 
3863.000000	99.528164 
3862.000000	99.527957 
3861.000000	99.526927 
3860.000000	99.524742 
3859.000000	99.519837 
3858.000000	99.510509 
3857.000000	99.499063 
3856.000000	99.494020 
3855.000000	99.502500 
3854.000000	99.515952 
3853.000000	99.519896 
3852.000000	99.523385 
3851.000000	99.535694 
3850.000000	99.544086 
3849.000000	99.541091 
3848.000000	99.533357 
3847.000000	99.528348 
3846.000000	99.527454 
3845.000000	99.528867 
3844.000000	99.531629 
3843.000000	99.535818 
3842.000000	99.541399 
3841.000000	99.547098 
3840.000000	99.551427 
3839.000000	99.553649 
3838.000000	99.554222 
3837.000000	99.553553 
3836.000000	99.551597 
3835.000000	99.547060 
3834.000000	99.539025 
3833.000000	99.529159 
3832.000000	99.521064 
3831.000000	99.518128 
3830.000000	99.521249 
3829.000000	99.527085 
3828.000000	99.530381 
3827.000000	99.528769 
3826.000000	99.525804 
3825.000000	99.527789 
3824.000000	99.537033 
3823.000000	99.549265 
3822.000000	99.556663 
3821.000000	99.554129 
3820.000000	99.549704 
3819.000000	99.552744 
3818.000000	99.556639 
3817.000000	99.551845 
3816.000000	99.539150 
3815.000000	99.527994 
3814.000000	99.524974 
3813.000000	99.524131 
3812.000000	99.517709 
3811.000000	99.509069 
3810.000000	99.506196 
3809.000000	99.511069 
3808.000000	99.518218 
3807.000000	99.522295 
3806.000000	99.526298 
3805.000000	99.535307 
3804.000000	99.544912 
3803.000000	99.547461 
3802.000000	99.541311 
3801.000000	99.531247 
3800.000000	99.527290 
3799.000000	99.529554 
3798.000000	99.525999 
3797.000000	99.512370 
3796.000000	99.496385 
3795.000000	99.487352 
3794.000000	99.487291 
3793.000000	99.491718 
3792.000000	99.496446 
3791.000000	99.500547 
3790.000000	99.503802 
3789.000000	99.506270 
3788.000000	99.509582 
3787.000000	99.515624 
3786.000000	99.523485 
3785.000000	99.530139 
3784.000000	99.534451 
3783.000000	99.538005 
3782.000000	99.541219 
3781.000000	99.541486 
3780.000000	99.536195 
3779.000000	99.526341 
3778.000000	99.516747 
3777.000000	99.510539 
3776.000000	99.506573 
3775.000000	99.503713 
3774.000000	99.504344 
3773.000000	99.510563 
3772.000000	99.519586 
3771.000000	99.525022 
3770.000000	99.523717 
3769.000000	99.519812 
3768.000000	99.518885 
3767.000000	99.519998 
3766.000000	99.519237 
3765.000000	99.517321 
3764.000000	99.519288 
3763.000000	99.527337 
3762.000000	99.537639 
3761.000000	99.545933 
3760.000000	99.551270 
3759.000000	99.552977 
3758.000000	99.549993 
3757.000000	99.543363 
3756.000000	99.537282 
3755.000000	99.535555 
3754.000000	99.539821 
3753.000000	99.550363 
3752.000000	99.563864 
3751.000000	99.570895 
3750.000000	99.564963 
3749.000000	99.553144 
3748.000000	99.544912 
3747.000000	99.539185 
3746.000000	99.531072 
3745.000000	99.518796 
3744.000000	99.507029 
3743.000000	99.510931 
3742.000000	99.530236 
3741.000000	99.543007 
3740.000000	99.542175 
3739.000000	99.540363 
3738.000000	99.547984 
3737.000000	99.561718 
3736.000000	99.571517 
3735.000000	99.571496 
3734.000000	99.561879 
3733.000000	99.545819 
3732.000000	99.529918 
3731.000000	99.522842 
3730.000000	99.526156 
3729.000000	99.532174 
3728.000000	99.534112 
3727.000000	99.533736 
3726.000000	99.537037 
3725.000000	99.545412 
3724.000000	99.552677 
3723.000000	99.552425 
3722.000000	99.545304 
3721.000000	99.537231 
3720.000000	99.532451 
3719.000000	99.530128 
3718.000000	99.527490 
3717.000000	99.523250 
3716.000000	99.518293 
3715.000000	99.513707 
3714.000000	99.510506 
3713.000000	99.509664 
3712.000000	99.509412 
3711.000000	99.506119 
3710.000000	99.499722 
3709.000000	99.493135 
3708.000000	99.488111 
3707.000000	99.484022 
3706.000000	99.479204 
3705.000000	99.472375 
3704.000000	99.463355 
3703.000000	99.453218 
3702.000000	99.443604 
3701.000000	99.436748 
3700.000000	99.434705 
3699.000000	99.435552 
3698.000000	99.433707 
3697.000000	99.426417 
3696.000000	99.417327 
3695.000000	99.412354 
3694.000000	99.413274 
3693.000000	99.417802 
3692.000000	99.423501 
3691.000000	99.427903 
3690.000000	99.426474 
3689.000000	99.415850 
3688.000000	99.401908 
3687.000000	99.394965 
3686.000000	99.395572 
3685.000000	99.396012 
3684.000000	99.393062 
3683.000000	99.390240 
3682.000000	99.390313 
3681.000000	99.390808 
3680.000000	99.387895 
3679.000000	99.382282 
3678.000000	99.376992 
3677.000000	99.372368 
3676.000000	99.364736 
3675.000000	99.356295 
3674.000000	99.359655 
3673.000000	99.375179 
3672.000000	99.387384 
3671.000000	99.388744 
3670.000000	99.382221 
3669.000000	99.373243 
3668.000000	99.366573 
3667.000000	99.360541 
3666.000000	99.352166 
3665.000000	99.344146 
3664.000000	99.341049 
3663.000000	99.344099 
3662.000000	99.350856 
3661.000000	99.358178 
3660.000000	99.364880 
3659.000000	99.371363 
3658.000000	99.377319 
3657.000000	99.381613 
3656.000000	99.384931 
3655.000000	99.392565 
3654.000000	99.406722 
3653.000000	99.422484 
3652.000000	99.436808 
3651.000000	99.451045 
3650.000000	99.461374 
3649.000000	99.458837 
3648.000000	99.443975 
3647.000000	99.428357 
3646.000000	99.421093 
3645.000000	99.422148 
3644.000000	99.426578 
3643.000000	99.430688 
3642.000000	99.434229 
3641.000000	99.438499 
3640.000000	99.444702 
3639.000000	99.453649 
3638.000000	99.466051 
3637.000000	99.481036 
3636.000000	99.494041 
3635.000000	99.499450 
3634.000000	99.496619 
3633.000000	99.491536 
3632.000000	99.490367 
3631.000000	99.494367 
3630.000000	99.499319 
3629.000000	99.497244 
3628.000000	99.489050 
3627.000000	99.486828 
3626.000000	99.491470 
3625.000000	99.494844 
3624.000000	99.496114 
3623.000000	99.498632 
3622.000000	99.502395 
3621.000000	99.504186 
3620.000000	99.502067 
3619.000000	99.498293 
3618.000000	99.498850 
3617.000000	99.507320 
3616.000000	99.519640 
3615.000000	99.528004 
3614.000000	99.527657 
3613.000000	99.519797 
3612.000000	99.509744 
3611.000000	99.502069 
3610.000000	99.497805 
3609.000000	99.496081 
3608.000000	99.495897 
3607.000000	99.496715 
3606.000000	99.498306 
3605.000000	99.500600 
3604.000000	99.504191 
3603.000000	99.509329 
3602.000000	99.514629 
3601.000000	99.518574 
3600.000000	99.521793 
3599.000000	99.525957 
3598.000000	99.530375 
3597.000000	99.532269 
3596.000000	99.529397 
3595.000000	99.522311 
3594.000000	99.514356 
3593.000000	99.510560 
3592.000000	99.514037 
3591.000000	99.523986 
3590.000000	99.536178 
3589.000000	99.544378 
3588.000000	99.542537 
3587.000000	99.530396 
3586.000000	99.515639 
3585.000000	99.505910 
3584.000000	99.502423 
3583.000000	99.502956 
3582.000000	99.505336 
3581.000000	99.507636 
3580.000000	99.507775 
3579.000000	99.504625 
3578.000000	99.498752 
3577.000000	99.492483 
3576.000000	99.488628 
3575.000000	99.488842 
3574.000000	99.492709 
3573.000000	99.498377 
3572.000000	99.504100 
3571.000000	99.508991 
3570.000000	99.512953 
3569.000000	99.515870 
3568.000000	99.516993 
3567.000000	99.515913 
3566.000000	99.514567 
3565.000000	99.515323 
3564.000000	99.517099 
3563.000000	99.516971 
3562.000000	99.514092 
3561.000000	99.510112 
3560.000000	99.506729 
3559.000000	99.504050 
3558.000000	99.501431 
3557.000000	99.499315 
3556.000000	99.499597 
3555.000000	99.503439 
3554.000000	99.509217 
3553.000000	99.513428 
3552.000000	99.514119 
3551.000000	99.512443 
3550.000000	99.510406 
3549.000000	99.508671 
3548.000000	99.507433 
3547.000000	99.507605 
3546.000000	99.509759 
3545.000000	99.512866 
3544.000000	99.514954 
3543.000000	99.514657 
3542.000000	99.512114 
3541.000000	99.508738 
3540.000000	99.506437 
3539.000000	99.506436 
3538.000000	99.508474 
3537.000000	99.510977 
3536.000000	99.512266 
3535.000000	99.511733 
3534.000000	99.509868 
3533.000000	99.507893 
3532.000000	99.507162 
3531.000000	99.508526 
3530.000000	99.511375 
3529.000000	99.514156 
3528.000000	99.516200 
3527.000000	99.518575 
3526.000000	99.522204 
3525.000000	99.525756 
3524.000000	99.526511 
3523.000000	99.523299 
3522.000000	99.517646 
3521.000000	99.511764 
3520.000000	99.506417 
3519.000000	99.501323 
3518.000000	99.496887 
3517.000000	99.494503 
3516.000000	99.495243 
3515.000000	99.499127 
3514.000000	99.505491 
3513.000000	99.513179 
3512.000000	99.519891 
3511.000000	99.522604 
3510.000000	99.519828 
3509.000000	99.513600 
3508.000000	99.508390 
3507.000000	99.507540 
3506.000000	99.510560 
3505.000000	99.513669 
3504.000000	99.512659 
3503.000000	99.506414 
3502.000000	99.498431 
3501.000000	99.494299 
3500.000000	99.496749 
3499.000000	99.503163 
3498.000000	99.507977 
3497.000000	99.507437 
3496.000000	99.502193 
3495.000000	99.495546 
3494.000000	99.490074 
3493.000000	99.486404 
3492.000000	99.484399 
3491.000000	99.484349 
3490.000000	99.486695 
3489.000000	99.491098 
3488.000000	99.496251 
3487.000000	99.500635 
3486.000000	99.503393 
3485.000000	99.504707 
3484.000000	99.505622 
3483.000000	99.507256 
3482.000000	99.509510 
3481.000000	99.510675 
3480.000000	99.508961 
3479.000000	99.504769 
3478.000000	99.500793 
3477.000000	99.499234 
3476.000000	99.499257 
3475.000000	99.498066 
3474.000000	99.494748 
3473.000000	99.491839 
3472.000000	99.492425 
3471.000000	99.496574 
3470.000000	99.501521 
3469.000000	99.504676 
3468.000000	99.505323 
3467.000000	99.503866 
3466.000000	99.500902 
3465.000000	99.497450 
3464.000000	99.495123 
3463.000000	99.495143 
3462.000000	99.497173 
3461.000000	99.499533 
3460.000000	99.500627 
3459.000000	99.500170 
3458.000000	99.499154 
3457.000000	99.498670 
3456.000000	99.498742 
3455.000000	99.498529 
3454.000000	99.497702 
3453.000000	99.497313 
3452.000000	99.498845 
3451.000000	99.502576 
3450.000000	99.507099 
3449.000000	99.510483 
3448.000000	99.511587 
3447.000000	99.510454 
3446.000000	99.508121 
3445.000000	99.506153 
3444.000000	99.505761 
3443.000000	99.506909 
3442.000000	99.508332 
3441.000000	99.508808 
3440.000000	99.508451 
3439.000000	99.508353 
3438.000000	99.509019 
3437.000000	99.509539 
3436.000000	99.508628 
3435.000000	99.506356 
3434.000000	99.504406 
3433.000000	99.504482 
3432.000000	99.506451 
3431.000000	99.508312 
3430.000000	99.507958 
3429.000000	99.505038 
3428.000000	99.501020 
3427.000000	99.497651 
3426.000000	99.495797 
3425.000000	99.495740 
3424.000000	99.497808 
3423.000000	99.501964 
3422.000000	99.506843 
3421.000000	99.509831 
3420.000000	99.508698 
3419.000000	99.503541 
3418.000000	99.497251 
3417.000000	99.493731 
3416.000000	99.494838 
3415.000000	99.498678 
3414.000000	99.501267 
3413.000000	99.500318 
3412.000000	99.497219 
3411.000000	99.495136 
3410.000000	99.495842 
3409.000000	99.498787 
3408.000000	99.502457 
3407.000000	99.505593 
3406.000000	99.507300 
3405.000000	99.507046 
3404.000000	99.505189 
3403.000000	99.503239 
3402.000000	99.503179 
3401.000000	99.506070 
3400.000000	99.510946 
3399.000000	99.515251 
3398.000000	99.516978 
3397.000000	99.516616 
3396.000000	99.516467 
3395.000000	99.517914 
3394.000000	99.519990 
3393.000000	99.520822 
3392.000000	99.519723 
3391.000000	99.517354 
3390.000000	99.514451 
3389.000000	99.511276 
3388.000000	99.508111 
3387.000000	99.505490 
3386.000000	99.503797 
3385.000000	99.503069 
3384.000000	99.503276 
3383.000000	99.504564 
3382.000000	99.507075 
3381.000000	99.510441 
3380.000000	99.513311 
3379.000000	99.513779 
3378.000000	99.511021 
3377.000000	99.506679 
3376.000000	99.503893 
3375.000000	99.504601 
3374.000000	99.508152 
3373.000000	99.512506 
3372.000000	99.515993 
3371.000000	99.517717 
3370.000000	99.517401 
3369.000000	99.515762 
3368.000000	99.514367 
3367.000000	99.514029 
3366.000000	99.513599 
3365.000000	99.511332 
3364.000000	99.507448 
3363.000000	99.504454 
3362.000000	99.504693 
3361.000000	99.507965 
3360.000000	99.511665 
3359.000000	99.512917 
3358.000000	99.510785 
3357.000000	99.506901 
3356.000000	99.504041 
3355.000000	99.503727 
3354.000000	99.505173 
3353.000000	99.506686 
3352.000000	99.507676 
3351.000000	99.508933 
3350.000000	99.511377 
3349.000000	99.515170 
3348.000000	99.519798 
3347.000000	99.524217 
3346.000000	99.526999 
3345.000000	99.527178 
3344.000000	99.525226 
3343.000000	99.522719 
3342.000000	99.520908 
3341.000000	99.520101 
3340.000000	99.520212 
3339.000000	99.520935 
3338.000000	99.521031 
3337.000000	99.518499 
3336.000000	99.512607 
3335.000000	99.505644 
3334.000000	99.501707 
3333.000000	99.503271 
3332.000000	99.509003 
3331.000000	99.514998 
3330.000000	99.518205 
3329.000000	99.518803 
3328.000000	99.519397 
3327.000000	99.521872 
3326.000000	99.525201 
3325.000000	99.526687 
3324.000000	99.525293 
3323.000000	99.523149 
3322.000000	99.523247 
3321.000000	99.525942 
3320.000000	99.528298 
3319.000000	99.527129 
3318.000000	99.522427 
3317.000000	99.517519 
3316.000000	99.515960 
3315.000000	99.518374 
3314.000000	99.522166 
3313.000000	99.524077 
3312.000000	99.523000 
3311.000000	99.520582 
3310.000000	99.519420 
3309.000000	99.520804 
3308.000000	99.524104 
3307.000000	99.527846 
3306.000000	99.530688 
3305.000000	99.531232 
3304.000000	99.527969 
3303.000000	99.520803 
3302.000000	99.512786 
3301.000000	99.508952 
3300.000000	99.512158 
3299.000000	99.520257 
3298.000000	99.528076 
3297.000000	99.532083 
3296.000000	99.532617 
3295.000000	99.532093 
3294.000000	99.532243 
3293.000000	99.533293 
3292.000000	99.534564 
3291.000000	99.535097 
3290.000000	99.534186 
3289.000000	99.531966 
3288.000000	99.529352 
3287.000000	99.527174 
3286.000000	99.525639 
3285.000000	99.524717 
3284.000000	99.524455 
3283.000000	99.524610 
3282.000000	99.524555 
3281.000000	99.523959 
3280.000000	99.523102 
3279.000000	99.522204 
3278.000000	99.521043 
3277.000000	99.519764 
3276.000000	99.519498 
3275.000000	99.521359 
3274.000000	99.524896 
3273.000000	99.528035 
3272.000000	99.528519 
3271.000000	99.525283 
3270.000000	99.519078 
3269.000000	99.512462 
3268.000000	99.508789 
3267.000000	99.510149 
3266.000000	99.515822 
3265.000000	99.522989 
3264.000000	99.529012 
3263.000000	99.532995 
3262.000000	99.535567 
3261.000000	99.537697 
3260.000000	99.539615 
3259.000000	99.540446 
3258.000000	99.538860 
3257.000000	99.534321 
3256.000000	99.527850 
3255.000000	99.521599 
3254.000000	99.517768 
3253.000000	99.517736 
3252.000000	99.521416 
3251.000000	99.526963 
3250.000000	99.531624 
3249.000000	99.533651 
3248.000000	99.533342 
3247.000000	99.531844 
3246.000000	99.529331 
3245.000000	99.525167 
3244.000000	99.519866 
3243.000000	99.516038 
3242.000000	99.516835 
3241.000000	99.523393 
3240.000000	99.533534 
3239.000000	99.542722 
3238.000000	99.546703 
3237.000000	99.544143 
3236.000000	99.537266 
3235.000000	99.529957 
3234.000000	99.525130 
3233.000000	99.523697 
3232.000000	99.525252 
3231.000000	99.528725 
3230.000000	99.532264 
3229.000000	99.533460 
3228.000000	99.530648 
3227.000000	99.524293 
3226.000000	99.516952 
3225.000000	99.511825 
3224.000000	99.511056 
3223.000000	99.514761 
3222.000000	99.521099 
3221.000000	99.527328 
3220.000000	99.531332 
3219.000000	99.532610 
3218.000000	99.531992 
3217.000000	99.530420 
3216.000000	99.528184 
3215.000000	99.525341 
3214.000000	99.522448 
3213.000000	99.520391 
3212.000000	99.519640 
3211.000000	99.520219 
3210.000000	99.522438 
3209.000000	99.526788 
3208.000000	99.532599 
3207.000000	99.537523 
3206.000000	99.539408 
3205.000000	99.538618 
3204.000000	99.537626 
3203.000000	99.538303 
3202.000000	99.540482 
3201.000000	99.543201 
3200.000000	99.546054 
3199.000000	99.548593 
3198.000000	99.549556 
3197.000000	99.548067 
3196.000000	99.545240 
3195.000000	99.543209 
3194.000000	99.542419 
3193.000000	99.540997 
3192.000000	99.537386 
3191.000000	99.532941 
3190.000000	99.531097 
3189.000000	99.533996 
3188.000000	99.540262 
3187.000000	99.546119 
3186.000000	99.548462 
3185.000000	99.546878 
3184.000000	99.543155 
3183.000000	99.539390 
3182.000000	99.536721 
3181.000000	99.535369 
3180.000000	99.535133 
3179.000000	99.535497 
3178.000000	99.535512 
3177.000000	99.534047 
3176.000000	99.530513 
3175.000000	99.525687 
3174.000000	99.522008 
3173.000000	99.522457 
3172.000000	99.528097 
3171.000000	99.536426 
3170.000000	99.542998 
3169.000000	99.545338 
3168.000000	99.544926 
3167.000000	99.544956 
3166.000000	99.546731 
3165.000000	99.548893 
3164.000000	99.549727 
3163.000000	99.549200 
3162.000000	99.548673 
3161.000000	99.549377 
3160.000000	99.551397 
3159.000000	99.553638 
3158.000000	99.554541 
3157.000000	99.553322 
3156.000000	99.550725 
3155.000000	99.548321 
3154.000000	99.547124 
3153.000000	99.547221 
3152.000000	99.548442 
3151.000000	99.550446 
3150.000000	99.552059 
3149.000000	99.551773 
3148.000000	99.549732 
3147.000000	99.548379 
3146.000000	99.549912 
3145.000000	99.553314 
3144.000000	99.555161 
3143.000000	99.553759 
3142.000000	99.551524 
3141.000000	99.552433 
3140.000000	99.557462 
3139.000000	99.563362 
3138.000000	99.566002 
3137.000000	99.564351 
3136.000000	99.560844 
3135.000000	99.558412 
3134.000000	99.557803 
3133.000000	99.557688 
3132.000000	99.556632 
3131.000000	99.554474 
3130.000000	99.552002 
3129.000000	99.549889 
3128.000000	99.548252 
3127.000000	99.547094 
3126.000000	99.546883 
3125.000000	99.548480 
3124.000000	99.552314 
3123.000000	99.557555 
3122.000000	99.562433 
3121.000000	99.565917 
3120.000000	99.568890 
3119.000000	99.572833 
3118.000000	99.577128 
3117.000000	99.578604 
3116.000000	99.574715 
3115.000000	99.566796 
3114.000000	99.559080 
3113.000000	99.554503 
3112.000000	99.552608 
3111.000000	99.551771 
3110.000000	99.551940 
3109.000000	99.553860 
3108.000000	99.556463 
3107.000000	99.556883 
3106.000000	99.553509 
3105.000000	99.548061 
3104.000000	99.544201 
3103.000000	99.544683 
3102.000000	99.549952 
3101.000000	99.558336 
3100.000000	99.566657 
3099.000000	99.571355 
3098.000000	99.570621 
3097.000000	99.566057 
3096.000000	99.561669 
3095.000000	99.560680 
3094.000000	99.563346 
3093.000000	99.567582 
3092.000000	99.570911 
3091.000000	99.571656 
3090.000000	99.569346 
3089.000000	99.565126 
3088.000000	99.561609 
3087.000000	99.561249 
3086.000000	99.564178 
3085.000000	99.567922 
3084.000000	99.569723 
3083.000000	99.569111 
3082.000000	99.568027 
3081.000000	99.568481 
3080.000000	99.570416 
3079.000000	99.571898 
3078.000000	99.571035 
3077.000000	99.567482 
3076.000000	99.562526 
3075.000000	99.558239 
3074.000000	99.556365 
3073.000000	99.557322 
3072.000000	99.560091 
3071.000000	99.563431 
3070.000000	99.567066 
3069.000000	99.571000 
3068.000000	99.573725 
3067.000000	99.572525 
3066.000000	99.566598 
3065.000000	99.559111 
3064.000000	99.554727 
3063.000000	99.555093 
3062.000000	99.557786 
3061.000000	99.559686 
3060.000000	99.560240 
3059.000000	99.561108 
3058.000000	99.563551 
3057.000000	99.566933 
3056.000000	99.569447 
3055.000000	99.569858 
3054.000000	99.568605 
3053.000000	99.567276 
3052.000000	99.566862 
3051.000000	99.566665 
3050.000000	99.565243 
3049.000000	99.562120 
3048.000000	99.557905 
3047.000000	99.553056 
3046.000000	99.547681 
3045.000000	99.542679 
3044.000000	99.539731 
3043.000000	99.539355 
3042.000000	99.539722 
3041.000000	99.538144 
3040.000000	99.533490 
3039.000000	99.526855 
3038.000000	99.520498 
3037.000000	99.516484 
3036.000000	99.515516 
3035.000000	99.516185 
3034.000000	99.515714 
3033.000000	99.512206 
3032.000000	99.506034 
3031.000000	99.498701 
3030.000000	99.490841 
3029.000000	99.481943 
3028.000000	99.471702 
3027.000000	99.460896 
3026.000000	99.450889 
3025.000000	99.442554 
3024.000000	99.435453 
3023.000000	99.427741 
3022.000000	99.417249 
3021.000000	99.403326 
3020.000000	99.387708 
3019.000000	99.373313 
3018.000000	99.362168 
3017.000000	99.354365 
3016.000000	99.348316 
3015.000000	99.341624 
3014.000000	99.332249 
3013.000000	99.319492 
3012.000000	99.303640 
3011.000000	99.284593 
3010.000000	99.261829 
3009.000000	99.236451 
3008.000000	99.212356 
3007.000000	99.193924 
3006.000000	99.182342 
3005.000000	99.174682 
3004.000000	99.166272 
3003.000000	99.153432 
3002.000000	99.134902 
3001.000000	99.112537 
3000.000000	99.090810 
2999.000000	99.073987 
2998.000000	99.062962 
2997.000000	99.055625 
2996.000000	99.050266 
2995.000000	99.046598 
2994.000000	99.042278 
2993.000000	99.030725 
2992.000000	99.005957 
2991.000000	98.970328 
2990.000000	98.935355 
2989.000000	98.913126 
2988.000000	98.907082 
2987.000000	98.911622 
2986.000000	98.919314 
2985.000000	98.926915 
2984.000000	98.934808 
2983.000000	98.943037 
2982.000000	98.949622 
2981.000000	98.952345 
2980.000000	98.951082 
2979.000000	98.947967 
2978.000000	98.945541 
2977.000000	98.944720 
2976.000000	98.944186 
2975.000000	98.941692 
2974.000000	98.936279 
2973.000000	98.929439 
2972.000000	98.924048 
2971.000000	98.922228 
2970.000000	98.924422 
2969.000000	98.930239 
2968.000000	98.939457 
2967.000000	98.951778 
2966.000000	98.966033 
2965.000000	98.980351 
2964.000000	98.993373 
2963.000000	99.005074 
2962.000000	99.016225 
2961.000000	99.027156 
2960.000000	99.037314 
2959.000000	99.046092 
2958.000000	99.053887 
2957.000000	99.061858 
2956.000000	99.070338 
2955.000000	99.077784 
2954.000000	99.082107 
2953.000000	99.083625 
2952.000000	99.086326 
2951.000000	99.095117 
2950.000000	99.110920 
2949.000000	99.128559 
2948.000000	99.140359 
2947.000000	99.142485 
2946.000000	99.137872 
2945.000000	99.132923 
2944.000000	99.131914 
2943.000000	99.134873 
2942.000000	99.139751 
2941.000000	99.144850 
2940.000000	99.148830 
2939.000000	99.150136 
2938.000000	99.147985 
2937.000000	99.143635 
2936.000000	99.139674 
2935.000000	99.138111 
2934.000000	99.139543 
2933.000000	99.143453 
2932.000000	99.148130 
2931.000000	99.150609 
2930.000000	99.148145 
2929.000000	99.140445 
2928.000000	99.130133 
2927.000000	99.120903 
2926.000000	99.115487 
2925.000000	99.114687 
2924.000000	99.117162 
2923.000000	99.120100 
2922.000000	99.121204 
2921.000000	99.120467 
2920.000000	99.119352 
2919.000000	99.118376 
2918.000000	99.116556 
2917.000000	99.113313 
2916.000000	99.109594 
2915.000000	99.106561 
2914.000000	99.104306 
2913.000000	99.102677 
2912.000000	99.102246 
2911.000000	99.103122 
2910.000000	99.103293 
2909.000000	99.099616 
2908.000000	99.090900 
2907.000000	99.079308 
2906.000000	99.068330 
2905.000000	99.059510 
2904.000000	99.051443 
2903.000000	99.042185 
2902.000000	99.032881 
2901.000000	99.028581 
2900.000000	99.034513 
2899.000000	99.050918 
2898.000000	99.071815 
2897.000000	99.089606 
2896.000000	99.100644 
2895.000000	99.106440 
2894.000000	99.110383 
2893.000000	99.114363 
2892.000000	99.118313 
2891.000000	99.121667 
2890.000000	99.124423 
2889.000000	99.126996 
2888.000000	99.129545 
2887.000000	99.131800 
2886.000000	99.133747 
2885.000000	99.136347 
2884.000000	99.141084 
2883.000000	99.148537 
2882.000000	99.157787 
2881.000000	99.167594 
2880.000000	99.177888 
2879.000000	99.189647 
2878.000000	99.203398 
2877.000000	99.218073 
2876.000000	99.231212 
2875.000000	99.240191 
2874.000000	99.243838 
2873.000000	99.243630 
2872.000000	99.243263 
2871.000000	99.246336 
2870.000000	99.254022 
2869.000000	99.264765 
2868.000000	99.276075 
2867.000000	99.286524 
2866.000000	99.296466 
2865.000000	99.307282 
2864.000000	99.319755 
2863.000000	99.332802 
2862.000000	99.343982 
2861.000000	99.351782 
2860.000000	99.357424 
2859.000000	99.363936 
2858.000000	99.373246 
2857.000000	99.384457 
2856.000000	99.395021 
2855.000000	99.403359 
2854.000000	99.410138 
2853.000000	99.417100 
2852.000000	99.425011 
2851.000000	99.433060 
2850.000000	99.440303 
2849.000000	99.447136 
2848.000000	99.454722 
2847.000000	99.463030 
2846.000000	99.470131 
2845.000000	99.473887 
2844.000000	99.474205 
2843.000000	99.473517 
2842.000000	99.475200 
2841.000000	99.481264 
2840.000000	99.490774 
2839.000000	99.500111 
2838.000000	99.505290 
2837.000000	99.504796 
2836.000000	99.500558 
2835.000000	99.496460 
2834.000000	99.495975 
2833.000000	99.500526 
2832.000000	99.508852 
2831.000000	99.517615 
2830.000000	99.523566 
2829.000000	99.525912 
2828.000000	99.526460 
2827.000000	99.527280 
2826.000000	99.528744 
2825.000000	99.530010 
2824.000000	99.530674 
2823.000000	99.531404 
2822.000000	99.533365 
2821.000000	99.537315 
2820.000000	99.542678 
2819.000000	99.547308 
2818.000000	99.549013 
2817.000000	99.547874 
2816.000000	99.546332 
2815.000000	99.546419 
2814.000000	99.547734 
2813.000000	99.548767 
2812.000000	99.549153 
2811.000000	99.549453 
2810.000000	99.549572 
2809.000000	99.548964 
2808.000000	99.548058 
2807.000000	99.547987 
2806.000000	99.548874 
2805.000000	99.549726 
2804.000000	99.550235 
2803.000000	99.551443 
2802.000000	99.554159 
2801.000000	99.557654 
2800.000000	99.560477 
2799.000000	99.561937 
2798.000000	99.562344 
2797.000000	99.562257 
2796.000000	99.561846 
2795.000000	99.560757 
2794.000000	99.558594 
2793.000000	99.555801 
2792.000000	99.553863 
2791.000000	99.554114 
2790.000000	99.556538 
2789.000000	99.560232 
2788.000000	99.564507 
2787.000000	99.568641 
2786.000000	99.571142 
2785.000000	99.570870 
2784.000000	99.568983 
2783.000000	99.568249 
2782.000000	99.569937 
2781.000000	99.572673 
2780.000000	99.574817 
2779.000000	99.576463 
2778.000000	99.578134 
2777.000000	99.578922 
2776.000000	99.577472 
2775.000000	99.574196 
2774.000000	99.571097 
2773.000000	99.569623 
2772.000000	99.569727 
2771.000000	99.570846 
2770.000000	99.572750 
2769.000000	99.575439 
2768.000000	99.578980 
2767.000000	99.583355 
2766.000000	99.587827 
2765.000000	99.590739 
2764.000000	99.590886 
2763.000000	99.589016 
2762.000000	99.587223 
2761.000000	99.586933 
2760.000000	99.588207 
2759.000000	99.590658 
2758.000000	99.593856 
2757.000000	99.596812 
2756.000000	99.598356 
2755.000000	99.598471 
2754.000000	99.598191 
2753.000000	99.597709 
2752.000000	99.595760 
2751.000000	99.591702 
2750.000000	99.587142 
2749.000000	99.584290 
2748.000000	99.583246 
2747.000000	99.582195 
2746.000000	99.580078 
2745.000000	99.577790 
2744.000000	99.576654 
2743.000000	99.576904 
2742.000000	99.578198 
2741.000000	99.580682 
2740.000000	99.584684 
2739.000000	99.589715 
2738.000000	99.594509 
2737.000000	99.598051 
2736.000000	99.600167 
2735.000000	99.601116 
2734.000000	99.600932 
2733.000000	99.599311 
2732.000000	99.596093 
2731.000000	99.591868 
2730.000000	99.588095 
2729.000000	99.586459 
2728.000000	99.587863 
2727.000000	99.591884 
2726.000000	99.597042 
2725.000000	99.601547 
2724.000000	99.604181 
2723.000000	99.604974 
2722.000000	99.605081 
2721.000000	99.605673 
2720.000000	99.606772 
2719.000000	99.607419 
2718.000000	99.606950 
2717.000000	99.605804 
2716.000000	99.605124 
2715.000000	99.606011 
2714.000000	99.609093 
2713.000000	99.613974 
2712.000000	99.618737 
2711.000000	99.620850 
2710.000000	99.619499 
2709.000000	99.616749 
2708.000000	99.615538 
2707.000000	99.616535 
2706.000000	99.617610 
2705.000000	99.616504 
2704.000000	99.613383 
2703.000000	99.610475 
2702.000000	99.609632 
2701.000000	99.610596 
2700.000000	99.611499 
2699.000000	99.610800 
2698.000000	99.608660 
2697.000000	99.606487 
2696.000000	99.605445 
2695.000000	99.605774 
2694.000000	99.607428 
2693.000000	99.610387 
2692.000000	99.613687 
2691.000000	99.615014 
2690.000000	99.612715 
2689.000000	99.608417 
2688.000000	99.606358 
2687.000000	99.609273 
2686.000000	99.615343 
2685.000000	99.619882 
2684.000000	99.619902 
2683.000000	99.616612 
2682.000000	99.613614 
2681.000000	99.613226 
2680.000000	99.614787 
2679.000000	99.616169 
2678.000000	99.616397 
2677.000000	99.616445 
2676.000000	99.617633 
2675.000000	99.619790 
2674.000000	99.621307 
2673.000000	99.620699 
2672.000000	99.617772 
2671.000000	99.613465 
2670.000000	99.608990 
2669.000000	99.605158 
2668.000000	99.602257 
2667.000000	99.600525 
2666.000000	99.600721 
2665.000000	99.603790 
2664.000000	99.609601 
2663.000000	99.616324 
2662.000000	99.621523 
2661.000000	99.623756 
2660.000000	99.622969 
2659.000000	99.619987 
2658.000000	99.616376 
2657.000000	99.614275 
2656.000000	99.615108 
2655.000000	99.618164 
2654.000000	99.621080 
2653.000000	99.621856 
2652.000000	99.619965 
2651.000000	99.615964 
2650.000000	99.611065 
2649.000000	99.606956 
2648.000000	99.604748 
2647.000000	99.603849 
2646.000000	99.602943 
2645.000000	99.602255 
2644.000000	99.603464 
2643.000000	99.606877 
2642.000000	99.610202 
2641.000000	99.611211 
2640.000000	99.610667 
2639.000000	99.611425 
2638.000000	99.615171 
2637.000000	99.620807 
2636.000000	99.625369 
2635.000000	99.625853 
2634.000000	99.621152 
2633.000000	99.613472 
2632.000000	99.607294 
2631.000000	99.605726 
2630.000000	99.608097 
2629.000000	99.611754 
2628.000000	99.615379 
2627.000000	99.619387 
2626.000000	99.623902 
2625.000000	99.628074 
2624.000000	99.631194 
2623.000000	99.632972 
2622.000000	99.632688 
2621.000000	99.629686 
2620.000000	99.625016 
2619.000000	99.621204 
2618.000000	99.619780 
2617.000000	99.620066 
2616.000000	99.620855 
2615.000000	99.622099 
2614.000000	99.624039 
2613.000000	99.625559 
2612.000000	99.624719 
2611.000000	99.620957 
2610.000000	99.616055 
2609.000000	99.612740 
2608.000000	99.612722 
2607.000000	99.616141 
2606.000000	99.622290 
2605.000000	99.630011 
2604.000000	99.637163 
2603.000000	99.640636 
2602.000000	99.638315 
2601.000000	99.631430 
2600.000000	99.624119 
2599.000000	99.620094 
2598.000000	99.620211 
2597.000000	99.623328 
2596.000000	99.628002 
2595.000000	99.632279 
2594.000000	99.633265 
2593.000000	99.629241 
2592.000000	99.622379 
2591.000000	99.617625 
2590.000000	99.618191 
2589.000000	99.622997 
2588.000000	99.628644 
2587.000000	99.632575 
2586.000000	99.633734 
2585.000000	99.631566 
2584.000000	99.626036 
2583.000000	99.618569 
2582.000000	99.611814 
2581.000000	99.607766 
2580.000000	99.606119 
2579.000000	99.604804 
2578.000000	99.602498 
2577.000000	99.600640 
2576.000000	99.602410 
2575.000000	99.609122 
2574.000000	99.617965 
2573.000000	99.624047 
2572.000000	99.624645 
2571.000000	99.620839 
2570.000000	99.615294 
2569.000000	99.609798 
2568.000000	99.605357 
2567.000000	99.603257 
2566.000000	99.604478 
2565.000000	99.608176 
2564.000000	99.611797 
2563.000000	99.613018 
2562.000000	99.611250 
2561.000000	99.607631 
2560.000000	99.604474 
2559.000000	99.604464 
2558.000000	99.608660 
2557.000000	99.614295 
2556.000000	99.616006 
2555.000000	99.611263 
2554.000000	99.604216 
2553.000000	99.602072 
2552.000000	99.607240 
2551.000000	99.614932 
2550.000000	99.619236 
2549.000000	99.619303 
2548.000000	99.617925 
2547.000000	99.616252 
2546.000000	99.613186 
2545.000000	99.609260 
2544.000000	99.607575 
2543.000000	99.609931 
2542.000000	99.614430 
2541.000000	99.617997 
2540.000000	99.619439 
2539.000000	99.619031 
2538.000000	99.616917 
2537.000000	99.613287 
2536.000000	99.608874 
2535.000000	99.604158 
2534.000000	99.599235 
2533.000000	99.595157 
2532.000000	99.593752 
2531.000000	99.595128 
2530.000000	99.597183 
2529.000000	99.598942 
2528.000000	99.602421 
2527.000000	99.609277 
2526.000000	99.617453 
2525.000000	99.623690 
2524.000000	99.628006 
2523.000000	99.632659 
2522.000000	99.637312 
2521.000000	99.638551 
2520.000000	99.634756 
2519.000000	99.628711 
2518.000000	99.624252 
2517.000000	99.622147 
2516.000000	99.620462 
2515.000000	99.617881 
2514.000000	99.615628 
2513.000000	99.616262 
2512.000000	99.620364 
2511.000000	99.624042 
2510.000000	99.621176 
2509.000000	99.610235 
2508.000000	99.598030 
2507.000000	99.593685 
2506.000000	99.598517 
2505.000000	99.604587 
2504.000000	99.604217 
2503.000000	99.598233 
2502.000000	99.593220 
2501.000000	99.593353 
2500.000000	99.597637 
2499.000000	99.603533 
2498.000000	99.609888 
2497.000000	99.616174 
2496.000000	99.621395 
2495.000000	99.624631 
2494.000000	99.625441 
2493.000000	99.623357 
2492.000000	99.618045 
2491.000000	99.610236 
2490.000000	99.601565 
2489.000000	99.593230 
2488.000000	99.585628 
2487.000000	99.579477 
2486.000000	99.576447 
2485.000000	99.578213 
2484.000000	99.585200 
2483.000000	99.596077 
2482.000000	99.607786 
2481.000000	99.616372 
2480.000000	99.619328 
2479.000000	99.617768 
2478.000000	99.615326 
2477.000000	99.614252 
2476.000000	99.613383 
2475.000000	99.610729 
2474.000000	99.607051 
2473.000000	99.605455 
2472.000000	99.607692 
2471.000000	99.612193 
2470.000000	99.615771 
2469.000000	99.616018 
2468.000000	99.611939 
2467.000000	99.604040 
2466.000000	99.595025 
2465.000000	99.589234 
2464.000000	99.589411 
2463.000000	99.593844 
2462.000000	99.597810 
2461.000000	99.598168 
2460.000000	99.595874 
2459.000000	99.594044 
2458.000000	99.594595 
2457.000000	99.597129 
2456.000000	99.600018 
2455.000000	99.601632 
2454.000000	99.600938 
2453.000000	99.597931 
2452.000000	99.593793 
2451.000000	99.590201 
2450.000000	99.588116 
2449.000000	99.587206 
2448.000000	99.586554 
2447.000000	99.586079 
2446.000000	99.587191 
2445.000000	99.591611 
2444.000000	99.599310 
2443.000000	99.608067 
2442.000000	99.615399 
2441.000000	99.620424 
2440.000000	99.623216 
2439.000000	99.623159 
2438.000000	99.619407 
2437.000000	99.612918 
2436.000000	99.606420 
2435.000000	99.601640 
2434.000000	99.597623 
2433.000000	99.592556 
2432.000000	99.586407 
2431.000000	99.580952 
2430.000000	99.577906 
2429.000000	99.578017 
2428.000000	99.581559 
2427.000000	99.588391 
2426.000000	99.596986 
2425.000000	99.603937 
2424.000000	99.605404 
2423.000000	99.600072 
2422.000000	99.591198 
2421.000000	99.585084 
2420.000000	99.586166 
2419.000000	99.593208 
2418.000000	99.600843 
2417.000000	99.604736 
2416.000000	99.604357 
2415.000000	99.601166 
2414.000000	99.596297 
2413.000000	99.591034 
2412.000000	99.587658 
2411.000000	99.587718 
2410.000000	99.590041 
2409.000000	99.592131 
2408.000000	99.593316 
2407.000000	99.595024 
2406.000000	99.598104 
2405.000000	99.601530 
2404.000000	99.604133 
2403.000000	99.606091 
2402.000000	99.607811 
2401.000000	99.608378 
2400.000000	99.606258 
2399.000000	99.601279 
2398.000000	99.595142 
2397.000000	99.590034 
2396.000000	99.587300 
2395.000000	99.587280 
2394.000000	99.589617 
2393.000000	99.593280 
2392.000000	99.596861 
2391.000000	99.599624 
2390.000000	99.602213 
2389.000000	99.605620 
2388.000000	99.609386 
2387.000000	99.611690 
2386.000000	99.611711 
2385.000000	99.611009 
2384.000000	99.611642 
2383.000000	99.613586 
2382.000000	99.615257 
2381.000000	99.616089 
2380.000000	99.616753 
2379.000000	99.616613 
2378.000000	99.613231 
2377.000000	99.606037 
2376.000000	99.599138 
2375.000000	99.598106 
2374.000000	99.604202 
2373.000000	99.613753 
2372.000000	99.623284 
2371.000000	99.632998 
2370.000000	99.644031 
2369.000000	99.653860 
2368.000000	99.656278 
2367.000000	99.646553 
2366.000000	99.627130 
2365.000000	99.608568 
2364.000000	99.602995 
2363.000000	99.614149 
2362.000000	99.633779 
2361.000000	99.649206 
2360.000000	99.654319 
2359.000000	99.651839 
2358.000000	99.646873 
2357.000000	99.641823 
2356.000000	99.637429 
2355.000000	99.635055 
2354.000000	99.635274 
2353.000000	99.636688 
2352.000000	99.637547 
2351.000000	99.637525 
2350.000000	99.637546 
2349.000000	99.638623 
2348.000000	99.641809 
2347.000000	99.646864 
2346.000000	99.650666 
2345.000000	99.649302 
2344.000000	99.642935 
2343.000000	99.636680 
2342.000000	99.634577 
2341.000000	99.635851 
2340.000000	99.636954 
2339.000000	99.635564 
2338.000000	99.632206 
2337.000000	99.629211 
2336.000000	99.629078 
2335.000000	99.632562 
2334.000000	99.637567 
2333.000000	99.640443 
2332.000000	99.638868 
2331.000000	99.633057 
2330.000000	99.625108 
2329.000000	99.617698 
2328.000000	99.614101 
2327.000000	99.616550 
2326.000000	99.623619 
2325.000000	99.629893 
2324.000000	99.629872 
2323.000000	99.623818 
2322.000000	99.617989 
2321.000000	99.618565 
2320.000000	99.625241 
2319.000000	99.632314 
2318.000000	99.634900 
2317.000000	99.632521 
2316.000000	99.627657 
2315.000000	99.622693 
2314.000000	99.619005 
2313.000000	99.617016 
2312.000000	99.616561 
2311.000000	99.617739 
2310.000000	99.621802 
2309.000000	99.629537 
2308.000000	99.638270 
2307.000000	99.642402 
2306.000000	99.638624 
2305.000000	99.629650 
2304.000000	99.621071 
2303.000000	99.615563 
2302.000000	99.611899 
2301.000000	99.608469 
2300.000000	99.605006 
2299.000000	99.601053 
2298.000000	99.595841 
2297.000000	99.590552 
2296.000000	99.588304 
2295.000000	99.590307 
2294.000000	99.593668 
2293.000000	99.594384 
2292.000000	99.591430 
2291.000000	99.586888 
2290.000000	99.583214 
2289.000000	99.581622 
2288.000000	99.581935 
2287.000000	99.582808 
2286.000000	99.582769 
2285.000000	99.581987 
2284.000000	99.582027 
2283.000000	99.582913 
2282.000000	99.581543 
2281.000000	99.574684 
2280.000000	99.563338 
2279.000000	99.553171 
2278.000000	99.550534 
2277.000000	99.557751 
2276.000000	99.571096 
2275.000000	99.583120 
2274.000000	99.588076 
2273.000000	99.585471 
2272.000000	99.577855 
2271.000000	99.566643 
2270.000000	99.553164 
2269.000000	99.542965 
2268.000000	99.543856 
2267.000000	99.557251 
2266.000000	99.574615 
2265.000000	99.585196 
2264.000000	99.585383 
2263.000000	99.579151 
2262.000000	99.572954 
2261.000000	99.572536 
2260.000000	99.580379 
2259.000000	99.591779 
2258.000000	99.596078 
2257.000000	99.586903 
2256.000000	99.570053 
2255.000000	99.557134 
2254.000000	99.552780 
2253.000000	99.552635 
2252.000000	99.552688 
2251.000000	99.554708 
2250.000000	99.561651 
2249.000000	99.572404 
2248.000000	99.583177 
2247.000000	99.591002 
2246.000000	99.594308 
2245.000000	99.592531 
2244.000000	99.586527 
2243.000000	99.578119 
2242.000000	99.568717 
2241.000000	99.559478 
2240.000000	99.552103 
2239.000000	99.547458 
2238.000000	99.543767 
2237.000000	99.538149 
2236.000000	99.529496 
2235.000000	99.518170 
2234.000000	99.504360 
2233.000000	99.489827 
2232.000000	99.480274 
2231.000000	99.482129 
2230.000000	99.496333 
2229.000000	99.517661 
2228.000000	99.540051 
2227.000000	99.559644 
2226.000000	99.572714 
2225.000000	99.575106 
2224.000000	99.566142 
2223.000000	99.550929 
2222.000000	99.537003 
2221.000000	99.529415 
2220.000000	99.529011 
2219.000000	99.533643 
2218.000000	99.540495 
2217.000000	99.548624 
2216.000000	99.559569 
2215.000000	99.574195 
2214.000000	99.588812 
2213.000000	99.595954 
2212.000000	99.590007 
2211.000000	99.572484 
2210.000000	99.552802 
2209.000000	99.543421 
2208.000000	99.550655 
2207.000000	99.568118 
2206.000000	99.581319 
2205.000000	99.580725 
2204.000000	99.568745 
2203.000000	99.553247 
2202.000000	99.538771 
2201.000000	99.526933 
2200.000000	99.519968 
2199.000000	99.518001 
2198.000000	99.515949 
2197.000000	99.509521 
2196.000000	99.502825 
2195.000000	99.504178 
2194.000000	99.515218 
2193.000000	99.529290 
2192.000000	99.539443 
2191.000000	99.542671 
2190.000000	99.537727 
2189.000000	99.525837 
2188.000000	99.513833 
2187.000000	99.510139 
2186.000000	99.516637 
2185.000000	99.528869 
2184.000000	99.542934 
2183.000000	99.555845 
2182.000000	99.560800 
2181.000000	99.552158 
2180.000000	99.536630 
2179.000000	99.529521 
2178.000000	99.536212 
2177.000000	99.544917 
2176.000000	99.541667 
2175.000000	99.526182 
2174.000000	99.508486 
2173.000000	99.495675 
2172.000000	99.487362 
2171.000000	99.480390 
2170.000000	99.473624 
2169.000000	99.470301 
2168.000000	99.477290 
2167.000000	99.498092 
2166.000000	99.524792 
2165.000000	99.542088 
2164.000000	99.542581 
2163.000000	99.533388 
2162.000000	99.525472 
2161.000000	99.522881 
2160.000000	99.524731 
2159.000000	99.529484 
2158.000000	99.532230 
2157.000000	99.526196 
2156.000000	99.513056 
2155.000000	99.504040 
2154.000000	99.506320 
2153.000000	99.514993 
2152.000000	99.522350 
2151.000000	99.528866 
2150.000000	99.539879 
2149.000000	99.556526 
2148.000000	99.575104 
2147.000000	99.590581 
2146.000000	99.595779 
2145.000000	99.583016 
2144.000000	99.554019 
2143.000000	99.524367 
2142.000000	99.511073 
2141.000000	99.517094 
2140.000000	99.532302 
2139.000000	99.546451 
2138.000000	99.554797 
2137.000000	99.554274 
2136.000000	99.543746 
2135.000000	99.529367 
2134.000000	99.522365 
2133.000000	99.527880 
2132.000000	99.539425 
2131.000000	99.546186 
2130.000000	99.542954 
2129.000000	99.532588 
2128.000000	99.522048 
2127.000000	99.516809 
2126.000000	99.516953 
2125.000000	99.518264 
2124.000000	99.518923 
2123.000000	99.524074 
2122.000000	99.539930 
2121.000000	99.563059 
2120.000000	99.580115 
2119.000000	99.580754 
2118.000000	99.568036 
2117.000000	99.553921 
2116.000000	99.547132 
2115.000000	99.548303 
2114.000000	99.554624 
2113.000000	99.563973 
2112.000000	99.573409 
2111.000000	99.577451 
2110.000000	99.571356 
2109.000000	99.556199 
2108.000000	99.539173 
2107.000000	99.528069 
2106.000000	99.525370 
2105.000000	99.527210 
2104.000000	99.527722 
2103.000000	99.524720 
2102.000000	99.521429 
2101.000000	99.522442 
2100.000000	99.527889 
2099.000000	99.532431 
2098.000000	99.531070 
2097.000000	99.525537 
2096.000000	99.522841 
2095.000000	99.526197 
2094.000000	99.529150 
2093.000000	99.521765 
2092.000000	99.502921 
2091.000000	99.483817 
2090.000000	99.477591 
2089.000000	99.486236 
2088.000000	99.499220 
2087.000000	99.504968 
2086.000000	99.501718 
2085.000000	99.496563 
2084.000000	99.495895 
2083.000000	99.499055 
2082.000000	99.501420 
2081.000000	99.501342 
2080.000000	99.501913 
2079.000000	99.506380 
2078.000000	99.514422 
2077.000000	99.524321 
2076.000000	99.536870 
2075.000000	99.554007 
2074.000000	99.573274 
2073.000000	99.586566 
2072.000000	99.586597 
2071.000000	99.573922 
2070.000000	99.556497 
2069.000000	99.543091 
2068.000000	99.537538 
2067.000000	99.538015 
2066.000000	99.539798 
2065.000000	99.538451 
2064.000000	99.532415 
2063.000000	99.524210 
2062.000000	99.519191 
2061.000000	99.522042 
2060.000000	99.533025 
2059.000000	99.547122 
2058.000000	99.557214 
2057.000000	99.558610 
2056.000000	99.550945 
2055.000000	99.536650 
2054.000000	99.519339 
2053.000000	99.504192 
2052.000000	99.497358 
2051.000000	99.502185 
2050.000000	99.515303 
2049.000000	99.527339 
2048.000000	99.529357 
2047.000000	99.519525 
2046.000000	99.503629 
2045.000000	99.490183 
2044.000000	99.484733 
2043.000000	99.486855 
2042.000000	99.491650 
2041.000000	99.494822 
2040.000000	99.496736 
2039.000000	99.500687 
2038.000000	99.507424 
2037.000000	99.512982 
2036.000000	99.512347 
2035.000000	99.504146 
2034.000000	99.491377 
2033.000000	99.478717 
2032.000000	99.469465 
2031.000000	99.464009 
2030.000000	99.460775 
2029.000000	99.458548 
2028.000000	99.457250 
2027.000000	99.456496 
2026.000000	99.455494 
2025.000000	99.456099 
2024.000000	99.463148 
2023.000000	99.477711 
2022.000000	99.491064 
2021.000000	99.490812 
2020.000000	99.475272 
2019.000000	99.457437 
2018.000000	99.451609 
2017.000000	99.458477 
2016.000000	99.466724 
2015.000000	99.467789 
2014.000000	99.463757 
2013.000000	99.461035 
2012.000000	99.461452 
2011.000000	99.461846 
2010.000000	99.460258 
2009.000000	99.459565 
2008.000000	99.464474 
2007.000000	99.475973 
2006.000000	99.489752 
2005.000000	99.500552 
2004.000000	99.507404 
2003.000000	99.513598 
2002.000000	99.521300 
2001.000000	99.527101 
2000.000000	99.524099 
1999.000000	99.508913 
1998.000000	99.487402 
1997.000000	99.472847 
1996.000000	99.475874 
1995.000000	99.495437 
1994.000000	99.520442 
1993.000000	99.539232 
1992.000000	99.546871 
1991.000000	99.544297 
1990.000000	99.533988 
1989.000000	99.519924 
1988.000000	99.508637 
1987.000000	99.504668 
1986.000000	99.505134 
1985.000000	99.503101 
1984.000000	99.496853 
1983.000000	99.491825 
1982.000000	99.491743 
1981.000000	99.491456 
1980.000000	99.482236 
1979.000000	99.463143 
1978.000000	99.444397 
1977.000000	99.437535 
1976.000000	99.442765 
1975.000000	99.449586 
1974.000000	99.451045 
1973.000000	99.454079 
1972.000000	99.471933 
1971.000000	99.506000 
1970.000000	99.539095 
1969.000000	99.550064 
1968.000000	99.534582 
1967.000000	99.508878 
1966.000000	99.492059 
1965.000000	99.488635 
1964.000000	99.490208 
1963.000000	99.488753 
1962.000000	99.483754 
1961.000000	99.479189 
1960.000000	99.477969 
1959.000000	99.480029 
1958.000000	99.483554 
1957.000000	99.486452 
1956.000000	99.487701 
1955.000000	99.488415 
1954.000000	99.490993 
1953.000000	99.495990 
1952.000000	99.500067 
1951.000000	99.498924 
1950.000000	99.492449 
1949.000000	99.485629 
1948.000000	99.483448 
1947.000000	99.485126 
1946.000000	99.484722 
1945.000000	99.477569 
1944.000000	99.465240 
1943.000000	99.454349 
1942.000000	99.451089 
1941.000000	99.456443 
1940.000000	99.466087 
1939.000000	99.474822 
1938.000000	99.481326 
1937.000000	99.488722 
1936.000000	99.499531 
1935.000000	99.510397 
1934.000000	99.514889 
1933.000000	99.512338 
1932.000000	99.510301 
1931.000000	99.515865 
1930.000000	99.526446 
1929.000000	99.533202 
1928.000000	99.532592 
1927.000000	99.529654 
1926.000000	99.530229 
1925.000000	99.533868 
1924.000000	99.536391 
1923.000000	99.536696 
1922.000000	99.537594 
1921.000000	99.540607 
1920.000000	99.542520 
1919.000000	99.537383 
1918.000000	99.522258 
1917.000000	99.502693 
1916.000000	99.489330 
1915.000000	99.487461 
1914.000000	99.493456 
1913.000000	99.500528 
1912.000000	99.505579 
1911.000000	99.510015 
1910.000000	99.514439 
1909.000000	99.516880 
1908.000000	99.517094 
1907.000000	99.518038 
1906.000000	99.521935 
1905.000000	99.527161 
1904.000000	99.530912 
1903.000000	99.532671 
1902.000000	99.532843 
1901.000000	99.531118 
1900.000000	99.527680 
1899.000000	99.523907 
1898.000000	99.521370 
1897.000000	99.520882 
1896.000000	99.522751 
1895.000000	99.526373 
1894.000000	99.529144 
1893.000000	99.528813 
1892.000000	99.526978 
1891.000000	99.527149 
1890.000000	99.528859 
1889.000000	99.527365 
1888.000000	99.521072 
1887.000000	99.514477 
1886.000000	99.512490 
1885.000000	99.515958 
1884.000000	99.523135 
1883.000000	99.532497 
1882.000000	99.541796 
1881.000000	99.547483 
1880.000000	99.548213 
1879.000000	99.546908 
1878.000000	99.547765 
1877.000000	99.552002 
1876.000000	99.557392 
1875.000000	99.560984 
1874.000000	99.560462 
1873.000000	99.554514 
1872.000000	99.544441 
1871.000000	99.534348 
1870.000000	99.527859 
1869.000000	99.524719 
1868.000000	99.522969 
1867.000000	99.522092 
1866.000000	99.520981 
1865.000000	99.517340 
1864.000000	99.510675 
1863.000000	99.503549 
1862.000000	99.499358 
1861.000000	99.499759 
1860.000000	99.505211 
1859.000000	99.515937 
1858.000000	99.529822 
1857.000000	99.541490 
1856.000000	99.546882 
1855.000000	99.547729 
1854.000000	99.548549 
1853.000000	99.550492 
1852.000000	99.551034 
1851.000000	99.548366 
1850.000000	99.544757 
1849.000000	99.544661 
1848.000000	99.549638 
1847.000000	99.556380 
1846.000000	99.559847 
1845.000000	99.558087 
1844.000000	99.554901 
1843.000000	99.556327 
1842.000000	99.562426 
1841.000000	99.567799 
1840.000000	99.568638 
1839.000000	99.564987 
1838.000000	99.559509 
1837.000000	99.554928 
1836.000000	99.552487 
1835.000000	99.552020 
1834.000000	99.552514 
1833.000000	99.553047 
1832.000000	99.552678 
1831.000000	99.549724 
1830.000000	99.544073 
1829.000000	99.539803 
1828.000000	99.540384 
1827.000000	99.543925 
1826.000000	99.546730 
1825.000000	99.547639 
1824.000000	99.548074 
1823.000000	99.548315 
1822.000000	99.545445 
1821.000000	99.537915 
1820.000000	99.529956 
1819.000000	99.528814 
1818.000000	99.536929 
1817.000000	99.548147 
1816.000000	99.555282 
1815.000000	99.558595 
1814.000000	99.562701 
1813.000000	99.568830 
1812.000000	99.573387 
1811.000000	99.574353 
1810.000000	99.574039 
1809.000000	99.573649 
1808.000000	99.571676 
1807.000000	99.567550 
1806.000000	99.562531 
1805.000000	99.557713 
1804.000000	99.553752 
1803.000000	99.551289 
1802.000000	99.549288 
1801.000000	99.544987 
1800.000000	99.537992 
1799.000000	99.533393 
1798.000000	99.536468 
1797.000000	99.546243 
1796.000000	99.557706 
1795.000000	99.567025 
1794.000000	99.572709 
1793.000000	99.573216 
1792.000000	99.567785 
1791.000000	99.560979 
1790.000000	99.557871 
1789.000000	99.557797 
1788.000000	99.558360 
1787.000000	99.559391 
1786.000000	99.561865 
1785.000000	99.564984 
1784.000000	99.567001 
1783.000000	99.567448 
1782.000000	99.566601 
1781.000000	99.565235 
1780.000000	99.563492 
1779.000000	99.561076 
1778.000000	99.558257 
1777.000000	99.556078 
1776.000000	99.555660 
1775.000000	99.555899 
1774.000000	99.554832 
1773.000000	99.553189 
1772.000000	99.554228 
1771.000000	99.559527 
1770.000000	99.565678 
1769.000000	99.567543 
1768.000000	99.563741 
1767.000000	99.557365 
1766.000000	99.552473 
1765.000000	99.550615 
1764.000000	99.551075 
1763.000000	99.552442 
1762.000000	99.553452 
1761.000000	99.554390 
1760.000000	99.555572 
1759.000000	99.556792 
1758.000000	99.558934 
1757.000000	99.564026 
1756.000000	99.572006 
1755.000000	99.578596 
1754.000000	99.580369 
1753.000000	99.579483 
1752.000000	99.580430 
1751.000000	99.582437 
1750.000000	99.580792 
1749.000000	99.574955 
1748.000000	99.569810 
1747.000000	99.568742 
1746.000000	99.570026 
1745.000000	99.571049 
1744.000000	99.571275 
1743.000000	99.571750 
1742.000000	99.573166 
1741.000000	99.574562 
1740.000000	99.574708 
1739.000000	99.574783 
1738.000000	99.576342 
1737.000000	99.578267 
1736.000000	99.580317 
1735.000000	99.585131 
1734.000000	99.589855 
1733.000000	99.589810 
1732.000000	99.585138 
1731.000000	99.576957 
1730.000000	99.568511 
1729.000000	99.563920 
1728.000000	99.564118 
1727.000000	99.566706 
1726.000000	99.569445 
1725.000000	99.571994 
1724.000000	99.573591 
1723.000000	99.573972 
1722.000000	99.574013 
1721.000000	99.574129 
1720.000000	99.574455 
1719.000000	99.576424 
1718.000000	99.580289 
1717.000000	99.581731 
1716.000000	99.578987 
1715.000000	99.576862 
1714.000000	99.578273 
1713.000000	99.580278 
1712.000000	99.579338 
1711.000000	99.576284 
1710.000000	99.574534 
1709.000000	99.575431 
1708.000000	99.577210 
1707.000000	99.578214 
1706.000000	99.578836 
1705.000000	99.578634 
1704.000000	99.576877 
1703.000000	99.573897 
1702.000000	99.572868 
1701.000000	99.575396 
1700.000000	99.575505 
1699.000000	99.574637 
1698.000000	99.576926 
1697.000000	99.577343 
1696.000000	99.572932 
1695.000000	99.568241 
1694.000000	99.567389 
1693.000000	99.567542 
1692.000000	99.566138 
1691.000000	99.565132 
1690.000000	99.565870 
1689.000000	99.567060 
1688.000000	99.567545 
1687.000000	99.567459 
1686.000000	99.569949 
1685.000000	99.575430 
1684.000000	99.577223 
1683.000000	99.576643 
1682.000000	99.576294 
1681.000000	99.573945 
1680.000000	99.572193 
1679.000000	99.572682 
1678.000000	99.572662 
1677.000000	99.570209 
1676.000000	99.567813 
1675.000000	99.568599 
1674.000000	99.572610 
1673.000000	99.578018 
1672.000000	99.582934 
1671.000000	99.587099 
1670.000000	99.588318 
1669.000000	99.585134 
1668.000000	99.581327 
1667.000000	99.578765 
1666.000000	99.576128 
1665.000000	99.573408 
1664.000000	99.572480 
1663.000000	99.574322 
1662.000000	99.576257 
1661.000000	99.576194 
1660.000000	99.575579 
1659.000000	99.576581 
1658.000000	99.578688 
1657.000000	99.579445 
1656.000000	99.577205 
1655.000000	99.573913 
1654.000000	99.572252 
1653.000000	99.569504 
1652.000000	99.573313 
1651.000000	99.585203 
1650.000000	99.593701 
1649.000000	99.596199 
1648.000000	99.594774 
1647.000000	99.590077 
1646.000000	99.585558 
1645.000000	99.585536 
1644.000000	99.588745 
1643.000000	99.592401 
1642.000000	99.594977 
1641.000000	99.596054 
1640.000000	99.595949 
1639.000000	99.595090 
1638.000000	99.594365 
1637.000000	99.595393 
1636.000000	99.597240 
1635.000000	99.596881 
1634.000000	99.594062 
1633.000000	99.588896 
1632.000000	99.582086 
1631.000000	99.576319 
1630.000000	99.573171 
1629.000000	99.572481 
1628.000000	99.573894 
1627.000000	99.576764 
1626.000000	99.579060 
1625.000000	99.579661 
1624.000000	99.579760 
1623.000000	99.580421 
1622.000000	99.581073 
1621.000000	99.581184 
1620.000000	99.581073 
1619.000000	99.581306 
1618.000000	99.582181 
1617.000000	99.582839 
1616.000000	99.585130 
1615.000000	99.590613 
1614.000000	99.595508 
1613.000000	99.597443 
1612.000000	99.599033 
1611.000000	99.602130 
1610.000000	99.603847 
1609.000000	99.601728 
1608.000000	99.598519 
1607.000000	99.597414 
1606.000000	99.597209 
1605.000000	99.596227 
1604.000000	99.595525 
1603.000000	99.596064 
1602.000000	99.597215 
1601.000000	99.598589 
1600.000000	99.600635 
1599.000000	99.602643 
1598.000000	99.603189 
1597.000000	99.602654 
1596.000000	99.602565 
1595.000000	99.602553 
1594.000000	99.600579 
1593.000000	99.597183 
1592.000000	99.596039 
1591.000000	99.598939 
1590.000000	99.603355 
1589.000000	99.606823 
1588.000000	99.610318 
1587.000000	99.615064 
1586.000000	99.619089 
1585.000000	99.620073 
1584.000000	99.619262 
1583.000000	99.618380 
1582.000000	99.616782 
1581.000000	99.614120 
1580.000000	99.611480 
1579.000000	99.608315 
1578.000000	99.602958 
1577.000000	99.596466 
1576.000000	99.593246 
1575.000000	99.595861 
1574.000000	99.599879 
1573.000000	99.601168 
1572.000000	99.601506 
1571.000000	99.604294 
1570.000000	99.607552 
1569.000000	99.608468 
1568.000000	99.609710 
1567.000000	99.611679 
1566.000000	99.611704 
1565.000000	99.609302 
1564.000000	99.606302 
1563.000000	99.602070 
1562.000000	99.595550 
1561.000000	99.589455 
1560.000000	99.593053 
1559.000000	99.596092 
1558.000000	99.593873 
1557.000000	99.597427 
1556.000000	99.602681 
1555.000000	99.605673 
1554.000000	99.606713 
1553.000000	99.606535 
1552.000000	99.605474 
1551.000000	99.602960 
1550.000000	99.600637 
1549.000000	99.600500 
1548.000000	99.602397 
1547.000000	99.603279 
1546.000000	99.600098 
1545.000000	99.592627 
1544.000000	99.584980 
1543.000000	99.583093 
1542.000000	99.589347 
1541.000000	99.598403 
1540.000000	99.600968 
1539.000000	99.599379 
1538.000000	99.599759 
1537.000000	99.600255 
1536.000000	99.599688 
1535.000000	99.600194 
1534.000000	99.600403 
1533.000000	99.596624 
1532.000000	99.591004 
1531.000000	99.588355 
1530.000000	99.588977 
1529.000000	99.589623 
1528.000000	99.588039 
1527.000000	99.586254 
1526.000000	99.587459 
1525.000000	99.591131 
1524.000000	99.594446 
1523.000000	99.597514 
1522.000000	99.601358 
1521.000000	99.603545 
1520.000000	99.602128 
1519.000000	99.596490 
1518.000000	99.586784 
1517.000000	99.576099 
1516.000000	99.569429 
1515.000000	99.568845 
1514.000000	99.571818 
1513.000000	99.575987 
1512.000000	99.579705 
1511.000000	99.580816 
1510.000000	99.578496 
1509.000000	99.573873 
1508.000000	99.570727 
1507.000000	99.571291 
1506.000000	99.576511 
1505.000000	99.581963 
1504.000000	99.582973 
1503.000000	99.581494 
1502.000000	99.580442 
1501.000000	99.579416 
1500.000000	99.575392 
1499.000000	99.567435 
1498.000000	99.559812 
1497.000000	99.555984 
1496.000000	99.554519 
1495.000000	99.555738 
1494.000000	99.561454 
1493.000000	99.570151 
1492.000000	99.578133 
1491.000000	99.581748 
1490.000000	99.579179 
1489.000000	99.571929 
1488.000000	99.563214 
1487.000000	99.556751 
1486.000000	99.553281 
1485.000000	99.550014 
1484.000000	99.545886 
1483.000000	99.542007 
1482.000000	99.539984 
1481.000000	99.539762 
1480.000000	99.540132 
1479.000000	99.540771 
1478.000000	99.541752 
1477.000000	99.541780 
1476.000000	99.539915 
1475.000000	99.538870 
1474.000000	99.540892 
1473.000000	99.542875 
1472.000000	99.541689 
1471.000000	99.540745 
1470.000000	99.542497 
1469.000000	99.543867 
1468.000000	99.541820 
1467.000000	99.537138 
1466.000000	99.532950 
1465.000000	99.531257 
1464.000000	99.532543 
1463.000000	99.536231 
1462.000000	99.540564 
1461.000000	99.542740 
1460.000000	99.540461 
1459.000000	99.532900 
1458.000000	99.520789 
1457.000000	99.505779 
1456.000000	99.493256 
1455.000000	99.486673 
1454.000000	99.484276 
1453.000000	99.485324 
1452.000000	99.489530 
1451.000000	99.494936 
1450.000000	99.499579 
1449.000000	99.502587 
1448.000000	99.503770 
1447.000000	99.504467 
1446.000000	99.506153 
1445.000000	99.509224 
1444.000000	99.512900 
1443.000000	99.516108 
1442.000000	99.518667 
1441.000000	99.520487 
1440.000000	99.520761 
1439.000000	99.518988 
1438.000000	99.517679 
1437.000000	99.518771 
1436.000000	99.520326 
1435.000000	99.520333 
1434.000000	99.518987 
1433.000000	99.516762 
1432.000000	99.514070 
1431.000000	99.510891 
1430.000000	99.507972 
1429.000000	99.506527 
1428.000000	99.505617 
1427.000000	99.503383 
1426.000000	99.499345 
1425.000000	99.495944 
1424.000000	99.494691 
1423.000000	99.492685 
1422.000000	99.486239 
1421.000000	99.474676 
1420.000000	99.459554 
1419.000000	99.442789 
1418.000000	99.429209 
1417.000000	99.420448 
1416.000000	99.411037 
1415.000000	99.397082 
1414.000000	99.379667 
1413.000000	99.362133 
1412.000000	99.347011 
1411.000000	99.334787 
1410.000000	99.325293 
1409.000000	99.317816 
1408.000000	99.311210 
1407.000000	99.305898 
1406.000000	99.303520 
1405.000000	99.305852 
1404.000000	99.313453 
1403.000000	99.325202 
1402.000000	99.340008 
1401.000000	99.357165 
1400.000000	99.374557 
1399.000000	99.386613 
1398.000000	99.386133 
1397.000000	99.367122 
1396.000000	99.329177 
1395.000000	99.286271 
1394.000000	99.264469 
1393.000000	99.278333 
1392.000000	99.316048 
1391.000000	99.354950 
1390.000000	99.380418 
1389.000000	99.389716 
1388.000000	99.386614 
1387.000000	99.376457 
1386.000000	99.365028 
1385.000000	99.356910 
1384.000000	99.353334 
1383.000000	99.352330 
1382.000000	99.351358 
1381.000000	99.349959 
1380.000000	99.350474 
1379.000000	99.355411 
1378.000000	99.364458 
1377.000000	99.374968 
1376.000000	99.384768 
1375.000000	99.393414 
1374.000000	99.401849 
1373.000000	99.411777 
1372.000000	99.423626 
1371.000000	99.435835 
1370.000000	99.446109 
1369.000000	99.453732 
1368.000000	99.459944 
1367.000000	99.466049 
1366.000000	99.472584 
1365.000000	99.479834 
1364.000000	99.487886 
1363.000000	99.495726 
1362.000000	99.501581 
1361.000000	99.504870 
1360.000000	99.507156 
1359.000000	99.510982 
1358.000000	99.517767 
1357.000000	99.526552 
1356.000000	99.534526 
1355.000000	99.539384 
1354.000000	99.541681 
1353.000000	99.543857 
1352.000000	99.547018 
1351.000000	99.550208 
1350.000000	99.552049 
1349.000000	99.553314 
1348.000000	99.555664 
1347.000000	99.558518 
1346.000000	99.559827 
1345.000000	99.559271 
1344.000000	99.558503 
1343.000000	99.558401 
1342.000000	99.558397 
1341.000000	99.558565 
1340.000000	99.560022 
1339.000000	99.562523 
1338.000000	99.564268 
1337.000000	99.565007 
1336.000000	99.566578 
1335.000000	99.569584 
1334.000000	99.571907 
1333.000000	99.571666 
1332.000000	99.569949 
1331.000000	99.569076 
1330.000000	99.569525 
1329.000000	99.570292 
1328.000000	99.570945 
1327.000000	99.571473 
1326.000000	99.571000 
1325.000000	99.569076 
1324.000000	99.567147 
1323.000000	99.567188 
1322.000000	99.569602 
1321.000000	99.573419 
1320.000000	99.577905 
1319.000000	99.582669 
1318.000000	99.586593 
1317.000000	99.587986 
1316.000000	99.586226 
1315.000000	99.582547 
1314.000000	99.578923 
1313.000000	99.576389 
1312.000000	99.574624 
1311.000000	99.572976 
1310.000000	99.571461 
1309.000000	99.570508 
1308.000000	99.570004 
1307.000000	99.569249 
1306.000000	99.567896 
1305.000000	99.566857 
1304.000000	99.567428 
1303.000000	99.569725 
1302.000000	99.572541 
1301.000000	99.574582 
1300.000000	99.575464 
1299.000000	99.575709 
1298.000000	99.576202 
1297.000000	99.577308 
1296.000000	99.578215 
1295.000000	99.577482 
1294.000000	99.574746 
1293.000000	99.571352 
1292.000000	99.568665 
1291.000000	99.566484 
1290.000000	99.564042 
1289.000000	99.561850 
1288.000000	99.561105 
1287.000000	99.561420 
1286.000000	99.560711 
1285.000000	99.557731 
1284.000000	99.553407 
1283.000000	99.549245 
1282.000000	99.545571 
1281.000000	99.541959 
1280.000000	99.538502 
1279.000000	99.535593 
1278.000000	99.533074 
1277.000000	99.530484 
1276.000000	99.527773 
1275.000000	99.524902 
1274.000000	99.521078 
1273.000000	99.515386 
1272.000000	99.508217 
1271.000000	99.501353 
1270.000000	99.496235 
1269.000000	99.492389 
1268.000000	99.487622 
1267.000000	99.479668 
1266.000000	99.468120 
1265.000000	99.455165 
1264.000000	99.444064 
1263.000000	99.436337 
1262.000000	99.430339 
1261.000000	99.423193 
1260.000000	99.414301 
1259.000000	99.406129 
1258.000000	99.401309 
1257.000000	99.399808 
1256.000000	99.399645 
1255.000000	99.399530 
1254.000000	99.399489 
1253.000000	99.399144 
1252.000000	99.397249 
1251.000000	99.393949 
1250.000000	99.392279 
1249.000000	99.395780 
1248.000000	99.404642 
1247.000000	99.414915 
1246.000000	99.421019 
1245.000000	99.418364 
1244.000000	99.405423 
1243.000000	99.386574 
1242.000000	99.372551 
1241.000000	99.373707 
1240.000000	99.390242 
1239.000000	99.410744 
1238.000000	99.422453 
1237.000000	99.422078 
1236.000000	99.415367 
1235.000000	99.408620 
1234.000000	99.403625 
1233.000000	99.399338 
1232.000000	99.394474 
1231.000000	99.387864 
1230.000000	99.379288 
1229.000000	99.371208 
1228.000000	99.367746 
1227.000000	99.370734 
1226.000000	99.377923 
1225.000000	99.385758 
1224.000000	99.392543 
1223.000000	99.398167 
1222.000000	99.402505 
1221.000000	99.405732 
1220.000000	99.409419 
1219.000000	99.415664 
1218.000000	99.424875 
1217.000000	99.434949 
1216.000000	99.442724 
1215.000000	99.446256 
1214.000000	99.446020 
1213.000000	99.444029 
1212.000000	99.441794 
1211.000000	99.439725 
1210.000000	99.438550 
1209.000000	99.439899 
1208.000000	99.444153 
1207.000000	99.448658 
1206.000000	99.450016 
1205.000000	99.448040 
1204.000000	99.445818 
1203.000000	99.445832 
1202.000000	99.447674 
1201.000000	99.449728 
1200.000000	99.451200 
1199.000000	99.451765 
1198.000000	99.450875 
1197.000000	99.448397 
1196.000000	99.444803 
1195.000000	99.440160 
1194.000000	99.434226 
1193.000000	99.428124 
1192.000000	99.424284 
1191.000000	99.423383 
1190.000000	99.422633 
1189.000000	99.418699 
1188.000000	99.411670 
1187.000000	99.404831 
1186.000000	99.400980 
1185.000000	99.400141 
1184.000000	99.400468 
1183.000000	99.400137 
1182.000000	99.398422 
1181.000000	99.395917 
1180.000000	99.393751 
1179.000000	99.392038 
1178.000000	99.389595 
1177.000000	99.385902 
1176.000000	99.382532 
1175.000000	99.381245 
1174.000000	99.380908 
1173.000000	99.377931 
1172.000000	99.370219 
1171.000000	99.359646 
1170.000000	99.350066 
1169.000000	99.343526 
1168.000000	99.338987 
1167.000000	99.334337 
1166.000000	99.329098 
1165.000000	99.325086 
1164.000000	99.324582 
1163.000000	99.327994 
1162.000000	99.333532 
1161.000000	99.339154 
1160.000000	99.344298 
1159.000000	99.349265 
1158.000000	99.353357 
1157.000000	99.354338 
1156.000000	99.349971 
1155.000000	99.340296 
1154.000000	99.328693 
1153.000000	99.320277 
1152.000000	99.317975 
1151.000000	99.319578 
1150.000000	99.319458 
1149.000000	99.314101 
1148.000000	99.305427 
1147.000000	99.297986 
1146.000000	99.293646 
1145.000000	99.290108 
1144.000000	99.284183 
1143.000000	99.275135 
1142.000000	99.264841 
1141.000000	99.255977 
1140.000000	99.250508 
1139.000000	99.248807 
1138.000000	99.249319 
1137.000000	99.249385 
1136.000000	99.246992 
1135.000000	99.241800 
1134.000000	99.234426 
1133.000000	99.225035 
1132.000000	99.213064 
1131.000000	99.198663 
1130.000000	99.184303 
1129.000000	99.173926 
1128.000000	99.169155 
1127.000000	99.166316 
1126.000000	99.159030 
1125.000000	99.145105 
1124.000000	99.129667 
1123.000000	99.119744 
1122.000000	99.116395 
1121.000000	99.114106 
1120.000000	99.107599 
1119.000000	99.096715 
1118.000000	99.084179 
1117.000000	99.071257 
1116.000000	99.057599 
1115.000000	99.043819 
1114.000000	99.031744 
1113.000000	99.022156 
1112.000000	99.013659 
1111.000000	99.003708 
1110.000000	98.989928 
1109.000000	98.971321 
1108.000000	98.949789 
1107.000000	98.930293 
1106.000000	98.917133 
1105.000000	98.909037 
1104.000000	98.899655 
1103.000000	98.884403 
1102.000000	98.865842 
1101.000000	98.850941 
1100.000000	98.843149 
1099.000000	98.839727 
1098.000000	98.836244 
1097.000000	98.831572 
1096.000000	98.827008 
1095.000000	98.821828 
1094.000000	98.812343 
1093.000000	98.795176 
1092.000000	98.769583 
1091.000000	98.736547 
1090.000000	98.697949 
1089.000000	98.657535 
1088.000000	98.620455 
1087.000000	98.589546 
1086.000000	98.562632 
1085.000000	98.535302 
1084.000000	98.506007 
1083.000000	98.476909 
1082.000000	98.450232 
1081.000000	98.425695 
1080.000000	98.401505 
1079.000000	98.376216 
1078.000000	98.349881 
1077.000000	98.325384 
1076.000000	98.308521 
1075.000000	98.304283 
1074.000000	98.312172 
1073.000000	98.326453 
1072.000000	98.340203 
1071.000000	98.346275 
1070.000000	98.335790 
1069.000000	98.302437 
1068.000000	98.252619 
1067.000000	98.208048 
1066.000000	98.191801 
1065.000000	98.209843 
1064.000000	98.247885 
1063.000000	98.284451 
1062.000000	98.303590 
1061.000000	98.297709 
1060.000000	98.266888 
1059.000000	98.221026 
1058.000000	98.178570 
1057.000000	98.155585 
1056.000000	98.154152 
1055.000000	98.163481 
1054.000000	98.171968 
1053.000000	98.175887 
1052.000000	98.177276 
1051.000000	98.178035 
1050.000000	98.178449 
1049.000000	98.178405 
1048.000000	98.177282 
1047.000000	98.174719 
1046.000000	98.173224 
1045.000000	98.177306 
1044.000000	98.187932 
1043.000000	98.200435 
1042.000000	98.210417 
1041.000000	98.219315 
1040.000000	98.231153 
1039.000000	98.246703 
1038.000000	98.265193 
1037.000000	98.289325 
1036.000000	98.322507 
1035.000000	98.361628 
1034.000000	98.398249 
1033.000000	98.426970 
1032.000000	98.446772 
1031.000000	98.454541 
1030.000000	98.445995 
1029.000000	98.426895 
1028.000000	98.416130 
1027.000000	98.430217 
1026.000000	98.466484 
1025.000000	98.506462 
1024.000000	98.534271 
1023.000000	98.547758 
1022.000000	98.554339 
1021.000000	98.561583 
1020.000000	98.572180 
1019.000000	98.583892 
1018.000000	98.592533 
1017.000000	98.596428 
1016.000000	98.598538 
1015.000000	98.603611 
1014.000000	98.613822 
1013.000000	98.627831 
1012.000000	98.642550 
1011.000000	98.654503 
1010.000000	98.661329 
1009.000000	98.664349 
1008.000000	98.668738 
1007.000000	98.679083 
1006.000000	98.695064 
1005.000000	98.712762 
1004.000000	98.729244 
1003.000000	98.744328 
1002.000000	98.758875 
1001.000000	98.773083 
1000.000000	98.786066 
999.000000	 98.796132 
998.000000	 98.802457 
997.000000	 98.807405 
996.000000	 98.815688 
995.000000	 98.829710 
994.000000	 98.846761 
993.000000	 98.862260 
992.000000	 98.874497 
991.000000	 98.884629 
990.000000	 98.893394 
989.000000	 98.900099 
988.000000	 98.904425 
987.000000	 98.907540 
986.000000	 98.911491 
985.000000	 98.918308 
984.000000	 98.929031 
983.000000	 98.942585 
982.000000	 98.956327 
981.000000	 98.968548 
980.000000	 98.979677 
979.000000	 98.990724 
978.000000	 99.002068 
977.000000	 99.014242 
976.000000	 99.027615 
975.000000	 99.040109 
974.000000	 99.047799 
973.000000	 99.050107 
972.000000	 99.052538 
971.000000	 99.061557 
970.000000	 99.077636 
969.000000	 99.095539 
968.000000	 99.110491 
967.000000	 99.121730 
966.000000	 99.130756 
965.000000	 99.138704 
964.000000	 99.145773 
963.000000	 99.151725 
962.000000	 99.156721 
961.000000	 99.162266 
960.000000	 99.170467 
959.000000	 99.181331 
958.000000	 99.191925 
957.000000	 99.199597 
956.000000	 99.205003 
955.000000	 99.210557 
954.000000	 99.217117 
953.000000	 99.223843 
952.000000	 99.230203 
951.000000	 99.236096 
950.000000	 99.240757 
949.000000	 99.243482 
948.000000	 99.244873 
947.000000	 99.245723 
946.000000	 99.245261 
945.000000	 99.242251 
944.000000	 99.237436 
943.000000	 99.233474 
942.000000	 99.232839 
941.000000	 99.236636 
940.000000	 99.244073 
939.000000	 99.251495 
938.000000	 99.253654 
937.000000	 99.248778 
936.000000	 99.241865 
935.000000	 99.240454 
934.000000	 99.247002 
933.000000	 99.257278 
932.000000	 99.266011 
931.000000	 99.271860 
930.000000	 99.276532 
929.000000	 99.280928 
928.000000	 99.283166 
927.000000	 99.280022 
926.000000	 99.270543 
925.000000	 99.258776 
924.000000	 99.251972 
923.000000	 99.254676 
922.000000	 99.264693 
921.000000	 99.275595 
920.000000	 99.282283 
919.000000	 99.283213 
918.000000	 99.278990 
917.000000	 99.271223 
916.000000	 99.262345 
915.000000	 99.254477 
914.000000	 99.248069 
913.000000	 99.242589 
912.000000	 99.238282 
911.000000	 99.236342 
910.000000	 99.237902 
909.000000	 99.243590 
908.000000	 99.252926 
907.000000	 99.263012 
906.000000	 99.269092 
905.000000	 99.268103 
904.000000	 99.261153 
903.000000	 99.252039 
902.000000	 99.244817 
901.000000	 99.243201 
900.000000	 99.249379 
899.000000	 99.261163 
898.000000	 99.271982 
897.000000	 99.276184 
896.000000	 99.273067 
895.000000	 99.264727 
894.000000	 99.253063 
893.000000	 99.241330 
892.000000	 99.235593 
891.000000	 99.240490 
890.000000	 99.254503 
889.000000	 99.272007 
888.000000	 99.288165 
887.000000	 99.299326 
886.000000	 99.302192 
885.000000	 99.297449 
884.000000	 99.291986 
883.000000	 99.292107 
882.000000	 99.295577 
881.000000	 99.295717 
880.000000	 99.292541 
879.000000	 99.293579 
878.000000	 99.302971 
877.000000	 99.315731 
876.000000	 99.324472 
875.000000	 99.326684 
874.000000	 99.323809 
873.000000	 99.318144 
872.000000	 99.312801 
871.000000	 99.310733 
870.000000	 99.311953 
869.000000	 99.315100 
868.000000	 99.322213 
867.000000	 99.336923 
866.000000	 99.356414 
865.000000	 99.370963 
864.000000	 99.375166 
863.000000	 99.375406 
862.000000	 99.381659 
861.000000	 99.394632 
860.000000	 99.405903 
859.000000	 99.409306 
858.000000	 99.407254 
857.000000	 99.405689 
856.000000	 99.407431 
855.000000	 99.412176 
854.000000	 99.419311 
853.000000	 99.427507 
852.000000	 99.433212 
851.000000	 99.433201 
850.000000	 99.429195 
849.000000	 99.427331 
848.000000	 99.431529 
847.000000	 99.439091 
846.000000	 99.444691 
845.000000	 99.447150 
844.000000	 99.449362 
843.000000	 99.452508 
842.000000	 99.454482 
841.000000	 99.454572 
840.000000	 99.455282 
839.000000	 99.457456 
838.000000	 99.457579 
837.000000	 99.453072 
836.000000	 99.446852 
835.000000	 99.442865 
834.000000	 99.440447 
833.000000	 99.438368 
832.000000	 99.441689 
831.000000	 99.456676 
830.000000	 99.478001 
829.000000	 99.488841 
828.000000	 99.478631 
827.000000	 99.456376 
826.000000	 99.440848 
825.000000	 99.439517 
824.000000	 99.442865 
823.000000	 99.439082 
822.000000	 99.428548 
821.000000	 99.421445 
820.000000	 99.424915 
819.000000	 99.436155 
818.000000	 99.447119 
817.000000	 99.453388 
816.000000	 99.456645 
815.000000	 99.459120 
814.000000	 99.458834 
813.000000	 99.452569 
812.000000	 99.441439 
811.000000	 99.429631 
810.000000	 99.417592 
809.000000	 99.400189 
808.000000	 99.373417 
807.000000	 99.340694 
806.000000	 99.310471 
805.000000	 99.288538 
804.000000	 99.274462 
803.000000	 99.264874 
802.000000	 99.258174 
801.000000	 99.254976 
800.000000	 99.254860 
799.000000	 99.255271 
798.000000	 99.255440 
797.000000	 99.259480 
796.000000	 99.271531 
795.000000	 99.287754 
794.000000	 99.297910 
793.000000	 99.297131 
792.000000	 99.292089 
791.000000	 99.292499 
790.000000	 99.300016 
789.000000	 99.308954 
788.000000	 99.314218 
787.000000	 99.313398 
786.000000	 99.303838 
785.000000	 99.284138 
784.000000	 99.258780 
783.000000	 99.236555 
782.000000	 99.223502 
781.000000	 99.219935 
780.000000	 99.223139 
779.000000	 99.228806 
778.000000	 99.230943 
777.000000	 99.225928 
776.000000	 99.217692 
775.000000	 99.214807 
774.000000	 99.221204 
773.000000	 99.232871 
772.000000	 99.244180 
771.000000	 99.253926 
770.000000	 99.264318 
769.000000	 99.276983 
768.000000	 99.291076 
767.000000	 99.303606 
766.000000	 99.311777 
765.000000	 99.316798 
764.000000	 99.324006 
763.000000	 99.336156 
762.000000	 99.347591 
761.000000	 99.349006 
760.000000	 99.338235 
759.000000	 99.323390 
758.000000	 99.315102 
757.000000	 99.317389 
756.000000	 99.324937 
755.000000	 99.326903 
754.000000	 99.315610 
753.000000	 99.295415 
752.000000	 99.281496 
751.000000	 99.286028 
750.000000	 99.306355 
749.000000	 99.329517 
748.000000	 99.345610 
747.000000	 99.352311 
746.000000	 99.350283 
745.000000	 99.341973 
744.000000	 99.334127 
743.000000	 99.333789 
742.000000	 99.340531 
741.000000	 99.348555 
740.000000	 99.356753 
739.000000	 99.369850 
738.000000	 99.388151 
737.000000	 99.402643 
736.000000	 99.403209 
735.000000	 99.387996 
734.000000	 99.364000 
733.000000	 99.342904 
732.000000	 99.336396 
731.000000	 99.349081 
730.000000	 99.373224 
729.000000	 99.394992 
728.000000	 99.407302 
727.000000	 99.412485 
726.000000	 99.413255 
725.000000	 99.408000 
724.000000	 99.396329 
723.000000	 99.382665 
722.000000	 99.371907 
721.000000	 99.366885 
720.000000	 99.371434 
719.000000	 99.388812 
718.000000	 99.413906 
717.000000	 99.433276 
716.000000	 99.436353 
715.000000	 99.422828 
714.000000	 99.398900 
713.000000	 99.372977 
712.000000	 99.356719 
711.000000	 99.361044 
710.000000	 99.384145 
709.000000	 99.408706 
708.000000	 99.416909 
707.000000	 99.405209 
706.000000	 99.381627 
705.000000	 99.354486 
704.000000	 99.329842 
703.000000	 99.315021 
702.000000	 99.315684 
701.000000	 99.328839 
700.000000	 99.343478 
699.000000	 99.349062 
698.000000	 99.343111 
697.000000	 99.332162 
696.000000	 99.325467 
695.000000	 99.325440 
694.000000	 99.324623 
693.000000	 99.315932 
692.000000	 99.304492 
691.000000	 99.302735 
690.000000	 99.314462 
689.000000	 99.331928 
688.000000	 99.349223 
687.000000	 99.367664 
686.000000	 99.383822 
685.000000	 99.384878 
684.000000	 99.364697 
683.000000	 99.336041 
682.000000	 99.319269 
681.000000	 99.323629 
680.000000	 99.342558 
679.000000	 99.360902 
678.000000	 99.364591 
677.000000	 99.352601 
676.000000	 99.342907 
675.000000	 99.354266 
674.000000	 99.379874 
673.000000	 99.390240 
672.000000	 99.366893 
671.000000	 99.323415 
670.000000	 99.291737 
669.000000	 99.298710 
668.000000	 99.335937 
667.000000	 99.360252 
666.000000	 99.353012 
665.000000	 99.324815 
664.000000	 99.296205 
663.000000	 99.294838 
662.000000	 99.329833 
661.000000	 99.373101 
660.000000	 99.387388 
659.000000	 99.363302 
658.000000	 99.318208 
657.000000	 99.271315 
656.000000	 99.234973 
655.000000	 99.220845 
654.000000	 99.234809 
653.000000	 99.266665 
652.000000	 99.298270 
651.000000	 99.318790 
650.000000	 99.324242 

