4000.000000	101.220536 
3999.000000	101.219971 
3998.000000	101.219707 
3997.000000	101.220101 
3996.000000	101.220929 
3995.000000	101.221642 
3994.000000	101.221957 
3993.000000	101.222048 
3992.000000	101.222234 
3991.000000	101.222485 
3990.000000	101.222241 
3989.000000	101.220914 
3988.000000	101.218631 
3987.000000	101.216421 
3986.000000	101.215310 
3985.000000	101.215474 
3984.000000	101.216383 
3983.000000	101.217526 
3982.000000	101.218842 
3981.000000	101.220373 
3980.000000	101.221912 
3979.000000	101.223147 
3978.000000	101.223843 
3977.000000	101.223781 
3976.000000	101.222830 
3975.000000	101.221219 
3974.000000	101.219438 
3973.000000	101.217811 
3972.000000	101.216513 
3971.000000	101.215819 
3970.000000	101.215968 
3969.000000	101.216728 
3968.000000	101.217490 
3967.000000	101.217778 
3966.000000	101.217499 
3965.000000	101.216793 
3964.000000	101.215926 
3963.000000	101.215285 
3962.000000	101.215136 
3961.000000	101.215263 
3960.000000	101.215188 
3959.000000	101.214706 
3958.000000	101.214026 
3957.000000	101.213421 
3956.000000	101.213012 
3955.000000	101.212760 
3954.000000	101.212516 
3953.000000	101.212136 
3952.000000	101.211597 
3951.000000	101.211015 
3950.000000	101.210507 
3949.000000	101.210096 
3948.000000	101.209746 
3947.000000	101.209423 
3946.000000	101.209132 
3945.000000	101.208900 
3944.000000	101.208706 
3943.000000	101.208507 
3942.000000	101.208271 
3941.000000	101.208015 
3940.000000	101.207762 
3939.000000	101.207520 
3938.000000	101.207283 
3937.000000	101.207047 
3936.000000	101.206813 
3935.000000	101.206583 
3934.000000	101.206364 
3933.000000	101.206165 
3932.000000	101.205992 
3931.000000	101.205842 
3930.000000	101.205716 
3929.000000	101.205617 
3928.000000	101.205537 
3927.000000	101.205462 
3926.000000	101.205401 
3925.000000	101.205374 
3924.000000	101.205366 
3923.000000	101.205355 
3922.000000	101.205353 
3921.000000	101.205363 
3920.000000	101.205372 
3919.000000	101.205369 
3918.000000	101.205362 
3917.000000	101.205364 
3916.000000	101.205383 
3915.000000	101.205419 
3914.000000	101.205460 
3913.000000	101.205503 
3912.000000	101.205550 
3911.000000	101.205605 
3910.000000	101.205664 
3909.000000	101.205720 
3908.000000	101.205773 
3907.000000	101.205827 
3906.000000	101.205883 
3905.000000	101.205925 
3904.000000	101.205935 
3903.000000	101.205899 
3902.000000	101.205820 
3901.000000	101.205708 
3900.000000	101.205577 
3899.000000	101.205429 
3898.000000	101.205263 
3897.000000	101.205084 
3896.000000	101.204913 
3895.000000	101.204771 
3894.000000	101.204662 
3893.000000	101.204583 
3892.000000	101.204529 
3891.000000	101.204491 
3890.000000	101.204451 
3889.000000	101.204387 
3888.000000	101.204289 
3887.000000	101.204161 
3886.000000	101.204011 
3885.000000	101.203835 
3884.000000	101.203636 
3883.000000	101.203423 
3882.000000	101.203215 
3881.000000	101.203020 
3880.000000	101.202833 
3879.000000	101.202652 
3878.000000	101.202481 
3877.000000	101.202330 
3876.000000	101.202202 
3875.000000	101.202088 
3874.000000	101.201971 
3873.000000	101.201842 
3872.000000	101.201706 
3871.000000	101.201580 
3870.000000	101.201469 
3869.000000	101.201355 
3868.000000	101.201233 
3867.000000	101.201115 
3866.000000	101.201016 
3865.000000	101.200925 
3864.000000	101.200824 
3863.000000	101.200720 
3862.000000	101.200642 
3861.000000	101.200603 
3860.000000	101.200595 
3859.000000	101.200608 
3858.000000	101.200647 
3857.000000	101.200717 
3856.000000	101.200818 
3855.000000	101.200945 
3854.000000	101.201080 
3853.000000	101.201188 
3852.000000	101.201245 
3851.000000	101.201248 
3850.000000	101.201208 
3849.000000	101.201137 
3848.000000	101.201045 
3847.000000	101.200943 
3846.000000	101.200842 
3845.000000	101.200749 
3844.000000	101.200668 
3843.000000	101.200596 
3842.000000	101.200526 
3841.000000	101.200445 
3840.000000	101.200345 
3839.000000	101.200225 
3838.000000	101.200080 
3837.000000	101.199901 
3836.000000	101.199676 
3835.000000	101.199401 
3834.000000	101.199082 
3833.000000	101.198734 
3832.000000	101.198367 
3831.000000	101.197985 
3830.000000	101.197589 
3829.000000	101.197174 
3828.000000	101.196743 
3827.000000	101.196304 
3826.000000	101.195867 
3825.000000	101.195428 
3824.000000	101.194983 
3823.000000	101.194535 
3822.000000	101.194097 
3821.000000	101.193666 
3820.000000	101.193211 
3819.000000	101.192713 
3818.000000	101.192180 
3817.000000	101.191631 
3816.000000	101.191065 
3815.000000	101.190462 
3814.000000	101.189815 
3813.000000	101.189143 
3812.000000	101.188469 
3811.000000	101.187799 
3810.000000	101.187136 
3809.000000	101.186490 
3808.000000	101.185877 
3807.000000	101.185300 
3806.000000	101.184740 
3805.000000	101.184176 
3804.000000	101.183610 
3803.000000	101.183059 
3802.000000	101.182534 
3801.000000	101.182015 
3800.000000	101.181491 
3799.000000	101.180978 
3798.000000	101.180502 
3797.000000	101.180071 
3796.000000	101.179674 
3795.000000	101.179314 
3794.000000	101.179008 
3793.000000	101.178770 
3792.000000	101.178598 
3791.000000	101.178478 
3790.000000	101.178402 
3789.000000	101.178367 
3788.000000	101.178370 
3787.000000	101.178413 
3786.000000	101.178501 
3785.000000	101.178627 
3784.000000	101.178771 
3783.000000	101.178915 
3782.000000	101.179060 
3781.000000	101.179208 
3780.000000	101.179350 
3779.000000	101.179478 
3778.000000	101.179600 
3777.000000	101.179738 
3776.000000	101.179901 
3775.000000	101.180085 
3774.000000	101.180284 
3773.000000	101.180506 
3772.000000	101.180764 
3771.000000	101.181058 
3770.000000	101.181371 
3769.000000	101.181692 
3768.000000	101.182021 
3767.000000	101.182368 
3766.000000	101.182730 
3765.000000	101.183092 
3764.000000	101.183447 
3763.000000	101.183799 
3762.000000	101.184158 
3761.000000	101.184522 
3760.000000	101.184875 
3759.000000	101.185211 
3758.000000	101.185546 
3757.000000	101.185887 
3756.000000	101.186213 
3755.000000	101.186497 
3754.000000	101.186729 
3753.000000	101.186907 
3752.000000	101.187023 
3751.000000	101.187066 
3750.000000	101.187037 
3749.000000	101.186945 
3748.000000	101.186785 
3747.000000	101.186544 
3746.000000	101.186228 
3745.000000	101.185847 
3744.000000	101.185390 
3743.000000	101.184840 
3742.000000	101.184215 
3741.000000	101.183548 
3740.000000	101.182849 
3739.000000	101.182105 
3738.000000	101.181309 
3737.000000	101.180474 
3736.000000	101.179610 
3735.000000	101.178712 
3734.000000	101.177772 
3733.000000	101.176792 
3732.000000	101.175775 
3731.000000	101.174713 
3730.000000	101.173595 
3729.000000	101.172415 
3728.000000	101.171178 
3727.000000	101.169883 
3726.000000	101.168527 
3725.000000	101.167104 
3724.000000	101.165613 
3723.000000	101.164054 
3722.000000	101.162427 
3721.000000	101.160738 
3720.000000	101.158986 
3719.000000	101.157162 
3718.000000	101.155264 
3717.000000	101.153293 
3716.000000	101.151251 
3715.000000	101.149137 
3714.000000	101.146963 
3713.000000	101.144752 
3712.000000	101.142528 
3711.000000	101.140299 
3710.000000	101.138069 
3709.000000	101.135839 
3708.000000	101.133600 
3707.000000	101.131341 
3706.000000	101.129051 
3705.000000	101.126732 
3704.000000	101.124395 
3703.000000	101.122045 
3702.000000	101.119689 
3701.000000	101.117334 
3700.000000	101.114978 
3699.000000	101.112604 
3698.000000	101.110206 
3697.000000	101.107793 
3696.000000	101.105375 
3695.000000	101.102957 
3694.000000	101.100544 
3693.000000	101.098146 
3692.000000	101.095758 
3691.000000	101.093362 
3690.000000	101.090940 
3689.000000	101.088485 
3688.000000	101.085999 
3687.000000	101.083481 
3686.000000	101.080931 
3685.000000	101.078357 
3684.000000	101.075768 
3683.000000	101.073169 
3682.000000	101.070561 
3681.000000	101.067954 
3680.000000	101.065363 
3679.000000	101.062790 
3678.000000	101.060237 
3677.000000	101.057719 
3676.000000	101.055258 
3675.000000	101.052856 
3674.000000	101.050495 
3673.000000	101.048160 
3672.000000	101.045848 
3671.000000	101.043553 
3670.000000	101.041253 
3669.000000	101.038928 
3668.000000	101.036582 
3667.000000	101.034234 
3666.000000	101.031901 
3665.000000	101.029591 
3664.000000	101.027313 
3663.000000	101.025074 
3662.000000	101.022882 
3661.000000	101.020736 
3660.000000	101.018628 
3659.000000	101.016558 
3658.000000	101.014531 
3657.000000	101.012560 
3656.000000	101.010650 
3655.000000	101.008793 
3654.000000	101.006976 
3653.000000	101.005195 
3652.000000	101.003442 
3651.000000	101.001702 
3650.000000	100.999948 
3649.000000	100.998164 
3648.000000	100.996392 
3647.000000	100.994710 
3646.000000	100.993144 
3645.000000	100.991659 
3644.000000	100.990252 
3643.000000	100.988946 
3642.000000	100.987722 
3641.000000	100.986517 
3640.000000	100.985377 
3639.000000	100.984474 
3638.000000	100.983860 
3637.000000	100.983347 
3636.000000	100.982738 
3635.000000	100.982107 
3634.000000	100.981597 
3633.000000	100.981085 
3632.000000	100.980360 
3631.000000	100.979603 
3630.000000	100.979337 
3629.000000	100.979357 
3628.000000	100.978738 
3627.000000	100.977590 
3626.000000	100.977031 
3625.000000	100.977534 
3624.000000	100.978462 
3623.000000	100.978660 
3622.000000	100.977880 
3621.000000	100.977116 
3620.000000	100.977175 
3619.000000	100.977774 
3618.000000	100.978645 
3617.000000	100.980044 
3616.000000	100.981885 
3615.000000	100.983799 
3614.000000	100.985358 
3613.000000	100.985991 
3612.000000	100.985417 
3611.000000	100.984229 
3610.000000	100.983496 
3609.000000	100.983590 
3608.000000	100.983847 
3607.000000	100.983974 
3606.000000	100.984899 
3605.000000	100.987275 
3604.000000	100.990233 
3603.000000	100.992258 
3602.000000	100.993011 
3601.000000	100.993668 
3600.000000	100.994977 
3599.000000	100.996841 
3598.000000	100.999062 
3597.000000	101.001306 
3596.000000	101.002778 
3595.000000	101.003364 
3594.000000	101.003780 
3593.000000	101.005074 
3592.000000	101.007742 
3591.000000	101.011116 
3590.000000	101.013949 
3589.000000	101.015041 
3588.000000	101.013479 
3587.000000	101.009616 
3586.000000	101.005707 
3585.000000	101.003913 
3584.000000	101.004261 
3583.000000	101.005182 
3582.000000	101.005141 
3581.000000	101.003895 
3580.000000	101.002141 
3579.000000	101.000591 
3578.000000	100.999454 
3577.000000	100.998655 
3576.000000	100.998197 
3575.000000	100.998231 
3574.000000	100.998898 
3573.000000	101.000041 
3572.000000	101.001247 
3571.000000	101.001839 
3570.000000	101.001240 
3569.000000	100.999421 
3568.000000	100.996813 
3567.000000	100.994192 
3566.000000	100.992575 
3565.000000	100.992411 
3564.000000	100.993171 
3563.000000	100.993787 
3562.000000	100.993519 
3561.000000	100.992412 
3560.000000	100.991055 
3559.000000	100.989957 
3558.000000	100.989198 
3557.000000	100.988579 
3556.000000	100.987892 
3555.000000	100.987060 
3554.000000	100.986150 
3553.000000	100.985248 
3552.000000	100.984345 
3551.000000	100.983398 
3550.000000	100.982442 
3549.000000	100.981559 
3548.000000	100.980755 
3547.000000	100.979963 
3546.000000	100.979157 
3545.000000	100.978390 
3544.000000	100.977725 
3543.000000	100.977150 
3542.000000	100.976611 
3541.000000	100.976087 
3540.000000	100.975590 
3539.000000	100.975118 
3538.000000	100.974663 
3537.000000	100.974214 
3536.000000	100.973703 
3535.000000	100.973042 
3534.000000	100.972200 
3533.000000	100.971277 
3532.000000	100.970409 
3531.000000	100.969702 
3530.000000	100.969249 
3529.000000	100.969138 
3528.000000	100.969345 
3527.000000	100.969653 
3526.000000	100.969795 
3525.000000	100.969628 
3524.000000	100.969120 
3523.000000	100.968314 
3522.000000	100.967408 
3521.000000	100.966653 
3520.000000	100.966121 
3519.000000	100.965712 
3518.000000	100.965291 
3517.000000	100.964841 
3516.000000	100.964456 
3515.000000	100.964257 
3514.000000	100.964262 
3513.000000	100.964350 
3512.000000	100.964328 
3511.000000	100.964042 
3510.000000	100.963496 
3509.000000	100.962852 
3508.000000	100.962287 
3507.000000	100.961825 
3506.000000	100.961355 
3505.000000	100.960772 
3504.000000	100.960075 
3503.000000	100.959393 
3502.000000	100.958887 
3501.000000	100.958594 
3500.000000	100.958412 
3499.000000	100.958162 
3498.000000	100.957738 
3497.000000	100.957158 
3496.000000	100.956522 
3495.000000	100.955938 
3494.000000	100.955449 
3493.000000	100.955010 
3492.000000	100.954532 
3491.000000	100.953954 
3490.000000	100.953285 
3489.000000	100.952598 
3488.000000	100.951979 
3487.000000	100.951478 
3486.000000	100.951091 
3485.000000	100.950769 
3484.000000	100.950443 
3483.000000	100.950065 
3482.000000	100.949597 
3481.000000	100.948956 
3480.000000	100.948039 
3479.000000	100.946872 
3478.000000	100.945707 
3477.000000	100.944828 
3476.000000	100.944249 
3475.000000	100.943696 
3474.000000	100.942958 
3473.000000	100.942139 
3472.000000	100.941501 
3471.000000	100.941137 
3470.000000	100.940892 
3469.000000	100.940535 
3468.000000	100.939904 
3467.000000	100.938902 
3466.000000	100.937492 
3465.000000	100.935803 
3464.000000	100.934111 
3463.000000	100.932600 
3462.000000	100.931174 
3461.000000	100.929670 
3460.000000	100.928233 
3459.000000	100.927313 
3458.000000	100.927109 
3457.000000	100.927191 
3456.000000	100.926858 
3455.000000	100.925823 
3454.000000	100.924532 
3453.000000	100.923812 
3452.000000	100.924009 
3451.000000	100.924666 
3450.000000	100.925149 
3449.000000	100.925305 
3448.000000	100.925182 
3447.000000	100.924456 
3446.000000	100.922828 
3445.000000	100.920760 
3444.000000	100.919157 
3443.000000	100.918241 
3442.000000	100.917376 
3441.000000	100.916088 
3440.000000	100.914732 
3439.000000	100.913899 
3438.000000	100.913522 
3437.000000	100.912979 
3436.000000	100.911840 
3435.000000	100.910225 
3434.000000	100.908642 
3433.000000	100.907665 
3432.000000	100.907413 
3431.000000	100.907350 
3430.000000	100.906738 
3429.000000	100.905243 
3428.000000	100.903046 
3427.000000	100.900540 
3426.000000	100.898176 
3425.000000	100.896381 
3424.000000	100.895393 
3423.000000	100.895157 
3422.000000	100.895368 
3421.000000	100.895521 
3420.000000	100.895079 
3419.000000	100.893951 
3418.000000	100.892781 
3417.000000	100.892353 
3416.000000	100.892612 
3415.000000	100.892685 
3414.000000	100.891963 
3413.000000	100.890801 
3412.000000	100.889930 
3411.000000	100.889655 
3410.000000	100.889909 
3409.000000	100.890569 
3408.000000	100.891348 
3407.000000	100.891698 
3406.000000	100.891244 
3405.000000	100.890204 
3404.000000	100.889226 
3403.000000	100.888865 
3402.000000	100.889245 
3401.000000	100.890068 
3400.000000	100.890819 
3399.000000	100.891155 
3398.000000	100.891151 
3397.000000	100.891165 
3396.000000	100.891425 
3395.000000	100.891783 
3394.000000	100.891906 
3393.000000	100.891652 
3392.000000	100.891179 
3391.000000	100.890745 
3390.000000	100.890428 
3389.000000	100.890115 
3388.000000	100.889742 
3387.000000	100.889469 
3386.000000	100.889528 
3385.000000	100.889920 
3384.000000	100.890389 
3383.000000	100.890729 
3382.000000	100.890986 
3381.000000	100.891284 
3380.000000	100.891574 
3379.000000	100.891690 
3378.000000	100.891606 
3377.000000	100.891541 
3376.000000	100.891787 
3375.000000	100.892458 
3374.000000	100.893434 
3373.000000	100.894416 
3372.000000	100.895090 
3371.000000	100.895329 
3370.000000	100.895229 
3369.000000	100.895032 
3368.000000	100.894953 
3367.000000	100.895056 
3366.000000	100.895263 
3365.000000	100.895451 
3364.000000	100.895559 
3363.000000	100.895654 
3362.000000	100.895868 
3361.000000	100.896249 
3360.000000	100.896687 
3359.000000	100.897018 
3358.000000	100.897192 
3357.000000	100.897310 
3356.000000	100.897520 
3355.000000	100.897861 
3354.000000	100.898256 
3353.000000	100.898612 
3352.000000	100.898911 
3351.000000	100.899213 
3350.000000	100.899581 
3349.000000	100.900034 
3348.000000	100.900555 
3347.000000	100.901106 
3346.000000	100.901636 
3345.000000	100.902092 
3344.000000	100.902444 
3343.000000	100.902713 
3342.000000	100.902958 
3341.000000	100.903232 
3340.000000	100.903556 
3339.000000	100.903925 
3338.000000	100.904308 
3337.000000	100.904660 
3336.000000	100.904955 
3335.000000	100.905222 
3334.000000	100.905534 
3333.000000	100.905945 
3332.000000	100.906447 
3331.000000	100.906962 
3330.000000	100.907416 
3329.000000	100.907796 
3328.000000	100.908153 
3327.000000	100.908555 
3326.000000	100.909022 
3325.000000	100.909503 
3324.000000	100.909926 
3323.000000	100.910306 
3322.000000	100.910758 
3321.000000	100.911351 
3320.000000	100.911973 
3319.000000	100.912400 
3318.000000	100.912536 
3317.000000	100.912529 
3316.000000	100.912654 
3315.000000	100.913073 
3314.000000	100.913738 
3313.000000	100.914484 
3312.000000	100.915181 
3311.000000	100.915828 
3310.000000	100.916494 
3309.000000	100.917193 
3308.000000	100.917853 
3307.000000	100.918395 
3306.000000	100.918782 
3305.000000	100.918917 
3304.000000	100.918617 
3303.000000	100.917839 
3302.000000	100.916915 
3301.000000	100.916407 
3300.000000	100.916665 
3299.000000	100.917616 
3298.000000	100.918881 
3297.000000	100.920019 
3296.000000	100.920754 
3295.000000	100.921103 
3294.000000	100.921398 
3293.000000	100.922003 
3292.000000	100.922945 
3291.000000	100.923870 
3290.000000	100.924401 
3289.000000	100.924375 
3288.000000	100.923794 
3287.000000	100.922862 
3286.000000	100.922054 
3285.000000	100.921831 
3284.000000	100.922168 
3283.000000	100.922575 
3282.000000	100.922661 
3281.000000	100.922522 
3280.000000	100.922482 
3279.000000	100.922653 
3278.000000	100.922911 
3277.000000	100.923130 
3276.000000	100.923282 
3275.000000	100.923406 
3274.000000	100.923606 
3273.000000	100.923943 
3272.000000	100.924208 
3271.000000	100.923964 
3270.000000	100.923004 
3269.000000	100.921740 
3268.000000	100.920945 
3267.000000	100.921128 
3266.000000	100.922270 
3265.000000	100.923968 
3264.000000	100.925712 
3263.000000	100.927129 
3262.000000	100.928113 
3261.000000	100.928794 
3260.000000	100.929363 
3259.000000	100.929850 
3258.000000	100.930103 
3257.000000	100.929983 
3256.000000	100.929488 
3255.000000	100.928738 
3254.000000	100.927994 
3253.000000	100.927653 
3252.000000	100.928006 
3251.000000	100.928943 
3250.000000	100.929910 
3249.000000	100.930321 
3248.000000	100.930060 
3247.000000	100.929533 
3246.000000	100.929274 
3245.000000	100.929495 
3244.000000	100.930072 
3243.000000	100.930875 
3242.000000	100.931958 
3241.000000	100.933363 
3240.000000	100.934847 
3239.000000	100.935913 
3238.000000	100.936222 
3237.000000	100.935929 
3236.000000	100.935610 
3235.000000	100.935749 
3234.000000	100.936314 
3233.000000	100.936938 
3232.000000	100.937416 
3231.000000	100.937931 
3230.000000	100.938720 
3229.000000	100.939638 
3228.000000	100.940215 
3227.000000	100.940130 
3226.000000	100.939507 
3225.000000	100.938793 
3224.000000	100.938453 
3223.000000	100.938720 
3222.000000	100.939496 
3221.000000	100.940396 
3220.000000	100.941018 
3219.000000	100.941254 
3218.000000	100.941281 
3217.000000	100.941273 
3216.000000	100.941249 
3215.000000	100.941159 
3214.000000	100.941029 
3213.000000	100.940980 
3212.000000	100.941178 
3211.000000	100.941820 
3210.000000	100.943062 
3209.000000	100.944807 
3208.000000	100.946612 
3207.000000	100.947961 
3206.000000	100.948628 
3205.000000	100.948798 
3204.000000	100.948872 
3203.000000	100.949126 
3202.000000	100.949552 
3201.000000	100.950000 
3200.000000	100.950448 
3199.000000	100.951025 
3198.000000	100.951717 
3197.000000	100.952251 
3196.000000	100.952449 
3195.000000	100.952561 
3194.000000	100.952949 
3193.000000	100.953471 
3192.000000	100.953553 
3191.000000	100.952976 
3190.000000	100.952247 
3189.000000	100.952076 
3188.000000	100.952658 
3187.000000	100.953617 
3186.000000	100.954431 
3185.000000	100.954826 
3184.000000	100.954864 
3183.000000	100.954824 
3182.000000	100.954950 
3181.000000	100.955236 
3180.000000	100.955461 
3179.000000	100.955504 
3178.000000	100.955528 
3177.000000	100.955759 
3176.000000	100.956195 
3175.000000	100.956703 
3174.000000	100.957311 
3173.000000	100.958157 
3172.000000	100.959183 
3171.000000	100.960097 
3170.000000	100.960673 
3169.000000	100.960965 
3168.000000	100.961191 
3167.000000	100.961525 
3166.000000	100.961975 
3165.000000	100.962454 
3164.000000	100.962891 
3163.000000	100.963266 
3162.000000	100.963592 
3161.000000	100.963905 
3160.000000	100.964239 
3159.000000	100.964608 
3158.000000	100.964996 
3157.000000	100.965380 
3156.000000	100.965754 
3155.000000	100.966120 
3154.000000	100.966480 
3153.000000	100.966837 
3152.000000	100.967192 
3151.000000	100.967544 
3150.000000	100.967889 
3149.000000	100.968226 
3148.000000	100.968553 
3147.000000	100.968871 
3146.000000	100.969180 
3145.000000	100.969482 
3144.000000	100.969775 
3143.000000	100.970062 
3142.000000	100.970345 
3141.000000	100.970627 
3140.000000	100.970906 
3139.000000	100.971175 
3138.000000	100.971431 
3137.000000	100.971675 
3136.000000	100.971911 
3135.000000	100.972143 
3134.000000	100.972373 
3133.000000	100.972601 
3132.000000	100.972825 
3131.000000	100.973044 
3130.000000	100.973265 
3129.000000	100.973487 
3128.000000	100.973694 
3127.000000	100.973869 
3126.000000	100.974030 
3125.000000	100.974215 
3124.000000	100.974434 
3123.000000	100.974640 
3122.000000	100.974786 
3121.000000	100.974893 
3120.000000	100.975056 
3119.000000	100.975365 
3118.000000	100.975804 
3117.000000	100.976199 
3116.000000	100.976338 
3115.000000	100.976157 
3114.000000	100.975853 
3113.000000	100.975701 
3112.000000	100.975790 
3111.000000	100.976004 
3110.000000	100.976258 
3109.000000	100.976596 
3108.000000	100.976999 
3107.000000	100.977264 
3106.000000	100.977236 
3105.000000	100.977051 
3104.000000	100.976998 
3103.000000	100.977249 
3102.000000	100.977822 
3101.000000	100.978667 
3100.000000	100.979620 
3099.000000	100.980384 
3098.000000	100.980762 
3097.000000	100.980848 
3096.000000	100.980946 
3095.000000	100.981290 
3094.000000	100.981893 
3093.000000	100.982594 
3092.000000	100.983159 
3091.000000	100.983373 
3090.000000	100.983172 
3089.000000	100.982756 
3088.000000	100.982514 
3087.000000	100.982754 
3086.000000	100.983496 
3085.000000	100.984466 
3084.000000	100.985275 
3083.000000	100.985658 
3082.000000	100.985627 
3081.000000	100.985445 
3080.000000	100.985371 
3079.000000	100.985423 
3078.000000	100.985336 
3077.000000	100.984763 
3076.000000	100.983600 
3075.000000	100.982234 
3074.000000	100.981432 
3073.000000	100.981819 
3072.000000	100.983371 
3071.000000	100.985462 
3070.000000	100.987363 
3069.000000	100.988413 
3068.000000	100.987817 
3067.000000	100.984972 
3066.000000	100.980495 
3065.000000	100.976476 
3064.000000	100.974878 
3063.000000	100.975833 
3062.000000	100.977754 
3061.000000	100.978968 
3060.000000	100.979049 
3059.000000	100.978767 
3058.000000	100.979172 
3057.000000	100.980731 
3056.000000	100.982981 
3055.000000	100.984959 
3054.000000	100.985995 
3053.000000	100.985992 
3052.000000	100.985059 
3051.000000	100.983411 
3050.000000	100.981625 
3049.000000	100.980252 
3048.000000	100.978870 
3047.000000	100.976203 
3046.000000	100.971762 
3045.000000	100.966942 
3044.000000	100.963907 
3043.000000	100.963469 
3042.000000	100.964452 
3041.000000	100.964935 
3040.000000	100.963873 
3039.000000	100.961676 
3038.000000	100.959644 
3037.000000	100.958717 
3036.000000	100.958537 
3035.000000	100.957930 
3034.000000	100.956316 
3033.000000	100.954289 
3032.000000	100.952548 
3031.000000	100.950682 
3030.000000	100.947446 
3029.000000	100.942005 
3028.000000	100.934663 
3027.000000	100.926665 
3026.000000	100.919508 
3025.000000	100.914122 
3024.000000	100.910326 
3023.000000	100.907078 
3022.000000	100.903370 
3021.000000	100.898722 
3020.000000	100.893031 
3019.000000	100.886627 
3018.000000	100.880617 
3017.000000	100.876300 
3016.000000	100.873641 
3015.000000	100.870899 
3014.000000	100.866285 
3013.000000	100.859440 
3012.000000	100.850904 
3011.000000	100.840910 
3010.000000	100.829615 
3009.000000	100.818148 
3008.000000	100.808386 
3007.000000	100.801554 
3006.000000	100.797523 
3005.000000	100.795234 
3004.000000	100.793045 
3003.000000	100.788796 
3002.000000	100.780789 
3001.000000	100.769478 
3000.000000	100.757793 
2999.000000	100.748974 
2998.000000	100.743933 
2997.000000	100.741047 
2996.000000	100.738476 
2995.000000	100.735914 
2994.000000	100.733496 
2993.000000	100.729586 
2992.000000	100.721258 
2991.000000	100.707821 
2990.000000	100.693014 
2989.000000	100.682225 
2988.000000	100.677599 
2987.000000	100.677013 
2986.000000	100.677550 
2985.000000	100.678852 
2984.000000	100.682289 
2983.000000	100.687852 
2982.000000	100.693203 
2981.000000	100.695790 
2980.000000	100.695186 
2979.000000	100.693224 
2978.000000	100.692226 
2977.000000	100.693063 
2976.000000	100.694550 
2975.000000	100.694660 
2974.000000	100.692456 
2973.000000	100.688715 
2972.000000	100.684765 
2971.000000	100.681212 
2970.000000	100.678060 
2969.000000	100.675622 
2968.000000	100.674785 
2967.000000	100.676463 
2966.000000	100.680903 
2965.000000	100.687311 
2964.000000	100.694083 
2963.000000	100.699866 
2962.000000	100.704582 
2961.000000	100.708977 
2960.000000	100.713129 
2959.000000	100.716145 
2958.000000	100.717771 
2957.000000	100.719417 
2956.000000	100.722569 
2955.000000	100.726604 
2954.000000	100.729291 
2953.000000	100.729765 
2952.000000	100.730170 
2951.000000	100.733785 
2950.000000	100.741568 
2949.000000	100.750783 
2948.000000	100.757152 
2947.000000	100.758369 
2946.000000	100.755641 
2945.000000	100.752270 
2944.000000	100.750810 
2943.000000	100.751485 
2942.000000	100.752874 
2941.000000	100.753303 
2940.000000	100.751605 
2939.000000	100.747501 
2938.000000	100.741892 
2937.000000	100.736407 
2936.000000	100.732267 
2935.000000	100.729812 
2934.000000	100.729068 
2933.000000	100.729989 
2932.000000	100.731717 
2931.000000	100.732363 
2930.000000	100.730326 
2929.000000	100.725675 
2928.000000	100.719895 
2927.000000	100.714673 
2926.000000	100.711221 
2925.000000	100.710066 
2924.000000	100.710646 
2923.000000	100.711455 
2922.000000	100.711454 
2921.000000	100.711238 
2920.000000	100.712149 
2919.000000	100.714450 
2918.000000	100.717028 
2917.000000	100.718782 
2916.000000	100.719676 
2915.000000	100.720487 
2914.000000	100.722125 
2913.000000	100.725144 
2912.000000	100.729223 
2911.000000	100.732977 
2910.000000	100.734822 
2909.000000	100.734246 
2908.000000	100.732029 
2907.000000	100.729249 
2906.000000	100.726333 
2905.000000	100.723074 
2904.000000	100.719165 
2903.000000	100.714638 
2902.000000	100.710331 
2901.000000	100.708076 
2900.000000	100.709761 
2899.000000	100.715831 
2898.000000	100.724565 
2897.000000	100.733036 
2896.000000	100.739220 
2895.000000	100.743350 
2894.000000	100.747147 
2893.000000	100.751698 
2892.000000	100.756150 
2891.000000	100.758695 
2890.000000	100.758805 
2889.000000	100.758068 
2888.000000	100.758646 
2887.000000	100.761247 
2886.000000	100.764930 
2885.000000	100.768482 
2884.000000	100.771504 
2883.000000	100.774340 
2882.000000	100.777516 
2881.000000	100.781396 
2880.000000	100.786105 
2879.000000	100.791606 
2878.000000	100.797828 
2877.000000	100.804479 
2876.000000	100.810653 
2875.000000	100.815065 
2874.000000	100.817143 
2873.000000	100.817820 
2872.000000	100.818961 
2871.000000	100.821905 
2870.000000	100.826699 
2869.000000	100.832467 
2868.000000	100.838147 
2867.000000	100.843000 
2866.000000	100.846897 
2865.000000	100.850285 
2864.000000	100.853607 
2863.000000	100.856661 
2862.000000	100.858727 
2861.000000	100.859417 
2860.000000	100.859342 
2859.000000	100.859847 
2858.000000	100.861983 
2857.000000	100.865689 
2856.000000	100.869918 
2855.000000	100.873688 
2854.000000	100.877048 
2853.000000	100.880719 
2852.000000	100.884872 
2851.000000	100.888787 
2850.000000	100.891962 
2849.000000	100.895031 
2848.000000	100.899047 
2847.000000	100.904095 
2846.000000	100.909141 
2845.000000	100.913135 
2844.000000	100.915851 
2843.000000	100.917795 
2842.000000	100.919840 
2841.000000	100.922843 
2840.000000	100.927003 
2839.000000	100.931379 
2838.000000	100.934469 
2837.000000	100.935520 
2836.000000	100.935112 
2835.000000	100.934617 
2834.000000	100.935292 
2833.000000	100.937773 
2832.000000	100.941818 
2831.000000	100.946237 
2830.000000	100.949582 
2829.000000	100.951341 
2828.000000	100.952351 
2827.000000	100.953809 
2826.000000	100.955920 
2825.000000	100.957728 
2824.000000	100.958233 
2823.000000	100.957511 
2822.000000	100.956789 
2821.000000	100.957431 
2820.000000	100.959732 
2819.000000	100.962717 
2818.000000	100.965144 
2817.000000	100.966599 
2816.000000	100.967469 
2815.000000	100.968191 
2814.000000	100.968948 
2813.000000	100.969902 
2812.000000	100.971115 
2811.000000	100.972092 
2810.000000	100.972002 
2809.000000	100.970643 
2808.000000	100.968903 
2807.000000	100.967956 
2806.000000	100.968178 
2805.000000	100.969128 
2804.000000	100.970300 
2803.000000	100.971563 
2802.000000	100.972953 
2801.000000	100.974349 
2800.000000	100.975475 
2799.000000	100.976099 
2798.000000	100.976229 
2797.000000	100.976118 
2796.000000	100.976048 
2795.000000	100.976108 
2794.000000	100.976243 
2793.000000	100.976472 
2792.000000	100.976865 
2791.000000	100.977310 
2790.000000	100.977522 
2789.000000	100.977446 
2788.000000	100.977435 
2787.000000	100.977894 
2786.000000	100.978851 
2785.000000	100.979983 
2784.000000	100.980957 
2783.000000	100.981602 
2782.000000	100.981883 
2781.000000	100.981891 
2780.000000	100.981854 
2779.000000	100.981998 
2778.000000	100.982342 
2777.000000	100.982708 
2776.000000	100.982951 
2775.000000	100.983064 
2774.000000	100.983064 
2773.000000	100.982919 
2772.000000	100.982665 
2771.000000	100.982491 
2770.000000	100.982606 
2769.000000	100.983076 
2768.000000	100.983873 
2767.000000	100.984966 
2766.000000	100.986233 
2765.000000	100.987326 
2764.000000	100.987819 
2763.000000	100.987610 
2762.000000	100.987089 
2761.000000	100.986896 
2760.000000	100.987487 
2759.000000	100.988846 
2758.000000	100.990394 
2757.000000	100.991274 
2756.000000	100.991046 
2755.000000	100.990173 
2754.000000	100.989635 
2753.000000	100.989813 
2752.000000	100.990066 
2751.000000	100.989658 
2750.000000	100.988723 
2749.000000	100.987947 
2748.000000	100.987524 
2747.000000	100.986974 
2746.000000	100.985986 
2745.000000	100.984935 
2744.000000	100.984391 
2743.000000	100.984460 
2742.000000	100.984857 
2741.000000	100.985328 
2740.000000	100.985785 
2739.000000	100.986183 
2738.000000	100.986498 
2737.000000	100.986763 
2736.000000	100.986990 
2735.000000	100.987107 
2734.000000	100.987029 
2733.000000	100.986735 
2732.000000	100.986263 
2731.000000	100.985707 
2730.000000	100.985259 
2729.000000	100.985116 
2728.000000	100.985315 
2727.000000	100.985712 
2726.000000	100.986093 
2725.000000	100.986283 
2724.000000	100.986200 
2723.000000	100.985920 
2722.000000	100.985654 
2721.000000	100.985544 
2720.000000	100.985514 
2719.000000	100.985415 
2718.000000	100.985235 
2717.000000	100.985085 
2716.000000	100.985034 
2715.000000	100.985054 
2714.000000	100.985109 
2713.000000	100.985175 
2712.000000	100.985219 
2711.000000	100.985207 
2710.000000	100.985154 
2709.000000	100.985105 
2708.000000	100.985089 
2707.000000	100.985089 
2706.000000	100.985060 
2705.000000	100.984980 
2704.000000	100.984873 
2703.000000	100.984779 
2702.000000	100.984718 
2701.000000	100.984688 
2700.000000	100.984679 
2699.000000	100.984674 
2698.000000	100.984660 
2697.000000	100.984629 
2696.000000	100.984586 
2695.000000	100.984553 
2694.000000	100.984572 
2693.000000	100.984664 
2692.000000	100.984779 
2691.000000	100.984814 
2690.000000	100.984720 
2689.000000	100.984595 
2688.000000	100.984607 
2687.000000	100.984825 
2686.000000	100.985129 
2685.000000	100.985316 
2684.000000	100.985299 
2683.000000	100.985172 
2682.000000	100.985118 
2681.000000	100.985226 
2680.000000	100.985397 
2679.000000	100.985435 
2678.000000	100.985266 
2677.000000	100.985038 
2676.000000	100.984978 
2675.000000	100.985152 
2674.000000	100.985441 
2673.000000	100.985687 
2672.000000	100.985781 
2671.000000	100.985633 
2670.000000	100.985177 
2669.000000	100.984456 
2668.000000	100.983637 
2667.000000	100.982943 
2666.000000	100.982598 
2665.000000	100.982777 
2664.000000	100.983481 
2663.000000	100.984469 
2662.000000	100.985398 
2661.000000	100.986052 
2660.000000	100.986372 
2659.000000	100.986340 
2658.000000	100.985975 
2657.000000	100.985445 
2656.000000	100.985039 
2655.000000	100.984949 
2654.000000	100.985128 
2653.000000	100.985317 
2652.000000	100.985208 
2651.000000	100.984657 
2650.000000	100.983869 
2649.000000	100.983330 
2648.000000	100.983372 
2647.000000	100.983857 
2646.000000	100.984372 
2645.000000	100.984706 
2644.000000	100.984933 
2643.000000	100.985123 
2642.000000	100.985237 
2641.000000	100.985325 
2640.000000	100.985566 
2639.000000	100.986044 
2638.000000	100.986663 
2637.000000	100.987291 
2636.000000	100.987828 
2635.000000	100.988114 
2634.000000	100.988033 
2633.000000	100.987767 
2632.000000	100.987734 
2631.000000	100.988110 
2630.000000	100.988649 
2629.000000	100.989050 
2628.000000	100.989344 
2627.000000	100.989783 
2626.000000	100.990464 
2625.000000	100.991226 
2624.000000	100.991828 
2623.000000	100.992118 
2622.000000	100.992092 
2621.000000	100.991917 
2620.000000	100.991871 
2619.000000	100.992103 
2618.000000	100.992484 
2617.000000	100.992770 
2616.000000	100.992889 
2615.000000	100.992987 
2614.000000	100.993233 
2613.000000	100.993636 
2612.000000	100.994045 
2611.000000	100.994310 
2610.000000	100.994477 
2609.000000	100.994781 
2608.000000	100.995406 
2607.000000	100.996285 
2606.000000	100.997192 
2605.000000	100.997983 
2604.000000	100.998599 
2603.000000	100.998866 
2602.000000	100.998587 
2601.000000	100.997897 
2600.000000	100.997311 
2599.000000	100.997248 
2598.000000	100.997660 
2597.000000	100.998193 
2596.000000	100.998541 
2595.000000	100.998558 
2594.000000	100.998207 
2593.000000	100.997581 
2592.000000	100.996977 
2591.000000	100.996698 
2590.000000	100.996770 
2589.000000	100.996965 
2588.000000	100.997050 
2587.000000	100.996959 
2586.000000	100.996707 
2585.000000	100.996282 
2584.000000	100.995686 
2583.000000	100.995038 
2582.000000	100.994543 
2581.000000	100.994290 
2580.000000	100.994196 
2579.000000	100.994107 
2578.000000	100.993942 
2577.000000	100.993726 
2576.000000	100.993500 
2575.000000	100.993264 
2574.000000	100.993000 
2573.000000	100.992701 
2572.000000	100.992368 
2571.000000	100.991999 
2570.000000	100.991593 
2569.000000	100.991169 
2568.000000	100.990771 
2567.000000	100.990432 
2566.000000	100.990148 
2565.000000	100.989891 
2564.000000	100.989637 
2563.000000	100.989380 
2562.000000	100.989129 
2561.000000	100.988890 
2560.000000	100.988674 
2559.000000	100.988501 
2558.000000	100.988389 
2557.000000	100.988310 
2556.000000	100.988179 
2555.000000	100.987928 
2554.000000	100.987624 
2553.000000	100.987458 
2552.000000	100.987554 
2551.000000	100.987795 
2550.000000	100.987901 
2549.000000	100.987749 
2548.000000	100.987450 
2547.000000	100.987100 
2546.000000	100.986675 
2545.000000	100.986262 
2544.000000	100.986168 
2543.000000	100.986585 
2542.000000	100.987303 
2541.000000	100.987864 
2540.000000	100.988004 
2539.000000	100.987793 
2538.000000	100.987430 
2537.000000	100.986996 
2536.000000	100.986422 
2535.000000	100.985662 
2534.000000	100.984890 
2533.000000	100.984498 
2532.000000	100.984774 
2531.000000	100.985576 
2530.000000	100.986421 
2529.000000	100.986994 
2528.000000	100.987407 
2527.000000	100.987911 
2526.000000	100.988554 
2525.000000	100.989209 
2524.000000	100.989824 
2523.000000	100.990442 
2522.000000	100.991007 
2521.000000	100.991302 
2520.000000	100.991169 
2519.000000	100.990719 
2518.000000	100.990275 
2517.000000	100.990064 
2516.000000	100.989979 
2515.000000	100.989716 
2514.000000	100.989175 
2513.000000	100.988624 
2512.000000	100.988331 
2511.000000	100.988151 
2510.000000	100.987736 
2509.000000	100.987154 
2508.000000	100.986987 
2507.000000	100.987617 
2506.000000	100.988606 
2505.000000	100.988974 
2504.000000	100.988191 
2503.000000	100.986602 
2502.000000	100.985147 
2501.000000	100.984508 
2500.000000	100.984706 
2499.000000	100.985399 
2498.000000	100.986301 
2497.000000	100.987249 
2496.000000	100.988036 
2495.000000	100.988401 
2494.000000	100.988185 
2493.000000	100.987359 
2492.000000	100.985950 
2491.000000	100.984113 
2490.000000	100.982285 
2489.000000	100.981007 
2488.000000	100.980477 
2487.000000	100.980429 
2486.000000	100.980489 
2485.000000	100.980602 
2484.000000	100.980908 
2483.000000	100.981343 
2482.000000	100.981566 
2481.000000	100.981277 
2480.000000	100.980481 
2479.000000	100.979448 
2478.000000	100.978515 
2477.000000	100.977871 
2476.000000	100.977468 
2475.000000	100.977141 
2474.000000	100.976855 
2473.000000	100.976781 
2472.000000	100.977032 
2471.000000	100.977408 
2470.000000	100.977525 
2469.000000	100.977148 
2468.000000	100.976241 
2467.000000	100.974817 
2466.000000	100.973018 
2465.000000	100.971362 
2464.000000	100.970500 
2463.000000	100.970609 
2462.000000	100.971182 
2461.000000	100.971470 
2460.000000	100.971185 
2459.000000	100.970578 
2458.000000	100.970070 
2457.000000	100.969912 
2456.000000	100.970048 
2455.000000	100.970155 
2454.000000	100.969881 
2453.000000	100.969123 
2452.000000	100.968089 
2451.000000	100.967124 
2450.000000	100.966499 
2449.000000	100.966281 
2448.000000	100.966290 
2447.000000	100.966214 
2446.000000	100.965896 
2445.000000	100.965511 
2444.000000	100.965379 
2443.000000	100.965620 
2442.000000	100.966035 
2441.000000	100.966296 
2440.000000	100.966186 
2439.000000	100.965671 
2438.000000	100.964884 
2437.000000	100.964056 
2436.000000	100.963321 
2435.000000	100.962564 
2434.000000	100.961573 
2433.000000	100.960342 
2432.000000	100.959141 
2431.000000	100.958266 
2430.000000	100.957794 
2429.000000	100.957606 
2428.000000	100.957551 
2427.000000	100.957562 
2426.000000	100.957601 
2425.000000	100.957523 
2424.000000	100.957101 
2423.000000	100.956237 
2422.000000	100.955116 
2421.000000	100.954165 
2420.000000	100.953655 
2419.000000	100.953500 
2418.000000	100.953390 
2417.000000	100.953107 
2416.000000	100.952696 
2415.000000	100.952265 
2414.000000	100.951824 
2413.000000	100.951345 
2412.000000	100.950868 
2411.000000	100.950438 
2410.000000	100.950031 
2409.000000	100.949616 
2408.000000	100.949231 
2407.000000	100.948925 
2406.000000	100.948663 
2405.000000	100.948358 
2404.000000	100.947971 
2403.000000	100.947524 
2402.000000	100.947063 
2401.000000	100.946617 
2400.000000	100.946194 
2399.000000	100.945791 
2398.000000	100.945405 
2397.000000	100.945041 
2396.000000	100.944703 
2395.000000	100.944390 
2394.000000	100.944098 
2393.000000	100.943823 
2392.000000	100.943558 
2391.000000	100.943297 
2390.000000	100.943033 
2389.000000	100.942762 
2388.000000	100.942483 
2387.000000	100.942194 
2386.000000	100.941898 
2385.000000	100.941598 
2384.000000	100.941303 
2383.000000	100.941021 
2382.000000	100.940759 
2381.000000	100.940519 
2380.000000	100.940297 
2379.000000	100.940085 
2378.000000	100.939874 
2377.000000	100.939660 
2376.000000	100.939443 
2375.000000	100.939228 
2374.000000	100.939015 
2373.000000	100.938805 
2372.000000	100.938596 
2371.000000	100.938390 
2370.000000	100.938185 
2369.000000	100.937978 
2368.000000	100.937763 
2367.000000	100.937535 
2366.000000	100.937297 
2365.000000	100.937061 
2364.000000	100.936844 
2363.000000	100.936652 
2362.000000	100.936487 
2361.000000	100.936344 
2360.000000	100.936219 
2359.000000	100.936113 
2358.000000	100.936025 
2357.000000	100.935953 
2356.000000	100.935891 
2355.000000	100.935833 
2354.000000	100.935783 
2353.000000	100.935749 
2352.000000	100.935747 
2351.000000	100.935788 
2350.000000	100.935881 
2349.000000	100.936028 
2348.000000	100.936222 
2347.000000	100.936451 
2346.000000	100.936705 
2345.000000	100.936970 
2344.000000	100.937261 
2343.000000	100.937568 
2342.000000	100.937905 
2341.000000	100.938319 
2340.000000	100.938795 
2339.000000	100.939247 
2338.000000	100.939623 
2337.000000	100.940052 
2336.000000	100.940549 
2335.000000	100.940946 
2334.000000	100.941020 
2333.000000	100.940994 
2332.000000	100.941147 
2331.000000	100.941559 
2330.000000	100.941720 
2329.000000	100.941763 
2328.000000	100.941906 
2327.000000	100.942638 
2326.000000	100.943789 
2325.000000	100.944862 
2324.000000	100.945448 
2323.000000	100.945487 
2322.000000	100.945818 
2321.000000	100.947150 
2320.000000	100.949346 
2319.000000	100.951407 
2318.000000	100.952372 
2317.000000	100.952394 
2316.000000	100.951842 
2315.000000	100.951372 
2314.000000	100.951179 
2313.000000	100.951981 
2312.000000	100.953753 
2311.000000	100.956381 
2310.000000	100.959214 
2309.000000	100.962199 
2308.000000	100.964622 
2307.000000	100.965614 
2306.000000	100.964655 
2305.000000	100.962749 
2304.000000	100.961128 
2303.000000	100.960428 
2302.000000	100.960401 
2301.000000	100.961002 
2300.000000	100.961955 
2299.000000	100.962733 
2298.000000	100.962744 
2297.000000	100.962480 
2296.000000	100.962907 
2295.000000	100.964399 
2294.000000	100.966095 
2293.000000	100.967027 
2292.000000	100.967131 
2291.000000	100.967185 
2290.000000	100.967845 
2289.000000	100.969079 
2288.000000	100.970415 
2287.000000	100.971462 
2286.000000	100.972216 
2285.000000	100.972849 
2284.000000	100.973438 
2283.000000	100.973926 
2282.000000	100.974377 
2281.000000	100.974928 
2280.000000	100.975558 
2279.000000	100.976173 
2278.000000	100.977061 
2277.000000	100.978750 
2276.000000	100.981286 
2275.000000	100.984055 
2274.000000	100.986435 
2273.000000	100.988304 
2272.000000	100.989589 
2271.000000	100.989903 
2270.000000	100.989242 
2269.000000	100.988815 
2268.000000	100.990182 
2267.000000	100.993643 
2266.000000	100.997976 
2265.000000	101.001628 
2264.000000	101.003872 
2263.000000	101.004788 
2262.000000	101.005102 
2261.000000	101.006109 
2260.000000	101.008781 
2259.000000	101.012429 
2258.000000	101.015047 
2257.000000	101.015557 
2256.000000	101.015027 
2255.000000	101.015256 
2254.000000	101.016631 
2253.000000	101.018249 
2252.000000	101.019638 
2251.000000	101.021496 
2250.000000	101.024663 
2249.000000	101.029036 
2248.000000	101.033479 
2247.000000	101.036708 
2246.000000	101.038207 
2245.000000	101.038344 
2244.000000	101.037743 
2243.000000	101.036795 
2242.000000	101.035932 
2241.000000	101.035828 
2240.000000	101.036734 
2239.000000	101.037943 
2238.000000	101.038586 
2237.000000	101.038693 
2236.000000	101.038758 
2235.000000	101.038665 
2234.000000	101.038089 
2233.000000	101.037863 
2232.000000	101.039600 
2231.000000	101.043823 
2230.000000	101.049571 
2229.000000	101.055675 
2228.000000	101.061521 
2227.000000	101.066446 
2226.000000	101.069419 
2225.000000	101.069941 
2224.000000	101.068795 
2223.000000	101.067579 
2222.000000	101.067701 
2221.000000	101.069697 
2220.000000	101.072976 
2219.000000	101.076233 
2218.000000	101.078596 
2217.000000	101.080423 
2216.000000	101.082647 
2215.000000	101.085507 
2214.000000	101.088335 
2213.000000	101.090420 
2212.000000	101.091654 
2211.000000	101.092463 
2210.000000	101.093548 
2209.000000	101.095514 
2208.000000	101.098421 
2207.000000	101.101628 
2206.000000	101.104282 
2205.000000	101.106099 
2204.000000	101.107438 
2203.000000	101.108779 
2202.000000	101.110331 
2201.000000	101.112206 
2200.000000	101.114540 
2199.000000	101.117153 
2198.000000	101.119387 
2197.000000	101.120932 
2196.000000	101.122561 
2195.000000	101.125314 
2194.000000	101.129373 
2193.000000	101.134358 
2192.000000	101.139885 
2191.000000	101.144923 
2190.000000	101.147589 
2189.000000	101.147095 
2188.000000	101.145649 
2187.000000	101.146841 
2186.000000	101.152175 
2185.000000	101.160174 
2184.000000	101.168126 
2183.000000	101.173621 
2182.000000	101.175051 
2181.000000	101.172901 
2180.000000	101.170611 
2179.000000	101.171914 
2178.000000	101.176798 
2177.000000	101.181395 
2176.000000	101.182232 
2175.000000	101.179605 
2174.000000	101.176566 
2173.000000	101.175610 
2172.000000	101.176822 
2171.000000	101.178722 
2170.000000	101.180516 
2169.000000	101.183410 
2168.000000	101.189123 
2167.000000	101.196789 
2166.000000	101.202480 
2165.000000	101.203184 
2164.000000	101.200869 
2163.000000	101.201318 
2162.000000	101.208866 
2161.000000	101.222535 
2160.000000	101.236293 
2159.000000	101.242723 
2158.000000	101.237900 
2157.000000	101.224286 
2156.000000	101.208749 
2155.000000	101.196556 
2154.000000	101.187640 
2153.000000	101.178628 
2152.000000	101.167672 
2151.000000	101.157343 
2150.000000	101.152914 
2149.000000	101.157235 
2148.000000	101.166662 
2147.000000	101.172770 
2146.000000	101.169501 
2145.000000	101.158266 
2144.000000	101.145630 
2143.000000	101.136500 
2142.000000	101.130504 
2141.000000	101.124531 
2140.000000	101.116757 
2139.000000	101.107756 
2138.000000	101.098926 
2137.000000	101.090635 
2136.000000	101.081831 
2135.000000	101.071661 
2134.000000	101.061604 
2133.000000	101.054783 
2132.000000	101.051978 
2131.000000	101.049424 
2130.000000	101.042349 
2129.000000	101.030595 
2128.000000	101.019265 
2127.000000	101.013299 
2126.000000	101.012784 
2125.000000	101.014207 
2124.000000	101.015328 
2123.000000	101.017313 
2122.000000	101.021570 
2121.000000	101.026015 
2120.000000	101.026349 
2119.000000	101.021222 
2118.000000	101.014380 
2117.000000	101.010557 
2116.000000	101.010446 
2115.000000	101.011315 
2114.000000	101.011700 
2113.000000	101.012998 
2112.000000	101.016094 
2111.000000	101.019042 
2110.000000	101.019432 
2109.000000	101.017383 
2108.000000	101.014753 
2107.000000	101.012510 
2106.000000	101.010087 
2105.000000	101.006382 
2104.000000	101.000574 
2103.000000	100.993096 
2102.000000	100.986542 
2101.000000	100.984022 
2100.000000	100.985648 
2099.000000	100.988051 
2098.000000	100.988526 
2097.000000	100.988368 
2096.000000	100.990332 
2095.000000	100.994123 
2094.000000	100.996345 
2093.000000	100.994517 
2092.000000	100.989919 
2091.000000	100.986723 
2090.000000	100.988695 
2089.000000	100.995931 
2088.000000	101.004181 
2087.000000	101.008495 
2086.000000	101.008298 
2085.000000	101.007444 
2084.000000	101.009227 
2083.000000	101.013247 
2082.000000	101.017731 
2081.000000	101.022457 
2080.000000	101.027690 
2079.000000	101.032219 
2078.000000	101.034829 
2077.000000	101.036892 
2076.000000	101.041121 
2075.000000	101.047906 
2074.000000	101.054832 
2073.000000	101.059506 
2072.000000	101.061565 
2071.000000	101.061971 
2070.000000	101.062059 
2069.000000	101.063232 
2068.000000	101.065981 
2067.000000	101.069241 
2066.000000	101.071908 
2065.000000	101.074491 
2064.000000	101.077851 
2063.000000	101.081297 
2062.000000	101.084053 
2061.000000	101.087471 
2060.000000	101.093330 
2059.000000	101.100969 
2058.000000	101.108363 
2057.000000	101.114891 
2056.000000	101.120698 
2055.000000	101.124585 
2054.000000	101.125842 
2053.000000	101.127420 
2052.000000	101.133881 
2051.000000	101.145984 
2050.000000	101.159516 
2049.000000	101.169683 
2048.000000	101.174915 
2047.000000	101.175727 
2046.000000	101.173139 
2045.000000	101.169585 
2044.000000	101.168458 
2043.000000	101.171036 
2042.000000	101.175811 
2041.000000	101.181552 
2040.000000	101.188874 
2039.000000	101.198162 
2038.000000	101.208234 
2037.000000	101.217656 
2036.000000	101.225248 
2035.000000	101.229186 
2034.000000	101.228420 
2033.000000	101.225205 
2032.000000	101.223046 
2031.000000	101.221915 
2030.000000	101.219191 
2029.000000	101.214753 
2028.000000	101.211461 
2027.000000	101.210554 
2026.000000	101.211077 
2025.000000	101.213397 
2024.000000	101.219079 
2023.000000	101.226242 
2022.000000	101.229146 
2021.000000	101.224556 
2020.000000	101.215797 
2019.000000	101.209345 
2018.000000	101.208734 
2017.000000	101.212806 
2016.000000	101.217632 
2015.000000	101.219374 
2014.000000	101.217114 
2013.000000	101.213778 
2012.000000	101.213194 
2011.000000	101.215915 
2010.000000	101.219540 
2009.000000	101.222482 
2008.000000	101.224892 
2007.000000	101.225887 
2006.000000	101.223632 
2005.000000	101.218528 
2004.000000	101.213325 
2003.000000	101.209380 
2002.000000	101.205518 
2001.000000	101.201435 
2000.000000	101.197960 
1999.000000	101.194554 
1998.000000	101.189622 
1997.000000	101.184022 
1996.000000	101.181371 
1995.000000	101.183879 
1994.000000	101.190014 
1993.000000	101.196567 
1992.000000	101.201380 
1991.000000	101.203726 
1990.000000	101.203937 
1989.000000	101.203779 
1988.000000	101.205499 
1987.000000	101.209123 
1986.000000	101.211985 
1985.000000	101.212080 
1984.000000	101.210810 
1983.000000	101.211726 
1982.000000	101.216923 
1981.000000	101.225187 
1980.000000	101.231931 
1979.000000	101.232632 
1978.000000	101.227056 
1977.000000	101.219444 
1976.000000	101.213086 
1975.000000	101.207109 
1974.000000	101.201004 
1973.000000	101.198913 
1972.000000	101.205134 
1971.000000	101.216658 
1970.000000	101.224207 
1969.000000	101.221379 
1968.000000	101.210000 
1967.000000	101.197090 
1966.000000	101.188190 
1965.000000	101.183969 
1964.000000	101.181782 
1963.000000	101.178628 
1962.000000	101.173279 
1961.000000	101.166340 
1960.000000	101.158709 
1959.000000	101.151005 
1958.000000	101.144560 
1957.000000	101.140953 
1956.000000	101.139565 
1955.000000	101.137500 
1954.000000	101.133483 
1953.000000	101.129262 
1952.000000	101.126280 
1951.000000	101.122239 
1950.000000	101.114185 
1949.000000	101.103810 
1948.000000	101.095636 
1947.000000	101.090846 
1946.000000	101.086430 
1945.000000	101.079822 
1944.000000	101.071703 
1943.000000	101.064283 
1942.000000	101.059487 
1941.000000	101.058147 
1940.000000	101.058589 
1939.000000	101.057531 
1938.000000	101.054429 
1937.000000	101.052942 
1936.000000	101.055893 
1935.000000	101.060435 
1934.000000	101.061328 
1933.000000	101.057632 
1932.000000	101.053847 
1931.000000	101.053070 
1930.000000	101.053472 
1929.000000	101.052550 
1928.000000	101.049592 
1927.000000	101.045499 
1926.000000	101.040686 
1925.000000	101.036645 
1924.000000	101.035388 
1923.000000	101.036192 
1922.000000	101.036158 
1921.000000	101.034044 
1920.000000	101.030341 
1919.000000	101.024915 
1918.000000	101.016523 
1917.000000	101.006941 
1916.000000	101.000415 
1915.000000	100.997963 
1914.000000	100.997453 
1913.000000	100.997422 
1912.000000	100.998500 
1911.000000	101.000671 
1910.000000	101.002253 
1909.000000	101.002529 
1908.000000	101.002258 
1907.000000	101.002608 
1906.000000	101.003150 
1905.000000	101.003417 
1904.000000	101.003410 
1903.000000	101.002137 
1902.000000	100.998827 
1901.000000	100.994774 
1900.000000	100.991713 
1899.000000	100.989992 
1898.000000	100.988752 
1897.000000	100.987875 
1896.000000	100.987971 
1895.000000	100.988469 
1894.000000	100.987863 
1893.000000	100.985885 
1892.000000	100.983784 
1891.000000	100.982534 
1890.000000	100.981762 
1889.000000	100.980889 
1888.000000	100.980162 
1887.000000	100.979772 
1886.000000	100.979508 
1885.000000	100.979347 
1884.000000	100.979444 
1883.000000	100.979500 
1882.000000	100.979120 
1881.000000	100.978512 
1880.000000	100.978055 
1879.000000	100.977851 
1878.000000	100.977842 
1877.000000	100.978048 
1876.000000	100.978494 
1875.000000	100.978813 
1874.000000	100.978512 
1873.000000	100.977627 
1872.000000	100.976620 
1871.000000	100.975862 
1870.000000	100.975421 
1869.000000	100.975258 
1868.000000	100.975383 
1867.000000	100.975678 
1866.000000	100.975833 
1865.000000	100.975685 
1864.000000	100.975265 
1863.000000	100.974562 
1862.000000	100.973583 
1861.000000	100.972697 
1860.000000	100.972417 
1859.000000	100.972809 
1858.000000	100.973419 
1857.000000	100.973877 
1856.000000	100.974210 
1855.000000	100.974474 
1854.000000	100.974546 
1853.000000	100.974527 
1852.000000	100.974433 
1851.000000	100.974224 
1850.000000	100.974072 
1849.000000	100.974349 
1848.000000	100.975150 
1847.000000	100.975929 
1846.000000	100.976148 
1845.000000	100.975955 
1844.000000	100.975880 
1843.000000	100.976207 
1842.000000	100.976674 
1841.000000	100.976814 
1840.000000	100.976450 
1839.000000	100.975793 
1838.000000	100.974986 
1837.000000	100.974353 
1836.000000	100.974166 
1835.000000	100.974077 
1834.000000	100.973664 
1833.000000	100.973236 
1832.000000	100.973254 
1831.000000	100.973961 
1830.000000	100.974744 
1829.000000	100.974992 
1828.000000	100.975057 
1827.000000	100.975061 
1826.000000	100.974780 
1825.000000	100.974163 
1824.000000	100.973780 
1823.000000	100.973899 
1822.000000	100.973555 
1821.000000	100.971989 
1820.000000	100.970070 
1819.000000	100.969453 
1818.000000	100.970080 
1817.000000	100.970872 
1816.000000	100.971678 
1815.000000	100.972670 
1814.000000	100.973721 
1813.000000	100.974401 
1812.000000	100.975286 
1811.000000	100.977000 
1810.000000	100.978505 
1809.000000	100.979074 
1808.000000	100.979396 
1807.000000	100.979614 
1806.000000	100.978739 
1805.000000	100.976706 
1804.000000	100.975233 
1803.000000	100.975031 
1802.000000	100.975392 
1801.000000	100.975058 
1800.000000	100.974566 
1799.000000	100.974950 
1798.000000	100.975893 
1797.000000	100.977003 
1796.000000	100.978551 
1795.000000	100.980275 
1794.000000	100.981727 
1793.000000	100.982447 
1792.000000	100.982633 
1791.000000	100.982945 
1790.000000	100.983344 
1789.000000	100.983547 
1788.000000	100.983996 
1787.000000	100.985031 
1786.000000	100.986156 
1785.000000	100.986849 
1784.000000	100.987305 
1783.000000	100.987351 
1782.000000	100.987338 
1781.000000	100.987479 
1780.000000	100.987853 
1779.000000	100.988388 
1778.000000	100.988860 
1777.000000	100.989369 
1776.000000	100.989905 
1775.000000	100.990425 
1774.000000	100.991218 
1773.000000	100.992352 
1772.000000	100.993268 
1771.000000	100.993918 
1770.000000	100.994404 
1769.000000	100.994581 
1768.000000	100.994608 
1767.000000	100.994765 
1766.000000	100.995165 
1765.000000	100.995629 
1764.000000	100.996085 
1763.000000	100.996611 
1762.000000	100.997208 
1761.000000	100.997699 
1760.000000	100.998127 
1759.000000	100.998552 
1758.000000	100.999034 
1757.000000	100.999593 
1756.000000	101.000140 
1755.000000	101.000636 
1754.000000	101.001067 
1753.000000	101.001438 
1752.000000	101.001760 
1751.000000	101.002073 
1750.000000	101.002399 
1749.000000	101.002745 
1748.000000	101.003094 
1747.000000	101.003445 
1746.000000	101.003814 
1745.000000	101.004186 
1744.000000	101.004553 
1743.000000	101.004927 
1742.000000	101.005315 
1741.000000	101.005713 
1740.000000	101.006117 
1739.000000	101.006519 
1738.000000	101.006911 
1737.000000	101.007286 
1736.000000	101.007641 
1735.000000	101.007976 
1734.000000	101.008287 
1733.000000	101.008572 
1732.000000	101.008837 
1731.000000	101.009085 
1730.000000	101.009320 
1729.000000	101.009556 
1728.000000	101.009801 
1727.000000	101.010062 
1726.000000	101.010337 
1725.000000	101.010615 
1724.000000	101.010885 
1723.000000	101.011139 
1722.000000	101.011371 
1721.000000	101.011578 
1720.000000	101.011763 
1719.000000	101.011940 
1718.000000	101.012109 
1717.000000	101.012264 
1716.000000	101.012403 
1715.000000	101.012527 
1714.000000	101.012635 
1713.000000	101.012731 
1712.000000	101.012826 
1711.000000	101.012926 
1710.000000	101.013031 
1709.000000	101.013140 
1708.000000	101.013253 
1707.000000	101.013363 
1706.000000	101.013463 
1705.000000	101.013545 
1704.000000	101.013608 
1703.000000	101.013653 
1702.000000	101.013681 
1701.000000	101.013696 
1700.000000	101.013695 
1699.000000	101.013682 
1698.000000	101.013655 
1697.000000	101.013608 
1696.000000	101.013551 
1695.000000	101.013497 
1694.000000	101.013451 
1693.000000	101.013418 
1692.000000	101.013401 
1691.000000	101.013406 
1690.000000	101.013429 
1689.000000	101.013468 
1688.000000	101.013520 
1687.000000	101.013584 
1686.000000	101.013658 
1685.000000	101.013739 
1684.000000	101.013812 
1683.000000	101.013871 
1682.000000	101.013928 
1681.000000	101.013987 
1680.000000	101.014049 
1679.000000	101.014121 
1678.000000	101.014208 
1677.000000	101.014312 
1676.000000	101.014428 
1675.000000	101.014553 
1674.000000	101.014690 
1673.000000	101.014836 
1672.000000	101.014982 
1671.000000	101.015124 
1670.000000	101.015256 
1669.000000	101.015379 
1668.000000	101.015495 
1667.000000	101.015605 
1666.000000	101.015711 
1665.000000	101.015815 
1664.000000	101.015921 
1663.000000	101.016036 
1662.000000	101.016167 
1661.000000	101.016312 
1660.000000	101.016467 
1659.000000	101.016627 
1658.000000	101.016796 
1657.000000	101.016977 
1656.000000	101.017171 
1655.000000	101.017390 
1654.000000	101.017645 
1653.000000	101.017915 
1652.000000	101.018192 
1651.000000	101.018481 
1650.000000	101.018771 
1649.000000	101.019054 
1648.000000	101.019334 
1647.000000	101.019617 
1646.000000	101.019908 
1645.000000	101.020208 
1644.000000	101.020517 
1643.000000	101.020832 
1642.000000	101.021158 
1641.000000	101.021508 
1640.000000	101.021887 
1639.000000	101.022295 
1638.000000	101.022734 
1637.000000	101.023204 
1636.000000	101.023704 
1635.000000	101.024228 
1634.000000	101.024776 
1633.000000	101.025359 
1632.000000	101.025905 
1631.000000	101.026304 
1630.000000	101.026540 
1629.000000	101.026804 
1628.000000	101.027337 
1627.000000	101.028078 
1626.000000	101.028936 
1625.000000	101.029922 
1624.000000	101.030962 
1623.000000	101.031532 
1622.000000	101.031860 
1621.000000	101.032934 
1620.000000	101.034335 
1619.000000	101.035099 
1618.000000	101.035688 
1617.000000	101.037249 
1616.000000	101.039462 
1615.000000	101.041721 
1614.000000	101.043620 
1613.000000	101.045211 
1612.000000	101.047121 
1611.000000	101.048901 
1610.000000	101.050288 
1609.000000	101.051670 
1608.000000	101.052834 
1607.000000	101.052885 
1606.000000	101.052983 
1605.000000	101.054556 
1604.000000	101.056680 
1603.000000	101.058237 
1602.000000	101.059787 
1601.000000	101.062250 
1600.000000	101.065076 
1599.000000	101.067358 
1598.000000	101.069270 
1597.000000	101.071131 
1596.000000	101.072747 
1595.000000	101.073909 
1594.000000	101.075001 
1593.000000	101.076492 
1592.000000	101.078290 
1591.000000	101.080033 
1590.000000	101.081636 
1589.000000	101.083210 
1588.000000	101.084737 
1587.000000	101.086144 
1586.000000	101.087453 
1585.000000	101.088756 
1584.000000	101.090027 
1583.000000	101.091255 
1582.000000	101.092472 
1581.000000	101.093675 
1580.000000	101.094840 
1579.000000	101.095961 
1578.000000	101.097046 
1577.000000	101.098101 
1576.000000	101.099125 
1575.000000	101.100105 
1574.000000	101.101038 
1573.000000	101.101922 
1572.000000	101.102760 
1571.000000	101.103555 
1570.000000	101.104310 
1569.000000	101.105031 
1568.000000	101.105719 
1567.000000	101.106374 
1566.000000	101.106998 
1565.000000	101.107596 
1564.000000	101.108167 
1563.000000	101.108706 
1562.000000	101.109210 
1561.000000	101.109687 
1560.000000	101.110131 
1559.000000	101.110518 
1558.000000	101.110841 
1557.000000	101.111124 
1556.000000	101.111370 
1555.000000	101.111574 
1554.000000	101.111740 
1553.000000	101.111877 
1552.000000	101.111992 
1551.000000	101.112087 
1550.000000	101.112167 
1549.000000	101.112240 
1548.000000	101.112308 
1547.000000	101.112365 
1546.000000	101.112413 
1545.000000	101.112461 
1544.000000	101.112523 
1543.000000	101.112605 
1542.000000	101.112704 
1541.000000	101.112803 
1540.000000	101.112885 
1539.000000	101.112939 
1538.000000	101.112970 
1537.000000	101.112978 
1536.000000	101.112955 
1535.000000	101.112894 
1534.000000	101.112794 
1533.000000	101.112663 
1532.000000	101.112511 
1531.000000	101.112342 
1530.000000	101.112157 
1529.000000	101.111936 
1528.000000	101.111672 
1527.000000	101.111410 
1526.000000	101.111223 
1525.000000	101.111153 
1524.000000	101.111131 
1523.000000	101.111101 
1522.000000	101.111002 
1521.000000	101.110624 
1520.000000	101.110192 
1519.000000	101.109784 
1518.000000	101.108835 
1517.000000	101.107224 
1516.000000	101.105800 
1515.000000	101.105364 
1514.000000	101.105579 
1513.000000	101.105277 
1512.000000	101.104439 
1511.000000	101.103724 
1510.000000	101.103064 
1509.000000	101.101963 
1508.000000	101.102020 
1507.000000	101.103831 
1506.000000	101.103862 
1505.000000	101.103280 
1504.000000	101.104081 
1503.000000	101.105449 
1502.000000	101.106842 
1501.000000	101.107763 
1500.000000	101.107715 
1499.000000	101.107111 
1498.000000	101.106126 
1497.000000	101.102972 
1496.000000	101.098304 
1495.000000	101.095071 
1494.000000	101.093891 
1493.000000	101.093101 
1492.000000	101.092089 
1491.000000	101.091110 
1490.000000	101.089406 
1489.000000	101.086482 
1488.000000	101.084255 
1487.000000	101.083450 
1486.000000	101.082387 
1485.000000	101.081497 
1484.000000	101.081264 
1483.000000	101.081454 
1482.000000	101.081552 
1481.000000	101.081438 
1480.000000	101.081622 
1479.000000	101.081855 
1478.000000	101.081233 
1477.000000	101.079422 
1476.000000	101.077893 
1475.000000	101.077325 
1474.000000	101.077191 
1473.000000	101.076256 
1472.000000	101.074202 
1471.000000	101.072601 
1470.000000	101.071849 
1469.000000	101.070909 
1468.000000	101.069735 
1467.000000	101.068611 
1466.000000	101.067646 
1465.000000	101.066955 
1464.000000	101.066496 
1463.000000	101.067022 
1462.000000	101.067957 
1461.000000	101.068151 
1460.000000	101.067099 
1459.000000	101.065764 
1458.000000	101.064881 
1457.000000	101.062189 
1456.000000	101.057762 
1455.000000	101.055163 
1454.000000	101.054484 
1453.000000	101.053823 
1452.000000	101.052999 
1451.000000	101.052723 
1450.000000	101.052638 
1449.000000	101.050900 
1448.000000	101.047979 
1447.000000	101.045890 
1446.000000	101.046751 
1445.000000	101.049370 
1444.000000	101.050741 
1443.000000	101.051299 
1442.000000	101.052591 
1441.000000	101.054412 
1440.000000	101.054912 
1439.000000	101.054776 
1438.000000	101.055535 
1437.000000	101.055572 
1436.000000	101.052855 
1435.000000	101.051371 
1434.000000	101.052502 
1433.000000	101.052442 
1432.000000	101.049791 
1431.000000	101.047108 
1430.000000	101.046715 
1429.000000	101.046913 
1428.000000	101.046517 
1427.000000	101.045483 
1426.000000	101.045155 
1425.000000	101.045499 
1424.000000	101.044413 
1423.000000	101.042816 
1422.000000	101.041837 
1421.000000	101.039685 
1420.000000	101.033969 
1419.000000	101.026987 
1418.000000	101.023749 
1417.000000	101.023715 
1416.000000	101.022393 
1415.000000	101.018977 
1414.000000	101.015884 
1413.000000	101.013736 
1412.000000	101.011521 
1411.000000	101.010066 
1410.000000	101.010438 
1409.000000	101.010759 
1408.000000	101.009866 
1407.000000	101.008736 
1406.000000	101.009356 
1405.000000	101.011732 
1404.000000	101.014108 
1403.000000	101.017222 
1402.000000	101.022056 
1401.000000	101.027326 
1400.000000	101.030865 
1399.000000	101.032416 
1398.000000	101.033153 
1397.000000	101.032362 
1396.000000	101.028352 
1395.000000	101.022531 
1394.000000	101.020750 
1393.000000	101.026342 
1392.000000	101.036607 
1391.000000	101.046964 
1390.000000	101.054780 
1389.000000	101.059276 
1388.000000	101.060675 
1387.000000	101.060059 
1386.000000	101.059291 
1385.000000	101.059436 
1384.000000	101.059846 
1383.000000	101.060247 
1382.000000	101.061007 
1381.000000	101.062547 
1380.000000	101.065152 
1379.000000	101.068873 
1378.000000	101.073578 
1377.000000	101.078648 
1376.000000	101.083172 
1375.000000	101.086623 
1374.000000	101.089941 
1373.000000	101.094459 
1372.000000	101.100315 
1371.000000	101.105991 
1370.000000	101.110485 
1369.000000	101.114089 
1368.000000	101.117231 
1367.000000	101.120414 
1366.000000	101.123934 
1365.000000	101.127619 
1364.000000	101.131126 
1363.000000	101.134342 
1362.000000	101.137439 
1361.000000	101.140690 
1360.000000	101.144120 
1359.000000	101.147658 
1358.000000	101.151814 
1357.000000	101.157063 
1356.000000	101.162797 
1355.000000	101.167874 
1354.000000	101.172057 
1353.000000	101.175604 
1352.000000	101.179004 
1351.000000	101.181236 
1350.000000	101.181985 
1349.000000	101.183096 
1348.000000	101.185529 
1347.000000	101.188382 
1346.000000	101.190436 
1345.000000	101.191965 
1344.000000	101.193714 
1343.000000	101.195371 
1342.000000	101.196025 
1341.000000	101.195878 
1340.000000	101.196227 
1339.000000	101.197989 
1338.000000	101.200933 
1337.000000	101.204143 
1336.000000	101.206902 
1335.000000	101.208899 
1334.000000	101.209917 
1333.000000	101.209973 
1332.000000	101.209811 
1331.000000	101.210433 
1330.000000	101.212234 
1329.000000	101.214575 
1328.000000	101.216696 
1327.000000	101.218186 
1326.000000	101.219169 
1325.000000	101.219701 
1324.000000	101.219462 
1323.000000	101.218697 
1322.000000	101.218156 
1321.000000	101.218244 
1320.000000	101.218947 
1319.000000	101.220490 
1318.000000	101.222746 
1317.000000	101.224330 
1316.000000	101.223708 
1315.000000	101.221331 
1314.000000	101.219468 
1313.000000	101.219438 
1312.000000	101.220237 
1311.000000	101.220260 
1310.000000	101.219339 
1309.000000	101.218265 
1308.000000	101.217662 
1307.000000	101.217522 
1306.000000	101.217764 
1305.000000	101.218328 
1304.000000	101.218986 
1303.000000	101.219714 
1302.000000	101.220530 
1301.000000	101.221009 
1300.000000	101.220571 
1299.000000	101.219597 
1298.000000	101.219363 
1297.000000	101.220715 
1296.000000	101.223219 
1295.000000	101.225719 
1294.000000	101.227157 
1293.000000	101.226768 
1292.000000	101.224460 
1291.000000	101.221319 
1290.000000	101.219040 
1289.000000	101.218535 
1288.000000	101.219527 
1287.000000	101.221263 
1286.000000	101.222925 
1285.000000	101.223628 
1284.000000	101.222976 
1283.000000	101.221750 
1282.000000	101.220956 
1281.000000	101.220510 
1280.000000	101.219777 
1279.000000	101.219022 
1278.000000	101.219115 
1277.000000	101.220000 
1276.000000	101.220631 
1275.000000	101.220413 
1274.000000	101.219715 
1273.000000	101.218837 
1272.000000	101.217664 
1271.000000	101.216605 
1270.000000	101.216601 
1269.000000	101.217656 
1268.000000	101.218344 
1267.000000	101.217458 
1266.000000	101.215310 
1265.000000	101.212949 
1264.000000	101.211002 
1263.000000	101.209554 
1262.000000	101.208115 
1261.000000	101.205685 
1260.000000	101.201862 
1259.000000	101.198119 
1258.000000	101.196570 
1257.000000	101.197235 
1256.000000	101.198255 
1255.000000	101.199013 
1254.000000	101.201017 
1253.000000	101.204915 
1252.000000	101.208681 
1251.000000	101.210212 
1250.000000	101.210261 
1249.000000	101.211290 
1248.000000	101.214440 
1247.000000	101.218860 
1246.000000	101.222624 
1245.000000	101.222988 
1244.000000	101.217601 
1243.000000	101.207612 
1242.000000	101.198733 
1241.000000	101.196790 
1240.000000	101.202249 
1239.000000	101.210316 
1238.000000	101.215918 
1237.000000	101.217387 
1236.000000	101.215817 
1235.000000	101.212827 
1234.000000	101.209372 
1233.000000	101.205391 
1232.000000	101.199935 
1231.000000	101.192297 
1230.000000	101.183319 
1229.000000	101.175283 
1228.000000	101.170370 
1227.000000	101.169079 
1226.000000	101.169686 
1225.000000	101.169246 
1224.000000	101.165727 
1223.000000	101.159473 
1222.000000	101.152318 
1221.000000	101.145421 
1220.000000	101.138676 
1219.000000	101.132045 
1218.000000	101.126061 
1217.000000	101.120416 
1216.000000	101.113266 
1215.000000	101.102824 
1214.000000	101.089044 
1213.000000	101.073078 
1212.000000	101.055977 
1211.000000	101.038756 
1210.000000	101.022868 
1209.000000	101.009368 
1208.000000	100.997564 
1207.000000	100.985285 
1206.000000	100.970861 
1205.000000	100.954772 
1204.000000	100.939073 
1203.000000	100.925066 
1202.000000	100.911823 
1201.000000	100.897457 
1200.000000	100.881567 
1199.000000	100.865587 
1198.000000	100.850594 
1197.000000	100.835725 
1196.000000	100.819311 
1195.000000	100.800621 
1194.000000	100.780012 
1193.000000	100.758417 
1192.000000	100.737361 
1191.000000	100.718304 
1190.000000	100.700749 
1189.000000	100.682033 
1188.000000	100.660345 
1187.000000	100.637230 
1186.000000	100.615813 
1185.000000	100.597116 
1184.000000	100.579410 
1183.000000	100.560504 
1182.000000	100.539318 
1181.000000	100.515806 
1180.000000	100.490736 
1179.000000	100.465356 
1178.000000	100.440278 
1177.000000	100.414877 
1176.000000	100.388389 
1175.000000	100.360697 
1174.000000	100.331401 
1173.000000	100.299530 
1172.000000	100.265639 
1171.000000	100.233040 
1170.000000	100.204943 
1169.000000	100.180889 
1168.000000	100.157650 
1167.000000	100.133409 
1166.000000	100.109848 
1165.000000	100.090575 
1164.000000	100.078917 
1163.000000	100.076720 
1162.000000	100.083473 
1161.000000	100.096332 
1160.000000	100.111536 
1159.000000	100.125462 
1158.000000	100.134146 
1157.000000	100.133280 
1156.000000	100.120425 
1155.000000	100.097368 
1154.000000	100.069525 
1153.000000	100.042568 
1152.000000	100.019396 
1151.000000	99.999387  
1150.000000	99.979704  
1149.000000	99.958052  
1148.000000	99.934943  
1147.000000	99.912672  
1146.000000	99.891722  
1145.000000	99.869524  
1144.000000	99.843657  
1143.000000	99.815017  
1142.000000	99.786862  
1141.000000	99.761878  
1140.000000	99.741131  
1139.000000	99.724237  
1138.000000	99.708793  
1137.000000	99.690969  
1136.000000	99.668725  
1135.000000	99.643976  
1134.000000	99.620041  
1133.000000	99.597476  
1132.000000	99.574040  
1131.000000	99.548395  
1130.000000	99.522129  
1129.000000	99.497764  
1128.000000	99.475621  
1127.000000	99.453055  
1126.000000	99.426823  
1125.000000	99.396646  
1124.000000	99.366244  
1123.000000	99.339805  
1122.000000	99.317376  
1121.000000	99.295083  
1120.000000	99.270110  
1119.000000	99.243779  
1118.000000	99.219017  
1117.000000	99.196672  
1116.000000	99.175589  
1115.000000	99.154709  
1114.000000	99.133553  
1113.000000	99.111692  
1112.000000	99.089074  
1111.000000	99.066012  
1110.000000	99.042012  
1109.000000	99.015666  
1108.000000	98.986974  
1107.000000	98.958569  
1106.000000	98.932924  
1105.000000	98.909347  
1104.000000	98.885067  
1103.000000	98.858694  
1102.000000	98.831594  
1101.000000	98.806093  
1100.000000	98.783355  
1099.000000	98.762623  
1098.000000	98.742027  
1097.000000	98.720626  
1096.000000	98.699175  
1095.000000	98.678136  
1094.000000	98.655629  
1093.000000	98.628972  
1092.000000	98.597743  
1091.000000	98.563647  
1090.000000	98.528058  
1089.000000	98.492074  
1088.000000	98.458480  
1087.000000	98.430400  
1086.000000	98.407367  
1085.000000	98.385485  
1084.000000	98.362158  
1083.000000	98.338062  
1082.000000	98.313981  
1081.000000	98.288820  
1080.000000	98.261834  
1079.000000	98.234068  
1078.000000	98.206565  
1077.000000	98.179751  
1076.000000	98.155363  
1075.000000	98.135870  
1074.000000	98.120746  
1073.000000	98.105994  
1072.000000	98.087831  
1071.000000	98.063553  
1070.000000	98.028898  
1069.000000	97.979888  
1068.000000	97.919657  
1067.000000	97.859668  
1066.000000	97.810450  
1065.000000	97.773040  
1064.000000	97.741637  
1063.000000	97.710671  
1062.000000	97.676280  
1061.000000	97.634714  
1060.000000	97.584357  
1059.000000	97.528941  
1058.000000	97.475762  
1057.000000	97.430321  
1056.000000	97.393355  
1055.000000	97.361331  
1054.000000	97.328489  
1053.000000	97.290252  
1052.000000	97.246290  
1051.000000	97.199350  
1050.000000	97.151108  
1049.000000	97.101491  
1048.000000	97.051846  
1047.000000	97.005141  
1046.000000	96.962553  
1045.000000	96.922822  
1044.000000	96.884750  
1043.000000	96.847414  
1042.000000	96.808748  
1041.000000	96.767573  
1040.000000	96.726487  
1039.000000	96.689144  
1038.000000	96.655495  
1037.000000	96.623825  
1036.000000	96.596272  
1035.000000	96.576913  
1034.000000	96.564670  
1033.000000	96.553436  
1032.000000	96.539112  
1031.000000	96.521511  
1030.000000	96.500383  
1029.000000	96.476364  
1028.000000	96.455764  
1027.000000	96.446720  
1026.000000	96.448546  
1025.000000	96.451052  
1024.000000	96.446465  
1023.000000	96.436456  
1022.000000	96.426060  
1021.000000	96.417330  
1020.000000	96.411086  
1019.000000	96.408442  
1018.000000	96.407312  
1017.000000	96.402617  
1016.000000	96.392995  
1015.000000	96.382950  
1014.000000	96.376067  
1013.000000	96.370437  
1012.000000	96.362602  
1011.000000	96.351576  
1010.000000	96.337439  
1009.000000	96.320876  
1008.000000	96.305867  
1007.000000	96.297908  
1006.000000	96.297601  
1005.000000	96.300389  
1004.000000	96.303779  
1003.000000	96.309605  
1002.000000	96.317809  
1001.000000	96.323944  
1000.000000	96.325288  
999.000000	 96.324389  
998.000000	 96.324354  
997.000000	 96.325671  
996.000000	 96.329758  
995.000000	 96.340060  
994.000000	 96.356533  
993.000000	 96.373585  
992.000000	 96.386338  
991.000000	 96.394934  
990.000000	 96.400711  
989.000000	 96.403134  
988.000000	 96.403508  
987.000000	 96.407338  
986.000000	 96.419380  
985.000000	 96.439150  
984.000000	 96.463173  
983.000000	 96.488584  
982.000000	 96.513413  
981.000000	 96.537116  
980.000000	 96.562332  
979.000000	 96.592729  
978.000000	 96.628130  
977.000000	 96.665298  
976.000000	 96.703682  
975.000000	 96.745684  
974.000000	 96.790879  
973.000000	 96.835610  
972.000000	 96.879647  
971.000000	 96.927715  
970.000000	 96.982300  
969.000000	 97.039837  
968.000000	 97.096016  
967.000000	 97.150355  
966.000000	 97.203592  
965.000000	 97.255072  
964.000000	 97.304954  
963.000000	 97.355095  
962.000000	 97.405830  
961.000000	 97.455425  
960.000000	 97.503867  
959.000000	 97.553118  
958.000000	 97.602508  
957.000000	 97.648421  
956.000000	 97.690026  
955.000000	 97.730780  
954.000000	 97.772564  
953.000000	 97.812814  
952.000000	 97.849436  
951.000000	 97.884049  
950.000000	 97.918019  
949.000000	 97.949471  
948.000000	 97.976734  
947.000000	 98.000975  
946.000000	 98.023079  
945.000000	 98.041605  
944.000000	 98.056461  
943.000000	 98.071454  
942.000000	 98.090543  
941.000000	 98.113758  
940.000000	 98.138340  
939.000000	 98.161215  
938.000000	 98.179485  
937.000000	 98.192197  
936.000000	 98.203216  
935.000000	 98.219032  
934.000000	 98.241944  
933.000000	 98.268343  
932.000000	 98.294531  
931.000000	 98.320261  
930.000000	 98.345352  
929.000000	 98.367165  
928.000000	 98.383718  
927.000000	 98.396187  
926.000000	 98.406776  
925.000000	 98.417218  
924.000000	 98.430372  
923.000000	 98.449269  
922.000000	 98.472729  
921.000000	 98.495348  
920.000000	 98.513295  
919.000000	 98.526836  
918.000000	 98.536630  
917.000000	 98.542136  
916.000000	 98.545121  
915.000000	 98.550020  
914.000000	 98.558605  
913.000000	 98.568499  
912.000000	 98.579094  
911.000000	 98.594515  
910.000000	 98.618189  
909.000000	 98.648696  
908.000000	 98.683297  
907.000000	 98.721435  
906.000000	 98.762266  
905.000000	 98.802911  
904.000000	 98.841970  
903.000000	 98.881342  
902.000000	 98.922555  
901.000000	 98.964955  
900.000000	 99.009132  
899.000000	 99.057326  
898.000000	 99.107989  
897.000000	 99.154638  
896.000000	 99.193174  
895.000000	 99.226664  
894.000000	 99.260384  
893.000000	 99.296149  
892.000000	 99.334373  
891.000000	 99.377399  
890.000000	 99.426664  
889.000000	 99.479201  
888.000000	 99.530160  
887.000000	 99.576670  
886.000000	 99.617298  
885.000000	 99.651070  
884.000000	 99.679632  
883.000000	 99.707262  
882.000000	 99.735831  
881.000000	 99.762854  
880.000000	 99.787355  
879.000000	 99.813872  
878.000000	 99.846673  
877.000000	 99.883112  
876.000000	 99.916840  
875.000000	 99.945194  
874.000000	 99.970195  
873.000000	 99.995308  
872.000000	 100.024474 
871.000000	 100.060903 
870.000000	 100.102840 
869.000000	 100.143548 
868.000000	 100.179174 
867.000000	 100.213478 
866.000000	 100.251164 
865.000000	 100.290354 
864.000000	 100.326645 
863.000000	 100.361330 
862.000000	 100.399024 
861.000000	 100.438271 
860.000000	 100.471345 
859.000000	 100.494481 
858.000000	 100.512954 
857.000000	 100.534312 
856.000000	 100.561003 
855.000000	 100.591904 
854.000000	 100.626458 
853.000000	 100.663397 
852.000000	 100.698169 
851.000000	 100.726252 
850.000000	 100.748759 
849.000000	 100.771277 
848.000000	 100.796534 
847.000000	 100.820940 
846.000000	 100.839464 
845.000000	 100.851496 
844.000000	 100.859961 
843.000000	 100.866455 
842.000000	 100.870323 
841.000000	 100.871935 
840.000000	 100.873150 
839.000000	 100.873507 
838.000000	 100.869459 
837.000000	 100.859672 
836.000000	 100.848248 
835.000000	 100.839832 
834.000000	 100.834461 
833.000000	 100.831364 
832.000000	 100.834626 
831.000000	 100.847727 
830.000000	 100.862830 
829.000000	 100.864600 
828.000000	 100.848963 
827.000000	 100.831487 
826.000000	 100.830524 
825.000000	 100.845806 
824.000000	 100.861087 
823.000000	 100.865169 
822.000000	 100.862360 
821.000000	 100.863281 
820.000000	 100.873085 
819.000000	 100.889888 
818.000000	 100.908971 
817.000000	 100.925617 
816.000000	 100.935563 
815.000000	 100.934730 
814.000000	 100.919986 
813.000000	 100.891154 
812.000000	 100.851469 
811.000000	 100.803708 
810.000000	 100.745365 
809.000000	 100.670023 
808.000000	 100.574550 
807.000000	 100.462678 
806.000000	 100.340412 
805.000000	 100.211041 
804.000000	 100.077286 
803.000000	 99.945606  
802.000000	 99.824513  
801.000000	 99.719681  
800.000000	 99.633211  
799.000000	 99.566015  
798.000000	 99.518864  
797.000000	 99.492509  
796.000000	 99.487411  
795.000000	 99.500736  
794.000000	 99.523398  
793.000000	 99.544280  
792.000000	 99.559169  
791.000000	 99.572481  
790.000000	 99.589224  
789.000000	 99.608320  
788.000000	 99.624021  
787.000000	 99.629712  
786.000000	 99.619373  
785.000000	 99.589835  
784.000000	 99.544413  
783.000000	 99.492137  
782.000000	 99.441668  
781.000000	 99.397599  
780.000000	 99.362309  
779.000000	 99.337081  
778.000000	 99.320492  
777.000000	 99.310433  
776.000000	 99.309798  
775.000000	 99.325769  
774.000000	 99.360684  
773.000000	 99.406948  
772.000000	 99.453562  
771.000000	 99.495396  
770.000000	 99.534157  
769.000000	 99.572418  
768.000000	 99.608699  
767.000000	 99.637914  
766.000000	 99.656754  
765.000000	 99.669327  
764.000000	 99.685437  
763.000000	 99.710357  
762.000000	 99.737717  
761.000000	 99.756351  
760.000000	 99.763578  
759.000000	 99.768088  
758.000000	 99.780235  
757.000000	 99.802739  
756.000000	 99.829789  
755.000000	 99.851591  
754.000000	 99.861620  
753.000000	 99.864057  
752.000000	 99.872924  
751.000000	 99.899222  
750.000000	 99.939438  
749.000000	 99.980224  
748.000000	 100.012834 
747.000000	 100.038173 
746.000000	 100.059989 
745.000000	 100.080329 
744.000000	 100.101460 
743.000000	 100.125440 
742.000000	 100.150914 
741.000000	 100.176021 
740.000000	 100.204502 
739.000000	 100.242500 
738.000000	 100.288618 
737.000000	 100.333154 
736.000000	 100.368072 
735.000000	 100.392438 
734.000000	 100.408579 
733.000000	 100.420157 
732.000000	 100.434932 
731.000000	 100.461136 
730.000000	 100.497278 
729.000000	 100.531804 
728.000000	 100.556638 
727.000000	 100.575124 
726.000000	 100.592845 
725.000000	 100.607468 
724.000000	 100.613458 
723.000000	 100.611844 
722.000000	 100.610060 
721.000000	 100.615614 
720.000000	 100.633558 
719.000000	 100.665369 
718.000000	 100.705415 
717.000000	 100.742041 
716.000000	 100.766153 
715.000000	 100.777195 
714.000000	 100.780440 
713.000000	 100.782280 
712.000000	 100.789590 
711.000000	 100.807610 
710.000000	 100.833862 
709.000000	 100.858668 
708.000000	 100.874221 
707.000000	 100.879480 
706.000000	 100.874483 
705.000000	 100.856645 
704.000000	 100.827637 
703.000000	 100.797288 
702.000000	 100.774401 
701.000000	 100.756765 
700.000000	 100.734237 
699.000000	 100.698956 
698.000000	 100.649992 
697.000000	 100.592741 
696.000000	 100.538282 
695.000000	 100.498900 
694.000000	 100.480699 
693.000000	 100.482911 
692.000000	 100.503629 
691.000000	 100.541056 
690.000000	 100.587970 
689.000000	 100.632561 
688.000000	 100.669120 
687.000000	 100.700997 
686.000000	 100.730162 
685.000000	 100.752397 
684.000000	 100.766516 
683.000000	 100.779824 
682.000000	 100.799033 
681.000000	 100.821782 
680.000000	 100.841015 
679.000000	 100.852420 
678.000000	 100.855134 
677.000000	 100.851865 
676.000000	 100.852048 
675.000000	 100.866863 
674.000000	 100.895125 
673.000000	 100.921810 
672.000000	 100.937243 
671.000000	 100.950464 
670.000000	 100.976879 
669.000000	 101.022815 
668.000000	 101.066749 
667.000000	 101.077310 
666.000000	 101.068524 
665.000000	 101.066778 
664.000000	 101.074686 
663.000000	 101.097165 
662.000000	 101.135191 
661.000000	 101.174360 
660.000000	 101.193592 
659.000000	 101.187982 
658.000000	 101.170956 
657.000000	 101.157164 
656.000000	 101.150580 
655.000000	 101.151844 
654.000000	 101.163108 
653.000000	 101.182611 
652.000000	 101.204296 
651.000000	 101.223065 
650.000000	 101.236357 

