4000.000000	98.961944 
3999.000000	98.960793 
3998.000000	98.959788 
3997.000000	98.959779 
3996.000000	98.960610 
3995.000000	98.961401 
3994.000000	98.961615 
3993.000000	98.961437 
3992.000000	98.961122 
3991.000000	98.960423 
3990.000000	98.958891 
3989.000000	98.956522 
3988.000000	98.953933 
3987.000000	98.951977 
3986.000000	98.951282 
3985.000000	98.951982 
3984.000000	98.953659 
3983.000000	98.955684 
3982.000000	98.957757 
3981.000000	98.960016 
3980.000000	98.962507 
3979.000000	98.964729 
3978.000000	98.965924 
3977.000000	98.965748 
3976.000000	98.964405 
3975.000000	98.962249 
3974.000000	98.959498 
3973.000000	98.956411 
3972.000000	98.953467 
3971.000000	98.951272 
3970.000000	98.950398 
3969.000000	98.951043 
3968.000000	98.952783 
3967.000000	98.954689 
3966.000000	98.955925 
3965.000000	98.956241 
3964.000000	98.955872 
3963.000000	98.955251 
3962.000000	98.954802 
3961.000000	98.954744 
3960.000000	98.954754 
3959.000000	98.954124 
3958.000000	98.952692 
3957.000000	98.951191 
3956.000000	98.950537 
3955.000000	98.950797 
3954.000000	98.951280 
3953.000000	98.951346 
3952.000000	98.950852 
3951.000000	98.950036 
3950.000000	98.949103 
3949.000000	98.948089 
3948.000000	98.947077 
3947.000000	98.946387 
3946.000000	98.946229 
3945.000000	98.946368 
3944.000000	98.946374 
3943.000000	98.946100 
3942.000000	98.945761 
3941.000000	98.945564 
3940.000000	98.945372 
3939.000000	98.944933 
3938.000000	98.944371 
3937.000000	98.943991 
3936.000000	98.943855 
3935.000000	98.943710 
3934.000000	98.943386 
3933.000000	98.943048 
3932.000000	98.942929 
3931.000000	98.943020 
3930.000000	98.943053 
3929.000000	98.942827 
3928.000000	98.942417 
3927.000000	98.941902 
3926.000000	98.941317 
3925.000000	98.940750 
3924.000000	98.940359 
3923.000000	98.940124 
3922.000000	98.939853 
3921.000000	98.939476 
3920.000000	98.939105 
3919.000000	98.938803 
3918.000000	98.938529 
3917.000000	98.938252 
3916.000000	98.937978 
3915.000000	98.937712 
3914.000000	98.937448 
3913.000000	98.937181 
3912.000000	98.936899 
3911.000000	98.936596 
3910.000000	98.936278 
3909.000000	98.935958 
3908.000000	98.935645 
3907.000000	98.935336 
3906.000000	98.935027 
3905.000000	98.934717 
3904.000000	98.934406 
3903.000000	98.934096 
3902.000000	98.933786 
3901.000000	98.933471 
3900.000000	98.933146 
3899.000000	98.932810 
3898.000000	98.932465 
3897.000000	98.932117 
3896.000000	98.931774 
3895.000000	98.931438 
3894.000000	98.931110 
3893.000000	98.930794 
3892.000000	98.930490 
3891.000000	98.930194 
3890.000000	98.929906 
3889.000000	98.929624 
3888.000000	98.929343 
3887.000000	98.929054 
3886.000000	98.928761 
3885.000000	98.928472 
3884.000000	98.928195 
3883.000000	98.927926 
3882.000000	98.927654 
3881.000000	98.927379 
3880.000000	98.927113 
3879.000000	98.926870 
3878.000000	98.926648 
3877.000000	98.926434 
3876.000000	98.926214 
3875.000000	98.925983 
3874.000000	98.925749 
3873.000000	98.925523 
3872.000000	98.925305 
3871.000000	98.925096 
3870.000000	98.924904 
3869.000000	98.924745 
3868.000000	98.924626 
3867.000000	98.924530 
3866.000000	98.924436 
3865.000000	98.924347 
3864.000000	98.924274 
3863.000000	98.924215 
3862.000000	98.924160 
3861.000000	98.924107 
3860.000000	98.924066 
3859.000000	98.924043 
3858.000000	98.924040 
3857.000000	98.924060 
3856.000000	98.924118 
3855.000000	98.924220 
3854.000000	98.924355 
3853.000000	98.924502 
3852.000000	98.924661 
3851.000000	98.924841 
3850.000000	98.925035 
3849.000000	98.925227 
3848.000000	98.925415 
3847.000000	98.925599 
3846.000000	98.925783 
3845.000000	98.925969 
3844.000000	98.926153 
3843.000000	98.926329 
3842.000000	98.926491 
3841.000000	98.926641 
3840.000000	98.926785 
3839.000000	98.926921 
3838.000000	98.927042 
3837.000000	98.927142 
3836.000000	98.927221 
3835.000000	98.927287 
3834.000000	98.927350 
3833.000000	98.927418 
3832.000000	98.927496 
3831.000000	98.927582 
3830.000000	98.927671 
3829.000000	98.927756 
3828.000000	98.927836 
3827.000000	98.927909 
3826.000000	98.927977 
3825.000000	98.928053 
3824.000000	98.928144 
3823.000000	98.928248 
3822.000000	98.928350 
3821.000000	98.928440 
3820.000000	98.928528 
3819.000000	98.928623 
3818.000000	98.928714 
3817.000000	98.928783 
3816.000000	98.928833 
3815.000000	98.928879 
3814.000000	98.928927 
3813.000000	98.928964 
3812.000000	98.928981 
3811.000000	98.928987 
3810.000000	98.928999 
3809.000000	98.929015 
3808.000000	98.929019 
3807.000000	98.929007 
3806.000000	98.928988 
3805.000000	98.928974 
3804.000000	98.928961 
3803.000000	98.928944 
3802.000000	98.928928 
3801.000000	98.928930 
3800.000000	98.928968 
3799.000000	98.929041 
3798.000000	98.929136 
3797.000000	98.929249 
3796.000000	98.929390 
3795.000000	98.929568 
3794.000000	98.929782 
3793.000000	98.930022 
3792.000000	98.930275 
3791.000000	98.930522 
3790.000000	98.930749 
3789.000000	98.930947 
3788.000000	98.931115 
3787.000000	98.931251 
3786.000000	98.931351 
3785.000000	98.931412 
3784.000000	98.931441 
3783.000000	98.931451 
3782.000000	98.931431 
3781.000000	98.931361 
3780.000000	98.931222 
3779.000000	98.931026 
3778.000000	98.930819 
3777.000000	98.930621 
3776.000000	98.930405 
3775.000000	98.930161 
3774.000000	98.929953 
3773.000000	98.929829 
3772.000000	98.929735 
3771.000000	98.929571 
3770.000000	98.929323 
3769.000000	98.929070 
3768.000000	98.928879 
3767.000000	98.928692 
3766.000000	98.928435 
3765.000000	98.928146 
3764.000000	98.927939 
3763.000000	98.927841 
3762.000000	98.927725 
3761.000000	98.927503 
3760.000000	98.927266 
3759.000000	98.927094 
3758.000000	98.926894 
3757.000000	98.926573 
3756.000000	98.926214 
3755.000000	98.925881 
3754.000000	98.925517 
3753.000000	98.925147 
3752.000000	98.924904 
3751.000000	98.924559 
3750.000000	98.923617 
3749.000000	98.922234 
3748.000000	98.921188 
3747.000000	98.920627 
3746.000000	98.920059 
3745.000000	98.919100 
3744.000000	98.917907 
3743.000000	98.917658 
3742.000000	98.918552 
3741.000000	98.918831 
3740.000000	98.917934 
3739.000000	98.917020 
3738.000000	98.916934 
3737.000000	98.917191 
3736.000000	98.917145 
3735.000000	98.917218 
3734.000000	98.917734 
3733.000000	98.917726 
3732.000000	98.916552 
3731.000000	98.915434 
3730.000000	98.915623 
3729.000000	98.916328 
3728.000000	98.916021 
3727.000000	98.914868 
3726.000000	98.914378 
3725.000000	98.915088 
3724.000000	98.915481 
3723.000000	98.914327 
3722.000000	98.912308 
3721.000000	98.910778 
3720.000000	98.910202 
3719.000000	98.909696 
3718.000000	98.908317 
3717.000000	98.906056 
3716.000000	98.903525 
3715.000000	98.900739 
3714.000000	98.897515 
3713.000000	98.894563 
3712.000000	98.892332 
3711.000000	98.890133 
3710.000000	98.887923 
3709.000000	98.886240 
3708.000000	98.884937 
3707.000000	98.883516 
3706.000000	98.881819 
3705.000000	98.879830 
3704.000000	98.877503 
3703.000000	98.875024 
3702.000000	98.872574 
3701.000000	98.870402 
3700.000000	98.869224 
3699.000000	98.868534 
3698.000000	98.866101 
3697.000000	98.861094 
3696.000000	98.855421 
3695.000000	98.850976 
3694.000000	98.847389 
3693.000000	98.843832 
3692.000000	98.841226 
3691.000000	98.840576 
3690.000000	98.840190 
3689.000000	98.836847 
3688.000000	98.831355 
3687.000000	98.828315 
3686.000000	98.828703 
3685.000000	98.828920 
3684.000000	98.827056 
3683.000000	98.824695 
3682.000000	98.823106 
3681.000000	98.820848 
3680.000000	98.816389 
3679.000000	98.811506 
3678.000000	98.808407 
3677.000000	98.806806 
3676.000000	98.804385 
3675.000000	98.801410 
3674.000000	98.803153 
3673.000000	98.809185 
3672.000000	98.811879 
3671.000000	98.809908 
3670.000000	98.807678 
3669.000000	98.807505 
3668.000000	98.808882 
3667.000000	98.809339 
3666.000000	98.807930 
3665.000000	98.806746 
3664.000000	98.807735 
3663.000000	98.810377 
3662.000000	98.812817 
3661.000000	98.814141 
3660.000000	98.815114 
3659.000000	98.816948 
3658.000000	98.819478 
3657.000000	98.821417 
3656.000000	98.822079 
3655.000000	98.823681 
3654.000000	98.827425 
3653.000000	98.830789 
3652.000000	98.832417 
3651.000000	98.834724 
3650.000000	98.838524 
3649.000000	98.840173 
3648.000000	98.838053 
3647.000000	98.835816 
3646.000000	98.837004 
3645.000000	98.841089 
3644.000000	98.845550 
3643.000000	98.848950 
3642.000000	98.851967 
3641.000000	98.855606 
3640.000000	98.859819 
3639.000000	98.863979 
3638.000000	98.868314 
3637.000000	98.873522 
3636.000000	98.878496 
3635.000000	98.880837 
3634.000000	98.880090 
3633.000000	98.878894 
3632.000000	98.879542 
3631.000000	98.881773 
3630.000000	98.884402 
3629.000000	98.885202 
3628.000000	98.883992 
3627.000000	98.884811 
3626.000000	98.887242 
3625.000000	98.888281 
3624.000000	98.889021 
3623.000000	98.891545 
3622.000000	98.895091 
3621.000000	98.897326 
3620.000000	98.897391 
3619.000000	98.896098 
3618.000000	98.895174 
3617.000000	98.895908 
3616.000000	98.897370 
3615.000000	98.897711 
3614.000000	98.896403 
3613.000000	98.894485 
3612.000000	98.893350 
3611.000000	98.893266 
3610.000000	98.893385 
3609.000000	98.893448 
3608.000000	98.894071 
3607.000000	98.895677 
3606.000000	98.897862 
3605.000000	98.899735 
3604.000000	98.901104 
3603.000000	98.902388 
3602.000000	98.903431 
3601.000000	98.904002 
3600.000000	98.904810 
3599.000000	98.906507 
3598.000000	98.908161 
3597.000000	98.908702 
3596.000000	98.907890 
3595.000000	98.906239 
3594.000000	98.904357 
3593.000000	98.903147 
3592.000000	98.903249 
3591.000000	98.904608 
3590.000000	98.906577 
3589.000000	98.908379 
3588.000000	98.908943 
3587.000000	98.907701 
3586.000000	98.905814 
3585.000000	98.904497 
3584.000000	98.903475 
3583.000000	98.902410 
3582.000000	98.901410 
3581.000000	98.900492 
3580.000000	98.899485 
3579.000000	98.898486 
3578.000000	98.897595 
3577.000000	98.896895 
3576.000000	98.896460 
3575.000000	98.896363 
3574.000000	98.896604 
3573.000000	98.897009 
3572.000000	98.897416 
3571.000000	98.897648 
3570.000000	98.897426 
3569.000000	98.896495 
3568.000000	98.895038 
3567.000000	98.893756 
3566.000000	98.893596 
3565.000000	98.894795 
3564.000000	98.896277 
3563.000000	98.896967 
3562.000000	98.896948 
3561.000000	98.896852 
3560.000000	98.896974 
3559.000000	98.897115 
3558.000000	98.896974 
3557.000000	98.896501 
3556.000000	98.896009 
3555.000000	98.895814 
3554.000000	98.895913 
3553.000000	98.896027 
3552.000000	98.895952 
3551.000000	98.895708 
3550.000000	98.895322 
3549.000000	98.894773 
3548.000000	98.894278 
3547.000000	98.894187 
3546.000000	98.894552 
3545.000000	98.895095 
3544.000000	98.895520 
3543.000000	98.895716 
3542.000000	98.895731 
3541.000000	98.895676 
3540.000000	98.895699 
3539.000000	98.895871 
3538.000000	98.896119 
3537.000000	98.896280 
3536.000000	98.896246 
3535.000000	98.896030 
3534.000000	98.895690 
3533.000000	98.895325 
3532.000000	98.895058 
3531.000000	98.894961 
3530.000000	98.894974 
3529.000000	98.894975 
3528.000000	98.894914 
3527.000000	98.894848 
3526.000000	98.894824 
3525.000000	98.894808 
3524.000000	98.894752 
3523.000000	98.894647 
3522.000000	98.894521 
3521.000000	98.894397 
3520.000000	98.894280 
3519.000000	98.894163 
3518.000000	98.894045 
3517.000000	98.893924 
3516.000000	98.893794 
3515.000000	98.893650 
3514.000000	98.893494 
3513.000000	98.893329 
3512.000000	98.893152 
3511.000000	98.892962 
3510.000000	98.892760 
3509.000000	98.892556 
3508.000000	98.892354 
3507.000000	98.892156 
3506.000000	98.891959 
3505.000000	98.891758 
3504.000000	98.891552 
3503.000000	98.891344 
3502.000000	98.891138 
3501.000000	98.890935 
3500.000000	98.890730 
3499.000000	98.890513 
3498.000000	98.890275 
3497.000000	98.890013 
3496.000000	98.889737 
3495.000000	98.889458 
3494.000000	98.889188 
3493.000000	98.888932 
3492.000000	98.888692 
3491.000000	98.888466 
3490.000000	98.888249 
3489.000000	98.888034 
3488.000000	98.887820 
3487.000000	98.887604 
3486.000000	98.887380 
3485.000000	98.887138 
3484.000000	98.886884 
3483.000000	98.886641 
3482.000000	98.886428 
3481.000000	98.886228 
3480.000000	98.885995 
3479.000000	98.885701 
3478.000000	98.885372 
3477.000000	98.885065 
3476.000000	98.884792 
3475.000000	98.884499 
3474.000000	98.884150 
3473.000000	98.883841 
3472.000000	98.883727 
3471.000000	98.883856 
3470.000000	98.884108 
3469.000000	98.884287 
3468.000000	98.884282 
3467.000000	98.884102 
3466.000000	98.883823 
3465.000000	98.883509 
3464.000000	98.883175 
3463.000000	98.882808 
3462.000000	98.882394 
3461.000000	98.881933 
3460.000000	98.881426 
3459.000000	98.880886 
3458.000000	98.880391 
3457.000000	98.880069 
3456.000000	98.879989 
3455.000000	98.880085 
3454.000000	98.880192 
3453.000000	98.880260 
3452.000000	98.880406 
3451.000000	98.880753 
3450.000000	98.881217 
3449.000000	98.881521 
3448.000000	98.881399 
3447.000000	98.880785 
3446.000000	98.879862 
3445.000000	98.878990 
3444.000000	98.878538 
3443.000000	98.878696 
3442.000000	98.879361 
3441.000000	98.880176 
3440.000000	98.880791 
3439.000000	98.881084 
3438.000000	98.881094 
3437.000000	98.880847 
3436.000000	98.880352 
3435.000000	98.879774 
3434.000000	98.879420 
3433.000000	98.879508 
3432.000000	98.879948 
3431.000000	98.880373 
3430.000000	98.880401 
3429.000000	98.879911 
3428.000000	98.879105 
3427.000000	98.878272 
3426.000000	98.877535 
3425.000000	98.876919 
3424.000000	98.876580 
3423.000000	98.876780 
3422.000000	98.877541 
3421.000000	98.878436 
3420.000000	98.878899 
3419.000000	98.878750 
3418.000000	98.878354 
3417.000000	98.878249 
3416.000000	98.878618 
3415.000000	98.879120 
3414.000000	98.879233 
3413.000000	98.878760 
3412.000000	98.877977 
3411.000000	98.877330 
3410.000000	98.877131 
3409.000000	98.877522 
3408.000000	98.878461 
3407.000000	98.879549 
3406.000000	98.880132 
3405.000000	98.879896 
3404.000000	98.879296 
3403.000000	98.879209 
3402.000000	98.880130 
3401.000000	98.881800 
3400.000000	98.883421 
3399.000000	98.884286 
3398.000000	98.884390 
3397.000000	98.884492 
3396.000000	98.885317 
3395.000000	98.886627 
3394.000000	98.887469 
3393.000000	98.887429 
3392.000000	98.887125 
3391.000000	98.887224 
3390.000000	98.887482 
3389.000000	98.887239 
3388.000000	98.886370 
3387.000000	98.885208 
3386.000000	98.883880 
3385.000000	98.882339 
3384.000000	98.880881 
3383.000000	98.880059 
3382.000000	98.880019 
3381.000000	98.880307 
3380.000000	98.880289 
3379.000000	98.879616 
3378.000000	98.878434 
3377.000000	98.877466 
3376.000000	98.877690 
3375.000000	98.879558 
3374.000000	98.882533 
3373.000000	98.885433 
3372.000000	98.887323 
3371.000000	98.887975 
3370.000000	98.887679 
3369.000000	98.886945 
3368.000000	98.886261 
3367.000000	98.885847 
3366.000000	98.885507 
3365.000000	98.884843 
3364.000000	98.883689 
3363.000000	98.882299 
3362.000000	98.881152 
3361.000000	98.880550 
3360.000000	98.880375 
3359.000000	98.880259 
3358.000000	98.880045 
3357.000000	98.880062 
3356.000000	98.880701 
3355.000000	98.881767 
3354.000000	98.882577 
3353.000000	98.882820 
3352.000000	98.882993 
3351.000000	98.883798 
3350.000000	98.885364 
3349.000000	98.887190 
3348.000000	98.888648 
3347.000000	98.889391 
3346.000000	98.889400 
3345.000000	98.888931 
3344.000000	98.888371 
3343.000000	98.887970 
3342.000000	98.887733 
3341.000000	98.887629 
3340.000000	98.887769 
3339.000000	98.888220 
3338.000000	98.888756 
3337.000000	98.888996 
3336.000000	98.888812 
3335.000000	98.888466 
3334.000000	98.888342 
3333.000000	98.888588 
3332.000000	98.889048 
3331.000000	98.889454 
3330.000000	98.889675 
3329.000000	98.889801 
3328.000000	98.890006 
3327.000000	98.890343 
3326.000000	98.890716 
3325.000000	98.891013 
3324.000000	98.891233 
3323.000000	98.891462 
3322.000000	98.891752 
3321.000000	98.892061 
3320.000000	98.892317 
3319.000000	98.892502 
3318.000000	98.892649 
3317.000000	98.892811 
3316.000000	98.893012 
3315.000000	98.893242 
3314.000000	98.893472 
3313.000000	98.893677 
3312.000000	98.893858 
3311.000000	98.894040 
3310.000000	98.894246 
3309.000000	98.894476 
3308.000000	98.894709 
3307.000000	98.894914 
3306.000000	98.895073 
3305.000000	98.895190 
3304.000000	98.895260 
3303.000000	98.895267 
3302.000000	98.895220 
3301.000000	98.895190 
3300.000000	98.895278 
3299.000000	98.895526 
3298.000000	98.895862 
3297.000000	98.896154 
3296.000000	98.896331 
3295.000000	98.896413 
3294.000000	98.896479 
3293.000000	98.896622 
3292.000000	98.896884 
3291.000000	98.897204 
3290.000000	98.897447 
3289.000000	98.897524 
3288.000000	98.897467 
3287.000000	98.897380 
3286.000000	98.897334 
3285.000000	98.897328 
3284.000000	98.897316 
3283.000000	98.897235 
3282.000000	98.897057 
3281.000000	98.896814 
3280.000000	98.896561 
3279.000000	98.896324 
3278.000000	98.896133 
3277.000000	98.896078 
3276.000000	98.896238 
3275.000000	98.896576 
3274.000000	98.896968 
3273.000000	98.897325 
3272.000000	98.897586 
3271.000000	98.897631 
3270.000000	98.897316 
3269.000000	98.896670 
3268.000000	98.896014 
3267.000000	98.895749 
3266.000000	98.896017 
3265.000000	98.896631 
3264.000000	98.897255 
3263.000000	98.897689 
3262.000000	98.897975 
3261.000000	98.898279 
3260.000000	98.898673 
3259.000000	98.899018 
3258.000000	98.899096 
3257.000000	98.898838 
3256.000000	98.898368 
3255.000000	98.897882 
3254.000000	98.897548 
3253.000000	98.897487 
3252.000000	98.897736 
3251.000000	98.898178 
3250.000000	98.898582 
3249.000000	98.898793 
3248.000000	98.898841 
3247.000000	98.898835 
3246.000000	98.898818 
3245.000000	98.898771 
3244.000000	98.898723 
3243.000000	98.898794 
3242.000000	98.899114 
3241.000000	98.899738 
3240.000000	98.900568 
3239.000000	98.901333 
3238.000000	98.901738 
3237.000000	98.901695 
3236.000000	98.901401 
3235.000000	98.901164 
3234.000000	98.901115 
3233.000000	98.901196 
3232.000000	98.901347 
3231.000000	98.901600 
3230.000000	98.901992 
3229.000000	98.902455 
3228.000000	98.902821 
3227.000000	98.902900 
3226.000000	98.902601 
3225.000000	98.902052 
3224.000000	98.901615 
3223.000000	98.901653 
3222.000000	98.902224 
3221.000000	98.903024 
3220.000000	98.903623 
3219.000000	98.903797 
3218.000000	98.903598 
3217.000000	98.903166 
3216.000000	98.902592 
3215.000000	98.901971 
3214.000000	98.901509 
3213.000000	98.901433 
3212.000000	98.901820 
3211.000000	98.902553 
3210.000000	98.903542 
3209.000000	98.904853 
3208.000000	98.906468 
3207.000000	98.907980 
3206.000000	98.908806 
3205.000000	98.908799 
3204.000000	98.908461 
3203.000000	98.908393 
3202.000000	98.908661 
3201.000000	98.908906 
3200.000000	98.908934 
3199.000000	98.908901 
3198.000000	98.908958 
3197.000000	98.909024 
3196.000000	98.909073 
3195.000000	98.909367 
3194.000000	98.910107 
3193.000000	98.910932 
3192.000000	98.911123 
3191.000000	98.910450 
3190.000000	98.909612 
3189.000000	98.909585 
3188.000000	98.910544 
3187.000000	98.911647 
3186.000000	98.911897 
3185.000000	98.911004 
3184.000000	98.909369 
3183.000000	98.907604 
3182.000000	98.906200 
3181.000000	98.905452 
3180.000000	98.905384 
3179.000000	98.905719 
3178.000000	98.906100 
3177.000000	98.906230 
3176.000000	98.905786 
3175.000000	98.904593 
3174.000000	98.903230 
3173.000000	98.903053 
3172.000000	98.904973 
3171.000000	98.908307 
3170.000000	98.911189 
3169.000000	98.912487 
3168.000000	98.912833 
3167.000000	98.913567 
3166.000000	98.915158 
3165.000000	98.916960 
3164.000000	98.918221 
3163.000000	98.918840 
3162.000000	98.919163 
3161.000000	98.919463 
3160.000000	98.919847 
3159.000000	98.920395 
3158.000000	98.921102 
3157.000000	98.921724 
3156.000000	98.921910 
3155.000000	98.921601 
3154.000000	98.921198 
3153.000000	98.921246 
3152.000000	98.921887 
3151.000000	98.922693 
3150.000000	98.923057 
3149.000000	98.922761 
3148.000000	98.922173 
3147.000000	98.921868 
3146.000000	98.922101 
3145.000000	98.922622 
3144.000000	98.922999 
3143.000000	98.923157 
3142.000000	98.923527 
3141.000000	98.924556 
3140.000000	98.926088 
3139.000000	98.927412 
3138.000000	98.927992 
3137.000000	98.927976 
3136.000000	98.927864 
3135.000000	98.927864 
3134.000000	98.927776 
3133.000000	98.927425 
3132.000000	98.926966 
3131.000000	98.926693 
3130.000000	98.926706 
3129.000000	98.926824 
3128.000000	98.926802 
3127.000000	98.926601 
3126.000000	98.926440 
3125.000000	98.926557 
3124.000000	98.926962 
3123.000000	98.927414 
3122.000000	98.927676 
3121.000000	98.927763 
3120.000000	98.927925 
3119.000000	98.928366 
3118.000000	98.928989 
3117.000000	98.929415 
3116.000000	98.929292 
3115.000000	98.928638 
3114.000000	98.927856 
3113.000000	98.927355 
3112.000000	98.927205 
3111.000000	98.927256 
3110.000000	98.927487 
3109.000000	98.927987 
3108.000000	98.928572 
3107.000000	98.928720 
3106.000000	98.928088 
3105.000000	98.926983 
3104.000000	98.926195 
3103.000000	98.926285 
3102.000000	98.927259 
3101.000000	98.928730 
3100.000000	98.930164 
3099.000000	98.931068 
3098.000000	98.931222 
3097.000000	98.930873 
3096.000000	98.930590 
3095.000000	98.930744 
3094.000000	98.931228 
3093.000000	98.931749 
3092.000000	98.932224 
3091.000000	98.932717 
3090.000000	98.933136 
3089.000000	98.933327 
3088.000000	98.933507 
3087.000000	98.934240 
3086.000000	98.935707 
3085.000000	98.937239 
3084.000000	98.937910 
3083.000000	98.937518 
3082.000000	98.936793 
3081.000000	98.936626 
3080.000000	98.937200 
3079.000000	98.937931 
3078.000000	98.938052 
3077.000000	98.937108 
3076.000000	98.935098 
3075.000000	98.932560 
3074.000000	98.930476 
3073.000000	98.929703 
3072.000000	98.930329 
3071.000000	98.931822 
3070.000000	98.933801 
3069.000000	98.936061 
3068.000000	98.937624 
3067.000000	98.936654 
3066.000000	98.932249 
3065.000000	98.926023 
3064.000000	98.921011 
3063.000000	98.918960 
3062.000000	98.919453 
3061.000000	98.921318 
3060.000000	98.923743 
3059.000000	98.926091 
3058.000000	98.927824 
3057.000000	98.928996 
3056.000000	98.930025 
3055.000000	98.930823 
3054.000000	98.930963 
3053.000000	98.930762 
3052.000000	98.931119 
3051.000000	98.931952 
3050.000000	98.931859 
3049.000000	98.929772 
3048.000000	98.925966 
3047.000000	98.921067 
3046.000000	98.915267 
3045.000000	98.909255 
3044.000000	98.904707 
3043.000000	98.902635 
3042.000000	98.901863 
3041.000000	98.900143 
3040.000000	98.896616 
3039.000000	98.892541 
3038.000000	98.889861 
3037.000000	98.889479 
3036.000000	98.890493 
3035.000000	98.890668 
3034.000000	98.888112 
3033.000000	98.882815 
3032.000000	98.876209 
3031.000000	98.869275 
3030.000000	98.861617 
3029.000000	98.852528 
3028.000000	98.842290 
3027.000000	98.832036 
3026.000000	98.822925 
3025.000000	98.815702 
3024.000000	98.810282 
3023.000000	98.805147 
3022.000000	98.797897 
3021.000000	98.787353 
3020.000000	98.775017 
3019.000000	98.763885 
3018.000000	98.755939 
3017.000000	98.750970 
3016.000000	98.747174 
3015.000000	98.742229 
3014.000000	98.734350 
3013.000000	98.723180 
3012.000000	98.709656 
3011.000000	98.694693 
3010.000000	98.678423 
3009.000000	98.661115 
3008.000000	98.644254 
3007.000000	98.629915 
3006.000000	98.619141 
3005.000000	98.611222 
3004.000000	98.604109 
3003.000000	98.595245 
3002.000000	98.582843 
3001.000000	98.567455 
3000.000000	98.552011 
2999.000000	98.539339 
2998.000000	98.529824 
2997.000000	98.522183 
2996.000000	98.515896 
2995.000000	98.511237 
2994.000000	98.506536 
2993.000000	98.497265 
2992.000000	98.479754 
2991.000000	98.455826 
2990.000000	98.432528 
2989.000000	98.416551 
2988.000000	98.409404 
2987.000000	98.408086 
2986.000000	98.409392 
2985.000000	98.412661 
2984.000000	98.418358 
2983.000000	98.425526 
2982.000000	98.431812 
2981.000000	98.435510 
2980.000000	98.436535 
2979.000000	98.435478 
2978.000000	98.432807 
2977.000000	98.429226 
2976.000000	98.425836 
2975.000000	98.423242 
2974.000000	98.420990 
2973.000000	98.418444 
2972.000000	98.415925 
2971.000000	98.414560 
2970.000000	98.415263 
2969.000000	98.418205 
2968.000000	98.423089 
2967.000000	98.429592 
2966.000000	98.437554 
2965.000000	98.446774 
2964.000000	98.456544 
2963.000000	98.465634 
2962.000000	98.473204 
2961.000000	98.479683 
2960.000000	98.486304 
2959.000000	98.493846 
2958.000000	98.502290 
2957.000000	98.511379 
2956.000000	98.520488 
2955.000000	98.527957 
2954.000000	98.532008 
2953.000000	98.533236 
2952.000000	98.535341 
2951.000000	98.542010 
2950.000000	98.552898 
2949.000000	98.563482 
2948.000000	98.569182 
2947.000000	98.569216 
2946.000000	98.566635 
2945.000000	98.565207 
2944.000000	98.566231 
2943.000000	98.568187 
2942.000000	98.569053 
2941.000000	98.568374 
2940.000000	98.566915 
2939.000000	98.565011 
2938.000000	98.562092 
2937.000000	98.557904 
2936.000000	98.553548 
2935.000000	98.550907 
2934.000000	98.551171 
2933.000000	98.553991 
2932.000000	98.557676 
2931.000000	98.560070 
2930.000000	98.559666 
2929.000000	98.556390 
2928.000000	98.551541 
2927.000000	98.547076 
2926.000000	98.544791 
2925.000000	98.545506 
2924.000000	98.548420 
2923.000000	98.551466 
2922.000000	98.552948 
2921.000000	98.552883 
2920.000000	98.552325 
2919.000000	98.551768 
2918.000000	98.550940 
2917.000000	98.549877 
2916.000000	98.549172 
2915.000000	98.549013 
2914.000000	98.548905 
2913.000000	98.548596 
2912.000000	98.548461 
2911.000000	98.548588 
2910.000000	98.548261 
2909.000000	98.546852 
2908.000000	98.544573 
2907.000000	98.541818 
2906.000000	98.538268 
2905.000000	98.533103 
2904.000000	98.525891 
2903.000000	98.517227 
2902.000000	98.509230 
2901.000000	98.505358 
2900.000000	98.508622 
2899.000000	98.518995 
2898.000000	98.532483 
2897.000000	98.543883 
2896.000000	98.550888 
2895.000000	98.555190 
2894.000000	98.559812 
2893.000000	98.565936 
2892.000000	98.572161 
2891.000000	98.576305 
2890.000000	98.577701 
2889.000000	98.577797 
2888.000000	98.578608 
2887.000000	98.580847 
2886.000000	98.583918 
2885.000000	98.587391 
2884.000000	98.591679 
2883.000000	98.597158 
2882.000000	98.603501 
2881.000000	98.610364 
2880.000000	98.618042 
2879.000000	98.626880 
2878.000000	98.636494 
2877.000000	98.646062 
2876.000000	98.654905 
2875.000000	98.662299 
2874.000000	98.667244 
2873.000000	98.669336 
2872.000000	98.669800 
2871.000000	98.671021 
2870.000000	98.674762 
2869.000000	98.680997 
2868.000000	98.688374 
2867.000000	98.695630 
2866.000000	98.702770 
2865.000000	98.711003 
2864.000000	98.721246 
2863.000000	98.732520 
2862.000000	98.742276 
2861.000000	98.748700 
2860.000000	98.752472 
2859.000000	98.756015 
2858.000000	98.761247 
2857.000000	98.768276 
2856.000000	98.775896 
2855.000000	98.782902 
2854.000000	98.789005 
2853.000000	98.794826 
2852.000000	98.801015 
2851.000000	98.807393 
2850.000000	98.813333 
2849.000000	98.818912 
2848.000000	98.825038 
2847.000000	98.832119 
2846.000000	98.839104 
2845.000000	98.844336 
2844.000000	98.847192 
2843.000000	98.848684 
2842.000000	98.850782 
2841.000000	98.855093 
2840.000000	98.861551 
2839.000000	98.868062 
2838.000000	98.872018 
2837.000000	98.872627 
2836.000000	98.871561 
2835.000000	98.871205 
2834.000000	98.872652 
2833.000000	98.875599 
2832.000000	98.879340 
2831.000000	98.883174 
2830.000000	98.886510 
2829.000000	98.889447 
2828.000000	98.892875 
2827.000000	98.897186 
2826.000000	98.901131 
2825.000000	98.902824 
2824.000000	98.901925 
2823.000000	98.900293 
2822.000000	98.900362 
2821.000000	98.903083 
2820.000000	98.907405 
2819.000000	98.911329 
2818.000000	98.913541 
2817.000000	98.914301 
2816.000000	98.914765 
2815.000000	98.915507 
2814.000000	98.916080 
2813.000000	98.916085 
2812.000000	98.915956 
2811.000000	98.916236 
2810.000000	98.916641 
2809.000000	98.916567 
2808.000000	98.916210 
2807.000000	98.916468 
2806.000000	98.917844 
2805.000000	98.920002 
2804.000000	98.922308 
2803.000000	98.924298 
2802.000000	98.925692 
2801.000000	98.926421 
2800.000000	98.926717 
2799.000000	98.926924 
2798.000000	98.927269 
2797.000000	98.927890 
2796.000000	98.928841 
2795.000000	98.929828 
2794.000000	98.930222 
2793.000000	98.929708 
2792.000000	98.928765 
2791.000000	98.928272 
2790.000000	98.928655 
2789.000000	98.929749 
2788.000000	98.931258 
2787.000000	98.932950 
2786.000000	98.934515 
2785.000000	98.935682 
2784.000000	98.936486 
2783.000000	98.937129 
2782.000000	98.937561 
2781.000000	98.937535 
2780.000000	98.937113 
2779.000000	98.936810 
2778.000000	98.937052 
2777.000000	98.937701 
2776.000000	98.938325 
2775.000000	98.938713 
2774.000000	98.938947 
2773.000000	98.939102 
2772.000000	98.939154 
2771.000000	98.939166 
2770.000000	98.939373 
2769.000000	98.940010 
2768.000000	98.941133 
2767.000000	98.942587 
2766.000000	98.944039 
2765.000000	98.945059 
2764.000000	98.945370 
2763.000000	98.945092 
2762.000000	98.944733 
2761.000000	98.944822 
2760.000000	98.945547 
2759.000000	98.946731 
2758.000000	98.947981 
2757.000000	98.948887 
2756.000000	98.949284 
2755.000000	98.949411 
2754.000000	98.949673 
2753.000000	98.950107 
2752.000000	98.950264 
2751.000000	98.949802 
2750.000000	98.949052 
2749.000000	98.948733 
2748.000000	98.949083 
2747.000000	98.949611 
2746.000000	98.949732 
2745.000000	98.949411 
2744.000000	98.949041 
2743.000000	98.948928 
2742.000000	98.949106 
2741.000000	98.949476 
2740.000000	98.949888 
2739.000000	98.950157 
2738.000000	98.950228 
2737.000000	98.950295 
2736.000000	98.950608 
2735.000000	98.951166 
2734.000000	98.951721 
2733.000000	98.952085 
2732.000000	98.952295 
2731.000000	98.952534 
2730.000000	98.952976 
2729.000000	98.953652 
2728.000000	98.954408 
2727.000000	98.955037 
2726.000000	98.955517 
2725.000000	98.956038 
2724.000000	98.956700 
2723.000000	98.957355 
2722.000000	98.957811 
2721.000000	98.958041 
2720.000000	98.958056 
2719.000000	98.957769 
2718.000000	98.957205 
2717.000000	98.956696 
2716.000000	98.956656 
2715.000000	98.957221 
2714.000000	98.958268 
2713.000000	98.959557 
2712.000000	98.960728 
2711.000000	98.961335 
2710.000000	98.961217 
2709.000000	98.960776 
2708.000000	98.960628 
2707.000000	98.960825 
2706.000000	98.960837 
2705.000000	98.960348 
2704.000000	98.959719 
2703.000000	98.959488 
2702.000000	98.959672 
2701.000000	98.959813 
2700.000000	98.959598 
2699.000000	98.959189 
2698.000000	98.958969 
2697.000000	98.959149 
2696.000000	98.959644 
2695.000000	98.960235 
2694.000000	98.960806 
2693.000000	98.961374 
2692.000000	98.961898 
2691.000000	98.962136 
2690.000000	98.961912 
2689.000000	98.961477 
2688.000000	98.961356 
2687.000000	98.961717 
2686.000000	98.962126 
2685.000000	98.962068 
2684.000000	98.961534 
2683.000000	98.960944 
2682.000000	98.960652 
2681.000000	98.960721 
2680.000000	98.961094 
2679.000000	98.961649 
2678.000000	98.962122 
2677.000000	98.962251 
2676.000000	98.962072 
2675.000000	98.961925 
2674.000000	98.962055 
2673.000000	98.962336 
2672.000000	98.962453 
2671.000000	98.962201 
2670.000000	98.961560 
2669.000000	98.960617 
2668.000000	98.959551 
2667.000000	98.958637 
2666.000000	98.958141 
2665.000000	98.958207 
2664.000000	98.958770 
2663.000000	98.959567 
2662.000000	98.960304 
2661.000000	98.960855 
2660.000000	98.961250 
2659.000000	98.961469 
2658.000000	98.961378 
2657.000000	98.960933 
2656.000000	98.960384 
2655.000000	98.960129 
2654.000000	98.960322 
2653.000000	98.960712 
2652.000000	98.960886 
2651.000000	98.960684 
2650.000000	98.960325 
2649.000000	98.960114 
2648.000000	98.960048 
2647.000000	98.959837 
2646.000000	98.959336 
2645.000000	98.958854 
2644.000000	98.958822 
2643.000000	98.959212 
2642.000000	98.959530 
2641.000000	98.959501 
2640.000000	98.959485 
2639.000000	98.959947 
2638.000000	98.960812 
2637.000000	98.961594 
2636.000000	98.961992 
2635.000000	98.961992 
2634.000000	98.961588 
2633.000000	98.960868 
2632.000000	98.960266 
2631.000000	98.960238 
2630.000000	98.960682 
2629.000000	98.960994 
2628.000000	98.960760 
2627.000000	98.960152 
2626.000000	98.959631 
2625.000000	98.959487 
2624.000000	98.959699 
2623.000000	98.960000 
2622.000000	98.959974 
2621.000000	98.959339 
2620.000000	98.958246 
2619.000000	98.957169 
2618.000000	98.956415 
2617.000000	98.955931 
2616.000000	98.955627 
2615.000000	98.955595 
2614.000000	98.955850 
2613.000000	98.956098 
2612.000000	98.956008 
2611.000000	98.955607 
2610.000000	98.955270 
2609.000000	98.955394 
2608.000000	98.956162 
2607.000000	98.957506 
2606.000000	98.959139 
2605.000000	98.960620 
2604.000000	98.961468 
2603.000000	98.961318 
2602.000000	98.960147 
2601.000000	98.958487 
2600.000000	98.957253 
2599.000000	98.957007 
2598.000000	98.957445 
2597.000000	98.957730 
2596.000000	98.957286 
2595.000000	98.956090 
2594.000000	98.954327 
2593.000000	98.952251 
2592.000000	98.950483 
2591.000000	98.949866 
2590.000000	98.950732 
2589.000000	98.952502 
2588.000000	98.954144 
2587.000000	98.955116 
2586.000000	98.955477 
2585.000000	98.955277 
2584.000000	98.954324 
2583.000000	98.952657 
2582.000000	98.950865 
2581.000000	98.949596 
2580.000000	98.948900 
2579.000000	98.948338 
2578.000000	98.947634 
2577.000000	98.946980 
2576.000000	98.946684 
2575.000000	98.946764 
2574.000000	98.947034 
2573.000000	98.947386 
2572.000000	98.947776 
2571.000000	98.948033 
2570.000000	98.947916 
2569.000000	98.947403 
2568.000000	98.946781 
2567.000000	98.946364 
2566.000000	98.946198 
2565.000000	98.946092 
2564.000000	98.945888 
2563.000000	98.945599 
2562.000000	98.945310 
2561.000000	98.945062 
2560.000000	98.944856 
2559.000000	98.944702 
2558.000000	98.944582 
2557.000000	98.944367 
2556.000000	98.943914 
2555.000000	98.943362 
2554.000000	98.943228 
2553.000000	98.943965 
2552.000000	98.945434 
2551.000000	98.946859 
2550.000000	98.947559 
2549.000000	98.947523 
2548.000000	98.947163 
2547.000000	98.946687 
2546.000000	98.945998 
2545.000000	98.945191 
2544.000000	98.944725 
2543.000000	98.944923 
2542.000000	98.945609 
2541.000000	98.946351 
2540.000000	98.946921 
2539.000000	98.947320 
2538.000000	98.947491 
2537.000000	98.947253 
2536.000000	98.946516 
2535.000000	98.945492 
2534.000000	98.944711 
2533.000000	98.944778 
2532.000000	98.945898 
2531.000000	98.947552 
2530.000000	98.948912 
2529.000000	98.949683 
2528.000000	98.950199 
2527.000000	98.950662 
2526.000000	98.950739 
2525.000000	98.950280 
2524.000000	98.949992 
2523.000000	98.950797 
2522.000000	98.952700 
2521.000000	98.954812 
2520.000000	98.956367 
2519.000000	98.957214 
2518.000000	98.957351 
2517.000000	98.956658 
2516.000000	98.955297 
2515.000000	98.953922 
2514.000000	98.953197 
2513.000000	98.953234 
2512.000000	98.953545 
2511.000000	98.953352 
2510.000000	98.952075 
2509.000000	98.949920 
2508.000000	98.947991 
2507.000000	98.947422 
2506.000000	98.948200 
2505.000000	98.949103 
2504.000000	98.948964 
2503.000000	98.947786 
2502.000000	98.946529 
2501.000000	98.946094 
2500.000000	98.946768 
2499.000000	98.948448 
2498.000000	98.950976 
2497.000000	98.954033 
2496.000000	98.956879 
2495.000000	98.958502 
2494.000000	98.958192 
2493.000000	98.955938 
2492.000000	98.952394 
2491.000000	98.948602 
2490.000000	98.945660 
2489.000000	98.944282 
2488.000000	98.944371 
2487.000000	98.945044 
2486.000000	98.945428 
2485.000000	98.945589 
2484.000000	98.946311 
2483.000000	98.947982 
2482.000000	98.950012 
2481.000000	98.951432 
2480.000000	98.951807 
2479.000000	98.951412 
2478.000000	98.950739 
2477.000000	98.950046 
2476.000000	98.949323 
2475.000000	98.948528 
2474.000000	98.947828 
2473.000000	98.947604 
2472.000000	98.948123 
2471.000000	98.949167 
2470.000000	98.950088 
2469.000000	98.950295 
2468.000000	98.949609 
2467.000000	98.948208 
2466.000000	98.946535 
2465.000000	98.945266 
2464.000000	98.945019 
2463.000000	98.945845 
2462.000000	98.947021 
2461.000000	98.947575 
2460.000000	98.947130 
2459.000000	98.946114 
2458.000000	98.945288 
2457.000000	98.945100 
2456.000000	98.945358 
2455.000000	98.945420 
2454.000000	98.944734 
2453.000000	98.943290 
2452.000000	98.941574 
2451.000000	98.940131 
2450.000000	98.939197 
2449.000000	98.938737 
2448.000000	98.938642 
2447.000000	98.938798 
2446.000000	98.939149 
2445.000000	98.939792 
2444.000000	98.940880 
2443.000000	98.942283 
2442.000000	98.943488 
2441.000000	98.943973 
2440.000000	98.943637 
2439.000000	98.942792 
2438.000000	98.941861 
2437.000000	98.941151 
2436.000000	98.940771 
2435.000000	98.940566 
2434.000000	98.940143 
2433.000000	98.939174 
2432.000000	98.937743 
2431.000000	98.936377 
2430.000000	98.935677 
2429.000000	98.935907 
2428.000000	98.936929 
2427.000000	98.938407 
2426.000000	98.939982 
2425.000000	98.941245 
2424.000000	98.941716 
2423.000000	98.941100 
2422.000000	98.939660 
2421.000000	98.938281 
2420.000000	98.937803 
2419.000000	98.938339 
2418.000000	98.939403 
2417.000000	98.940450 
2416.000000	98.941182 
2415.000000	98.941459 
2414.000000	98.941307 
2413.000000	98.941117 
2412.000000	98.941401 
2411.000000	98.942208 
2410.000000	98.943049 
2409.000000	98.943547 
2408.000000	98.943897 
2407.000000	98.944542 
2406.000000	98.945652 
2405.000000	98.947098 
2404.000000	98.948682 
2403.000000	98.950079 
2402.000000	98.950828 
2401.000000	98.950710 
2400.000000	98.950074 
2399.000000	98.949559 
2398.000000	98.949503 
2397.000000	98.949900 
2396.000000	98.950783 
2395.000000	98.952316 
2394.000000	98.954481 
2393.000000	98.956875 
2392.000000	98.958945 
2391.000000	98.960424 
2390.000000	98.961524 
2389.000000	98.962703 
2388.000000	98.964208 
2387.000000	98.965861 
2386.000000	98.967337 
2385.000000	98.968606 
2384.000000	98.969916 
2383.000000	98.971390 
2382.000000	98.972909 
2381.000000	98.974395 
2380.000000	98.975881 
2379.000000	98.977158 
2378.000000	98.977768 
2377.000000	98.977667 
2376.000000	98.977575 
2375.000000	98.978278 
2374.000000	98.979769 
2373.000000	98.981475 
2372.000000	98.983202 
2371.000000	98.985395 
2370.000000	98.988414 
2369.000000	98.991800 
2368.000000	98.994318 
2367.000000	98.994834 
2366.000000	98.993309 
2365.000000	98.991165 
2364.000000	98.990300 
2363.000000	98.991278 
2362.000000	98.993045 
2361.000000	98.994241 
2360.000000	98.994468 
2359.000000	98.994407 
2358.000000	98.994957 
2357.000000	98.996644 
2356.000000	98.999278 
2355.000000	99.001983 
2354.000000	99.003861 
2353.000000	99.004352 
2352.000000	99.003538 
2351.000000	99.001711 
2350.000000	98.999045 
2349.000000	98.996062 
2348.000000	98.993796 
2347.000000	98.993215 
2346.000000	98.993929 
2345.000000	98.994502 
2344.000000	98.994166 
2343.000000	98.993397 
2342.000000	98.993033 
2341.000000	98.993096 
2340.000000	98.993102 
2339.000000	98.992621 
2338.000000	98.991767 
2337.000000	98.990939 
2336.000000	98.990411 
2335.000000	98.990101 
2334.000000	98.989766 
2333.000000	98.989049 
2332.000000	98.987690 
2331.000000	98.985705 
2330.000000	98.983481 
2329.000000	98.981708 
2328.000000	98.980720 
2327.000000	98.980414 
2326.000000	98.980077 
2325.000000	98.979016 
2324.000000	98.977112 
2323.000000	98.975015 
2322.000000	98.973699 
2321.000000	98.973510 
2320.000000	98.973908 
2319.000000	98.973824 
2318.000000	98.972673 
2317.000000	98.970688 
2316.000000	98.968583 
2315.000000	98.966837 
2314.000000	98.965383 
2313.000000	98.964065 
2312.000000	98.962927 
2311.000000	98.962203 
2310.000000	98.961918 
2309.000000	98.961864 
2308.000000	98.961523 
2307.000000	98.960272 
2306.000000	98.957804 
2305.000000	98.954578 
2304.000000	98.951542 
2303.000000	98.949205 
2302.000000	98.947249 
2301.000000	98.945238 
2300.000000	98.943156 
2299.000000	98.941100 
2298.000000	98.938846 
2297.000000	98.936328 
2296.000000	98.934008 
2295.000000	98.932415 
2294.000000	98.931370 
2293.000000	98.930246 
2292.000000	98.928743 
2291.000000	98.927102 
2290.000000	98.925526 
2289.000000	98.923913 
2288.000000	98.922155 
2287.000000	98.920333 
2286.000000	98.918508 
2285.000000	98.916570 
2284.000000	98.914412 
2283.000000	98.912057 
2282.000000	98.909547 
2281.000000	98.906888 
2280.000000	98.904278 
2279.000000	98.902192 
2278.000000	98.901046 
2277.000000	98.900756 
2276.000000	98.900734 
2275.000000	98.900284 
2274.000000	98.899107 
2273.000000	98.897368 
2272.000000	98.895304 
2271.000000	98.892876 
2270.000000	98.890049 
2269.000000	98.887355 
2268.000000	98.885631 
2267.000000	98.885078 
2266.000000	98.884908 
2265.000000	98.884160 
2264.000000	98.882651 
2263.000000	98.880780 
2262.000000	98.878926 
2261.000000	98.877408 
2260.000000	98.876589 
2259.000000	98.876286 
2258.000000	98.875397 
2257.000000	98.872958 
2256.000000	98.869368 
2255.000000	98.866020 
2254.000000	98.863615 
2253.000000	98.861726 
2252.000000	98.860075 
2251.000000	98.859183 
2250.000000	98.859360 
2249.000000	98.859982 
2248.000000	98.860226 
2247.000000	98.859917 
2246.000000	98.859103 
2245.000000	98.857427 
2244.000000	98.854554 
2243.000000	98.850868 
2242.000000	98.847370 
2241.000000	98.844982 
2240.000000	98.844005 
2239.000000	98.843872 
2238.000000	98.843378 
2237.000000	98.841486 
2236.000000	98.837988 
2235.000000	98.833295 
2234.000000	98.828103 
2233.000000	98.823690 
2232.000000	98.821769 
2231.000000	98.823006 
2230.000000	98.825997 
2229.000000	98.828474 
2228.000000	98.829606 
2227.000000	98.830071 
2226.000000	98.830177 
2225.000000	98.829219 
2224.000000	98.826800 
2223.000000	98.823715 
2222.000000	98.821167 
2221.000000	98.819755 
2220.000000	98.819389 
2219.000000	98.819662 
2218.000000	98.820046 
2217.000000	98.820191 
2216.000000	98.820190 
2215.000000	98.820239 
2214.000000	98.820081 
2213.000000	98.819132 
2212.000000	98.817136 
2211.000000	98.814518 
2210.000000	98.812160 
2209.000000	98.810847 
2208.000000	98.810662 
2207.000000	98.810703 
2206.000000	98.809746 
2205.000000	98.807459 
2204.000000	98.804564 
2203.000000	98.801940 
2202.000000	98.799860 
2201.000000	98.798292 
2200.000000	98.797292 
2199.000000	98.796670 
2198.000000	98.795783 
2197.000000	98.794247 
2196.000000	98.792579 
2195.000000	98.791619 
2194.000000	98.791493 
2193.000000	98.791634 
2192.000000	98.791504 
2191.000000	98.790944 
2190.000000	98.789943 
2189.000000	98.788551 
2188.000000	98.787029 
2187.000000	98.785778 
2186.000000	98.785003 
2185.000000	98.784620 
2184.000000	98.784425 
2183.000000	98.784198 
2182.000000	98.783688 
2181.000000	98.782816 
2180.000000	98.781943 
2179.000000	98.781578 
2178.000000	98.781716 
2177.000000	98.781756 
2176.000000	98.781235 
2175.000000	98.780317 
2174.000000	98.779422 
2173.000000	98.778698 
2172.000000	98.778143 
2171.000000	98.777842 
2170.000000	98.777819 
2169.000000	98.777999 
2168.000000	98.778531 
2167.000000	98.779693 
2166.000000	98.781299 
2165.000000	98.782661 
2164.000000	98.783401 
2163.000000	98.783773 
2162.000000	98.784224 
2161.000000	98.784973 
2160.000000	98.786067 
2159.000000	98.787480 
2158.000000	98.788944 
2157.000000	98.790116 
2156.000000	98.791101 
2155.000000	98.792405 
2154.000000	98.794189 
2153.000000	98.795947 
2152.000000	98.797157 
2151.000000	98.797982 
2150.000000	98.799062 
2149.000000	98.800789 
2148.000000	98.803127 
2147.000000	98.805834 
2146.000000	98.808464 
2145.000000	98.810475 
2144.000000	98.811718 
2143.000000	98.812726 
2142.000000	98.814112 
2141.000000	98.815828 
2140.000000	98.817482 
2139.000000	98.819056 
2138.000000	98.820762 
2137.000000	98.822329 
2136.000000	98.823168 
2135.000000	98.823329 
2134.000000	98.823726 
2133.000000	98.825169 
2132.000000	98.827504 
2131.000000	98.829740 
2130.000000	98.830965 
2129.000000	98.831107 
2128.000000	98.830955 
2127.000000	98.831399 
2126.000000	98.832556 
2125.000000	98.833850 
2124.000000	98.834971 
2123.000000	98.836451 
2122.000000	98.838854 
2121.000000	98.841614 
2120.000000	98.843388 
2119.000000	98.843531 
2118.000000	98.842596 
2117.000000	98.841591 
2116.000000	98.841121 
2115.000000	98.841297 
2114.000000	98.841933 
2113.000000	98.842570 
2112.000000	98.842616 
2111.000000	98.841709 
2110.000000	98.839972 
2109.000000	98.838044 
2108.000000	98.836808 
2107.000000	98.836701 
2106.000000	98.837061 
2105.000000	98.836408 
2104.000000	98.833796 
2103.000000	98.829869 
2102.000000	98.826524 
2101.000000	98.825307 
2100.000000	98.826298 
2099.000000	98.828231 
2098.000000	98.829536 
2097.000000	98.829742 
2096.000000	98.829742 
2095.000000	98.830394 
2094.000000	98.830910 
2093.000000	98.829426 
2092.000000	98.825457 
2091.000000	98.821080 
2090.000000	98.819019 
2089.000000	98.819791 
2088.000000	98.821566 
2087.000000	98.822294 
2086.000000	98.821444 
2085.000000	98.819825 
2084.000000	98.818520 
2083.000000	98.818009 
2082.000000	98.817888 
2081.000000	98.817406 
2080.000000	98.816487 
2079.000000	98.815932 
2078.000000	98.816505 
2077.000000	98.818313 
2076.000000	98.821247 
2075.000000	98.825097 
2074.000000	98.828601 
2073.000000	98.829597 
2072.000000	98.827102 
2071.000000	98.822522 
2070.000000	98.818028 
2069.000000	98.814358 
2068.000000	98.811176 
2067.000000	98.808612 
2066.000000	98.807030 
2065.000000	98.805808 
2064.000000	98.803927 
2063.000000	98.801664 
2062.000000	98.800396 
2061.000000	98.800954 
2060.000000	98.803116 
2059.000000	98.806162 
2058.000000	98.808764 
2057.000000	98.809016 
2056.000000	98.805874 
2055.000000	98.800244 
2054.000000	98.794113 
2053.000000	98.789023 
2052.000000	98.785912 
2051.000000	98.785327 
2050.000000	98.786295 
2049.000000	98.785611 
2048.000000	98.780180 
2047.000000	98.770260 
2046.000000	98.759370 
2045.000000	98.750847 
2044.000000	98.745703 
2043.000000	98.743371 
2042.000000	98.742975 
2041.000000	98.743612 
2040.000000	98.744432 
2039.000000	98.744914 
2038.000000	98.744655 
2037.000000	98.743203 
2036.000000	98.740691 
2035.000000	98.738158 
2034.000000	98.736457 
2033.000000	98.735127 
2032.000000	98.733025 
2031.000000	98.729637 
2030.000000	98.725250 
2029.000000	98.720553 
2028.000000	98.716696 
2027.000000	98.715126 
2026.000000	98.716535 
2025.000000	98.720335 
2024.000000	98.725145 
2023.000000	98.729163 
2022.000000	98.730125 
2021.000000	98.726464 
2020.000000	98.719690 
2019.000000	98.714512 
2018.000000	98.714773 
2017.000000	98.719762 
2016.000000	98.725102 
2015.000000	98.727476 
2014.000000	98.727416 
2013.000000	98.727383 
2012.000000	98.728714 
2011.000000	98.730737 
2010.000000	98.732245 
2009.000000	98.733346 
2008.000000	98.735552 
2007.000000	98.739836 
2006.000000	98.744664 
2005.000000	98.746992 
2004.000000	98.745601 
2003.000000	98.742520 
2002.000000	98.740923 
2001.000000	98.741940 
2000.000000	98.744146 
1999.000000	98.745422 
1998.000000	98.744890 
1997.000000	98.743507 
1996.000000	98.743071 
1995.000000	98.744443 
1994.000000	98.746641 
1993.000000	98.747814 
1992.000000	98.747122 
1991.000000	98.745344 
1990.000000	98.743728 
1989.000000	98.742966 
1988.000000	98.743316 
1987.000000	98.744597 
1986.000000	98.745733 
1985.000000	98.745303 
1984.000000	98.743133 
1983.000000	98.740848 
1982.000000	98.740161 
1981.000000	98.740829 
1980.000000	98.740998 
1979.000000	98.739507 
1978.000000	98.737342 
1977.000000	98.736397 
1976.000000	98.737177 
1975.000000	98.738487 
1974.000000	98.739235 
1973.000000	98.740041 
1972.000000	98.742341 
1971.000000	98.746270 
1970.000000	98.750071 
1969.000000	98.751745 
1968.000000	98.751029 
1967.000000	98.749481 
1966.000000	98.749045 
1965.000000	98.750295 
1964.000000	98.752502 
1963.000000	98.754705 
1962.000000	98.756442 
1961.000000	98.757717 
1960.000000	98.758765 
1959.000000	98.759900 
1958.000000	98.761354 
1957.000000	98.763158 
1956.000000	98.765212 
1955.000000	98.767405 
1954.000000	98.769586 
1953.000000	98.771503 
1952.000000	98.772868 
1951.000000	98.773601 
1950.000000	98.773996 
1949.000000	98.774631 
1948.000000	98.776019 
1947.000000	98.778110 
1946.000000	98.780114 
1945.000000	98.781108 
1944.000000	98.781028 
1943.000000	98.780996 
1942.000000	98.782329 
1941.000000	98.785211 
1940.000000	98.788660 
1939.000000	98.791640 
1938.000000	98.794063 
1937.000000	98.796659 
1936.000000	98.799951 
1935.000000	98.803396 
1934.000000	98.805841 
1933.000000	98.806942 
1932.000000	98.807766 
1931.000000	98.809835 
1930.000000	98.813421 
1929.000000	98.817199 
1928.000000	98.819963 
1927.000000	98.821823 
1926.000000	98.823404 
1925.000000	98.824639 
1924.000000	98.825254 
1923.000000	98.825859 
1922.000000	98.827305 
1921.000000	98.829337 
1920.000000	98.830882 
1919.000000	98.831334 
1918.000000	98.830901 
1917.000000	98.830134 
1916.000000	98.829671 
1915.000000	98.830037 
1914.000000	98.831362 
1913.000000	98.833386 
1912.000000	98.835642 
1911.000000	98.837728 
1910.000000	98.839235 
1909.000000	98.839982 
1908.000000	98.840644 
1907.000000	98.842196 
1906.000000	98.844761 
1905.000000	98.847218 
1904.000000	98.848484 
1903.000000	98.848753 
1902.000000	98.848843 
1901.000000	98.849183 
1900.000000	98.849790 
1899.000000	98.850674 
1898.000000	98.851833 
1897.000000	98.853058 
1896.000000	98.854149 
1895.000000	98.855214 
1894.000000	98.856314 
1893.000000	98.857190 
1892.000000	98.857721 
1891.000000	98.858233 
1890.000000	98.858938 
1889.000000	98.859490 
1888.000000	98.859690 
1887.000000	98.860025 
1886.000000	98.860952 
1885.000000	98.862321 
1884.000000	98.863654 
1883.000000	98.864765 
1882.000000	98.865695 
1881.000000	98.866386 
1880.000000	98.866934 
1879.000000	98.867801 
1878.000000	98.869384 
1877.000000	98.871451 
1876.000000	98.873258 
1875.000000	98.874437 
1874.000000	98.875215 
1873.000000	98.875741 
1872.000000	98.875882 
1871.000000	98.875692 
1870.000000	98.875458 
1869.000000	98.875174 
1868.000000	98.874844 
1867.000000	98.875096 
1866.000000	98.876364 
1865.000000	98.877992 
1864.000000	98.878786 
1863.000000	98.878245 
1862.000000	98.876947 
1861.000000	98.875925 
1860.000000	98.875874 
1859.000000	98.877027 
1858.000000	98.879108 
1857.000000	98.881244 
1856.000000	98.882671 
1855.000000	98.883543 
1854.000000	98.884511 
1853.000000	98.885613 
1852.000000	98.886436 
1851.000000	98.886731 
1850.000000	98.886792 
1849.000000	98.887320 
1848.000000	98.888740 
1847.000000	98.890804 
1846.000000	98.892634 
1845.000000	98.893408 
1844.000000	98.893084 
1843.000000	98.892742 
1842.000000	98.893277 
1841.000000	98.894272 
1840.000000	98.895013 
1839.000000	98.895229 
1838.000000	98.895047 
1837.000000	98.894660 
1836.000000	98.894325 
1835.000000	98.894435 
1834.000000	98.894998 
1833.000000	98.895562 
1832.000000	98.895755 
1831.000000	98.895475 
1830.000000	98.894961 
1829.000000	98.894785 
1828.000000	98.895260 
1827.000000	98.896062 
1826.000000	98.896761 
1825.000000	98.897289 
1824.000000	98.897715 
1823.000000	98.898024 
1822.000000	98.897998 
1821.000000	98.897571 
1820.000000	98.897270 
1819.000000	98.897853 
1818.000000	98.899597 
1817.000000	98.901696 
1816.000000	98.902964 
1815.000000	98.903324 
1814.000000	98.903546 
1813.000000	98.904191 
1812.000000	98.905007 
1811.000000	98.905679 
1810.000000	98.906500 
1809.000000	98.907497 
1808.000000	98.908108 
1807.000000	98.908059 
1806.000000	98.907702 
1805.000000	98.907461 
1804.000000	98.907448 
1803.000000	98.907650 
1802.000000	98.907844 
1801.000000	98.907694 
1800.000000	98.907075 
1799.000000	98.906473 
1798.000000	98.906550 
1797.000000	98.907330 
1796.000000	98.908353 
1795.000000	98.909222 
1794.000000	98.909837 
1793.000000	98.910198 
1792.000000	98.910190 
1791.000000	98.909992 
1790.000000	98.910036 
1789.000000	98.910354 
1788.000000	98.910753 
1787.000000	98.911229 
1786.000000	98.911856 
1785.000000	98.912399 
1784.000000	98.912521 
1783.000000	98.912291 
1782.000000	98.911936 
1781.000000	98.911678 
1780.000000	98.911506 
1779.000000	98.911299 
1778.000000	98.911150 
1777.000000	98.911227 
1776.000000	98.911642 
1775.000000	98.912184 
1774.000000	98.912498 
1773.000000	98.912588 
1772.000000	98.912682 
1771.000000	98.912863 
1770.000000	98.913083 
1769.000000	98.913274 
1768.000000	98.913428 
1767.000000	98.913532 
1766.000000	98.913534 
1765.000000	98.913463 
1764.000000	98.913391 
1763.000000	98.913414 
1762.000000	98.913525 
1761.000000	98.913730 
1760.000000	98.914014 
1759.000000	98.914356 
1758.000000	98.914800 
1757.000000	98.915432 
1756.000000	98.916216 
1755.000000	98.916770 
1754.000000	98.916856 
1753.000000	98.916711 
1752.000000	98.916774 
1751.000000	98.916956 
1750.000000	98.916909 
1749.000000	98.916681 
1748.000000	98.916628 
1747.000000	98.916868 
1746.000000	98.917174 
1745.000000	98.917412 
1744.000000	98.917614 
1743.000000	98.917813 
1742.000000	98.918002 
1741.000000	98.918179 
1740.000000	98.918380 
1739.000000	98.918662 
1738.000000	98.919011 
1737.000000	98.919325 
1736.000000	98.919542 
1735.000000	98.919735 
1734.000000	98.919916 
1733.000000	98.920038 
1732.000000	98.920135 
1731.000000	98.920212 
1730.000000	98.920279 
1729.000000	98.920364 
1728.000000	98.920485 
1727.000000	98.920637 
1726.000000	98.920808 
1725.000000	98.920986 
1724.000000	98.921166 
1723.000000	98.921345 
1722.000000	98.921515 
1721.000000	98.921672 
1720.000000	98.921816 
1719.000000	98.921949 
1718.000000	98.922073 
1717.000000	98.922187 
1716.000000	98.922287 
1715.000000	98.922380 
1714.000000	98.922477 
1713.000000	98.922583 
1712.000000	98.922702 
1711.000000	98.922832 
1710.000000	98.922973 
1709.000000	98.923119 
1708.000000	98.923267 
1707.000000	98.923414 
1706.000000	98.923559 
1705.000000	98.923698 
1704.000000	98.923829 
1703.000000	98.923949 
1702.000000	98.924061 
1701.000000	98.924172 
1700.000000	98.924282 
1699.000000	98.924395 
1698.000000	98.924518 
1697.000000	98.924648 
1696.000000	98.924782 
1695.000000	98.924917 
1694.000000	98.925057 
1693.000000	98.925203 
1692.000000	98.925358 
1691.000000	98.925528 
1690.000000	98.925715 
1689.000000	98.925918 
1688.000000	98.926131 
1687.000000	98.926347 
1686.000000	98.926558 
1685.000000	98.926763 
1684.000000	98.926956 
1683.000000	98.927137 
1682.000000	98.927311 
1681.000000	98.927483 
1680.000000	98.927662 
1679.000000	98.927853 
1678.000000	98.928056 
1677.000000	98.928272 
1676.000000	98.928502 
1675.000000	98.928745 
1674.000000	98.928997 
1673.000000	98.929252 
1672.000000	98.929501 
1671.000000	98.929736 
1670.000000	98.929955 
1669.000000	98.930158 
1668.000000	98.930348 
1667.000000	98.930533 
1666.000000	98.930713 
1665.000000	98.930892 
1664.000000	98.931071 
1663.000000	98.931252 
1662.000000	98.931434 
1661.000000	98.931615 
1660.000000	98.931798 
1659.000000	98.931980 
1658.000000	98.932155 
1657.000000	98.932313 
1656.000000	98.932452 
1655.000000	98.932572 
1654.000000	98.932684 
1653.000000	98.932797 
1652.000000	98.932918 
1651.000000	98.933053 
1650.000000	98.933194 
1649.000000	98.933332 
1648.000000	98.933465 
1647.000000	98.933593 
1646.000000	98.933718 
1645.000000	98.933839 
1644.000000	98.933966 
1643.000000	98.934108 
1642.000000	98.934265 
1641.000000	98.934420 
1640.000000	98.934559 
1639.000000	98.934676 
1638.000000	98.934780 
1637.000000	98.934923 
1636.000000	98.935179 
1635.000000	98.935452 
1634.000000	98.935648 
1633.000000	98.935741 
1632.000000	98.935642 
1631.000000	98.935417 
1630.000000	98.935223 
1629.000000	98.935161 
1628.000000	98.935305 
1627.000000	98.935696 
1626.000000	98.936123 
1625.000000	98.936339 
1624.000000	98.936472 
1623.000000	98.936792 
1622.000000	98.937179 
1621.000000	98.937382 
1620.000000	98.937458 
1619.000000	98.937495 
1618.000000	98.937626 
1617.000000	98.937710 
1616.000000	98.938021 
1615.000000	98.939185 
1614.000000	98.940726 
1613.000000	98.941752 
1612.000000	98.942494 
1611.000000	98.943548 
1610.000000	98.944417 
1609.000000	98.944389 
1608.000000	98.943980 
1607.000000	98.944201 
1606.000000	98.944770 
1605.000000	98.945034 
1604.000000	98.945213 
1603.000000	98.945603 
1602.000000	98.946025 
1601.000000	98.946366 
1600.000000	98.946978 
1599.000000	98.947971 
1598.000000	98.948853 
1597.000000	98.949245 
1596.000000	98.949307 
1595.000000	98.949340 
1594.000000	98.949341 
1593.000000	98.949321 
1592.000000	98.949593 
1591.000000	98.950330 
1590.000000	98.951185 
1589.000000	98.951743 
1588.000000	98.952096 
1587.000000	98.952542 
1586.000000	98.953004 
1585.000000	98.953177 
1584.000000	98.953188 
1583.000000	98.953242 
1582.000000	98.953270 
1581.000000	98.953231 
1580.000000	98.953210 
1579.000000	98.953217 
1578.000000	98.953228 
1577.000000	98.953292 
1576.000000	98.953432 
1575.000000	98.953601 
1574.000000	98.953745 
1573.000000	98.953856 
1572.000000	98.953951 
1571.000000	98.954036 
1570.000000	98.954113 
1569.000000	98.954180 
1568.000000	98.954238 
1567.000000	98.954290 
1566.000000	98.954336 
1565.000000	98.954376 
1564.000000	98.954414 
1563.000000	98.954455 
1562.000000	98.954499 
1561.000000	98.954549 
1560.000000	98.954611 
1559.000000	98.954679 
1558.000000	98.954739 
1557.000000	98.954790 
1556.000000	98.954832 
1555.000000	98.954868 
1554.000000	98.954897 
1553.000000	98.954920 
1552.000000	98.954934 
1551.000000	98.954940 
1550.000000	98.954938 
1549.000000	98.954929 
1548.000000	98.954913 
1547.000000	98.954891 
1546.000000	98.954861 
1545.000000	98.954827 
1544.000000	98.954796 
1543.000000	98.954779 
1542.000000	98.954778 
1541.000000	98.954783 
1540.000000	98.954776 
1539.000000	98.954751 
1538.000000	98.954710 
1537.000000	98.954654 
1536.000000	98.954586 
1535.000000	98.954507 
1534.000000	98.954418 
1533.000000	98.954319 
1532.000000	98.954209 
1531.000000	98.954097 
1530.000000	98.953986 
1529.000000	98.953874 
1528.000000	98.953754 
1527.000000	98.953627 
1526.000000	98.953490 
1525.000000	98.953343 
1524.000000	98.953190 
1523.000000	98.953034 
1522.000000	98.952902 
1521.000000	98.952824 
1520.000000	98.952714 
1519.000000	98.952439 
1518.000000	98.951918 
1517.000000	98.951301 
1516.000000	98.950797 
1515.000000	98.950425 
1514.000000	98.950092 
1513.000000	98.949874 
1512.000000	98.949819 
1511.000000	98.949670 
1510.000000	98.949239 
1509.000000	98.948534 
1508.000000	98.948152 
1507.000000	98.948349 
1506.000000	98.948460 
1505.000000	98.947984 
1504.000000	98.947256 
1503.000000	98.946461 
1502.000000	98.945776 
1501.000000	98.945298 
1500.000000	98.944554 
1499.000000	98.942957 
1498.000000	98.941033 
1497.000000	98.939979 
1496.000000	98.939612 
1495.000000	98.939828 
1494.000000	98.941161 
1493.000000	98.943359 
1492.000000	98.945465 
1491.000000	98.946804 
1490.000000	98.947089 
1489.000000	98.946075 
1488.000000	98.943481 
1487.000000	98.940402 
1486.000000	98.938215 
1485.000000	98.936228 
1484.000000	98.933959 
1483.000000	98.931919 
1482.000000	98.931109 
1481.000000	98.931549 
1480.000000	98.931933 
1479.000000	98.931425 
1478.000000	98.930417 
1477.000000	98.929444 
1476.000000	98.928202 
1475.000000	98.927197 
1474.000000	98.927537 
1473.000000	98.929097 
1472.000000	98.929690 
1471.000000	98.928405 
1470.000000	98.926563 
1469.000000	98.924588 
1468.000000	98.921948 
1467.000000	98.919111 
1466.000000	98.917354 
1465.000000	98.917186 
1464.000000	98.917793 
1463.000000	98.917689 
1462.000000	98.916945 
1461.000000	98.916145 
1460.000000	98.915686 
1459.000000	98.914831 
1458.000000	98.912740 
1457.000000	98.907615 
1456.000000	98.899812 
1455.000000	98.892947 
1454.000000	98.888306 
1453.000000	98.886837 
1452.000000	98.889494 
1451.000000	98.894480 
1450.000000	98.899030 
1449.000000	98.902058 
1448.000000	98.903175 
1447.000000	98.902919 
1446.000000	98.901569 
1445.000000	98.900797 
1444.000000	98.902082 
1443.000000	98.904170 
1442.000000	98.905950 
1441.000000	98.907573 
1440.000000	98.909179 
1439.000000	98.909212 
1438.000000	98.908953 
1437.000000	98.910823 
1436.000000	98.912605 
1435.000000	98.910491 
1434.000000	98.905154 
1433.000000	98.899229 
1432.000000	98.894516 
1431.000000	98.890567 
1430.000000	98.886604 
1429.000000	98.883651 
1428.000000	98.881618 
1427.000000	98.879195 
1426.000000	98.874790 
1425.000000	98.870154 
1424.000000	98.868020 
1423.000000	98.866457 
1422.000000	98.861991 
1421.000000	98.854398 
1420.000000	98.846702 
1419.000000	98.839612 
1418.000000	98.832659 
1417.000000	98.826577 
1416.000000	98.820471 
1415.000000	98.812918 
1414.000000	98.804052 
1413.000000	98.795561 
1412.000000	98.788836 
1411.000000	98.783073 
1410.000000	98.777157 
1409.000000	98.771543 
1408.000000	98.767056 
1407.000000	98.764608 
1406.000000	98.764309 
1405.000000	98.766140 
1404.000000	98.770095 
1403.000000	98.775147 
1402.000000	98.780558 
1401.000000	98.786485 
1400.000000	98.792861 
1399.000000	98.797517 
1398.000000	98.797406 
1397.000000	98.790909 
1396.000000	98.778784 
1395.000000	98.765885 
1394.000000	98.759692 
1393.000000	98.764473 
1392.000000	98.777362 
1391.000000	98.791122 
1390.000000	98.800154 
1389.000000	98.803258 
1388.000000	98.802176 
1387.000000	98.799264 
1386.000000	98.796378 
1385.000000	98.794804 
1384.000000	98.795022 
1383.000000	98.796164 
1382.000000	98.797032 
1381.000000	98.797513 
1380.000000	98.799039 
1379.000000	98.803028 
1378.000000	98.809090 
1377.000000	98.815564 
1376.000000	98.821327 
1375.000000	98.826368 
1374.000000	98.830974 
1373.000000	98.835774 
1372.000000	98.841317 
1371.000000	98.847409 
1370.000000	98.852813 
1369.000000	98.856686 
1368.000000	98.859671 
1367.000000	98.862814 
1366.000000	98.866531 
1365.000000	98.870843 
1364.000000	98.875962 
1363.000000	98.881820 
1362.000000	98.887451 
1361.000000	98.891712 
1360.000000	98.894605 
1359.000000	98.897302 
1358.000000	98.900895 
1357.000000	98.905587 
1356.000000	98.910714 
1355.000000	98.915292 
1354.000000	98.918999 
1353.000000	98.922539 
1352.000000	98.926256 
1351.000000	98.929781 
1350.000000	98.932115 
1349.000000	98.933562 
1348.000000	98.935391 
1347.000000	98.937502 
1346.000000	98.938745 
1345.000000	98.939087 
1344.000000	98.939838 
1343.000000	98.941477 
1342.000000	98.943179 
1341.000000	98.944829 
1340.000000	98.947591 
1339.000000	98.951369 
1338.000000	98.954018 
1337.000000	98.954434 
1336.000000	98.953957 
1335.000000	98.953884 
1334.000000	98.953737 
1333.000000	98.953011 
1332.000000	98.952687 
1331.000000	98.953512 
1330.000000	98.954206 
1329.000000	98.953375 
1328.000000	98.951827 
1327.000000	98.951343 
1326.000000	98.951838 
1325.000000	98.952214 
1324.000000	98.952742 
1323.000000	98.954443 
1322.000000	98.957107 
1321.000000	98.959564 
1320.000000	98.961535 
1319.000000	98.963561 
1318.000000	98.965367 
1317.000000	98.965671 
1316.000000	98.963901 
1315.000000	98.961063 
1314.000000	98.958673 
1313.000000	98.957298 
1312.000000	98.956385 
1311.000000	98.955322 
1310.000000	98.954393 
1309.000000	98.954587 
1308.000000	98.956215 
1307.000000	98.958151 
1306.000000	98.958638 
1305.000000	98.957292 
1304.000000	98.955507 
1303.000000	98.954729 
1302.000000	98.955091 
1301.000000	98.955847 
1300.000000	98.956516 
1299.000000	98.957227 
1298.000000	98.958432 
1297.000000	98.960296 
1296.000000	98.962122 
1295.000000	98.962500 
1294.000000	98.960693 
1293.000000	98.957730 
1292.000000	98.955327 
1291.000000	98.953989 
1290.000000	98.953111 
1289.000000	98.952556 
1288.000000	98.952722 
1287.000000	98.953036 
1286.000000	98.952013 
1285.000000	98.949147 
1284.000000	98.945334 
1283.000000	98.941293 
1282.000000	98.936770 
1281.000000	98.931678 
1280.000000	98.927044 
1279.000000	98.923787 
1278.000000	98.921554 
1277.000000	98.919590 
1276.000000	98.917819 
1275.000000	98.916191 
1274.000000	98.913775 
1273.000000	98.909601 
1272.000000	98.904074 
1271.000000	98.898766 
1270.000000	98.894872 
1269.000000	98.892256 
1268.000000	98.889770 
1267.000000	98.886014 
1266.000000	98.880273 
1265.000000	98.873209 
1264.000000	98.866393 
1263.000000	98.860810 
1262.000000	98.856106 
1261.000000	98.851506 
1260.000000	98.847102 
1259.000000	98.843559 
1258.000000	98.840920 
1257.000000	98.838423 
1256.000000	98.835511 
1255.000000	98.832539 
1254.000000	98.830290 
1253.000000	98.829046 
1252.000000	98.828425 
1251.000000	98.828136 
1250.000000	98.828624 
1249.000000	98.830673 
1248.000000	98.834323 
1247.000000	98.838310 
1246.000000	98.840607 
1245.000000	98.839427 
1244.000000	98.834127 
1243.000000	98.826269 
1242.000000	98.819863 
1241.000000	98.818918 
1240.000000	98.823968 
1239.000000	98.831242 
1238.000000	98.835979 
1237.000000	98.836709 
1236.000000	98.835211 
1235.000000	98.833325 
1234.000000	98.831297 
1233.000000	98.828863 
1232.000000	98.826135 
1231.000000	98.823044 
1230.000000	98.819511 
1229.000000	98.816752 
1228.000000	98.816969 
1227.000000	98.820904 
1226.000000	98.826606 
1225.000000	98.831369 
1224.000000	98.834241 
1223.000000	98.835968 
1222.000000	98.837495 
1221.000000	98.839474 
1220.000000	98.842532 
1219.000000	98.846911 
1218.000000	98.851984 
1217.000000	98.856704 
1216.000000	98.860434 
1215.000000	98.863091 
1214.000000	98.864873 
1213.000000	98.866089 
1212.000000	98.866991 
1211.000000	98.867718 
1210.000000	98.868731 
1209.000000	98.871000 
1208.000000	98.874961 
1207.000000	98.879402 
1206.000000	98.882405 
1205.000000	98.883480 
1204.000000	98.883812 
1203.000000	98.884447 
1202.000000	98.885360 
1201.000000	98.886445 
1200.000000	98.888053 
1199.000000	98.890094 
1198.000000	98.891873 
1197.000000	98.893203 
1196.000000	98.894200 
1195.000000	98.893917 
1194.000000	98.891101 
1193.000000	98.886517 
1192.000000	98.882873 
1191.000000	98.881711 
1190.000000	98.881721 
1189.000000	98.880974 
1188.000000	98.879479 
1187.000000	98.878586 
1186.000000	98.878969 
1185.000000	98.880184 
1184.000000	98.881475 
1183.000000	98.882092 
1182.000000	98.881485 
1181.000000	98.880002 
1180.000000	98.878888 
1179.000000	98.878892 
1178.000000	98.879371 
1177.000000	98.879307 
1176.000000	98.878636 
1175.000000	98.877828 
1174.000000	98.876672 
1173.000000	98.874439 
1172.000000	98.871244 
1171.000000	98.868446 
1170.000000	98.867354 
1169.000000	98.867811 
1168.000000	98.868230 
1167.000000	98.867006 
1166.000000	98.864027 
1165.000000	98.860848 
1164.000000	98.859206 
1163.000000	98.859406 
1162.000000	98.860325 
1161.000000	98.860875 
1160.000000	98.861051 
1159.000000	98.861345 
1158.000000	98.861599 
1157.000000	98.860870 
1156.000000	98.858273 
1155.000000	98.853834 
1154.000000	98.848909 
1153.000000	98.845667 
1152.000000	98.845443 
1151.000000	98.847242 
1150.000000	98.848414 
1149.000000	98.847368 
1148.000000	98.844987 
1147.000000	98.843010 
1146.000000	98.841700 
1145.000000	98.839777 
1144.000000	98.836009 
1143.000000	98.830196 
1142.000000	98.823300 
1141.000000	98.817305 
1140.000000	98.814328 
1139.000000	98.814935 
1138.000000	98.817327 
1137.000000	98.818652 
1136.000000	98.817081 
1135.000000	98.812620 
1134.000000	98.806666 
1133.000000	98.800966 
1132.000000	98.796240 
1131.000000	98.791649 
1130.000000	98.786440 
1129.000000	98.781935 
1128.000000	98.780125 
1127.000000	98.779912 
1126.000000	98.777025 
1125.000000	98.769168 
1124.000000	98.759456 
1123.000000	98.752904 
1122.000000	98.750391 
1121.000000	98.748159 
1120.000000	98.742625 
1119.000000	98.733623 
1118.000000	98.723322 
1117.000000	98.713973 
1116.000000	98.706890 
1115.000000	98.702072 
1114.000000	98.698298 
1113.000000	98.694410 
1112.000000	98.690371 
1111.000000	98.686038 
1110.000000	98.679198 
1109.000000	98.666809 
1108.000000	98.648864 
1107.000000	98.629707 
1106.000000	98.614513 
1105.000000	98.604919 
1104.000000	98.598377 
1103.000000	98.591365 
1102.000000	98.582870 
1101.000000	98.574750 
1100.000000	98.568825 
1099.000000	98.564657 
1098.000000	98.560425 
1097.000000	98.555353 
1096.000000	98.549977 
1095.000000	98.543964 
1094.000000	98.535186 
1093.000000	98.521479 
1092.000000	98.502317 
1091.000000	98.478548 
1090.000000	98.451817 
1089.000000	98.424668 
1088.000000	98.399765 
1087.000000	98.378020 
1086.000000	98.358369 
1085.000000	98.339947 
1084.000000	98.323168 
1083.000000	98.307845 
1082.000000	98.291914 
1081.000000	98.273589 
1080.000000	98.253690 
1079.000000	98.234416 
1078.000000	98.216991 
1077.000000	98.202121 
1076.000000	98.191594 
1075.000000	98.187333 
1074.000000	98.189335 
1073.000000	98.195813 
1072.000000	98.203984 
1071.000000	98.208860 
1070.000000	98.203353 
1069.000000	98.183761 
1068.000000	98.156052 
1067.000000	98.134009 
1066.000000	98.128888 
1065.000000	98.141451 
1064.000000	98.163318 
1063.000000	98.183615 
1062.000000	98.194166 
1061.000000	98.191182 
1060.000000	98.175718 
1059.000000	98.153891 
1058.000000	98.134654 
1057.000000	98.124677 
1056.000000	98.124410 
1055.000000	98.129114 
1054.000000	98.133847 
1053.000000	98.137415 
1052.000000	98.141508 
1051.000000	98.147236 
1050.000000	98.153966 
1049.000000	98.160875 
1048.000000	98.167625 
1047.000000	98.173705 
1046.000000	98.179093 
1045.000000	98.185385 
1044.000000	98.194229 
1043.000000	98.204648 
1042.000000	98.214025 
1041.000000	98.222017 
1040.000000	98.231310 
1039.000000	98.244027 
1038.000000	98.259728 
1037.000000	98.277604 
1036.000000	98.298036 
1035.000000	98.320642 
1034.000000	98.343050 
1033.000000	98.362852 
1032.000000	98.378606 
1031.000000	98.388111 
1030.000000	98.389127 
1029.000000	98.384375 
1028.000000	98.383165 
1027.000000	98.393921 
1026.000000	98.415543 
1025.000000	98.438722 
1024.000000	98.455271 
1023.000000	98.463873 
1022.000000	98.468015 
1021.000000	98.471729 
1020.000000	98.477778 
1019.000000	98.487195 
1018.000000	98.498722 
1017.000000	98.509844 
1016.000000	98.519331 
1015.000000	98.528123 
1014.000000	98.537622 
1013.000000	98.547882 
1012.000000	98.557614 
1011.000000	98.565407 
1010.000000	98.571093 
1009.000000	98.576371 
1008.000000	98.583662 
1007.000000	98.593733 
1006.000000	98.604826 
1005.000000	98.614690 
1004.000000	98.622964 
1003.000000	98.630853 
1002.000000	98.639106 
1001.000000	98.647348 
1000.000000	98.655079 
999.000000	 98.662239 
998.000000	 98.668796 
997.000000	 98.674728 
996.000000	 98.680580 
995.000000	 98.687293 
994.000000	 98.695179 
993.000000	 98.703573 
992.000000	 98.711520 
991.000000	 98.718319 
990.000000	 98.723503 
989.000000	 98.726934 
988.000000	 98.729043 
987.000000	 98.730723 
986.000000	 98.733034 
985.000000	 98.737082 
984.000000	 98.743511 
983.000000	 98.751410 
982.000000	 98.758483 
981.000000	 98.762972 
980.000000	 98.765161 
979.000000	 98.766515 
978.000000	 98.768223 
977.000000	 98.771188 
976.000000	 98.776046 
975.000000	 98.782168 
974.000000	 98.787580 
973.000000	 98.791041 
972.000000	 98.793620 
971.000000	 98.797314 
970.000000	 98.802619 
969.000000	 98.808319 
968.000000	 98.813199 
967.000000	 98.817098 
966.000000	 98.820655 
965.000000	 98.824642 
964.000000	 98.829148 
963.000000	 98.833047 
962.000000	 98.835000 
961.000000	 98.835398 
960.000000	 98.836350 
959.000000	 98.839016 
958.000000	 98.841957 
957.000000	 98.843156 
956.000000	 98.842822 
955.000000	 98.843031 
954.000000	 98.845094 
953.000000	 98.848419 
952.000000	 98.851827 
951.000000	 98.854832 
950.000000	 98.857464 
949.000000	 98.859576 
948.000000	 98.860706 
947.000000	 98.860415 
946.000000	 98.858651 
945.000000	 98.855842 
944.000000	 98.852733 
943.000000	 98.850246 
942.000000	 98.849500 
941.000000	 98.851382 
940.000000	 98.855339 
939.000000	 98.858828 
938.000000	 98.859337 
937.000000	 98.857193 
936.000000	 98.855453 
935.000000	 98.856568 
934.000000	 98.859978 
933.000000	 98.863367 
932.000000	 98.865447 
931.000000	 98.866615 
930.000000	 98.867482 
929.000000	 98.867935 
928.000000	 98.867464 
927.000000	 98.865608 
926.000000	 98.862338 
925.000000	 98.858621 
924.000000	 98.856216 
923.000000	 98.856197 
922.000000	 98.857876 
921.000000	 98.859598 
920.000000	 98.860196 
919.000000	 98.859234 
918.000000	 98.856654 
917.000000	 98.853099 
916.000000	 98.850002 
915.000000	 98.848285 
914.000000	 98.847206 
913.000000	 98.845284 
912.000000	 98.842105 
911.000000	 98.838623 
910.000000	 98.836139 
909.000000	 98.835628 
908.000000	 98.837512 
907.000000	 98.841009 
906.000000	 98.843929 
905.000000	 98.844221 
904.000000	 98.841688 
903.000000	 98.837800 
902.000000	 98.834328 
901.000000	 98.832559 
900.000000	 98.833070 
899.000000	 98.835053 
898.000000	 98.836283 
897.000000	 98.835090 
896.000000	 98.832085 
895.000000	 98.828934 
894.000000	 98.826052 
893.000000	 98.822988 
892.000000	 98.820645 
891.000000	 98.821190 
890.000000	 98.825596 
889.000000	 98.832441 
888.000000	 98.839126 
887.000000	 98.843648 
886.000000	 98.845550 
885.000000	 98.846227 
884.000000	 98.847943 
883.000000	 98.851370 
882.000000	 98.854415 
881.000000	 98.854725 
880.000000	 98.853005 
879.000000	 98.852436 
878.000000	 98.855016 
877.000000	 98.859945 
876.000000	 98.865251 
875.000000	 98.869340 
874.000000	 98.871018 
873.000000	 98.869840 
872.000000	 98.867020 
871.000000	 98.864761 
870.000000	 98.864236 
869.000000	 98.865409 
868.000000	 98.868624 
867.000000	 98.874541 
866.000000	 98.882292 
865.000000	 98.889385 
864.000000	 98.894334 
863.000000	 98.898160 
862.000000	 98.902524 
861.000000	 98.907402 
860.000000	 98.911519 
859.000000	 98.914310 
858.000000	 98.916381 
857.000000	 98.918276 
856.000000	 98.919813 
855.000000	 98.920977 
854.000000	 98.922668 
853.000000	 98.925809 
852.000000	 98.929807 
851.000000	 98.932730 
850.000000	 98.933488 
849.000000	 98.933300 
848.000000	 98.934372 
847.000000	 98.937434 
846.000000	 98.941365 
845.000000	 98.944870 
844.000000	 98.947366 
843.000000	 98.948428 
842.000000	 98.948005 
841.000000	 98.947434 
840.000000	 98.948432 
839.000000	 98.950462 
838.000000	 98.951014 
837.000000	 98.949411 
836.000000	 98.948260 
835.000000	 98.949716 
834.000000	 98.952209 
833.000000	 98.953095 
832.000000	 98.952953 
831.000000	 98.954378 
830.000000	 98.957177 
829.000000	 98.957852 
828.000000	 98.954406 
827.000000	 98.949269 
826.000000	 98.946608 
825.000000	 98.947895 
824.000000	 98.951328 
823.000000	 98.954358 
822.000000	 98.955970 
821.000000	 98.956779 
820.000000	 98.957603 
819.000000	 98.958351 
818.000000	 98.958687 
817.000000	 98.959514 
816.000000	 98.962369 
815.000000	 98.966629 
814.000000	 98.968868 
813.000000	 98.966581 
812.000000	 98.961344 
811.000000	 98.956803 
810.000000	 98.954021 
809.000000	 98.950848 
808.000000	 98.945457 
807.000000	 98.938379 
806.000000	 98.931238 
805.000000	 98.925209 
804.000000	 98.921028 
803.000000	 98.919149 
802.000000	 98.919405 
801.000000	 98.921139 
800.000000	 98.923415 
799.000000	 98.924937 
798.000000	 98.924920 
797.000000	 98.924412 
796.000000	 98.925145 
795.000000	 98.926482 
794.000000	 98.925727 
793.000000	 98.922727 
792.000000	 98.921588 
791.000000	 98.925553 
790.000000	 98.932350 
789.000000	 98.936915 
788.000000	 98.937160 
787.000000	 98.934255 
786.000000	 98.929020 
785.000000	 98.921315 
784.000000	 98.912432 
783.000000	 98.905187 
782.000000	 98.901331 
781.000000	 98.900581 
780.000000	 98.901734 
779.000000	 98.902939 
778.000000	 98.901867 
777.000000	 98.898012 
776.000000	 98.894212 
775.000000	 98.893730 
774.000000	 98.896419 
773.000000	 98.899628 
772.000000	 98.902309 
771.000000	 98.905798 
770.000000	 98.910962 
769.000000	 98.916932 
768.000000	 98.922348 
767.000000	 98.926214 
766.000000	 98.928098 
765.000000	 98.928962 
764.000000	 98.931082 
763.000000	 98.935530 
762.000000	 98.940201 
761.000000	 98.941974 
760.000000	 98.940374 
759.000000	 98.937761 
758.000000	 98.936550 
757.000000	 98.937241 
756.000000	 98.938880 
755.000000	 98.939963 
754.000000	 98.939218 
753.000000	 98.936767 
752.000000	 98.934529 
751.000000	 98.934532 
750.000000	 98.936863 
749.000000	 98.939888 
748.000000	 98.942024 
747.000000	 98.942963 
746.000000	 98.943211 
745.000000	 98.943348 
744.000000	 98.943744 
743.000000	 98.944474 
742.000000	 98.945368 
741.000000	 98.946257 
740.000000	 98.947156 
739.000000	 98.948110 
738.000000	 98.949029 
737.000000	 98.949783 
736.000000	 98.950349 
735.000000	 98.950803 
734.000000	 98.951223 
733.000000	 98.951659 
732.000000	 98.952119 
731.000000	 98.952594 
730.000000	 98.953079 
729.000000	 98.953562 
728.000000	 98.954033 
727.000000	 98.954480 
726.000000	 98.954887 
725.000000	 98.955227 
724.000000	 98.955489 
723.000000	 98.955708 
722.000000	 98.955935 
721.000000	 98.956198 
720.000000	 98.956519 
719.000000	 98.956916 
718.000000	 98.957351 
717.000000	 98.957705 
716.000000	 98.957895 
715.000000	 98.957957 
714.000000	 98.957997 
713.000000	 98.958076 
712.000000	 98.958277 
711.000000	 98.958719 
710.000000	 98.959424 
709.000000	 98.960163 
708.000000	 98.960611 
707.000000	 98.960613 
706.000000	 98.960249 
705.000000	 98.959767 
704.000000	 98.959432 
703.000000	 98.959455 
702.000000	 98.959892 
701.000000	 98.960595 
700.000000	 98.961310 
699.000000	 98.961837 
698.000000	 98.962091 
697.000000	 98.962104 
696.000000	 98.961997 
695.000000	 98.961875 
694.000000	 98.961756 
693.000000	 98.961662 
692.000000	 98.961694 
691.000000	 98.961938 
690.000000	 98.962326 
689.000000	 98.962688 
688.000000	 98.962931 
687.000000	 98.963043 
686.000000	 98.962959 
685.000000	 98.962666 
684.000000	 98.962331 
683.000000	 98.962152 
682.000000	 98.962152 
681.000000	 98.962233 
680.000000	 98.962308 
679.000000	 98.962348 
678.000000	 98.962357 
677.000000	 98.962348 
676.000000	 98.962343 
675.000000	 98.962351 
674.000000	 98.962364 
673.000000	 98.962378 
672.000000	 98.962390 
671.000000	 98.962411 
670.000000	 98.962449 
669.000000	 98.962493 
668.000000	 98.962512 
667.000000	 98.962487 
666.000000	 98.962430 
665.000000	 98.962362 
664.000000	 98.962297 
663.000000	 98.962246 
662.000000	 98.962195 
661.000000	 98.962109 
660.000000	 98.961956 
659.000000	 98.961733 
658.000000	 98.961452 
657.000000	 98.961121 
656.000000	 98.960734 
655.000000	 98.960312 
654.000000	 98.959912 
653.000000	 98.959558 
652.000000	 98.959218 
651.000000	 98.958869 
650.000000	 98.958512 

