4000.000000	99.221188 
3999.000000	99.220511 
3998.000000	99.220018 
3997.000000	99.220053 
3996.000000	99.220525 
3995.000000	99.221022 
3994.000000	99.221303 
3993.000000	99.221468 
3992.000000	99.221648 
3991.000000	99.221692 
3990.000000	99.221281 
3989.000000	99.220255 
3988.000000	99.218824 
3987.000000	99.217513 
3986.000000	99.216839 
3985.000000	99.217015 
3984.000000	99.217823 
3983.000000	99.218763 
3982.000000	99.219453 
3981.000000	99.219887 
3980.000000	99.220285 
3979.000000	99.220816 
3978.000000	99.221464 
3977.000000	99.222070 
3976.000000	99.222372 
3975.000000	99.222102 
3974.000000	99.221162 
3973.000000	99.219781 
3972.000000	99.218448 
3971.000000	99.217640 
3970.000000	99.217591 
3969.000000	99.218219 
3968.000000	99.219151 
3967.000000	99.219879 
3966.000000	99.220056 
3965.000000	99.219654 
3964.000000	99.218890 
3963.000000	99.218089 
3962.000000	99.217545 
3961.000000	99.217382 
3960.000000	99.217409 
3959.000000	99.217204 
3958.000000	99.216568 
3957.000000	99.215775 
3956.000000	99.215299 
3955.000000	99.215270 
3954.000000	99.215382 
3953.000000	99.215290 
3952.000000	99.214963 
3951.000000	99.214648 
3950.000000	99.214497 
3949.000000	99.214358 
3948.000000	99.213993 
3947.000000	99.213466 
3946.000000	99.213065 
3945.000000	99.212883 
3944.000000	99.212650 
3943.000000	99.212051 
3942.000000	99.211138 
3941.000000	99.210322 
3940.000000	99.209824 
3939.000000	99.209490 
3938.000000	99.209282 
3937.000000	99.209412 
3936.000000	99.209962 
3935.000000	99.210547 
3934.000000	99.210771 
3933.000000	99.210757 
3932.000000	99.210851 
3931.000000	99.211078 
3930.000000	99.211095 
3929.000000	99.210746 
3928.000000	99.210248 
3927.000000	99.209583 
3926.000000	99.208466 
3925.000000	99.207030 
3924.000000	99.206086 
3923.000000	99.206075 
3922.000000	99.206322 
3921.000000	99.206058 
3920.000000	99.205538 
3919.000000	99.205372 
3918.000000	99.205461 
3917.000000	99.205255 
3916.000000	99.204669 
3915.000000	99.204035 
3914.000000	99.203407 
3913.000000	99.202615 
3912.000000	99.201724 
3911.000000	99.200925 
3910.000000	99.200363 
3909.000000	99.200008 
3908.000000	99.199841 
3907.000000	99.199769 
3906.000000	99.199659 
3905.000000	99.199429 
3904.000000	99.199121 
3903.000000	99.198834 
3902.000000	99.198582 
3901.000000	99.198301 
3900.000000	99.197979 
3899.000000	99.197640 
3898.000000	99.197296 
3897.000000	99.196941 
3896.000000	99.196577 
3895.000000	99.196206 
3894.000000	99.195847 
3893.000000	99.195511 
3892.000000	99.195190 
3891.000000	99.194867 
3890.000000	99.194556 
3889.000000	99.194270 
3888.000000	99.193992 
3887.000000	99.193694 
3886.000000	99.193372 
3885.000000	99.193044 
3884.000000	99.192738 
3883.000000	99.192440 
3882.000000	99.192120 
3881.000000	99.191780 
3880.000000	99.191450 
3879.000000	99.191162 
3878.000000	99.190927 
3877.000000	99.190716 
3876.000000	99.190495 
3875.000000	99.190257 
3874.000000	99.190025 
3873.000000	99.189830 
3872.000000	99.189652 
3871.000000	99.189420 
3870.000000	99.189109 
3869.000000	99.188839 
3868.000000	99.188762 
3867.000000	99.188851 
3866.000000	99.188878 
3865.000000	99.188773 
3864.000000	99.188665 
3863.000000	99.188618 
3862.000000	99.188527 
3861.000000	99.188299 
3860.000000	99.187973 
3859.000000	99.187503 
3858.000000	99.186753 
3857.000000	99.185775 
3856.000000	99.185095 
3855.000000	99.185298 
3854.000000	99.186015 
3853.000000	99.186092 
3852.000000	99.186058 
3851.000000	99.186746 
3850.000000	99.187583 
3849.000000	99.188066 
3848.000000	99.188340 
3847.000000	99.188552 
3846.000000	99.188629 
3845.000000	99.188508 
3844.000000	99.188278 
3843.000000	99.188094 
3842.000000	99.188056 
3841.000000	99.188097 
3840.000000	99.188133 
3839.000000	99.188137 
3838.000000	99.188117 
3837.000000	99.188074 
3836.000000	99.188047 
3835.000000	99.188037 
3834.000000	99.187988 
3833.000000	99.187871 
3832.000000	99.187741 
3831.000000	99.187684 
3830.000000	99.187730 
3829.000000	99.187799 
3828.000000	99.187766 
3827.000000	99.187597 
3826.000000	99.187398 
3825.000000	99.187297 
3824.000000	99.187305 
3823.000000	99.187342 
3822.000000	99.187325 
3821.000000	99.187216 
3820.000000	99.187121 
3819.000000	99.187139 
3818.000000	99.187174 
3817.000000	99.187138 
3816.000000	99.187092 
3815.000000	99.187156 
3814.000000	99.187346 
3813.000000	99.187535 
3812.000000	99.187588 
3811.000000	99.187534 
3810.000000	99.187524 
3809.000000	99.187633 
3808.000000	99.187740 
3807.000000	99.187680 
3806.000000	99.187598 
3805.000000	99.187774 
3804.000000	99.188040 
3803.000000	99.187980 
3802.000000	99.187497 
3801.000000	99.186868 
3800.000000	99.186778 
3799.000000	99.187303 
3798.000000	99.187477 
3797.000000	99.187032 
3796.000000	99.186813 
3795.000000	99.187552 
3794.000000	99.188991 
3793.000000	99.190333 
3792.000000	99.191257 
3791.000000	99.191997 
3790.000000	99.192582 
3789.000000	99.192858 
3788.000000	99.193014 
3787.000000	99.193566 
3786.000000	99.194627 
3785.000000	99.195771 
3784.000000	99.196773 
3783.000000	99.197795 
3782.000000	99.198694 
3781.000000	99.198863 
3780.000000	99.197977 
3779.000000	99.196381 
3778.000000	99.194919 
3777.000000	99.193851 
3776.000000	99.192722 
3775.000000	99.191501 
3774.000000	99.190996 
3773.000000	99.191620 
3772.000000	99.192608 
3771.000000	99.192782 
3770.000000	99.191930 
3769.000000	99.190988 
3768.000000	99.190780 
3767.000000	99.190859 
3766.000000	99.190471 
3765.000000	99.189800 
3764.000000	99.189687 
3763.000000	99.190327 
3762.000000	99.190925 
3761.000000	99.191040 
3760.000000	99.191144 
3759.000000	99.191291 
3758.000000	99.190807 
3757.000000	99.189358 
3756.000000	99.187525 
3755.000000	99.185900 
3754.000000	99.184731 
3753.000000	99.184525 
3752.000000	99.185519 
3751.000000	99.185862 
3750.000000	99.183309 
3749.000000	99.179335 
3748.000000	99.177026 
3747.000000	99.176268 
3746.000000	99.175217 
3745.000000	99.172983 
3744.000000	99.170227 
3743.000000	99.170667 
3742.000000	99.174498 
3741.000000	99.175956 
3740.000000	99.173583 
3739.000000	99.171250 
3738.000000	99.171826 
3737.000000	99.174355 
3736.000000	99.176728 
3735.000000	99.178366 
3734.000000	99.178910 
3733.000000	99.177173 
3732.000000	99.173921 
3731.000000	99.172765 
3730.000000	99.175365 
3729.000000	99.178806 
3728.000000	99.179698 
3727.000000	99.178628 
3726.000000	99.178613 
3725.000000	99.180553 
3724.000000	99.181642 
3723.000000	99.179515 
3722.000000	99.175245 
3721.000000	99.171703 
3720.000000	99.170460 
3719.000000	99.170386 
3718.000000	99.169555 
3717.000000	99.167145 
3716.000000	99.163478 
3715.000000	99.158735 
3714.000000	99.153272 
3713.000000	99.148311 
3712.000000	99.144244 
3711.000000	99.140276 
3710.000000	99.136878 
3709.000000	99.134755 
3708.000000	99.132979 
3707.000000	99.130139 
3706.000000	99.125736 
3705.000000	99.120116 
3704.000000	99.114079 
3703.000000	99.108766 
3702.000000	99.104949 
3701.000000	99.102798 
3700.000000	99.102193 
3699.000000	99.101397 
3698.000000	99.097551 
3697.000000	99.090120 
3696.000000	99.081824 
3695.000000	99.075509 
3694.000000	99.071399 
3693.000000	99.068401 
3692.000000	99.066228 
3691.000000	99.064400 
3690.000000	99.060675 
3689.000000	99.053089 
3688.000000	99.044646 
3687.000000	99.040646 
3686.000000	99.040971 
3685.000000	99.041145 
3684.000000	99.039362 
3683.000000	99.037594 
3682.000000	99.037051 
3681.000000	99.035658 
3680.000000	99.030972 
3679.000000	99.023972 
3678.000000	99.017011 
3677.000000	99.011059 
3676.000000	99.005065 
3675.000000	98.999928 
3674.000000	99.001023 
3673.000000	99.007541 
3672.000000	99.011574 
3671.000000	99.011348 
3670.000000	99.010175 
3669.000000	99.009806 
3668.000000	99.010569 
3667.000000	99.010843 
3666.000000	99.009495 
3665.000000	99.007855 
3664.000000	99.007330 
3663.000000	99.007604 
3662.000000	99.007661 
3661.000000	99.007332 
3660.000000	99.007494 
3659.000000	99.008950 
3658.000000	99.011123 
3657.000000	99.012562 
3656.000000	99.012746 
3655.000000	99.014032 
3654.000000	99.017720 
3653.000000	99.021724 
3652.000000	99.024957 
3651.000000	99.028802 
3650.000000	99.032249 
3649.000000	99.031374 
3648.000000	99.026359 
3647.000000	99.022407 
3646.000000	99.022993 
3645.000000	99.027183 
3644.000000	99.032376 
3643.000000	99.036981 
3642.000000	99.041063 
3641.000000	99.045038 
3640.000000	99.048936 
3639.000000	99.052744 
3638.000000	99.056957 
3637.000000	99.061878 
3636.000000	99.066240 
3635.000000	99.068122 
3634.000000	99.067345 
3633.000000	99.065962 
3632.000000	99.065679 
3631.000000	99.066440 
3630.000000	99.067315 
3629.000000	99.066705 
3628.000000	99.065160 
3627.000000	99.066024 
3626.000000	99.068978 
3625.000000	99.071501 
3624.000000	99.073482 
3623.000000	99.075759 
3622.000000	99.078074 
3621.000000	99.079639 
3620.000000	99.080395 
3619.000000	99.080977 
3618.000000	99.082390 
3617.000000	99.085176 
3616.000000	99.088446 
3615.000000	99.090791 
3614.000000	99.091612 
3613.000000	99.091297 
3612.000000	99.090724 
3611.000000	99.090544 
3610.000000	99.091003 
3609.000000	99.092363 
3608.000000	99.094634 
3607.000000	99.097348 
3606.000000	99.099943 
3605.000000	99.102181 
3604.000000	99.104287 
3603.000000	99.106354 
3602.000000	99.107852 
3601.000000	99.108464 
3600.000000	99.108967 
3599.000000	99.110378 
3598.000000	99.112522 
3597.000000	99.114487 
3596.000000	99.115499 
3595.000000	99.115380 
3594.000000	99.114491 
3593.000000	99.113838 
3592.000000	99.114431 
3591.000000	99.116626 
3590.000000	99.119901 
3589.000000	99.122944 
3588.000000	99.123982 
3587.000000	99.122354 
3586.000000	99.119659 
3585.000000	99.117837 
3584.000000	99.117160 
3583.000000	99.117184 
3582.000000	99.117520 
3581.000000	99.117754 
3580.000000	99.117420 
3579.000000	99.116317 
3578.000000	99.114536 
3577.000000	99.112577 
3576.000000	99.111204 
3575.000000	99.111019 
3574.000000	99.112014 
3573.000000	99.113507 
3572.000000	99.114683 
3571.000000	99.115085 
3570.000000	99.114751 
3569.000000	99.113980 
3568.000000	99.112991 
3567.000000	99.111870 
3566.000000	99.111067 
3565.000000	99.111121 
3564.000000	99.111741 
3563.000000	99.112253 
3562.000000	99.112413 
3561.000000	99.112412 
3560.000000	99.112479 
3559.000000	99.112580 
3558.000000	99.112420 
3557.000000	99.111775 
3556.000000	99.110863 
3555.000000	99.110150 
3554.000000	99.109836 
3553.000000	99.109684 
3552.000000	99.109379 
3551.000000	99.108867 
3550.000000	99.108262 
3549.000000	99.107684 
3548.000000	99.107298 
3547.000000	99.107247 
3546.000000	99.107494 
3545.000000	99.107858 
3544.000000	99.108146 
3543.000000	99.108224 
3542.000000	99.108074 
3541.000000	99.107785 
3540.000000	99.107527 
3539.000000	99.107418 
3538.000000	99.107420 
3537.000000	99.107385 
3536.000000	99.107189 
3535.000000	99.106828 
3534.000000	99.106399 
3533.000000	99.106058 
3532.000000	99.105926 
3531.000000	99.106012 
3530.000000	99.106181 
3529.000000	99.106273 
3528.000000	99.106252 
3527.000000	99.106207 
3526.000000	99.106198 
3525.000000	99.106180 
3524.000000	99.106078 
3523.000000	99.105891 
3522.000000	99.105680 
3521.000000	99.105497 
3520.000000	99.105343 
3519.000000	99.105197 
3518.000000	99.105050 
3517.000000	99.104905 
3516.000000	99.104764 
3515.000000	99.104635 
3514.000000	99.104534 
3513.000000	99.104468 
3512.000000	99.104412 
3511.000000	99.104325 
3510.000000	99.104185 
3509.000000	99.104007 
3508.000000	99.103817 
3507.000000	99.103622 
3506.000000	99.103400 
3505.000000	99.103138 
3504.000000	99.102847 
3503.000000	99.102540 
3502.000000	99.102227 
3501.000000	99.101913 
3500.000000	99.101601 
3499.000000	99.101283 
3498.000000	99.100948 
3497.000000	99.100588 
3496.000000	99.100206 
3495.000000	99.099810 
3494.000000	99.099407 
3493.000000	99.099001 
3492.000000	99.098590 
3491.000000	99.098172 
3490.000000	99.097747 
3489.000000	99.097314 
3488.000000	99.096880 
3487.000000	99.096451 
3486.000000	99.096027 
3485.000000	99.095605 
3484.000000	99.095182 
3483.000000	99.094762 
3482.000000	99.094355 
3481.000000	99.093950 
3480.000000	99.093513 
3479.000000	99.093018 
3478.000000	99.092479 
3477.000000	99.091952 
3476.000000	99.091471 
3475.000000	99.091008 
3474.000000	99.090519 
3473.000000	99.090026 
3472.000000	99.089619 
3471.000000	99.089353 
3470.000000	99.089162 
3469.000000	99.088924 
3468.000000	99.088591 
3467.000000	99.088198 
3466.000000	99.087744 
3465.000000	99.087139 
3464.000000	99.086310 
3463.000000	99.085330 
3462.000000	99.084375 
3461.000000	99.083551 
3460.000000	99.082793 
3459.000000	99.082023 
3458.000000	99.081357 
3457.000000	99.080985 
3456.000000	99.080891 
3455.000000	99.080819 
3454.000000	99.080504 
3453.000000	99.079979 
3452.000000	99.079598 
3451.000000	99.079742 
3450.000000	99.080470 
3449.000000	99.081431 
3448.000000	99.082040 
3447.000000	99.081858 
3446.000000	99.080880 
3445.000000	99.079556 
3444.000000	99.078495 
3443.000000	99.078048 
3442.000000	99.078110 
3441.000000	99.078266 
3440.000000	99.078183 
3439.000000	99.077838 
3438.000000	99.077388 
3437.000000	99.076918 
3436.000000	99.076447 
3435.000000	99.076160 
3434.000000	99.076393 
3433.000000	99.077292 
3432.000000	99.078498 
3431.000000	99.079306 
3430.000000	99.079166 
3429.000000	99.078008 
3428.000000	99.076167 
3427.000000	99.074111 
3426.000000	99.072260 
3425.000000	99.070957 
3424.000000	99.070404 
3423.000000	99.070518 
3422.000000	99.070913 
3421.000000	99.071135 
3420.000000	99.070960 
3419.000000	99.070483 
3418.000000	99.069995 
3417.000000	99.069781 
3416.000000	99.069867 
3415.000000	99.069910 
3414.000000	99.069433 
3413.000000	99.068321 
3412.000000	99.067061 
3411.000000	99.066382 
3410.000000	99.066675 
3409.000000	99.067742 
3408.000000	99.068929 
3407.000000	99.069490 
3406.000000	99.069081 
3405.000000	99.068048 
3404.000000	99.067223 
3403.000000	99.067297 
3402.000000	99.068438 
3401.000000	99.070380 
3400.000000	99.072553 
3399.000000	99.074235 
3398.000000	99.074992 
3397.000000	99.075112 
3396.000000	99.075211 
3395.000000	99.075255 
3394.000000	99.074489 
3393.000000	99.072600 
3392.000000	99.070463 
3391.000000	99.069254 
3390.000000	99.069116 
3389.000000	99.069287 
3388.000000	99.069276 
3387.000000	99.069241 
3386.000000	99.069265 
3385.000000	99.068928 
3384.000000	99.067882 
3383.000000	99.066516 
3382.000000	99.065686 
3381.000000	99.065896 
3380.000000	99.066860 
3379.000000	99.067826 
3378.000000	99.068328 
3377.000000	99.068661 
3376.000000	99.069582 
3375.000000	99.071514 
3374.000000	99.074122 
3373.000000	99.076645 
3372.000000	99.078531 
3371.000000	99.079668 
3370.000000	99.080218 
3369.000000	99.080440 
3368.000000	99.080600 
3367.000000	99.080783 
3366.000000	99.080749 
3365.000000	99.080149 
3364.000000	99.078982 
3363.000000	99.077790 
3362.000000	99.077221 
3361.000000	99.077350 
3360.000000	99.077512 
3359.000000	99.076961 
3358.000000	99.075770 
3357.000000	99.074896 
3356.000000	99.075183 
3355.000000	99.076422 
3354.000000	99.077584 
3353.000000	99.077939 
3352.000000	99.077726 
3351.000000	99.077720 
3350.000000	99.078463 
3349.000000	99.079946 
3348.000000	99.081758 
3347.000000	99.083305 
3346.000000	99.084114 
3345.000000	99.084130 
3344.000000	99.083704 
3343.000000	99.083178 
3342.000000	99.082586 
3341.000000	99.081896 
3340.000000	99.081342 
3339.000000	99.081287 
3338.000000	99.081764 
3337.000000	99.082379 
3336.000000	99.082727 
3335.000000	99.082831 
3334.000000	99.083068 
3333.000000	99.083742 
3332.000000	99.084786 
3331.000000	99.085830 
3330.000000	99.086529 
3329.000000	99.086855 
3328.000000	99.087073 
3327.000000	99.087453 
3326.000000	99.088001 
3325.000000	99.088514 
3324.000000	99.088853 
3323.000000	99.089115 
3322.000000	99.089497 
3321.000000	99.090020 
3320.000000	99.090454 
3319.000000	99.090564 
3318.000000	99.090393 
3317.000000	99.090277 
3316.000000	99.090543 
3315.000000	99.091219 
3314.000000	99.092045 
3313.000000	99.092721 
3312.000000	99.093163 
3311.000000	99.093477 
3310.000000	99.093774 
3309.000000	99.094059 
3308.000000	99.094282 
3307.000000	99.094458 
3306.000000	99.094681 
3305.000000	99.094973 
3304.000000	99.095143 
3303.000000	99.094904 
3302.000000	99.094225 
3301.000000	99.093558 
3300.000000	99.093544 
3299.000000	99.094430 
3298.000000	99.095815 
3297.000000	99.097003 
3296.000000	99.097689 
3295.000000	99.098132 
3294.000000	99.098781 
3293.000000	99.099794 
3292.000000	99.100893 
3291.000000	99.101575 
3290.000000	99.101503 
3289.000000	99.100758 
3288.000000	99.099769 
3287.000000	99.098976 
3286.000000	99.098555 
3285.000000	99.098417 
3284.000000	99.098356 
3283.000000	99.098222 
3282.000000	99.098058 
3281.000000	99.098044 
3280.000000	99.098226 
3279.000000	99.098344 
3278.000000	99.098117 
3277.000000	99.097645 
3276.000000	99.097351 
3275.000000	99.097503 
3274.000000	99.097977 
3273.000000	99.098465 
3272.000000	99.098649 
3271.000000	99.098184 
3270.000000	99.096868 
3269.000000	99.095089 
3268.000000	99.093887 
3267.000000	99.094240 
3266.000000	99.096283 
3265.000000	99.099227 
3264.000000	99.101963 
3263.000000	99.103859 
3262.000000	99.105077 
3261.000000	99.106179 
3260.000000	99.107368 
3259.000000	99.108132 
3258.000000	99.107804 
3257.000000	99.106349 
3256.000000	99.104446 
3255.000000	99.102842 
3254.000000	99.101885 
3253.000000	99.101647 
3252.000000	99.102068 
3251.000000	99.102836 
3250.000000	99.103433 
3249.000000	99.103553 
3248.000000	99.103373 
3247.000000	99.103259 
3246.000000	99.103353 
3245.000000	99.103571 
3244.000000	99.103898 
3243.000000	99.104501 
3242.000000	99.105590 
3241.000000	99.107180 
3240.000000	99.108910 
3239.000000	99.110084 
3238.000000	99.110161 
3237.000000	99.109260 
3236.000000	99.108167 
3235.000000	99.107640 
3234.000000	99.107779 
3233.000000	99.108235 
3232.000000	99.108819 
3231.000000	99.109657 
3230.000000	99.110765 
3229.000000	99.111745 
3228.000000	99.112074 
3227.000000	99.111593 
3226.000000	99.110648 
3225.000000	99.109866 
3224.000000	99.109716 
3223.000000	99.110232 
3222.000000	99.111071 
3221.000000	99.111865 
3220.000000	99.112542 
3219.000000	99.113273 
3218.000000	99.114160 
3217.000000	99.115072 
3216.000000	99.115788 
3215.000000	99.116224 
3214.000000	99.116498 
3213.000000	99.116788 
3212.000000	99.117196 
3211.000000	99.117751 
3210.000000	99.118508 
3209.000000	99.119527 
3208.000000	99.120717 
3207.000000	99.121788 
3206.000000	99.122459 
3205.000000	99.122736 
3204.000000	99.122903 
3203.000000	99.123234 
3202.000000	99.123789 
3201.000000	99.124478 
3200.000000	99.125169 
3199.000000	99.125689 
3198.000000	99.125892 
3197.000000	99.125870 
3196.000000	99.126032 
3195.000000	99.126747 
3194.000000	99.127862 
3193.000000	99.128727 
3192.000000	99.128844 
3191.000000	99.128430 
3190.000000	99.128245 
3189.000000	99.128807 
3188.000000	99.129894 
3187.000000	99.130831 
3186.000000	99.131219 
3185.000000	99.131231 
3184.000000	99.131247 
3183.000000	99.131362 
3182.000000	99.131393 
3181.000000	99.131240 
3180.000000	99.131052 
3179.000000	99.131069 
3178.000000	99.131417 
3177.000000	99.132022 
3176.000000	99.132656 
3175.000000	99.133093 
3174.000000	99.133362 
3173.000000	99.133800 
3172.000000	99.134676 
3171.000000	99.135755 
3170.000000	99.136445 
3169.000000	99.136483 
3168.000000	99.136343 
3167.000000	99.136786 
3166.000000	99.138104 
3165.000000	99.139921 
3164.000000	99.141576 
3163.000000	99.142665 
3162.000000	99.143176 
3161.000000	99.143338 
3160.000000	99.143480 
3159.000000	99.143874 
3158.000000	99.144554 
3157.000000	99.145273 
3156.000000	99.145707 
3155.000000	99.145777 
3154.000000	99.145764 
3153.000000	99.146059 
3152.000000	99.146767 
3151.000000	99.147560 
3150.000000	99.147969 
3149.000000	99.147870 
3148.000000	99.147693 
3147.000000	99.148076 
3146.000000	99.149288 
3145.000000	99.150960 
3144.000000	99.152389 
3143.000000	99.153175 
3142.000000	99.153546 
3141.000000	99.154065 
3140.000000	99.154997 
3139.000000	99.156022 
3138.000000	99.156641 
3137.000000	99.156750 
3136.000000	99.156670 
3135.000000	99.156690 
3134.000000	99.156762 
3133.000000	99.156673 
3132.000000	99.156355 
3131.000000	99.155941 
3130.000000	99.155565 
3129.000000	99.155245 
3128.000000	99.154949 
3127.000000	99.154757 
3126.000000	99.154890 
3125.000000	99.155544 
3124.000000	99.156663 
3123.000000	99.157843 
3122.000000	99.158592 
3121.000000	99.158793 
3120.000000	99.158840 
3119.000000	99.159229 
3118.000000	99.159979 
3117.000000	99.160588 
3116.000000	99.160634 
3115.000000	99.160285 
3114.000000	99.160037 
3113.000000	99.160016 
3112.000000	99.159852 
3111.000000	99.159328 
3110.000000	99.158869 
3109.000000	99.159082 
3108.000000	99.159919 
3107.000000	99.160640 
3106.000000	99.160645 
3105.000000	99.160154 
3104.000000	99.159909 
3103.000000	99.160389 
3102.000000	99.161527 
3101.000000	99.162983 
3100.000000	99.164390 
3099.000000	99.165388 
3098.000000	99.165738 
3097.000000	99.165526 
3096.000000	99.165168 
3095.000000	99.165074 
3094.000000	99.165342 
3093.000000	99.165818 
3092.000000	99.166339 
3091.000000	99.166793 
3090.000000	99.167012 
3089.000000	99.166900 
3088.000000	99.166783 
3087.000000	99.167394 
3086.000000	99.169159 
3085.000000	99.171535 
3084.000000	99.173358 
3083.000000	99.173931 
3082.000000	99.173607 
3081.000000	99.173322 
3080.000000	99.173638 
3079.000000	99.174276 
3078.000000	99.174349 
3077.000000	99.172905 
3076.000000	99.169597 
3075.000000	99.165304 
3074.000000	99.161991 
3073.000000	99.161397 
3072.000000	99.163681 
3071.000000	99.167513 
3070.000000	99.171381 
3069.000000	99.174248 
3068.000000	99.174984 
3067.000000	99.172372 
3066.000000	99.166668 
3065.000000	99.160552 
3064.000000	99.157204 
3063.000000	99.157291 
3062.000000	99.158744 
3061.000000	99.159461 
3060.000000	99.159366 
3059.000000	99.159645 
3058.000000	99.160952 
3057.000000	99.162930 
3056.000000	99.164862 
3055.000000	99.166263 
3054.000000	99.167061 
3053.000000	99.167526 
3052.000000	99.167837 
3051.000000	99.167682 
3050.000000	99.166625 
3049.000000	99.164765 
3048.000000	99.162417 
3047.000000	99.159187 
3046.000000	99.154335 
3045.000000	99.148333 
3044.000000	99.143095 
3043.000000	99.140020 
3042.000000	99.138378 
3041.000000	99.136172 
3040.000000	99.132208 
3039.000000	99.126905 
3038.000000	99.121612 
3037.000000	99.117618 
3036.000000	99.115296 
3035.000000	99.113597 
3034.000000	99.110734 
3033.000000	99.105722 
3032.000000	99.098883 
3031.000000	99.090863 
3030.000000	99.081552 
3029.000000	99.070414 
3028.000000	99.057792 
3027.000000	99.045297 
3026.000000	99.034677 
3025.000000	99.026404 
3024.000000	99.019276 
3023.000000	99.011259 
3022.000000	99.000799 
3021.000000	98.987647 
3020.000000	98.972752 
3019.000000	98.957717 
3018.000000	98.944452 
3017.000000	98.934559 
3016.000000	98.927883 
3015.000000	98.921660 
3014.000000	98.912250 
3013.000000	98.898246 
3012.000000	98.881212 
3011.000000	98.863116 
3010.000000	98.844179 
3009.000000	98.824094 
3008.000000	98.804315 
3007.000000	98.787575 
3006.000000	98.775097 
3005.000000	98.765189 
3004.000000	98.754606 
3003.000000	98.740726 
3002.000000	98.722773 
3001.000000	98.702288 
3000.000000	98.682629 
2999.000000	98.666832 
2998.000000	98.655318 
2997.000000	98.646321 
2996.000000	98.638610 
2995.000000	98.632273 
2994.000000	98.625656 
2993.000000	98.613247 
2992.000000	98.589719 
2991.000000	98.556972 
2990.000000	98.525208 
2989.000000	98.504910 
2988.000000	98.498443 
2987.000000	98.500277 
2986.000000	98.504080 
2985.000000	98.508080 
2984.000000	98.513484 
2983.000000	98.520274 
2982.000000	98.526435 
2981.000000	98.530240 
2980.000000	98.531617 
2979.000000	98.531396 
2978.000000	98.530411 
2977.000000	98.529269 
2976.000000	98.527941 
2975.000000	98.525455 
2974.000000	98.520907 
2973.000000	98.515051 
2972.000000	98.510172 
2971.000000	98.508172 
2970.000000	98.509403 
2969.000000	98.513507 
2968.000000	98.520531 
2967.000000	98.530636 
2966.000000	98.543210 
2965.000000	98.556883 
2964.000000	98.570311 
2963.000000	98.582713 
2962.000000	98.593849 
2961.000000	98.603765 
2960.000000	98.612603 
2959.000000	98.620676 
2958.000000	98.628763 
2957.000000	98.637749 
2956.000000	98.647225 
2955.000000	98.654744 
2954.000000	98.657807 
2953.000000	98.657385 
2952.000000	98.658618 
2951.000000	98.666613 
2950.000000	98.681183 
2949.000000	98.696425 
2948.000000	98.706083 
2947.000000	98.708883 
2946.000000	98.708427 
2945.000000	98.708667 
2944.000000	98.710220 
2943.000000	98.711487 
2942.000000	98.712144 
2941.000000	98.713723 
2940.000000	98.716760 
2939.000000	98.719133 
2938.000000	98.718324 
2937.000000	98.714493 
2936.000000	98.710274 
2935.000000	98.707985 
2934.000000	98.707921 
2933.000000	98.709022 
2932.000000	98.709991 
2931.000000	98.709685 
2930.000000	98.707464 
2929.000000	98.703645 
2928.000000	98.699225 
2927.000000	98.695071 
2926.000000	98.691744 
2925.000000	98.689771 
2924.000000	98.689312 
2923.000000	98.689711 
2922.000000	98.690235 
2921.000000	98.691202 
2920.000000	98.693390 
2919.000000	98.696289 
2918.000000	98.697973 
2917.000000	98.697085 
2916.000000	98.694157 
2915.000000	98.690724 
2914.000000	98.687915 
2913.000000	98.686212 
2912.000000	98.685611 
2911.000000	98.685323 
2910.000000	98.684007 
2909.000000	98.681051 
2908.000000	98.677255 
2907.000000	98.673632 
2906.000000	98.669809 
2905.000000	98.664139 
2904.000000	98.655418 
2903.000000	98.644617 
2902.000000	98.635396 
2901.000000	98.632629 
2900.000000	98.639399 
2899.000000	98.654434 
2898.000000	98.672130 
2897.000000	98.686215 
2896.000000	98.694007 
2895.000000	98.697395 
2894.000000	98.700337 
2893.000000	98.705559 
2892.000000	98.712842 
2891.000000	98.719640 
2890.000000	98.723476 
2889.000000	98.724205 
2888.000000	98.723978 
2887.000000	98.725056 
2886.000000	98.728113 
2885.000000	98.732735 
2884.000000	98.738764 
2883.000000	98.746451 
2882.000000	98.755704 
2881.000000	98.765956 
2880.000000	98.776741 
2879.000000	98.788005 
2878.000000	98.799873 
2877.000000	98.812274 
2876.000000	98.824486 
2875.000000	98.834862 
2874.000000	98.841576 
2873.000000	98.844373 
2872.000000	98.845483 
2871.000000	98.848179 
2870.000000	98.854282 
2869.000000	98.863230 
2868.000000	98.873269 
2867.000000	98.883142 
2866.000000	98.892854 
2865.000000	98.903336 
2864.000000	98.915361 
2863.000000	98.928371 
2862.000000	98.940442 
2861.000000	98.949971 
2860.000000	98.957472 
2859.000000	98.965203 
2858.000000	98.974720 
2857.000000	98.985150 
2856.000000	98.994280 
2855.000000	99.001177 
2854.000000	99.007238 
2853.000000	99.014518 
2852.000000	99.023259 
2851.000000	99.031688 
2850.000000	99.038454 
2849.000000	99.044525 
2848.000000	99.051973 
2847.000000	99.061138 
2846.000000	99.069836 
2845.000000	99.075553 
2844.000000	99.077846 
2843.000000	99.078616 
2842.000000	99.080653 
2841.000000	99.085832 
2840.000000	99.093854 
2839.000000	99.102161 
2838.000000	99.107673 
2837.000000	99.109259 
2836.000000	99.108566 
2835.000000	99.108450 
2834.000000	99.110766 
2833.000000	99.115579 
2832.000000	99.121641 
2831.000000	99.127151 
2830.000000	99.130784 
2829.000000	99.132735 
2828.000000	99.134574 
2827.000000	99.137544 
2826.000000	99.141204 
2825.000000	99.144101 
2824.000000	99.145475 
2823.000000	99.145957 
2822.000000	99.146920 
2821.000000	99.149478 
2820.000000	99.153693 
2819.000000	99.158357 
2818.000000	99.161866 
2817.000000	99.163718 
2816.000000	99.164794 
2815.000000	99.165940 
2814.000000	99.166884 
2813.000000	99.167054 
2812.000000	99.166852 
2811.000000	99.167259 
2810.000000	99.168458 
2809.000000	99.169686 
2808.000000	99.170373 
2807.000000	99.170813 
2806.000000	99.171723 
2805.000000	99.173608 
2804.000000	99.176422 
2803.000000	99.179400 
2802.000000	99.181309 
2801.000000	99.181372 
2800.000000	99.179962 
2799.000000	99.178217 
2798.000000	99.177154 
2797.000000	99.177243 
2796.000000	99.178469 
2795.000000	99.180312 
2794.000000	99.181893 
2793.000000	99.182699 
2792.000000	99.183060 
2791.000000	99.183556 
2790.000000	99.184238 
2789.000000	99.184858 
2788.000000	99.185545 
2787.000000	99.186634 
2786.000000	99.188016 
2785.000000	99.189258 
2784.000000	99.190270 
2783.000000	99.191337 
2782.000000	99.192466 
2781.000000	99.193236 
2780.000000	99.193446 
2779.000000	99.193487 
2778.000000	99.193842 
2777.000000	99.194551 
2776.000000	99.195364 
2775.000000	99.196122 
2774.000000	99.196729 
2773.000000	99.197017 
2772.000000	99.196972 
2771.000000	99.196956 
2770.000000	99.197446 
2769.000000	99.198567 
2768.000000	99.200071 
2767.000000	99.201611 
2766.000000	99.202824 
2765.000000	99.203332 
2764.000000	99.203011 
2763.000000	99.202307 
2762.000000	99.201994 
2761.000000	99.202526 
2760.000000	99.203815 
2759.000000	99.205482 
2758.000000	99.207075 
2757.000000	99.208124 
2756.000000	99.208438 
2755.000000	99.208449 
2754.000000	99.208878 
2753.000000	99.209847 
2752.000000	99.210577 
2751.000000	99.210237 
2750.000000	99.208855 
2749.000000	99.207215 
2748.000000	99.205977 
2747.000000	99.205201 
2746.000000	99.204688 
2745.000000	99.204451 
2744.000000	99.204661 
2743.000000	99.205346 
2742.000000	99.206361 
2741.000000	99.207582 
2740.000000	99.208993 
2739.000000	99.210575 
2738.000000	99.212160 
2737.000000	99.213477 
2736.000000	99.214349 
2735.000000	99.214826 
2734.000000	99.215103 
2733.000000	99.215304 
2732.000000	99.215364 
2731.000000	99.215158 
2730.000000	99.214730 
2729.000000	99.214368 
2728.000000	99.214426 
2727.000000	99.215035 
2726.000000	99.215982 
2725.000000	99.216835 
2724.000000	99.217291 
2723.000000	99.217412 
2722.000000	99.217484 
2721.000000	99.217710 
2720.000000	99.218038 
2719.000000	99.218303 
2718.000000	99.218443 
2717.000000	99.218528 
2716.000000	99.218647 
2715.000000	99.218831 
2714.000000	99.219054 
2713.000000	99.219275 
2712.000000	99.219477 
2711.000000	99.219668 
2710.000000	99.219846 
2709.000000	99.220011 
2708.000000	99.220163 
2707.000000	99.220301 
2706.000000	99.220420 
2705.000000	99.220520 
2704.000000	99.220605 
2703.000000	99.220684 
2702.000000	99.220759 
2701.000000	99.220830 
2700.000000	99.220891 
2699.000000	99.220936 
2698.000000	99.220964 
2697.000000	99.220979 
2696.000000	99.220989 
2695.000000	99.220998 
2694.000000	99.221007 
2693.000000	99.221013 
2692.000000	99.221011 
2691.000000	99.221001 
2690.000000	99.220982 
2689.000000	99.220959 
2688.000000	99.220936 
2687.000000	99.220908 
2686.000000	99.220871 
2685.000000	99.220820 
2684.000000	99.220754 
2683.000000	99.220680 
2682.000000	99.220601 
2681.000000	99.220516 
2680.000000	99.220422 
2679.000000	99.220320 
2678.000000	99.220213 
2677.000000	99.220107 
2676.000000	99.220008 
2675.000000	99.219913 
2674.000000	99.219818 
2673.000000	99.219716 
2672.000000	99.219603 
2671.000000	99.219480 
2670.000000	99.219352 
2669.000000	99.219220 
2668.000000	99.219091 
2667.000000	99.218971 
2666.000000	99.218864 
2665.000000	99.218776 
2664.000000	99.218713 
2663.000000	99.218672 
2662.000000	99.218641 
2661.000000	99.218605 
2660.000000	99.218548 
2659.000000	99.218464 
2658.000000	99.218357 
2657.000000	99.218237 
2656.000000	99.218121 
2655.000000	99.218020 
2654.000000	99.217927 
2653.000000	99.217817 
2652.000000	99.217667 
2651.000000	99.217483 
2650.000000	99.217298 
2649.000000	99.217163 
2648.000000	99.217103 
2647.000000	99.217088 
2646.000000	99.217060 
2645.000000	99.217018 
2644.000000	99.217029 
2643.000000	99.217124 
2642.000000	99.217200 
2641.000000	99.217132 
2640.000000	99.216998 
2639.000000	99.217034 
2638.000000	99.217361 
2637.000000	99.217853 
2636.000000	99.218261 
2635.000000	99.218416 
2634.000000	99.218264 
2633.000000	99.217880 
2632.000000	99.217508 
2631.000000	99.217363 
2630.000000	99.217417 
2629.000000	99.217491 
2628.000000	99.217530 
2627.000000	99.217663 
2626.000000	99.217965 
2625.000000	99.218333 
2624.000000	99.218621 
2623.000000	99.218731 
2622.000000	99.218571 
2621.000000	99.218127 
2620.000000	99.217622 
2619.000000	99.217333 
2618.000000	99.217270 
2617.000000	99.217159 
2616.000000	99.216851 
2615.000000	99.216533 
2614.000000	99.216467 
2613.000000	99.216657 
2612.000000	99.216899 
2611.000000	99.217043 
2610.000000	99.217121 
2609.000000	99.217274 
2608.000000	99.217607 
2607.000000	99.218086 
2606.000000	99.218566 
2605.000000	99.218925 
2604.000000	99.219116 
2603.000000	99.219068 
2602.000000	99.218685 
2601.000000	99.218038 
2600.000000	99.217424 
2599.000000	99.217108 
2598.000000	99.217050 
2597.000000	99.217011 
2596.000000	99.216837 
2595.000000	99.216541 
2594.000000	99.216166 
2593.000000	99.215728 
2592.000000	99.215318 
2591.000000	99.215098 
2590.000000	99.215130 
2589.000000	99.215324 
2588.000000	99.215504 
2587.000000	99.215551 
2586.000000	99.215441 
2585.000000	99.215193 
2584.000000	99.214862 
2583.000000	99.214542 
2582.000000	99.214314 
2581.000000	99.214188 
2580.000000	99.214109 
2579.000000	99.214012 
2578.000000	99.213886 
2577.000000	99.213760 
2576.000000	99.213666 
2575.000000	99.213604 
2574.000000	99.213555 
2573.000000	99.213495 
2572.000000	99.213411 
2571.000000	99.213302 
2570.000000	99.213176 
2569.000000	99.213049 
2568.000000	99.212939 
2567.000000	99.212862 
2566.000000	99.212822 
2565.000000	99.212806 
2564.000000	99.212796 
2563.000000	99.212786 
2562.000000	99.212785 
2561.000000	99.212811 
2560.000000	99.212878 
2559.000000	99.212988 
2558.000000	99.213140 
2557.000000	99.213318 
2556.000000	99.213470 
2555.000000	99.213556 
2554.000000	99.213627 
2553.000000	99.213809 
2552.000000	99.214161 
2551.000000	99.214586 
2550.000000	99.214940 
2549.000000	99.215211 
2548.000000	99.215455 
2547.000000	99.215577 
2546.000000	99.215377 
2545.000000	99.214838 
2544.000000	99.214284 
2543.000000	99.214142 
2542.000000	99.214596 
2541.000000	99.215466 
2540.000000	99.216294 
2539.000000	99.216687 
2538.000000	99.216558 
2537.000000	99.216089 
2536.000000	99.215467 
2535.000000	99.214723 
2534.000000	99.213917 
2533.000000	99.213436 
2532.000000	99.213775 
2531.000000	99.214946 
2530.000000	99.216356 
2529.000000	99.217381 
2528.000000	99.217898 
2527.000000	99.218174 
2526.000000	99.218467 
2525.000000	99.218884 
2524.000000	99.219504 
2523.000000	99.220352 
2522.000000	99.221220 
2521.000000	99.221701 
2520.000000	99.221556 
2519.000000	99.220970 
2518.000000	99.220412 
2517.000000	99.220218 
2516.000000	99.220321 
2515.000000	99.220395 
2514.000000	99.220222 
2513.000000	99.219882 
2512.000000	99.219593 
2511.000000	99.219432 
2510.000000	99.219326 
2509.000000	99.219268 
2508.000000	99.219399 
2507.000000	99.219807 
2506.000000	99.220339 
2505.000000	99.220697 
2504.000000	99.220707 
2503.000000	99.220423 
2502.000000	99.220028 
2501.000000	99.219700 
2500.000000	99.219572 
2499.000000	99.219722 
2498.000000	99.220152 
2497.000000	99.220754 
2496.000000	99.221326 
2495.000000	99.221665 
2494.000000	99.221693 
2493.000000	99.221473 
2492.000000	99.221146 
2491.000000	99.220854 
2490.000000	99.220680 
2489.000000	99.220630 
2488.000000	99.220657 
2487.000000	99.220677 
2486.000000	99.220623 
2485.000000	99.220503 
2484.000000	99.220370 
2483.000000	99.220255 
2482.000000	99.220142 
2481.000000	99.220006 
2480.000000	99.219855 
2479.000000	99.219717 
2478.000000	99.219605 
2477.000000	99.219501 
2476.000000	99.219378 
2475.000000	99.219225 
2474.000000	99.219057 
2473.000000	99.218894 
2472.000000	99.218740 
2471.000000	99.218580 
2470.000000	99.218386 
2469.000000	99.218147 
2468.000000	99.217876 
2467.000000	99.217593 
2466.000000	99.217310 
2465.000000	99.217057 
2464.000000	99.216872 
2463.000000	99.216717 
2462.000000	99.216438 
2461.000000	99.215889 
2460.000000	99.215083 
2459.000000	99.214241 
2458.000000	99.213615 
2457.000000	99.213305 
2456.000000	99.213214 
2455.000000	99.213111 
2454.000000	99.212800 
2453.000000	99.212221 
2452.000000	99.211449 
2451.000000	99.210623 
2450.000000	99.209872 
2449.000000	99.209299 
2448.000000	99.209014 
2447.000000	99.209104 
2446.000000	99.209543 
2445.000000	99.210190 
2444.000000	99.210836 
2443.000000	99.211226 
2442.000000	99.211175 
2441.000000	99.210736 
2440.000000	99.210135 
2439.000000	99.209519 
2438.000000	99.208864 
2437.000000	99.208188 
2436.000000	99.207666 
2435.000000	99.207358 
2434.000000	99.206967 
2433.000000	99.206133 
2432.000000	99.204936 
2431.000000	99.203892 
2430.000000	99.203397 
2429.000000	99.203400 
2428.000000	99.203723 
2427.000000	99.204432 
2426.000000	99.205621 
2425.000000	99.206933 
2424.000000	99.207608 
2423.000000	99.207165 
2422.000000	99.205879 
2421.000000	99.204665 
2420.000000	99.204260 
2419.000000	99.204649 
2418.000000	99.205341 
2417.000000	99.206013 
2416.000000	99.206760 
2415.000000	99.207684 
2414.000000	99.208579 
2413.000000	99.209144 
2412.000000	99.209326 
2411.000000	99.209328 
2410.000000	99.209397 
2409.000000	99.209693 
2408.000000	99.210296 
2407.000000	99.211196 
2406.000000	99.212262 
2405.000000	99.213304 
2404.000000	99.214200 
2403.000000	99.214921 
2402.000000	99.215488 
2401.000000	99.215882 
2400.000000	99.216057 
2399.000000	99.216048 
2398.000000	99.216032 
2397.000000	99.216293 
2396.000000	99.217007 
2395.000000	99.218088 
2394.000000	99.219275 
2393.000000	99.220327 
2392.000000	99.221193 
2391.000000	99.221961 
2390.000000	99.222729 
2389.000000	99.223535 
2388.000000	99.224360 
2387.000000	99.225166 
2386.000000	99.225938 
2385.000000	99.226684 
2384.000000	99.227415 
2383.000000	99.228137 
2382.000000	99.228847 
2381.000000	99.229548 
2380.000000	99.230242 
2379.000000	99.230929 
2378.000000	99.231600 
2377.000000	99.232258 
2376.000000	99.232912 
2375.000000	99.233567 
2374.000000	99.234225 
2373.000000	99.234875 
2372.000000	99.235508 
2371.000000	99.236117 
2370.000000	99.236698 
2369.000000	99.237247 
2368.000000	99.237758 
2367.000000	99.238232 
2366.000000	99.238674 
2365.000000	99.239095 
2364.000000	99.239499 
2363.000000	99.239886 
2362.000000	99.240248 
2361.000000	99.240580 
2360.000000	99.240886 
2359.000000	99.241176 
2358.000000	99.241461 
2357.000000	99.241743 
2356.000000	99.242013 
2355.000000	99.242251 
2354.000000	99.242440 
2353.000000	99.242571 
2352.000000	99.242653 
2351.000000	99.242704 
2350.000000	99.242736 
2349.000000	99.242754 
2348.000000	99.242754 
2347.000000	99.242729 
2346.000000	99.242673 
2345.000000	99.242586 
2344.000000	99.242470 
2343.000000	99.242327 
2342.000000	99.242161 
2341.000000	99.241969 
2340.000000	99.241762 
2339.000000	99.241535 
2338.000000	99.241259 
2337.000000	99.240917 
2336.000000	99.240559 
2335.000000	99.240260 
2334.000000	99.240010 
2333.000000	99.239698 
2332.000000	99.239226 
2331.000000	99.238570 
2330.000000	99.237696 
2329.000000	99.236649 
2328.000000	99.235629 
2327.000000	99.234886 
2326.000000	99.234449 
2325.000000	99.234000 
2324.000000	99.233219 
2323.000000	99.232076 
2322.000000	99.231007 
2321.000000	99.230515 
2320.000000	99.230617 
2319.000000	99.230764 
2318.000000	99.230408 
2317.000000	99.229618 
2316.000000	99.228768 
2315.000000	99.227888 
2314.000000	99.226644 
2313.000000	99.225050 
2312.000000	99.223637 
2311.000000	99.222913 
2310.000000	99.222828 
2309.000000	99.222836 
2308.000000	99.222257 
2307.000000	99.220655 
2306.000000	99.218184 
2305.000000	99.215475 
2304.000000	99.213112 
2303.000000	99.211131 
2302.000000	99.209243 
2301.000000	99.207352 
2300.000000	99.205595 
2299.000000	99.203969 
2298.000000	99.202327 
2297.000000	99.200770 
2296.000000	99.199638 
2295.000000	99.199002 
2294.000000	99.198412 
2293.000000	99.197291 
2292.000000	99.195498 
2291.000000	99.193319 
2290.000000	99.191156 
2289.000000	99.189307 
2288.000000	99.187903 
2287.000000	99.186870 
2286.000000	99.185962 
2285.000000	99.184948 
2284.000000	99.183756 
2283.000000	99.182360 
2282.000000	99.180658 
2281.000000	99.178614 
2280.000000	99.176469 
2279.000000	99.174645 
2278.000000	99.173419 
2277.000000	99.172749 
2276.000000	99.172319 
2275.000000	99.171701 
2274.000000	99.170546 
2273.000000	99.168721 
2272.000000	99.166332 
2271.000000	99.163559 
2270.000000	99.160678 
2269.000000	99.158348 
2268.000000	99.157388 
2267.000000	99.157923 
2266.000000	99.158989 
2265.000000	99.159330 
2264.000000	99.158523 
2263.000000	99.157092 
2262.000000	99.155912 
2261.000000	99.155717 
2260.000000	99.156712 
2259.000000	99.158057 
2258.000000	99.158138 
2257.000000	99.156065 
2256.000000	99.152655 
2255.000000	99.149476 
2254.000000	99.147043 
2253.000000	99.144857 
2252.000000	99.142997 
2251.000000	99.142535 
2250.000000	99.144124 
2249.000000	99.146976 
2248.000000	99.149507 
2247.000000	99.150620 
2246.000000	99.150141 
2245.000000	99.148565 
2244.000000	99.146648 
2243.000000	99.144873 
2242.000000	99.143164 
2241.000000	99.141251 
2240.000000	99.139125 
2239.000000	99.136965 
2238.000000	99.134916 
2237.000000	99.133196 
2236.000000	99.131945 
2235.000000	99.130612 
2234.000000	99.128174 
2233.000000	99.124734 
2232.000000	99.122311 
2231.000000	99.123014 
2230.000000	99.126995 
2229.000000	99.132611 
2228.000000	99.137871 
2227.000000	99.141310 
2226.000000	99.142015 
2225.000000	99.140023 
2224.000000	99.136725 
2223.000000	99.134067 
2222.000000	99.133177 
2221.000000	99.134126 
2220.000000	99.136377 
2219.000000	99.138836 
2218.000000	99.140077 
2217.000000	99.139559 
2216.000000	99.138349 
2215.000000	99.137922 
2214.000000	99.138408 
2213.000000	99.138685 
2212.000000	99.137949 
2211.000000	99.136517 
2210.000000	99.135342 
2209.000000	99.135264 
2208.000000	99.136484 
2207.000000	99.138140 
2206.000000	99.138675 
2205.000000	99.137259 
2204.000000	99.134608 
2203.000000	99.132113 
2202.000000	99.130351 
2201.000000	99.129061 
2200.000000	99.128033 
2199.000000	99.127174 
2198.000000	99.126058 
2197.000000	99.124415 
2196.000000	99.122941 
2195.000000	99.122694 
2194.000000	99.123796 
2193.000000	99.125416 
2192.000000	99.126784 
2191.000000	99.127501 
2190.000000	99.127083 
2189.000000	99.125244 
2188.000000	99.122748 
2187.000000	99.121151 
2186.000000	99.121279 
2185.000000	99.122687 
2184.000000	99.124577 
2183.000000	99.126463 
2182.000000	99.127662 
2181.000000	99.127412 
2180.000000	99.126203 
2179.000000	99.125786 
2178.000000	99.126871 
2177.000000	99.127824 
2176.000000	99.126595 
2175.000000	99.123042 
2174.000000	99.118713 
2173.000000	99.115211 
2172.000000	99.113505 
2171.000000	99.114006 
2170.000000	99.116282 
2169.000000	99.119073 
2168.000000	99.121297 
2167.000000	99.122555 
2166.000000	99.122392 
2165.000000	99.120326 
2164.000000	99.117179 
2163.000000	99.115163 
2162.000000	99.115808 
2161.000000	99.118882 
2160.000000	99.123670 
2159.000000	99.129639 
2158.000000	99.135113 
2157.000000	99.137636 
2156.000000	99.136898 
2155.000000	99.135458 
2154.000000	99.135577 
2153.000000	99.136736 
2152.000000	99.137346 
2151.000000	99.137550 
2150.000000	99.138965 
2149.000000	99.142483 
2148.000000	99.147570 
2147.000000	99.153005 
2146.000000	99.157273 
2145.000000	99.158999 
2144.000000	99.158132 
2143.000000	99.156376 
2142.000000	99.155413 
2141.000000	99.155265 
2140.000000	99.155336 
2139.000000	99.155933 
2138.000000	99.157451 
2137.000000	99.158804 
2136.000000	99.158257 
2135.000000	99.155828 
2134.000000	99.153682 
2133.000000	99.153718 
2132.000000	99.155399 
2131.000000	99.156371 
2130.000000	99.154973 
2129.000000	99.151871 
2128.000000	99.149326 
2127.000000	99.148784 
2126.000000	99.149541 
2125.000000	99.149902 
2124.000000	99.149472 
2123.000000	99.149582 
2122.000000	99.151271 
2121.000000	99.153811 
2120.000000	99.155621 
2119.000000	99.156083 
2118.000000	99.155802 
2117.000000	99.155446 
2116.000000	99.154974 
2115.000000	99.154077 
2114.000000	99.152863 
2113.000000	99.151815 
2112.000000	99.151223 
2111.000000	99.150937 
2110.000000	99.150614 
2109.000000	99.150090 
2108.000000	99.149512 
2107.000000	99.149069 
2106.000000	99.148563 
2105.000000	99.147357 
2104.000000	99.144955 
2103.000000	99.141738 
2102.000000	99.139099 
2101.000000	99.138481 
2100.000000	99.140112 
2099.000000	99.142533 
2098.000000	99.143695 
2097.000000	99.143004 
2096.000000	99.141814 
2095.000000	99.141517 
2094.000000	99.141432 
2093.000000	99.139579 
2092.000000	99.135577 
2091.000000	99.131766 
2090.000000	99.130786 
2089.000000	99.132565 
2088.000000	99.134326 
2087.000000	99.133498 
2086.000000	99.130241 
2085.000000	99.127137 
2084.000000	99.126639 
2083.000000	99.128954 
2082.000000	99.132270 
2081.000000	99.134842 
2080.000000	99.136626 
2079.000000	99.138533 
2078.000000	99.140735 
2077.000000	99.142525 
2076.000000	99.143683 
2075.000000	99.144939 
2074.000000	99.146777 
2073.000000	99.148572 
2072.000000	99.149179 
2071.000000	99.147823 
2070.000000	99.144389 
2069.000000	99.139669 
2068.000000	99.135422 
2067.000000	99.133236 
2066.000000	99.133061 
2065.000000	99.133341 
2064.000000	99.132751 
2063.000000	99.131420 
2062.000000	99.130277 
2061.000000	99.129792 
2060.000000	99.129730 
2059.000000	99.129548 
2058.000000	99.128779 
2057.000000	99.127392 
2056.000000	99.125554 
2055.000000	99.122919 
2054.000000	99.118804 
2053.000000	99.113469 
2052.000000	99.108641 
2051.000000	99.106070 
2050.000000	99.105775 
2049.000000	99.106021 
2048.000000	99.104899 
2047.000000	99.101769 
2046.000000	99.097367 
2045.000000	99.093255 
2044.000000	99.090976 
2043.000000	99.090970 
2042.000000	99.092344 
2041.000000	99.093687 
2040.000000	99.094219 
2039.000000	99.093988 
2038.000000	99.093253 
2037.000000	99.092178 
2036.000000	99.090911 
2035.000000	99.089512 
2034.000000	99.087876 
2033.000000	99.085996 
2032.000000	99.084181 
2031.000000	99.082830 
2030.000000	99.082067 
2029.000000	99.081730 
2028.000000	99.081548 
2027.000000	99.081283 
2026.000000	99.080863 
2025.000000	99.080446 
2024.000000	99.080242 
2023.000000	99.080241 
2022.000000	99.080262 
2021.000000	99.080222 
2020.000000	99.080203 
2019.000000	99.080286 
2018.000000	99.080453 
2017.000000	99.080670 
2016.000000	99.080922 
2015.000000	99.081190 
2014.000000	99.081473 
2013.000000	99.081793 
2012.000000	99.082180 
2011.000000	99.082654 
2010.000000	99.083210 
2009.000000	99.083824 
2008.000000	99.084463 
2007.000000	99.085101 
2006.000000	99.085719 
2005.000000	99.086304 
2004.000000	99.086859 
2003.000000	99.087397 
2002.000000	99.087928 
2001.000000	99.088449 
2000.000000	99.088957 
1999.000000	99.089452 
1998.000000	99.089951 
1997.000000	99.090475 
1996.000000	99.091035 
1995.000000	99.091636 
1994.000000	99.092266 
1993.000000	99.092913 
1992.000000	99.093565 
1991.000000	99.094219 
1990.000000	99.094870 
1989.000000	99.095513 
1988.000000	99.096140 
1987.000000	99.096736 
1986.000000	99.097290 
1985.000000	99.097788 
1984.000000	99.098230 
1983.000000	99.098622 
1982.000000	99.098963 
1981.000000	99.099246 
1980.000000	99.099468 
1979.000000	99.099644 
1978.000000	99.099802 
1977.000000	99.099959 
1976.000000	99.100136 
1975.000000	99.100344 
1974.000000	99.100566 
1973.000000	99.100811 
1972.000000	99.101138 
1971.000000	99.101599 
1970.000000	99.102133 
1969.000000	99.102558 
1968.000000	99.102723 
1967.000000	99.102613 
1966.000000	99.102487 
1965.000000	99.102577 
1964.000000	99.102896 
1963.000000	99.103285 
1962.000000	99.103679 
1961.000000	99.104146 
1960.000000	99.104728 
1959.000000	99.105421 
1958.000000	99.106306 
1957.000000	99.107507 
1956.000000	99.108954 
1955.000000	99.110295 
1954.000000	99.111197 
1953.000000	99.111697 
1952.000000	99.112048 
1951.000000	99.112278 
1950.000000	99.112185 
1949.000000	99.111892 
1948.000000	99.112065 
1947.000000	99.113076 
1946.000000	99.114094 
1945.000000	99.113632 
1944.000000	99.111198 
1943.000000	99.108186 
1942.000000	99.106715 
1941.000000	99.107513 
1940.000000	99.109514 
1939.000000	99.111277 
1938.000000	99.112567 
1937.000000	99.114467 
1936.000000	99.117937 
1935.000000	99.122273 
1934.000000	99.125399 
1933.000000	99.126196 
1932.000000	99.125963 
1931.000000	99.126976 
1930.000000	99.129593 
1929.000000	99.131894 
1928.000000	99.132625 
1927.000000	99.132845 
1926.000000	99.134265 
1925.000000	99.136856 
1924.000000	99.139148 
1923.000000	99.140252 
1922.000000	99.140449 
1921.000000	99.140156 
1920.000000	99.139101 
1919.000000	99.136805 
1918.000000	99.133415 
1917.000000	99.130136 
1916.000000	99.128471 
1915.000000	99.128680 
1914.000000	99.129709 
1913.000000	99.130708 
1912.000000	99.131985 
1911.000000	99.134139 
1910.000000	99.136557 
1909.000000	99.138018 
1908.000000	99.138701 
1907.000000	99.139956 
1906.000000	99.142300 
1905.000000	99.144571 
1904.000000	99.145445 
1903.000000	99.144888 
1902.000000	99.143700 
1901.000000	99.142790 
1900.000000	99.142792 
1899.000000	99.143752 
1898.000000	99.145083 
1897.000000	99.146040 
1896.000000	99.146394 
1895.000000	99.146443 
1894.000000	99.146485 
1893.000000	99.146565 
1892.000000	99.146712 
1891.000000	99.147029 
1890.000000	99.147487 
1889.000000	99.147915 
1888.000000	99.148257 
1887.000000	99.148605 
1886.000000	99.149012 
1885.000000	99.149454 
1884.000000	99.149910 
1883.000000	99.150378 
1882.000000	99.150850 
1881.000000	99.151316 
1880.000000	99.151786 
1879.000000	99.152276 
1878.000000	99.152795 
1877.000000	99.153340 
1876.000000	99.153898 
1875.000000	99.154441 
1874.000000	99.154943 
1873.000000	99.155389 
1872.000000	99.155788 
1871.000000	99.156168 
1870.000000	99.156554 
1869.000000	99.156946 
1868.000000	99.157328 
1867.000000	99.157724 
1866.000000	99.158172 
1865.000000	99.158643 
1864.000000	99.159034 
1863.000000	99.159261 
1862.000000	99.159324 
1861.000000	99.159356 
1860.000000	99.159531 
1859.000000	99.159970 
1858.000000	99.160662 
1857.000000	99.161408 
1856.000000	99.161987 
1855.000000	99.162392 
1854.000000	99.162781 
1853.000000	99.163235 
1852.000000	99.163729 
1851.000000	99.164263 
1850.000000	99.164926 
1849.000000	99.165777 
1848.000000	99.166711 
1847.000000	99.167539 
1846.000000	99.168137 
1845.000000	99.168513 
1844.000000	99.168802 
1843.000000	99.169263 
1842.000000	99.169970 
1841.000000	99.170625 
1840.000000	99.170972 
1839.000000	99.171041 
1838.000000	99.171022 
1837.000000	99.170983 
1836.000000	99.170897 
1835.000000	99.170899 
1834.000000	99.171138 
1833.000000	99.171513 
1832.000000	99.171746 
1831.000000	99.171603 
1830.000000	99.171265 
1829.000000	99.171397 
1828.000000	99.172322 
1827.000000	99.173460 
1826.000000	99.174029 
1825.000000	99.173857 
1824.000000	99.173434 
1823.000000	99.173276 
1822.000000	99.173140 
1821.000000	99.172415 
1820.000000	99.171218 
1819.000000	99.170566 
1818.000000	99.171336 
1817.000000	99.173036 
1816.000000	99.174293 
1815.000000	99.174779 
1814.000000	99.175251 
1813.000000	99.176199 
1812.000000	99.177134 
1811.000000	99.177648 
1810.000000	99.178189 
1809.000000	99.178894 
1808.000000	99.179143 
1807.000000	99.178640 
1806.000000	99.177818 
1805.000000	99.177104 
1804.000000	99.176460 
1803.000000	99.175771 
1802.000000	99.174986 
1801.000000	99.174144 
1800.000000	99.173415 
1799.000000	99.173245 
1798.000000	99.173958 
1797.000000	99.175234 
1796.000000	99.176440 
1795.000000	99.177254 
1794.000000	99.177681 
1793.000000	99.177726 
1792.000000	99.177317 
1791.000000	99.176854 
1790.000000	99.176862 
1789.000000	99.177199 
1788.000000	99.177475 
1787.000000	99.177656 
1786.000000	99.177989 
1785.000000	99.178509 
1784.000000	99.178984 
1783.000000	99.179260 
1782.000000	99.179257 
1781.000000	99.179061 
1780.000000	99.178810 
1779.000000	99.178639 
1778.000000	99.178709 
1777.000000	99.179075 
1776.000000	99.179671 
1775.000000	99.180193 
1774.000000	99.180331 
1773.000000	99.180155 
1772.000000	99.180068 
1771.000000	99.180333 
1770.000000	99.180796 
1769.000000	99.181133 
1768.000000	99.181270 
1767.000000	99.181382 
1766.000000	99.181618 
1765.000000	99.181973 
1764.000000	99.182350 
1763.000000	99.182694 
1762.000000	99.182996 
1761.000000	99.183353 
1760.000000	99.183784 
1759.000000	99.184188 
1758.000000	99.184586 
1757.000000	99.185218 
1756.000000	99.186248 
1755.000000	99.187277 
1754.000000	99.187783 
1753.000000	99.187842 
1752.000000	99.188081 
1751.000000	99.188563 
1750.000000	99.188663 
1749.000000	99.188168 
1748.000000	99.187613 
1747.000000	99.187503 
1746.000000	99.187691 
1745.000000	99.187926 
1744.000000	99.188153 
1743.000000	99.188414 
1742.000000	99.188740 
1741.000000	99.189093 
1740.000000	99.189413 
1739.000000	99.189760 
1738.000000	99.190157 
1737.000000	99.190414 
1736.000000	99.190473 
1735.000000	99.190739 
1734.000000	99.191070 
1733.000000	99.191045 
1732.000000	99.190811 
1731.000000	99.190512 
1730.000000	99.190263 
1729.000000	99.190173 
1728.000000	99.190228 
1727.000000	99.190339 
1726.000000	99.190447 
1725.000000	99.190565 
1724.000000	99.190618 
1723.000000	99.190574 
1722.000000	99.190503 
1721.000000	99.190444 
1720.000000	99.190393 
1719.000000	99.190375 
1718.000000	99.190399 
1717.000000	99.190373 
1716.000000	99.190265 
1715.000000	99.190150 
1714.000000	99.190060 
1713.000000	99.189945 
1712.000000	99.189787 
1711.000000	99.189622 
1710.000000	99.189487 
1709.000000	99.189381 
1708.000000	99.189288 
1707.000000	99.189193 
1706.000000	99.189094 
1705.000000	99.188961 
1704.000000	99.188763 
1703.000000	99.188515 
1702.000000	99.188269 
1701.000000	99.188061 
1700.000000	99.187814 
1699.000000	99.187514 
1698.000000	99.187245 
1697.000000	99.186994 
1696.000000	99.186710 
1695.000000	99.186394 
1694.000000	99.186087 
1693.000000	99.185791 
1692.000000	99.185486 
1691.000000	99.185199 
1690.000000	99.184953 
1689.000000	99.184730 
1688.000000	99.184512 
1687.000000	99.184294 
1686.000000	99.184090 
1685.000000	99.183903 
1684.000000	99.183686 
1683.000000	99.183438 
1682.000000	99.183182 
1681.000000	99.182915 
1680.000000	99.182656 
1679.000000	99.182417 
1678.000000	99.182192 
1677.000000	99.181975 
1676.000000	99.181771 
1675.000000	99.181578 
1674.000000	99.181386 
1673.000000	99.181190 
1672.000000	99.180987 
1671.000000	99.180777 
1670.000000	99.180557 
1669.000000	99.180328 
1668.000000	99.180098 
1667.000000	99.179875 
1666.000000	99.179659 
1665.000000	99.179448 
1664.000000	99.179245 
1663.000000	99.179058 
1662.000000	99.178887 
1661.000000	99.178734 
1660.000000	99.178604 
1659.000000	99.178501 
1658.000000	99.178419 
1657.000000	99.178333 
1656.000000	99.178221 
1655.000000	99.178084 
1654.000000	99.178004 
1653.000000	99.177872 
1652.000000	99.177718 
1651.000000	99.177799 
1650.000000	99.177960 
1649.000000	99.178004 
1648.000000	99.177990 
1647.000000	99.177906 
1646.000000	99.177740 
1645.000000	99.177691 
1644.000000	99.177898 
1643.000000	99.178329 
1642.000000	99.178823 
1641.000000	99.179216 
1640.000000	99.179466 
1639.000000	99.179591 
1638.000000	99.179666 
1637.000000	99.179965 
1636.000000	99.180598 
1635.000000	99.181096 
1634.000000	99.181354 
1633.000000	99.181338 
1632.000000	99.180812 
1631.000000	99.180122 
1630.000000	99.179652 
1629.000000	99.179471 
1628.000000	99.179704 
1627.000000	99.180584 
1626.000000	99.181708 
1625.000000	99.182369 
1624.000000	99.182509 
1623.000000	99.182633 
1622.000000	99.183078 
1621.000000	99.183803 
1620.000000	99.184603 
1619.000000	99.185181 
1618.000000	99.185545 
1617.000000	99.185563 
1616.000000	99.186083 
1615.000000	99.188254 
1614.000000	99.190997 
1613.000000	99.192850 
1612.000000	99.194377 
1611.000000	99.196445 
1610.000000	99.198009 
1609.000000	99.197801 
1608.000000	99.196734 
1607.000000	99.196526 
1606.000000	99.196999 
1605.000000	99.197477 
1604.000000	99.198538 
1603.000000	99.200537 
1602.000000	99.202700 
1601.000000	99.204399 
1600.000000	99.206108 
1599.000000	99.208183 
1598.000000	99.210035 
1597.000000	99.211156 
1596.000000	99.211699 
1595.000000	99.211827 
1594.000000	99.211365 
1593.000000	99.210711 
1592.000000	99.211013 
1591.000000	99.212690 
1590.000000	99.214686 
1589.000000	99.215993 
1588.000000	99.217005 
1587.000000	99.218439 
1586.000000	99.219859 
1585.000000	99.220399 
1584.000000	99.220527 
1583.000000	99.220816 
1582.000000	99.220831 
1581.000000	99.220347 
1580.000000	99.219892 
1579.000000	99.219673 
1578.000000	99.219391 
1577.000000	99.219016 
1576.000000	99.218823 
1575.000000	99.219125 
1574.000000	99.219666 
1573.000000	99.220062 
1572.000000	99.220353 
1571.000000	99.220705 
1570.000000	99.220983 
1569.000000	99.221071 
1568.000000	99.221099 
1567.000000	99.221101 
1566.000000	99.221070 
1565.000000	99.221045 
1564.000000	99.221028 
1563.000000	99.221001 
1562.000000	99.220963 
1561.000000	99.220913 
1560.000000	99.220850 
1559.000000	99.220766 
1558.000000	99.220653 
1557.000000	99.220519 
1556.000000	99.220368 
1555.000000	99.220197 
1554.000000	99.220008 
1553.000000	99.219799 
1552.000000	99.219571 
1551.000000	99.219322 
1550.000000	99.219056 
1549.000000	99.218771 
1548.000000	99.218468 
1547.000000	99.218145 
1546.000000	99.217798 
1545.000000	99.217432 
1544.000000	99.217057 
1543.000000	99.216685 
1542.000000	99.216321 
1541.000000	99.215957 
1540.000000	99.215577 
1539.000000	99.215172 
1538.000000	99.214745 
1537.000000	99.214296 
1536.000000	99.213826 
1535.000000	99.213338 
1534.000000	99.212836 
1533.000000	99.212318 
1532.000000	99.211787 
1531.000000	99.211249 
1530.000000	99.210706 
1529.000000	99.210153 
1528.000000	99.209589 
1527.000000	99.209016 
1526.000000	99.208432 
1525.000000	99.207844 
1524.000000	99.207265 
1523.000000	99.206704 
1522.000000	99.206178 
1521.000000	99.205632 
1520.000000	99.204978 
1519.000000	99.204177 
1518.000000	99.203210 
1517.000000	99.202146 
1516.000000	99.201119 
1515.000000	99.200219 
1514.000000	99.199413 
1513.000000	99.198665 
1512.000000	99.197934 
1511.000000	99.197121 
1510.000000	99.196200 
1509.000000	99.195217 
1508.000000	99.194369 
1507.000000	99.193605 
1506.000000	99.192766 
1505.000000	99.191885 
1504.000000	99.191011 
1503.000000	99.190168 
1502.000000	99.189445 
1501.000000	99.188816 
1500.000000	99.188019 
1499.000000	99.186800 
1498.000000	99.185265 
1497.000000	99.183688 
1496.000000	99.182157 
1495.000000	99.180940 
1494.000000	99.180355 
1493.000000	99.180329 
1492.000000	99.180450 
1491.000000	99.180252 
1490.000000	99.179381 
1489.000000	99.177775 
1488.000000	99.175626 
1487.000000	99.173513 
1486.000000	99.171809 
1485.000000	99.170068 
1484.000000	99.168043 
1483.000000	99.166053 
1482.000000	99.164681 
1481.000000	99.164025 
1480.000000	99.163486 
1479.000000	99.162576 
1478.000000	99.161350 
1477.000000	99.159938 
1476.000000	99.158300 
1475.000000	99.157186 
1474.000000	99.157522 
1473.000000	99.158473 
1472.000000	99.157782 
1471.000000	99.155486 
1470.000000	99.153458 
1469.000000	99.152041 
1468.000000	99.150524 
1467.000000	99.148903 
1466.000000	99.147748 
1465.000000	99.147086 
1464.000000	99.146758 
1463.000000	99.146650 
1462.000000	99.146635 
1461.000000	99.145974 
1460.000000	99.144186 
1459.000000	99.141090 
1458.000000	99.136613 
1457.000000	99.128998 
1456.000000	99.119455 
1455.000000	99.112297 
1454.000000	99.108336 
1453.000000	99.107570 
1452.000000	99.110149 
1451.000000	99.114468 
1450.000000	99.118546 
1449.000000	99.121205 
1448.000000	99.121432 
1447.000000	99.119951 
1446.000000	99.118499 
1445.000000	99.118912 
1444.000000	99.121319 
1443.000000	99.123741 
1442.000000	99.125191 
1441.000000	99.126165 
1440.000000	99.126967 
1439.000000	99.126683 
1438.000000	99.126756 
1437.000000	99.128590 
1436.000000	99.129592 
1435.000000	99.127153 
1434.000000	99.122169 
1433.000000	99.116505 
1432.000000	99.111735 
1431.000000	99.107921 
1430.000000	99.104305 
1429.000000	99.100810 
1428.000000	99.097129 
1427.000000	99.093199 
1426.000000	99.088903 
1425.000000	99.085264 
1424.000000	99.082753 
1423.000000	99.079210 
1422.000000	99.072808 
1421.000000	99.064019 
1420.000000	99.054570 
1419.000000	99.044719 
1418.000000	99.035738 
1417.000000	99.028854 
1416.000000	99.021479 
1415.000000	99.011074 
1414.000000	98.998422 
1413.000000	98.986486 
1412.000000	98.977295 
1411.000000	98.970096 
1410.000000	98.963636 
1409.000000	98.958174 
1408.000000	98.954584 
1407.000000	98.953725 
1406.000000	98.955507 
1405.000000	98.959356 
1404.000000	98.964764 
1403.000000	98.971133 
1402.000000	98.978476 
1401.000000	98.987043 
1400.000000	98.995801 
1399.000000	99.001255 
1398.000000	98.999730 
1397.000000	98.989756 
1396.000000	98.972814 
1395.000000	98.955693 
1394.000000	98.948610 
1393.000000	98.956542 
1392.000000	98.974650 
1391.000000	98.993396 
1390.000000	99.006287 
1389.000000	99.012233 
1388.000000	99.012990 
1387.000000	99.010613 
1386.000000	99.007189 
1385.000000	99.004783 
1384.000000	99.004292 
1383.000000	99.004846 
1382.000000	99.005285 
1381.000000	99.005817 
1380.000000	99.008102 
1379.000000	99.013362 
1378.000000	99.020916 
1377.000000	99.029075 
1376.000000	99.036836 
1375.000000	99.044141 
1374.000000	99.051183 
1373.000000	99.058535 
1372.000000	99.066567 
1371.000000	99.074793 
1370.000000	99.082058 
1369.000000	99.087932 
1368.000000	99.093227 
1367.000000	99.098783 
1366.000000	99.104892 
1365.000000	99.111782 
1364.000000	99.119663 
1363.000000	99.127770 
1362.000000	99.134473 
1361.000000	99.139047 
1360.000000	99.142461 
1359.000000	99.146271 
1358.000000	99.151462 
1357.000000	99.158311 
1356.000000	99.166305 
1355.000000	99.173979 
1354.000000	99.179990 
1353.000000	99.184500 
1352.000000	99.188318 
1351.000000	99.191460 
1350.000000	99.192877 
1349.000000	99.193010 
1348.000000	99.193837 
1347.000000	99.196239 
1346.000000	99.199305 
1345.000000	99.202132 
1344.000000	99.204707 
1343.000000	99.206512 
1342.000000	99.206422 
1341.000000	99.204892 
1340.000000	99.204503 
1339.000000	99.206763 
1338.000000	99.210148 
1337.000000	99.212857 
1336.000000	99.215203 
1335.000000	99.217880 
1334.000000	99.219976 
1333.000000	99.220341 
1332.000000	99.219560 
1331.000000	99.219054 
1330.000000	99.219019 
1329.000000	99.218830 
1328.000000	99.218488 
1327.000000	99.218327 
1326.000000	99.217868 
1325.000000	99.216858 
1324.000000	99.216291 
1323.000000	99.216966 
1322.000000	99.218151 
1321.000000	99.218800 
1320.000000	99.219343 
1319.000000	99.220928 
1318.000000	99.223389 
1317.000000	99.225081 
1316.000000	99.224701 
1315.000000	99.222448 
1314.000000	99.219603 
1313.000000	99.217498 
1312.000000	99.216605 
1311.000000	99.216380 
1310.000000	99.216106 
1309.000000	99.215878 
1308.000000	99.216169 
1307.000000	99.216756 
1306.000000	99.216735 
1305.000000	99.216159 
1304.000000	99.216344 
1303.000000	99.217959 
1302.000000	99.219884 
1301.000000	99.220622 
1300.000000	99.220153 
1299.000000	99.219718 
1298.000000	99.220427 
1297.000000	99.222464 
1296.000000	99.225122 
1295.000000	99.227011 
1294.000000	99.226805 
1293.000000	99.224362 
1292.000000	99.220754 
1291.000000	99.217178 
1290.000000	99.214360 
1289.000000	99.212930 
1288.000000	99.213257 
1287.000000	99.214432 
1286.000000	99.214596 
1285.000000	99.212880 
1284.000000	99.210025 
1283.000000	99.206962 
1282.000000	99.203630 
1281.000000	99.199763 
1280.000000	99.196167 
1279.000000	99.193743 
1278.000000	99.191888 
1277.000000	99.189238 
1276.000000	99.185556 
1275.000000	99.181736 
1274.000000	99.178143 
1273.000000	99.174096 
1272.000000	99.169116 
1271.000000	99.163812 
1270.000000	99.159153 
1269.000000	99.155336 
1268.000000	99.151680 
1267.000000	99.147298 
1266.000000	99.141797 
1265.000000	99.135564 
1264.000000	99.129385 
1263.000000	99.123649 
1262.000000	99.118005 
1261.000000	99.112029 
1260.000000	99.106127 
1259.000000	99.101242 
1258.000000	99.097732 
1257.000000	99.095072 
1256.000000	99.092739 
1255.000000	99.090849 
1254.000000	99.089526 
1253.000000	99.088116 
1252.000000	99.085762 
1251.000000	99.082746 
1250.000000	99.080663 
1249.000000	99.080970 
1248.000000	99.083680 
1247.000000	99.087383 
1246.000000	99.089930 
1245.000000	99.088887 
1244.000000	99.082560 
1243.000000	99.072253 
1242.000000	99.063325 
1241.000000	99.061610 
1240.000000	99.067869 
1239.000000	99.076397 
1238.000000	99.080287 
1237.000000	99.077724 
1236.000000	99.071925 
1235.000000	99.066422 
1234.000000	99.062012 
1233.000000	99.057808 
1232.000000	99.052883 
1231.000000	99.046411 
1230.000000	99.038193 
1229.000000	99.029952 
1228.000000	99.024668 
1227.000000	99.023621 
1226.000000	99.024923 
1225.000000	99.025649 
1224.000000	99.024598 
1223.000000	99.022354 
1222.000000	99.019747 
1221.000000	99.017235 
1220.000000	99.015119 
1219.000000	99.013395 
1218.000000	99.011581 
1217.000000	99.009056 
1216.000000	99.005191 
1215.000000	98.999191 
1214.000000	98.990593 
1213.000000	98.980074 
1212.000000	98.968928 
1211.000000	98.957681 
1210.000000	98.946154 
1209.000000	98.934879 
1208.000000	98.925095 
1207.000000	98.916989 
1206.000000	98.909261 
1205.000000	98.900956 
1204.000000	98.892415 
1203.000000	98.883821 
1202.000000	98.874298 
1201.000000	98.863320 
1200.000000	98.851708 
1199.000000	98.840202 
1198.000000	98.828297 
1197.000000	98.815391 
1196.000000	98.801642 
1195.000000	98.787020 
1194.000000	98.771040 
1193.000000	98.754179 
1192.000000	98.738282 
1191.000000	98.724377 
1190.000000	98.711099 
1189.000000	98.696585 
1188.000000	98.681009 
1187.000000	98.665899 
1186.000000	98.651810 
1185.000000	98.637983 
1184.000000	98.623705 
1183.000000	98.608739 
1182.000000	98.592953 
1181.000000	98.576622 
1180.000000	98.560512 
1179.000000	98.544638 
1178.000000	98.527641 
1177.000000	98.508477 
1176.000000	98.487899 
1175.000000	98.467051 
1174.000000	98.445471 
1173.000000	98.422101 
1172.000000	98.397752 
1171.000000	98.374801 
1170.000000	98.354588 
1169.000000	98.336461 
1168.000000	98.319238 
1167.000000	98.302420 
1166.000000	98.286425 
1165.000000	98.273062 
1164.000000	98.265438 
1163.000000	98.265817 
1162.000000	98.273280 
1161.000000	98.284324 
1160.000000	98.295470 
1159.000000	98.304179 
1158.000000	98.307820 
1157.000000	98.303563 
1156.000000	98.289922 
1155.000000	98.268190 
1154.000000	98.242723 
1153.000000	98.219596 
1152.000000	98.203136 
1151.000000	98.192289 
1150.000000	98.181264 
1149.000000	98.165274 
1148.000000	98.145001 
1147.000000	98.124396 
1146.000000	98.105269 
1145.000000	98.085947 
1144.000000	98.064515 
1143.000000	98.041191 
1142.000000	98.017760 
1141.000000	97.996478 
1140.000000	97.979250 
1139.000000	97.965828 
1138.000000	97.952697 
1137.000000	97.935551 
1136.000000	97.913242 
1135.000000	97.888282 
1134.000000	97.863688 
1133.000000	97.840449 
1132.000000	97.817835 
1131.000000	97.794798 
1130.000000	97.771179 
1129.000000	97.748344 
1128.000000	97.727802 
1127.000000	97.708242 
1126.000000	97.685513 
1125.000000	97.657460 
1124.000000	97.627362 
1123.000000	97.600313 
1122.000000	97.577207 
1121.000000	97.554960 
1120.000000	97.531581 
1119.000000	97.507602 
1118.000000	97.482886 
1117.000000	97.455859 
1116.000000	97.426651 
1115.000000	97.397939 
1114.000000	97.371534 
1113.000000	97.346403 
1112.000000	97.320866 
1111.000000	97.294452 
1110.000000	97.266743 
1109.000000	97.236952 
1108.000000	97.205917 
1107.000000	97.176434 
1106.000000	97.150334 
1105.000000	97.126583 
1104.000000	97.102792 
1103.000000	97.077724 
1102.000000	97.051969 
1101.000000	97.026923 
1100.000000	97.003380 
1099.000000	96.980972 
1098.000000	96.958735 
1097.000000	96.936377 
1096.000000	96.914453 
1095.000000	96.892816 
1094.000000	96.869648 
1093.000000	96.842911 
1092.000000	96.812263 
1091.000000	96.778910 
1090.000000	96.744268 
1089.000000	96.709619 
1088.000000	96.676417 
1087.000000	96.645476 
1086.000000	96.615941 
1085.000000	96.586402 
1084.000000	96.557022 
1083.000000	96.529069 
1082.000000	96.502288 
1081.000000	96.474514 
1080.000000	96.444443 
1079.000000	96.413266 
1078.000000	96.383244 
1077.000000	96.356365 
1076.000000	96.334541 
1075.000000	96.318760 
1074.000000	96.307327 
1073.000000	96.296818 
1072.000000	96.284665 
1071.000000	96.268236 
1070.000000	96.242016 
1069.000000	96.200589 
1068.000000	96.146700 
1067.000000	96.093644 
1066.000000	96.055986 
1065.000000	96.038339 
1064.000000	96.034035 
1063.000000	96.031387 
1062.000000	96.019749 
1061.000000	95.992732 
1060.000000	95.950555 
1059.000000	95.901102 
1058.000000	95.856275 
1057.000000	95.824413 
1056.000000	95.805099 
1055.000000	95.790507 
1054.000000	95.772148 
1053.000000	95.747665 
1052.000000	95.721324 
1051.000000	95.697729 
1050.000000	95.676337 
1049.000000	95.653341 
1048.000000	95.627225 
1047.000000	95.600236 
1046.000000	95.575696 
1045.000000	95.555725 
1044.000000	95.540113 
1043.000000	95.525681 
1042.000000	95.508497 
1041.000000	95.488584 
1040.000000	95.470561 
1039.000000	95.458217 
1038.000000	95.451264 
1037.000000	95.449225 
1036.000000	95.454552 
1035.000000	95.468257 
1034.000000	95.485710 
1033.000000	95.500589 
1032.000000	95.509751 
1031.000000	95.510617 
1030.000000	95.499266 
1029.000000	95.478291 
1028.000000	95.462899 
1027.000000	95.469676 
1026.000000	95.498704 
1025.000000	95.532909 
1024.000000	95.555822 
1023.000000	95.564434 
1022.000000	95.564678 
1021.000000	95.562397 
1020.000000	95.561525 
1019.000000	95.564926 
1018.000000	95.572460 
1017.000000	95.580949 
1016.000000	95.588363 
1015.000000	95.595708 
1014.000000	95.603996 
1013.000000	95.612475 
1012.000000	95.620628 
1011.000000	95.628833 
1010.000000	95.636582 
1009.000000	95.643382 
1008.000000	95.651767 
1007.000000	95.665802 
1006.000000	95.685760 
1005.000000	95.707273 
1004.000000	95.726334 
1003.000000	95.742495 
1002.000000	95.757180 
1001.000000	95.771911 
1000.000000	95.788215 
999.000000	 95.806245 
998.000000	 95.823585 
997.000000	 95.838430 
996.000000	 95.853463 
995.000000	 95.873174 
994.000000	 95.897779 
993.000000	 95.923252 
992.000000	 95.946744 
991.000000	 95.968141 
990.000000	 95.986897 
989.000000	 96.002060 
988.000000	 96.015881 
987.000000	 96.033121 
986.000000	 96.055993 
985.000000	 96.083241 
984.000000	 96.113837 
983.000000	 96.147448 
982.000000	 96.181939 
981.000000	 96.214582 
980.000000	 96.246015 
979.000000	 96.279849 
978.000000	 96.318182 
977.000000	 96.360568 
976.000000	 96.406584 
975.000000	 96.455269 
974.000000	 96.502727 
973.000000	 96.545214 
972.000000	 96.584874 
971.000000	 96.627891 
970.000000	 96.676386 
969.000000	 96.726098 
968.000000	 96.772471 
967.000000	 96.815087 
966.000000	 96.855601 
965.000000	 96.895270 
964.000000	 96.935315 
963.000000	 96.976332 
962.000000	 97.016646 
961.000000	 97.054168 
960.000000	 97.089847 
959.000000	 97.126034 
958.000000	 97.161832 
957.000000	 97.194049 
956.000000	 97.222776 
955.000000	 97.251780 
954.000000	 97.282796 
953.000000	 97.313472 
952.000000	 97.341941 
951.000000	 97.369299 
950.000000	 97.396073 
949.000000	 97.419991 
948.000000	 97.439228 
947.000000	 97.454953 
946.000000	 97.468839 
945.000000	 97.480483 
944.000000	 97.489339 
943.000000	 97.497595 
942.000000	 97.509287 
941.000000	 97.526878 
940.000000	 97.548851 
939.000000	 97.569878 
938.000000	 97.584281 
937.000000	 97.591451 
936.000000	 97.597519 
935.000000	 97.609636 
934.000000	 97.628830 
933.000000	 97.650504 
932.000000	 97.670828 
931.000000	 97.689558 
930.000000	 97.707047 
929.000000	 97.721943 
928.000000	 97.732648 
927.000000	 97.739095 
926.000000	 97.742979 
925.000000	 97.747888 
924.000000	 97.758302 
923.000000	 97.775763 
922.000000	 97.796289 
921.000000	 97.813877 
920.000000	 97.826111 
919.000000	 97.834236 
918.000000	 97.839325 
917.000000	 97.841847 
916.000000	 97.844164 
915.000000	 97.849382 
914.000000	 97.857330 
913.000000	 97.865017 
912.000000	 97.871676 
911.000000	 97.880411 
910.000000	 97.894225 
909.000000	 97.913071 
908.000000	 97.935331 
907.000000	 97.959612 
906.000000	 97.984366 
905.000000	 98.008036 
904.000000	 98.030286 
903.000000	 98.051919 
902.000000	 98.074094 
901.000000	 98.098745 
900.000000	 98.128056 
899.000000	 98.161093 
898.000000	 98.192253 
897.000000	 98.216239 
896.000000	 98.233766 
895.000000	 98.249872 
894.000000	 98.267922 
893.000000	 98.288173 
892.000000	 98.310998 
891.000000	 98.337574 
890.000000	 98.367428 
889.000000	 98.398342 
888.000000	 98.428475 
887.000000	 98.456151 
886.000000	 98.478871 
885.000000	 98.496064 
884.000000	 98.511642 
883.000000	 98.529512 
882.000000	 98.547167 
881.000000	 98.558886 
880.000000	 98.565511 
879.000000	 98.575630 
878.000000	 98.595423 
877.000000	 98.622085 
876.000000	 98.649011 
875.000000	 98.672861 
874.000000	 98.693406 
873.000000	 98.710844 
872.000000	 98.726206 
871.000000	 98.741471 
870.000000	 98.757384 
869.000000	 98.774028 
868.000000	 98.794401 
867.000000	 98.823074 
866.000000	 98.859063 
865.000000	 98.894043 
864.000000	 98.921052 
863.000000	 98.942160 
862.000000	 98.964284 
861.000000	 98.989372 
860.000000	 99.012567 
859.000000	 99.029473 
858.000000	 99.041513 
857.000000	 99.053482 
856.000000	 99.068400 
855.000000	 99.086063 
854.000000	 99.104818 
853.000000	 99.122760 
852.000000	 99.137783 
851.000000	 99.148757 
850.000000	 99.157627 
849.000000	 99.168655 
848.000000	 99.183679 
847.000000	 99.198809 
846.000000	 99.208017 
845.000000	 99.209970 
844.000000	 99.209329 
843.000000	 99.211484 
842.000000	 99.218254 
841.000000	 99.228177 
840.000000	 99.237245 
839.000000	 99.239081 
838.000000	 99.229361 
837.000000	 99.212299 
836.000000	 99.198457 
835.000000	 99.193117 
834.000000	 99.190739 
833.000000	 99.184257 
832.000000	 99.175136 
831.000000	 99.168912 
830.000000	 99.164847 
829.000000	 99.157785 
828.000000	 99.149088 
827.000000	 99.147560 
826.000000	 99.157694 
825.000000	 99.173453 
824.000000	 99.186167 
823.000000	 99.193376 
822.000000	 99.198030 
821.000000	 99.203572 
820.000000	 99.211240 
819.000000	 99.218760 
818.000000	 99.221236 
817.000000	 99.216089 
816.000000	 99.206443 
815.000000	 99.196864 
814.000000	 99.186871 
813.000000	 99.171868 
812.000000	 99.148974 
811.000000	 99.117373 
810.000000	 99.073735 
809.000000	 99.012608 
808.000000	 98.932671 
807.000000	 98.839283 
806.000000	 98.739951 
805.000000	 98.640138 
804.000000	 98.544074 
803.000000	 98.456173 
802.000000	 98.380176 
801.000000	 98.319108 
800.000000	 98.275946 
799.000000	 98.251352 
798.000000	 98.241408 
797.000000	 98.241235 
796.000000	 98.250094 
795.000000	 98.269166 
794.000000	 98.295627 
793.000000	 98.323140 
792.000000	 98.347341 
791.000000	 98.367093 
790.000000	 98.381661 
789.000000	 98.390470 
788.000000	 98.393702 
787.000000	 98.389033 
786.000000	 98.370113 
785.000000	 98.333413 
784.000000	 98.285330 
783.000000	 98.238177 
782.000000	 98.200467 
781.000000	 98.174717 
780.000000	 98.161332 
779.000000	 98.158604 
778.000000	 98.161583 
777.000000	 98.168092 
776.000000	 98.184200 
775.000000	 98.216590 
774.000000	 98.260720 
773.000000	 98.303591 
772.000000	 98.337992 
771.000000	 98.367465 
770.000000	 98.397810 
769.000000	 98.430130 
768.000000	 98.461747 
767.000000	 98.488003 
766.000000	 98.503889 
765.000000	 98.509828 
764.000000	 98.514869 
763.000000	 98.528020 
762.000000	 98.547092 
761.000000	 98.562166 
760.000000	 98.569052 
759.000000	 98.572986 
758.000000	 98.580300 
757.000000	 98.593037 
756.000000	 98.610491 
755.000000	 98.628845 
754.000000	 98.640446 
753.000000	 98.641520 
752.000000	 98.640716 
751.000000	 98.652346 
750.000000	 98.679752 
749.000000	 98.711395 
748.000000	 98.734391 
747.000000	 98.746463 
746.000000	 98.753783 
745.000000	 98.763200 
744.000000	 98.778211 
743.000000	 98.797557 
742.000000	 98.816218 
741.000000	 98.831713 
740.000000	 98.848921 
739.000000	 98.873933 
738.000000	 98.904095 
737.000000	 98.929722 
736.000000	 98.945163 
735.000000	 98.952491 
734.000000	 98.955629 
733.000000	 98.957643 
732.000000	 98.963859 
731.000000	 98.979552 
730.000000	 99.001847 
729.000000	 99.021105 
728.000000	 99.033071 
727.000000	 99.042809 
726.000000	 99.054344 
725.000000	 99.063534 
724.000000	 99.065283 
723.000000	 99.061733 
722.000000	 99.059429 
721.000000	 99.063224 
720.000000	 99.075651 
719.000000	 99.096739 
718.000000	 99.121412 
717.000000	 99.141930 
716.000000	 99.154983 
715.000000	 99.162286 
714.000000	 99.164765 
713.000000	 99.162685 
712.000000	 99.161853 
711.000000	 99.171022 
710.000000	 99.189748 
709.000000	 99.206307 
708.000000	 99.210928 
707.000000	 99.204278 
706.000000	 99.190965 
705.000000	 99.172743 
704.000000	 99.152178 
703.000000	 99.135458 
702.000000	 99.125554 
701.000000	 99.116920 
700.000000	 99.101259 
699.000000	 99.074359 
698.000000	 99.036564 
697.000000	 98.992943 
696.000000	 98.954510 
695.000000	 98.932464 
694.000000	 98.928220 
693.000000	 98.934835 
692.000000	 98.948895 
691.000000	 98.972579 
690.000000	 99.003357 
689.000000	 99.032071 
688.000000	 99.054803 
687.000000	 99.076451 
686.000000	 99.097500 
685.000000	 99.109349 
684.000000	 99.108890 
683.000000	 99.106072 
682.000000	 99.110850 
681.000000	 99.121658 
680.000000	 99.131917 
679.000000	 99.139253 
678.000000	 99.143100 
677.000000	 99.142829 
676.000000	 99.143610 
675.000000	 99.153244 
674.000000	 99.169891 
673.000000	 99.180909 
672.000000	 99.178000 
671.000000	 99.166292 
670.000000	 99.156707 
669.000000	 99.156599 
668.000000	 99.167179 
667.000000	 99.183515 
666.000000	 99.196179 
665.000000	 99.200315 
664.000000	 99.201422 
663.000000	 99.211616 
662.000000	 99.233797 
661.000000	 99.252466 
660.000000	 99.251525 
659.000000	 99.233006 
658.000000	 99.212475 
657.000000	 99.200308 
656.000000	 99.194703 
655.000000	 99.191727 
654.000000	 99.192157 
653.000000	 99.197768 
652.000000	 99.207393 
651.000000	 99.217740 
650.000000	 99.224274 

