4000.000000	99.697710 
3999.000000	99.694913 
3998.000000	99.694857 
3997.000000	99.699102 
3996.000000	99.705851 
3995.000000	99.711404 
3994.000000	99.713546 
3993.000000	99.713155 
3992.000000	99.712520 
3991.000000	99.712490 
3990.000000	99.711751 
3989.000000	99.708772 
3988.000000	99.704064 
3987.000000	99.700205 
3986.000000	99.699581 
3985.000000	99.702271 
3984.000000	99.706180 
3983.000000	99.709241 
3982.000000	99.711308 
3981.000000	99.713843 
3980.000000	99.718039 
3979.000000	99.723443 
3978.000000	99.728252 
3977.000000	99.730681 
3976.000000	99.730125 
3975.000000	99.727220 
3974.000000	99.722970 
3973.000000	99.717993 
3972.000000	99.712757 
3971.000000	99.708311 
3970.000000	99.706291 
3969.000000	99.707859 
3968.000000	99.712543 
3967.000000	99.718227 
3966.000000	99.722288 
3965.000000	99.723016 
3964.000000	99.720563 
3963.000000	99.716889 
3962.000000	99.714354 
3961.000000	99.713708 
3960.000000	99.713570 
3959.000000	99.712102 
3958.000000	99.709201 
3957.000000	99.706828 
3956.000000	99.707036 
3955.000000	99.709971 
3954.000000	99.713960 
3953.000000	99.717271 
3952.000000	99.719453 
3951.000000	99.720932 
3950.000000	99.721767 
3949.000000	99.721211 
3948.000000	99.718584 
3947.000000	99.714437 
3946.000000	99.710496 
3945.000000	99.708407 
3944.000000	99.708526 
3943.000000	99.709994 
3942.000000	99.711570 
3941.000000	99.712274 
3940.000000	99.711765 
3939.000000	99.710477 
3938.000000	99.709195 
3937.000000	99.708553 
3936.000000	99.708736 
3935.000000	99.709544 
3934.000000	99.710632 
3933.000000	99.711735 
3932.000000	99.713089 
3931.000000	99.715455 
3930.000000	99.719286 
3929.000000	99.723526 
3928.000000	99.725628 
3927.000000	99.723671 
3926.000000	99.718536 
3925.000000	99.713668 
3924.000000	99.712099 
3923.000000	99.713600 
3922.000000	99.715481 
3921.000000	99.715592 
3920.000000	99.713880 
3919.000000	99.711677 
3918.000000	99.710069 
3917.000000	99.709163 
3916.000000	99.708584 
3915.000000	99.708099 
3914.000000	99.707643 
3913.000000	99.707046 
3912.000000	99.706024 
3911.000000	99.704626 
3910.000000	99.703444 
3909.000000	99.703520 
3908.000000	99.705678 
3907.000000	99.709978 
3906.000000	99.715759 
3905.000000	99.722113 
3904.000000	99.728253 
3903.000000	99.732945 
3902.000000	99.734239 
3901.000000	99.731233 
3900.000000	99.725300 
3899.000000	99.718985 
3898.000000	99.713770 
3897.000000	99.709272 
3896.000000	99.704902 
3895.000000	99.701274 
3894.000000	99.699727 
3893.000000	99.701516 
3892.000000	99.707321 
3891.000000	99.716700 
3890.000000	99.727086 
3889.000000	99.734677 
3888.000000	99.736711 
3887.000000	99.732619 
3886.000000	99.725207 
3885.000000	99.719608 
3884.000000	99.718358 
3883.000000	99.719294 
3882.000000	99.718788 
3881.000000	99.715878 
3880.000000	99.713195 
3879.000000	99.713263 
3878.000000	99.715014 
3877.000000	99.715486 
3876.000000	99.712908 
3875.000000	99.708974 
3874.000000	99.708124 
3873.000000	99.712488 
3872.000000	99.718344 
3871.000000	99.719842 
3870.000000	99.716379 
3869.000000	99.713335 
3868.000000	99.714499 
3867.000000	99.718520 
3866.000000	99.721719 
3865.000000	99.721635 
3864.000000	99.719706 
3863.000000	99.719350 
3862.000000	99.721542 
3861.000000	99.723778 
3860.000000	99.722471 
3859.000000	99.716304 
3858.000000	99.707948 
3857.000000	99.702497 
3856.000000	99.703868 
3855.000000	99.710778 
3854.000000	99.718441 
3853.000000	99.725620 
3852.000000	99.732365 
3851.000000	99.736384 
3850.000000	99.737404 
3849.000000	99.736518 
3848.000000	99.734300 
3847.000000	99.730971 
3846.000000	99.727006 
3845.000000	99.723568 
3844.000000	99.721991 
3843.000000	99.722251 
3842.000000	99.723110 
3841.000000	99.724266 
3840.000000	99.727026 
3839.000000	99.732777 
3838.000000	99.740324 
3837.000000	99.745386 
3836.000000	99.744230 
3835.000000	99.736838 
3834.000000	99.726817 
3833.000000	99.718756 
3832.000000	99.715498 
3831.000000	99.716860 
3830.000000	99.720088 
3829.000000	99.721821 
3828.000000	99.720590 
3827.000000	99.718036 
3826.000000	99.717550 
3825.000000	99.721253 
3824.000000	99.727915 
3823.000000	99.732964 
3822.000000	99.732385 
3821.000000	99.728779 
3820.000000	99.728155 
3819.000000	99.730717 
3818.000000	99.732497 
3817.000000	99.730820 
3816.000000	99.726842 
3815.000000	99.723859 
3814.000000	99.722693 
3813.000000	99.721385 
3812.000000	99.718297 
3811.000000	99.713711 
3810.000000	99.709528 
3809.000000	99.707918 
3808.000000	99.710200 
3807.000000	99.716221 
3806.000000	99.723840 
3805.000000	99.729316 
3804.000000	99.729550 
3803.000000	99.723621 
3802.000000	99.714108 
3801.000000	99.706911 
3800.000000	99.704549 
3799.000000	99.703710 
3798.000000	99.701363 
3797.000000	99.697978 
3796.000000	99.696265 
3795.000000	99.698152 
3794.000000	99.703255 
3793.000000	99.709665 
3792.000000	99.715118 
3791.000000	99.717732 
3790.000000	99.716963 
3789.000000	99.714239 
3788.000000	99.712209 
3787.000000	99.713098 
3786.000000	99.717529 
3785.000000	99.724515 
3784.000000	99.732160 
3783.000000	99.738356 
3782.000000	99.741230 
3781.000000	99.739716 
3780.000000	99.734514 
3779.000000	99.728224 
3778.000000	99.723029 
3777.000000	99.719123 
3776.000000	99.716161 
3775.000000	99.714610 
3774.000000	99.715289 
3773.000000	99.718022 
3772.000000	99.721132 
3771.000000	99.722638 
3770.000000	99.722451 
3769.000000	99.722474 
3768.000000	99.723561 
3767.000000	99.724855 
3766.000000	99.725680 
3765.000000	99.726471 
3764.000000	99.728058 
3763.000000	99.730557 
3762.000000	99.733201 
3761.000000	99.735024 
3760.000000	99.735860 
3759.000000	99.737027 
3758.000000	99.739850 
3757.000000	99.744045 
3756.000000	99.748423 
3755.000000	99.752145 
3754.000000	99.755382 
3753.000000	99.758882 
3752.000000	99.762543 
3751.000000	99.765106 
3750.000000	99.765101 
3749.000000	99.761791 
3748.000000	99.755616 
3747.000000	99.747870 
3746.000000	99.739672 
3745.000000	99.732607 
3744.000000	99.729664 
3743.000000	99.730418 
3742.000000	99.731298 
3741.000000	99.731723 
3740.000000	99.733349 
3739.000000	99.737307 
3738.000000	99.742529 
3737.000000	99.746358 
3736.000000	99.747528 
3735.000000	99.746765 
3734.000000	99.744763 
3733.000000	99.741656 
3732.000000	99.738709 
3731.000000	99.737549 
3730.000000	99.737921 
3729.000000	99.738401 
3728.000000	99.738350 
3727.000000	99.738879 
3726.000000	99.741731 
3725.000000	99.746136 
3724.000000	99.748035 
3723.000000	99.743763 
3722.000000	99.734805 
3721.000000	99.727197 
3720.000000	99.725722 
3719.000000	99.729922 
3718.000000	99.734893 
3717.000000	99.735683 
3716.000000	99.730943 
3715.000000	99.722601 
3714.000000	99.713163 
3713.000000	99.703978 
3712.000000	99.696554 
3711.000000	99.693654 
3710.000000	99.696173 
3709.000000	99.701136 
3708.000000	99.704208 
3707.000000	99.702946 
3706.000000	99.697609 
3705.000000	99.689816 
3704.000000	99.681094 
3703.000000	99.672875 
3702.000000	99.667363 
3701.000000	99.666338 
3700.000000	99.668221 
3699.000000	99.668502 
3698.000000	99.663736 
3697.000000	99.654438 
3696.000000	99.644837 
3695.000000	99.639546 
3694.000000	99.639824 
3693.000000	99.643162 
3692.000000	99.645797 
3691.000000	99.645314 
3690.000000	99.642000 
3689.000000	99.638509 
3688.000000	99.637074 
3687.000000	99.637302 
3686.000000	99.637821 
3685.000000	99.637572 
3684.000000	99.635715 
3683.000000	99.631872 
3682.000000	99.626561 
3681.000000	99.621040 
3680.000000	99.616328 
3679.000000	99.611810 
3678.000000	99.605281 
3677.000000	99.595208 
3676.000000	99.585849 
3675.000000	99.586822 
3674.000000	99.599168 
3673.000000	99.613407 
3672.000000	99.621794 
3671.000000	99.622083 
3670.000000	99.617536 
3669.000000	99.613504 
3668.000000	99.610251 
3667.000000	99.604405 
3666.000000	99.595214 
3665.000000	99.585476 
3664.000000	99.578851 
3663.000000	99.577289 
3662.000000	99.579964 
3661.000000	99.584560 
3660.000000	99.589258 
3659.000000	99.593168 
3658.000000	99.595905 
3657.000000	99.597871 
3656.000000	99.601037 
3655.000000	99.607252 
3654.000000	99.616358 
3653.000000	99.626813 
3652.000000	99.636154 
3651.000000	99.640476 
3650.000000	99.636439 
3649.000000	99.625207 
3648.000000	99.612362 
3647.000000	99.603239 
3646.000000	99.599560 
3645.000000	99.599907 
3644.000000	99.601650 
3643.000000	99.602901 
3642.000000	99.602912 
3641.000000	99.602236 
3640.000000	99.602544 
3639.000000	99.605995 
3638.000000	99.613783 
3637.000000	99.624215 
3636.000000	99.632959 
3635.000000	99.636026 
3634.000000	99.633276 
3633.000000	99.628553 
3632.000000	99.626162 
3631.000000	99.627459 
3630.000000	99.629736 
3629.000000	99.629866 
3628.000000	99.627983 
3627.000000	99.625157 
3626.000000	99.622501 
3625.000000	99.621469 
3624.000000	99.622064 
3623.000000	99.622433 
3622.000000	99.620705 
3621.000000	99.616588 
3620.000000	99.612272 
3619.000000	99.611711 
3618.000000	99.616993 
3617.000000	99.625763 
3616.000000	99.633872 
3615.000000	99.638255 
3614.000000	99.638272 
3613.000000	99.635815 
3612.000000	99.633336 
3611.000000	99.631893 
3610.000000	99.631404 
3609.000000	99.631322 
3608.000000	99.630906 
3607.000000	99.629671 
3606.000000	99.627893 
3605.000000	99.626945 
3604.000000	99.628045 
3603.000000	99.630575 
3602.000000	99.632900 
3601.000000	99.634493 
3600.000000	99.636828 
3599.000000	99.641327 
3598.000000	99.647093 
3597.000000	99.651234 
3596.000000	99.651495 
3595.000000	99.648194 
3594.000000	99.644601 
3593.000000	99.644959 
3592.000000	99.651481 
3591.000000	99.662817 
3590.000000	99.674063 
3589.000000	99.678915 
3588.000000	99.674534 
3587.000000	99.664851 
3586.000000	99.655918 
3585.000000	99.650087 
3584.000000	99.646316 
3583.000000	99.643025 
3582.000000	99.639341 
3581.000000	99.635202 
3580.000000	99.630958 
3579.000000	99.626676 
3578.000000	99.622071 
3577.000000	99.617293 
3576.000000	99.613702 
3575.000000	99.613136 
3574.000000	99.616171 
3573.000000	99.621633 
3572.000000	99.627617 
3571.000000	99.632526 
3570.000000	99.634890 
3569.000000	99.633161 
3568.000000	99.627699 
3567.000000	99.623164 
3566.000000	99.625024 
3565.000000	99.632897 
3564.000000	99.640882 
3563.000000	99.643259 
3562.000000	99.638794 
3561.000000	99.630941 
3560.000000	99.624348 
3559.000000	99.621100 
3558.000000	99.620181 
3557.000000	99.619939 
3556.000000	99.620024 
3555.000000	99.621035 
3554.000000	99.623075 
3553.000000	99.625394 
3552.000000	99.626982 
3551.000000	99.627085 
3550.000000	99.625434 
3549.000000	99.622626 
3548.000000	99.620219 
3547.000000	99.620103 
3546.000000	99.623005 
3545.000000	99.627557 
3544.000000	99.631207 
3543.000000	99.632206 
3542.000000	99.630632 
3541.000000	99.627872 
3540.000000	99.625456 
3539.000000	99.624372 
3538.000000	99.624764 
3537.000000	99.625696 
3536.000000	99.625407 
3535.000000	99.622370 
3534.000000	99.616831 
3533.000000	99.610993 
3532.000000	99.607421 
3531.000000	99.607120 
3530.000000	99.609268 
3529.000000	99.612783 
3528.000000	99.617629 
3527.000000	99.624187 
3526.000000	99.631513 
3525.000000	99.636939 
3524.000000	99.637896 
3523.000000	99.634371 
3522.000000	99.629090 
3521.000000	99.625077 
3520.000000	99.623175 
3519.000000	99.622092 
3518.000000	99.620348 
3517.000000	99.617760 
3516.000000	99.615364 
3515.000000	99.614415 
3514.000000	99.615720 
3513.000000	99.619145 
3512.000000	99.623328 
3511.000000	99.626195 
3510.000000	99.626673 
3509.000000	99.625725 
3508.000000	99.625198 
3507.000000	99.625598 
3506.000000	99.625298 
3505.000000	99.621928 
3504.000000	99.614800 
3503.000000	99.606625 
3502.000000	99.602467 
3501.000000	99.605951 
3500.000000	99.615641 
3499.000000	99.625362 
3498.000000	99.628866 
3497.000000	99.624993 
3496.000000	99.618196 
3495.000000	99.613591 
3494.000000	99.612126 
3493.000000	99.610964 
3492.000000	99.607702 
3491.000000	99.603049 
3490.000000	99.599705 
3489.000000	99.599527 
3488.000000	99.602203 
3487.000000	99.606133 
3486.000000	99.609981 
3485.000000	99.613400 
3484.000000	99.616752 
3483.000000	99.620260 
3482.000000	99.623240 
3481.000000	99.624179 
3480.000000	99.622079 
3479.000000	99.618019 
3478.000000	99.614692 
3477.000000	99.613695 
3476.000000	99.613574 
3475.000000	99.611534 
3474.000000	99.607320 
3473.000000	99.604231 
3472.000000	99.605618 
3471.000000	99.611100 
3470.000000	99.617098 
3469.000000	99.620555 
3468.000000	99.621001 
3467.000000	99.619408 
3466.000000	99.616435 
3465.000000	99.612454 
3464.000000	99.608322 
3463.000000	99.605072 
3462.000000	99.602931 
3461.000000	99.601264 
3460.000000	99.599579 
3459.000000	99.598329 
3458.000000	99.598500 
3457.000000	99.600425 
3456.000000	99.602995 
3455.000000	99.604204 
3454.000000	99.602993 
3453.000000	99.600409 
3452.000000	99.598704 
3451.000000	99.599217 
3450.000000	99.601484 
3449.000000	99.604227 
3448.000000	99.606468 
3447.000000	99.607514 
3446.000000	99.606812 
3445.000000	99.604607 
3444.000000	99.602328 
3443.000000	99.601492 
3442.000000	99.602283 
3441.000000	99.603753 
3440.000000	99.605254 
3439.000000	99.606836 
3438.000000	99.608223 
3437.000000	99.608237 
3436.000000	99.605910 
3435.000000	99.601914 
3434.000000	99.598515 
3433.000000	99.597781 
3432.000000	99.599835 
3431.000000	99.602680 
3430.000000	99.603684 
3429.000000	99.601387 
3428.000000	99.596163 
3427.000000	99.589572 
3426.000000	99.583406 
3425.000000	99.579293 
3424.000000	99.578504 
3423.000000	99.581417 
3422.000000	99.586836 
3421.000000	99.592191 
3420.000000	99.594959 
3419.000000	99.594437 
3418.000000	99.592232 
3417.000000	99.590786 
3416.000000	99.591109 
3415.000000	99.591877 
3414.000000	99.590785 
3413.000000	99.586888 
3412.000000	99.581668 
3411.000000	99.578017 
3410.000000	99.578116 
3409.000000	99.581775 
3408.000000	99.586331 
3407.000000	99.588452 
3406.000000	99.586685 
3405.000000	99.582518 
3404.000000	99.579044 
3403.000000	99.578687 
3402.000000	99.582089 
3401.000000	99.588239 
3400.000000	99.595025 
3399.000000	99.600127 
3398.000000	99.602495 
3397.000000	99.603106 
3396.000000	99.603700 
3395.000000	99.604833 
3394.000000	99.605749 
3393.000000	99.605801 
3392.000000	99.604982 
3391.000000	99.603063 
3390.000000	99.599390 
3389.000000	99.594163 
3388.000000	99.589110 
3387.000000	99.586148 
3386.000000	99.585644 
3385.000000	99.586421 
3384.000000	99.587206 
3383.000000	99.587637 
3382.000000	99.588078 
3381.000000	99.588827 
3380.000000	99.589606 
3379.000000	99.589817 
3378.000000	99.589513 
3377.000000	99.589942 
3376.000000	99.592484 
3375.000000	99.596898 
3374.000000	99.601181 
3373.000000	99.603386 
3372.000000	99.603168 
3371.000000	99.601414 
3370.000000	99.599177 
3369.000000	99.597486 
3368.000000	99.597396 
3367.000000	99.599114 
3366.000000	99.601178 
3365.000000	99.601441 
3364.000000	99.599231 
3363.000000	99.596151 
3362.000000	99.594499 
3361.000000	99.595010 
3360.000000	99.596157 
3359.000000	99.595623 
3358.000000	99.592676 
3357.000000	99.589177 
3356.000000	99.587941 
3355.000000	99.589889 
3354.000000	99.593156 
3353.000000	99.595363 
3352.000000	99.596293 
3351.000000	99.597862 
3350.000000	99.601713 
3349.000000	99.607450 
3348.000000	99.613110 
3347.000000	99.616797 
3346.000000	99.617860 
3345.000000	99.616985 
3344.000000	99.615341 
3343.000000	99.613366 
3342.000000	99.610608 
3341.000000	99.607120 
3340.000000	99.604551 
3339.000000	99.604710 
3338.000000	99.606791 
3337.000000	99.607217 
3336.000000	99.603318 
3335.000000	99.596801 
3334.000000	99.592542 
3333.000000	99.593855 
3332.000000	99.599535 
3331.000000	99.605543 
3330.000000	99.608969 
3329.000000	99.610034 
3328.000000	99.610823 
3327.000000	99.612675 
3326.000000	99.614932 
3325.000000	99.615909 
3324.000000	99.614970 
3323.000000	99.613508 
3322.000000	99.613561 
3321.000000	99.615368 
3320.000000	99.616731 
3319.000000	99.615353 
3318.000000	99.611656 
3317.000000	99.608623 
3316.000000	99.608686 
3315.000000	99.611330 
3314.000000	99.614065 
3313.000000	99.615327 
3312.000000	99.615836 
3311.000000	99.617264 
3310.000000	99.620112 
3309.000000	99.623184 
3308.000000	99.624990 
3307.000000	99.625392 
3306.000000	99.625544 
3305.000000	99.626093 
3304.000000	99.625892 
3303.000000	99.623210 
3302.000000	99.618310 
3301.000000	99.614013 
3300.000000	99.613184 
3299.000000	99.616106 
3298.000000	99.620758 
3297.000000	99.625043 
3296.000000	99.628065 
3295.000000	99.629766 
3294.000000	99.630568 
3293.000000	99.631484 
3292.000000	99.633502 
3291.000000	99.636268 
3290.000000	99.637973 
3289.000000	99.637086 
3288.000000	99.633945 
3287.000000	99.630325 
3286.000000	99.627674 
3285.000000	99.626065 
3284.000000	99.624769 
3283.000000	99.623547 
3282.000000	99.623085 
3281.000000	99.623997 
3280.000000	99.625521 
3279.000000	99.625908 
3278.000000	99.624559 
3277.000000	99.623241 
3276.000000	99.624387 
3275.000000	99.628289 
3274.000000	99.632663 
3273.000000	99.634900 
3272.000000	99.633942 
3271.000000	99.630088 
3270.000000	99.624216 
3269.000000	99.617874 
3268.000000	99.613410 
3267.000000	99.612967 
3266.000000	99.617049 
3265.000000	99.624059 
3264.000000	99.631217 
3263.000000	99.636238 
3262.000000	99.638687 
3261.000000	99.639836 
3260.000000	99.640797 
3259.000000	99.640941 
3258.000000	99.638665 
3257.000000	99.633631 
3256.000000	99.627544 
3255.000000	99.622679 
3254.000000	99.620377 
3253.000000	99.620959 
3252.000000	99.624088 
3251.000000	99.628617 
3250.000000	99.632874 
3249.000000	99.635716 
3248.000000	99.636913 
3247.000000	99.636245 
3246.000000	99.633117 
3245.000000	99.627779 
3244.000000	99.622380 
3243.000000	99.619974 
3242.000000	99.622504 
3241.000000	99.629775 
3240.000000	99.639470 
3239.000000	99.647754 
3238.000000	99.651116 
3237.000000	99.649087 
3236.000000	99.644936 
3235.000000	99.642622 
3234.000000	99.643096 
3233.000000	99.644288 
3232.000000	99.644385 
3231.000000	99.643894 
3230.000000	99.644388 
3229.000000	99.646200 
3228.000000	99.647720 
3227.000000	99.646436 
3226.000000	99.640758 
3225.000000	99.631754 
3224.000000	99.623352 
3223.000000	99.619934 
3222.000000	99.622999 
3221.000000	99.630283 
3220.000000	99.638024 
3219.000000	99.643542 
3218.000000	99.645741 
3217.000000	99.644589 
3216.000000	99.641157 
3215.000000	99.637561 
3214.000000	99.635708 
3213.000000	99.635971 
3212.000000	99.637601 
3211.000000	99.640187 
3210.000000	99.644023 
3209.000000	99.649113 
3208.000000	99.654538 
3207.000000	99.659096 
3206.000000	99.662197 
3205.000000	99.663918 
3204.000000	99.664511 
3203.000000	99.664227 
3202.000000	99.663618 
3201.000000	99.663711 
3200.000000	99.665350 
3199.000000	99.668025 
3198.000000	99.669609 
3197.000000	99.668082 
3196.000000	99.663831 
3195.000000	99.659610 
3194.000000	99.657724 
3193.000000	99.657731 
3192.000000	99.657664 
3191.000000	99.657092 
3190.000000	99.657857 
3189.000000	99.661554 
3188.000000	99.667234 
3187.000000	99.672190 
3186.000000	99.674342 
3185.000000	99.673320 
3184.000000	99.669785 
3183.000000	99.664764 
3182.000000	99.659657 
3181.000000	99.656044 
3180.000000	99.654898 
3179.000000	99.655975 
3178.000000	99.657953 
3177.000000	99.659074 
3176.000000	99.658062 
3175.000000	99.655241 
3174.000000	99.653001 
3173.000000	99.654342 
3172.000000	99.660090 
3171.000000	99.667564 
3170.000000	99.672680 
3169.000000	99.673692 
3168.000000	99.672638 
3167.000000	99.672985 
3166.000000	99.676100 
3165.000000	99.680276 
3164.000000	99.682850 
3163.000000	99.682797 
3162.000000	99.681298 
3161.000000	99.680370 
3160.000000	99.681323 
3159.000000	99.684140 
3158.000000	99.687675 
3157.000000	99.690318 
3156.000000	99.690919 
3155.000000	99.689497 
3154.000000	99.687113 
3153.000000	99.685013 
3152.000000	99.683815 
3151.000000	99.683229 
3150.000000	99.682254 
3149.000000	99.679914 
3148.000000	99.676480 
3147.000000	99.673988 
3146.000000	99.674659 
3145.000000	99.678292 
3144.000000	99.681990 
3143.000000	99.683366 
3142.000000	99.683467 
3141.000000	99.685328 
3140.000000	99.689879 
3139.000000	99.694714 
3138.000000	99.697235 
3137.000000	99.697575 
3136.000000	99.697489 
3135.000000	99.697493 
3134.000000	99.696555 
3133.000000	99.694290 
3132.000000	99.692056 
3131.000000	99.691553 
3130.000000	99.693231 
3129.000000	99.696382 
3128.000000	99.699968 
3127.000000	99.702811 
3126.000000	99.703707 
3125.000000	99.702331 
3124.000000	99.699974 
3123.000000	99.698636 
3122.000000	99.699173 
3121.000000	99.700810 
3120.000000	99.702555 
3119.000000	99.704293 
3118.000000	99.705970 
3117.000000	99.706447 
3116.000000	99.704474 
3115.000000	99.700812 
3114.000000	99.698034 
3113.000000	99.697501 
3112.000000	99.697658 
3111.000000	99.696442 
3110.000000	99.694512 
3109.000000	99.694297 
3108.000000	99.696002 
3107.000000	99.696565 
3106.000000	99.693565 
3105.000000	99.688732 
3104.000000	99.686193 
3103.000000	99.688111 
3102.000000	99.693291 
3101.000000	99.699371 
3100.000000	99.704629 
3099.000000	99.707703 
3098.000000	99.707498 
3097.000000	99.704521 
3096.000000	99.701512 
3095.000000	99.701615 
3094.000000	99.705791 
3093.000000	99.712106 
3092.000000	99.717207 
3091.000000	99.718478 
3090.000000	99.715649 
3089.000000	99.711092 
3088.000000	99.708371 
3087.000000	99.709697 
3086.000000	99.714261 
3085.000000	99.718977 
3084.000000	99.720939 
3083.000000	99.719469 
3082.000000	99.716195 
3081.000000	99.713465 
3080.000000	99.712593 
3079.000000	99.713289 
3078.000000	99.714297 
3077.000000	99.714368 
3076.000000	99.713041 
3075.000000	99.711067 
3074.000000	99.710087 
3073.000000	99.711321 
3072.000000	99.714427 
3071.000000	99.718010 
3070.000000	99.721082 
3069.000000	99.723156 
3068.000000	99.722922 
3067.000000	99.718441 
3066.000000	99.709897 
3065.000000	99.701286 
3064.000000	99.697658 
3063.000000	99.700491 
3062.000000	99.706706 
3061.000000	99.712109 
3060.000000	99.714909 
3059.000000	99.716042 
3058.000000	99.717301 
3057.000000	99.719700 
3056.000000	99.722922 
3055.000000	99.725668 
3054.000000	99.726697 
3053.000000	99.725746 
3052.000000	99.723532 
3051.000000	99.721153 
3050.000000	99.719651 
3049.000000	99.719541 
3048.000000	99.719991 
3047.000000	99.718859 
3046.000000	99.714615 
3045.000000	99.708343 
3044.000000	99.703067 
3043.000000	99.700842 
3042.000000	99.701070 
3041.000000	99.701649 
3040.000000	99.701078 
3039.000000	99.699378 
3038.000000	99.697761 
3037.000000	99.697671 
3036.000000	99.699424 
3035.000000	99.701399 
3034.000000	99.701154 
3033.000000	99.697798 
3032.000000	99.692799 
3031.000000	99.688128 
3030.000000	99.684018 
3029.000000	99.678969 
3028.000000	99.671631 
3027.000000	99.662312 
3026.000000	99.652866 
3025.000000	99.645297 
3024.000000	99.640131 
3023.000000	99.635848 
3022.000000	99.630076 
3021.000000	99.621669 
3020.000000	99.611701 
3019.000000	99.602601 
3018.000000	99.596368 
3017.000000	99.593222 
3016.000000	99.591313 
3015.000000	99.587833 
3014.000000	99.580988 
3013.000000	99.571085 
3012.000000	99.559373 
3011.000000	99.546103 
3010.000000	99.530562 
3009.000000	99.513135 
3008.000000	99.496462 
3007.000000	99.483961 
3006.000000	99.477276 
3005.000000	99.474987 
3004.000000	99.473091 
3003.000000	99.466963 
3002.000000	99.454311 
3001.000000	99.437394 
3000.000000	99.421777 
2999.000000	99.411755 
2998.000000	99.406933 
2997.000000	99.403870 
2996.000000	99.400490 
2995.000000	99.397324 
2994.000000	99.394034 
2993.000000	99.386687 
2992.000000	99.370810 
2991.000000	99.347297 
2990.000000	99.323578 
2989.000000	99.307756 
2988.000000	99.302117 
2987.000000	99.303163 
2986.000000	99.306834 
2985.000000	99.311970 
2984.000000	99.318773 
2983.000000	99.326137 
2982.000000	99.331926 
2981.000000	99.335013 
2980.000000	99.335868 
2979.000000	99.335409 
2978.000000	99.334187 
2977.000000	99.332494 
2976.000000	99.330455 
2975.000000	99.327993 
2974.000000	99.325172 
2973.000000	99.322443 
2972.000000	99.320138 
2971.000000	99.318120 
2970.000000	99.316586 
2969.000000	99.316848 
2968.000000	99.320450 
2967.000000	99.327421 
2966.000000	99.336008 
2965.000000	99.344222 
2964.000000	99.351351 
2963.000000	99.358128 
2962.000000	99.365753 
2961.000000	99.374443 
2960.000000	99.382653 
2959.000000	99.388305 
2958.000000	99.391409 
2957.000000	99.394628 
2956.000000	99.400047 
2955.000000	99.406021 
2954.000000	99.408975 
2953.000000	99.408663 
2952.000000	99.409867 
2951.000000	99.417637 
2950.000000	99.431470 
2949.000000	99.445280 
2948.000000	99.453063 
2947.000000	99.453987 
2946.000000	99.452047 
2945.000000	99.451405 
2944.000000	99.452697 
2943.000000	99.453744 
2942.000000	99.453011 
2941.000000	99.451259 
2940.000000	99.449738 
2939.000000	99.447976 
2938.000000	99.444428 
2937.000000	99.438916 
2936.000000	99.433430 
2935.000000	99.430484 
2934.000000	99.431158 
2933.000000	99.434457 
2932.000000	99.437886 
2931.000000	99.438940 
2930.000000	99.436863 
2929.000000	99.433039 
2928.000000	99.429229 
2927.000000	99.425768 
2926.000000	99.422099 
2925.000000	99.418479 
2924.000000	99.416181 
2923.000000	99.416217 
2922.000000	99.418676 
2921.000000	99.422859 
2920.000000	99.427112 
2919.000000	99.429118 
2918.000000	99.427818 
2917.000000	99.424947 
2916.000000	99.423445 
2915.000000	99.424354 
2914.000000	99.426393 
2913.000000	99.428411 
2912.000000	99.430627 
2911.000000	99.433115 
2910.000000	99.434642 
2909.000000	99.433870 
2908.000000	99.430833 
2907.000000	99.426416 
2906.000000	99.421071 
2905.000000	99.414594 
2904.000000	99.406766 
2903.000000	99.398022 
2902.000000	99.390268 
2901.000000	99.386871 
2900.000000	99.390893 
2899.000000	99.401841 
2898.000000	99.415202 
2897.000000	99.425846 
2896.000000	99.431864 
2895.000000	99.434968 
2894.000000	99.437938 
2893.000000	99.442189 
2892.000000	99.447257 
2891.000000	99.451760 
2890.000000	99.454804 
2889.000000	99.456702 
2888.000000	99.458321 
2887.000000	99.459979 
2886.000000	99.461541 
2885.000000	99.463426 
2884.000000	99.466645 
2883.000000	99.471644 
2882.000000	99.477926 
2881.000000	99.485067 
2880.000000	99.493307 
2879.000000	99.502822 
2878.000000	99.513184 
2877.000000	99.523795 
2876.000000	99.533903 
2875.000000	99.541768 
2874.000000	99.545042 
2873.000000	99.543169 
2872.000000	99.538895 
2871.000000	99.536361 
2870.000000	99.537823 
2869.000000	99.542672 
2868.000000	99.549244 
2867.000000	99.556778 
2866.000000	99.565799 
2865.000000	99.577101 
2864.000000	99.590216 
2863.000000	99.602520 
2862.000000	99.610449 
2861.000000	99.612496 
2860.000000	99.611031 
2859.000000	99.610523 
2858.000000	99.613738 
2857.000000	99.620002 
2856.000000	99.626926 
2855.000000	99.633206 
2854.000000	99.639317 
2853.000000	99.645805 
2852.000000	99.651783 
2851.000000	99.655956 
2850.000000	99.658990 
2849.000000	99.663632 
2848.000000	99.671573 
2847.000000	99.680935 
2846.000000	99.688075 
2845.000000	99.691483 
2844.000000	99.692730 
2843.000000	99.693922 
2842.000000	99.695952 
2841.000000	99.699349 
2840.000000	99.704744 
2839.000000	99.711313 
2838.000000	99.716173 
2837.000000	99.716958 
2836.000000	99.714518 
2835.000000	99.712143 
2834.000000	99.712583 
2833.000000	99.716506 
2832.000000	99.722879 
2831.000000	99.729552 
2830.000000	99.734013 
2829.000000	99.735129 
2828.000000	99.734456 
2827.000000	99.734894 
2826.000000	99.737768 
2825.000000	99.741654 
2824.000000	99.744148 
2823.000000	99.744342 
2822.000000	99.743607 
2821.000000	99.744295 
2820.000000	99.747573 
2819.000000	99.752284 
2818.000000	99.756110 
2817.000000	99.757979 
2816.000000	99.758830 
2815.000000	99.759875 
2814.000000	99.760922 
2813.000000	99.761018 
2812.000000	99.759976 
2811.000000	99.758336 
2810.000000	99.756357 
2809.000000	99.754175 
2808.000000	99.752736 
2807.000000	99.753398 
2806.000000	99.756301 
2805.000000	99.759925 
2804.000000	99.762624 
2803.000000	99.764121 
2802.000000	99.765300 
2801.000000	99.766840 
2800.000000	99.768337 
2799.000000	99.768689 
2798.000000	99.767407 
2797.000000	99.765540 
2796.000000	99.764934 
2795.000000	99.766289 
2794.000000	99.768326 
2793.000000	99.769200 
2792.000000	99.768331 
2791.000000	99.766496 
2790.000000	99.764749 
2789.000000	99.764030 
2788.000000	99.765279 
2787.000000	99.768808 
2786.000000	99.773533 
2785.000000	99.777673 
2784.000000	99.780273 
2783.000000	99.781347 
2782.000000	99.780790 
2781.000000	99.778329 
2780.000000	99.774837 
2779.000000	99.772514 
2778.000000	99.772917 
2777.000000	99.775388 
2776.000000	99.777964 
2775.000000	99.779331 
2774.000000	99.779350 
2773.000000	99.778334 
2772.000000	99.776739 
2771.000000	99.775373 
2770.000000	99.775101 
2769.000000	99.776235 
2768.000000	99.778607 
2767.000000	99.781980 
2766.000000	99.785743 
2765.000000	99.788447 
2764.000000	99.788682 
2763.000000	99.786853 
2762.000000	99.785388 
2761.000000	99.786585 
2760.000000	99.790479 
2759.000000	99.795026 
2758.000000	99.797985 
2757.000000	99.798363 
2756.000000	99.796715 
2755.000000	99.794703 
2754.000000	99.793955 
2753.000000	99.794550 
2752.000000	99.794786 
2751.000000	99.793181 
2750.000000	99.790446 
2749.000000	99.788551 
2748.000000	99.787905 
2747.000000	99.786745 
2746.000000	99.783777 
2745.000000	99.780314 
2744.000000	99.778900 
2743.000000	99.780477 
2742.000000	99.783818 
2741.000000	99.787253 
2740.000000	99.790023 
2739.000000	99.792178 
2738.000000	99.794097 
2737.000000	99.796186 
2736.000000	99.798385 
2735.000000	99.799869 
2734.000000	99.799717 
2733.000000	99.797904 
2732.000000	99.795267 
2731.000000	99.792655 
2730.000000	99.790640 
2729.000000	99.789858 
2728.000000	99.790936 
2727.000000	99.793903 
2726.000000	99.798050 
2725.000000	99.802366 
2724.000000	99.805841 
2723.000000	99.807652 
2722.000000	99.807686 
2721.000000	99.806852 
2720.000000	99.806285 
2719.000000	99.806173 
2718.000000	99.805778 
2717.000000	99.804617 
2716.000000	99.803268 
2715.000000	99.803017 
2714.000000	99.804891 
2713.000000	99.808677 
2712.000000	99.812528 
2711.000000	99.814056 
2710.000000	99.812603 
2709.000000	99.810075 
2708.000000	99.808752 
2707.000000	99.808588 
2706.000000	99.807675 
2705.000000	99.805225 
2704.000000	99.802849 
2703.000000	99.802499 
2702.000000	99.804094 
2701.000000	99.805652 
2700.000000	99.805271 
2699.000000	99.802661 
2698.000000	99.799220 
2697.000000	99.796894 
2696.000000	99.796697 
2695.000000	99.798250 
2694.000000	99.800868 
2693.000000	99.804409 
2692.000000	99.808335 
2691.000000	99.810640 
2690.000000	99.809310 
2689.000000	99.805093 
2688.000000	99.801492 
2687.000000	99.801396 
2686.000000	99.804501 
2685.000000	99.808368 
2684.000000	99.811011 
2683.000000	99.811953 
2682.000000	99.811696 
2681.000000	99.811042 
2680.000000	99.810468 
2679.000000	99.809598 
2678.000000	99.807697 
2677.000000	99.805045 
2676.000000	99.803249 
2675.000000	99.803677 
2674.000000	99.806065 
2673.000000	99.809011 
2672.000000	99.811308 
2671.000000	99.812361 
2670.000000	99.811844 
2669.000000	99.809628 
2668.000000	99.805905 
2667.000000	99.801195 
2666.000000	99.796568 
2665.000000	99.793849 
2664.000000	99.794774 
2663.000000	99.799288 
2662.000000	99.805007 
2661.000000	99.808848 
2660.000000	99.809152 
2659.000000	99.806315 
2658.000000	99.802057 
2657.000000	99.798474 
2656.000000	99.797262 
2655.000000	99.799116 
2654.000000	99.803520 
2653.000000	99.808854 
2652.000000	99.812655 
2651.000000	99.812679 
2650.000000	99.808928 
2649.000000	99.804401 
2648.000000	99.802547 
2647.000000	99.803852 
2646.000000	99.806040 
2645.000000	99.807560 
2644.000000	99.809148 
2643.000000	99.811522 
2642.000000	99.813556 
2641.000000	99.814093 
2640.000000	99.814224 
2639.000000	99.816111 
2638.000000	99.820222 
2637.000000	99.824858 
2636.000000	99.827837 
2635.000000	99.827775 
2634.000000	99.824661 
2633.000000	99.820330 
2632.000000	99.817451 
2631.000000	99.816728 
2630.000000	99.815864 
2629.000000	99.812648 
2628.000000	99.808310 
2627.000000	99.806304 
2626.000000	99.808396 
2625.000000	99.813600 
2624.000000	99.820290 
2623.000000	99.827137 
2622.000000	99.831899 
2621.000000	99.831694 
2620.000000	99.825799 
2619.000000	99.817186 
2618.000000	99.810285 
2617.000000	99.807495 
2616.000000	99.807947 
2615.000000	99.808973 
2614.000000	99.808611 
2613.000000	99.807274 
2612.000000	99.807117 
2611.000000	99.809352 
2610.000000	99.812517 
2609.000000	99.814257 
2608.000000	99.814564 
2607.000000	99.816091 
2606.000000	99.821012 
2605.000000	99.828344 
2604.000000	99.834622 
2603.000000	99.836623 
2602.000000	99.833530 
2601.000000	99.827324 
2600.000000	99.821462 
2599.000000	99.818726 
2598.000000	99.820074 
2597.000000	99.825150 
2596.000000	99.832651 
2595.000000	99.839487 
2594.000000	99.841247 
2593.000000	99.836095 
2592.000000	99.828205 
2591.000000	99.824949 
2590.000000	99.829563 
2589.000000	99.838031 
2588.000000	99.843947 
2587.000000	99.844723 
2586.000000	99.841650 
2585.000000	99.835862 
2584.000000	99.827302 
2583.000000	99.817656 
2582.000000	99.811278 
2581.000000	99.811220 
2580.000000	99.815397 
2579.000000	99.818415 
2578.000000	99.817092 
2577.000000	99.813019 
2576.000000	99.809852 
2575.000000	99.809629 
2574.000000	99.812220 
2573.000000	99.816755 
2572.000000	99.821781 
2571.000000	99.824563 
2570.000000	99.822424 
2569.000000	99.815858 
2568.000000	99.809298 
2567.000000	99.807523 
2566.000000	99.811323 
2565.000000	99.817218 
2564.000000	99.821140 
2563.000000	99.821669 
2562.000000	99.819946 
2561.000000	99.817760 
2560.000000	99.816535 
2559.000000	99.817262 
2558.000000	99.819751 
2557.000000	99.821617 
2556.000000	99.819725 
2555.000000	99.814166 
2554.000000	99.809973 
2553.000000	99.812711 
2552.000000	99.822057 
2551.000000	99.831644 
2550.000000	99.835989 
2549.000000	99.835730 
2548.000000	99.834742 
2547.000000	99.834142 
2546.000000	99.831697 
2545.000000	99.826288 
2544.000000	99.820194 
2543.000000	99.816643 
2542.000000	99.817010 
2541.000000	99.820672 
2540.000000	99.825779 
2539.000000	99.829682 
2538.000000	99.830121 
2537.000000	99.826670 
2536.000000	99.820321 
2535.000000	99.812165 
2534.000000	99.804094 
2533.000000	99.800078 
2532.000000	99.803755 
2531.000000	99.813872 
2530.000000	99.824436 
2529.000000	99.830696 
2528.000000	99.833260 
2527.000000	99.835334 
2526.000000	99.838092 
2525.000000	99.840646 
2524.000000	99.842806 
2523.000000	99.845375 
2522.000000	99.848138 
2521.000000	99.849454 
2520.000000	99.847992 
2519.000000	99.843947 
2518.000000	99.838717 
2517.000000	99.833943 
2516.000000	99.830403 
2515.000000	99.827549 
2514.000000	99.824899 
2513.000000	99.823746 
2512.000000	99.825724 
2511.000000	99.829276 
2510.000000	99.830074 
2509.000000	99.826734 
2508.000000	99.823966 
2507.000000	99.827254 
2506.000000	99.835445 
2505.000000	99.841425 
2504.000000	99.840069 
2503.000000	99.833062 
2502.000000	99.825665 
2501.000000	99.821364 
2500.000000	99.820785 
2499.000000	99.823704 
2498.000000	99.829862 
2497.000000	99.837978 
2496.000000	99.845398 
2495.000000	99.849241 
2494.000000	99.847796 
2493.000000	99.841056 
2492.000000	99.830544 
2491.000000	99.818961 
2490.000000	99.809596 
2489.000000	99.804935 
2488.000000	99.804815 
2487.000000	99.806258 
2486.000000	99.806384 
2485.000000	99.805822 
2484.000000	99.808159 
2483.000000	99.815409 
2482.000000	99.824996 
2481.000000	99.831991 
2480.000000	99.833619 
2479.000000	99.830780 
2478.000000	99.826067 
2477.000000	99.821699 
2476.000000	99.819050 
2475.000000	99.818716 
2474.000000	99.820487 
2473.000000	99.823803 
2472.000000	99.828561 
2471.000000	99.835105 
2470.000000	99.843152 
2469.000000	99.850683 
2468.000000	99.854127 
2467.000000	99.850441 
2466.000000	99.840056 
2465.000000	99.827818 
2464.000000	99.819751 
2463.000000	99.818072 
2462.000000	99.819825 
2461.000000	99.820743 
2460.000000	99.819693 
2459.000000	99.818850 
2458.000000	99.820440 
2457.000000	99.824355 
2456.000000	99.828582 
2455.000000	99.831006 
2454.000000	99.830802 
2453.000000	99.828642 
2452.000000	99.825748 
2451.000000	99.822702 
2450.000000	99.819423 
2449.000000	99.816157 
2448.000000	99.813778 
2447.000000	99.812973 
2446.000000	99.813858 
2445.000000	99.816590 
2444.000000	99.821389 
2443.000000	99.827520 
2442.000000	99.833150 
2441.000000	99.836922 
2440.000000	99.839024 
2439.000000	99.840108 
2438.000000	99.839930 
2437.000000	99.837816 
2436.000000	99.833809 
2435.000000	99.828456 
2434.000000	99.821945 
2433.000000	99.814467 
2432.000000	99.807292 
2431.000000	99.802672 
2430.000000	99.802457 
2429.000000	99.806944 
2428.000000	99.814903 
2427.000000	99.824305 
2426.000000	99.832930 
2425.000000	99.838400 
2424.000000	99.838228 
2423.000000	99.831135 
2422.000000	99.819287 
2421.000000	99.808424 
2420.000000	99.803975 
2419.000000	99.806649 
2418.000000	99.812732 
2417.000000	99.818435 
2416.000000	99.822427 
2415.000000	99.824343 
2414.000000	99.823391 
2413.000000	99.819900 
2412.000000	99.816462 
2411.000000	99.815501 
2410.000000	99.816335 
2409.000000	99.816282 
2408.000000	99.814406 
2407.000000	99.812811 
2406.000000	99.814126 
2405.000000	99.818748 
2404.000000	99.824756 
2403.000000	99.829819 
2402.000000	99.832754 
2401.000000	99.833532 
2400.000000	99.832295 
2399.000000	99.828962 
2398.000000	99.824103 
2397.000000	99.819563 
2396.000000	99.817231 
2395.000000	99.817308 
2394.000000	99.818672 
2393.000000	99.820634 
2392.000000	99.823094 
2391.000000	99.825224 
2390.000000	99.825800 
2389.000000	99.825297 
2388.000000	99.825947 
2387.000000	99.828897 
2386.000000	99.832721 
2385.000000	99.835659 
2384.000000	99.837897 
2383.000000	99.840430 
2382.000000	99.842944 
2381.000000	99.844309 
2380.000000	99.844226 
2379.000000	99.842834 
2378.000000	99.839526 
2377.000000	99.834327 
2376.000000	99.830103 
2375.000000	99.830733 
2374.000000	99.836285 
2373.000000	99.842258 
2372.000000	99.845055 
2371.000000	99.846426 
2370.000000	99.850677 
2369.000000	99.858459 
2368.000000	99.864839 
2367.000000	99.863399 
2366.000000	99.852343 
2365.000000	99.837819 
2364.000000	99.830383 
2363.000000	99.835651 
2362.000000	99.848481 
2361.000000	99.858068 
2360.000000	99.859013 
2359.000000	99.855056 
2358.000000	99.852351 
2357.000000	99.853260 
2356.000000	99.856798 
2355.000000	99.860861 
2354.000000	99.862362 
2353.000000	99.859800 
2352.000000	99.855602 
2351.000000	99.853666 
2350.000000	99.855057 
2349.000000	99.857571 
2348.000000	99.858898 
2347.000000	99.858507 
2346.000000	99.857257 
2345.000000	99.855752 
2344.000000	99.854037 
2343.000000	99.853059 
2342.000000	99.854367 
2341.000000	99.858455 
2340.000000	99.863467 
2339.000000	99.866506 
2338.000000	99.865630 
2337.000000	99.861663 
2336.000000	99.857879 
2335.000000	99.856999 
2334.000000	99.858990 
2333.000000	99.861730 
2332.000000	99.863021 
2331.000000	99.860771 
2330.000000	99.854636 
2329.000000	99.847461 
2328.000000	99.844486 
2327.000000	99.847992 
2326.000000	99.855084 
2325.000000	99.859996 
2324.000000	99.859135 
2323.000000	99.853758 
2322.000000	99.849464 
2321.000000	99.852061 
2320.000000	99.862207 
2319.000000	99.873796 
2318.000000	99.879228 
2317.000000	99.876023 
2316.000000	99.868220 
2315.000000	99.861152 
2314.000000	99.857261 
2313.000000	99.855744 
2312.000000	99.855573 
2311.000000	99.856913 
2310.000000	99.861189 
2309.000000	99.868680 
2308.000000	99.876411 
2307.000000	99.878801 
2306.000000	99.873037 
2305.000000	99.862454 
2304.000000	99.853014 
2303.000000	99.846539 
2302.000000	99.840703 
2301.000000	99.834682 
2300.000000	99.831310 
2299.000000	99.832126 
2298.000000	99.834585 
2297.000000	99.836137 
2296.000000	99.838615 
2295.000000	99.844745 
2294.000000	99.852517 
2293.000000	99.856172 
2292.000000	99.852820 
2291.000000	99.844946 
2290.000000	99.836717 
2289.000000	99.830234 
2288.000000	99.825800 
2287.000000	99.823406 
2286.000000	99.822716 
2285.000000	99.822801 
2284.000000	99.822784 
2283.000000	99.822226 
2282.000000	99.820274 
2281.000000	99.815449 
2280.000000	99.807599 
2279.000000	99.800433 
2278.000000	99.800626 
2277.000000	99.812208 
2276.000000	99.831127 
2275.000000	99.847322 
2274.000000	99.853667 
2273.000000	99.851451 
2272.000000	99.845437 
2271.000000	99.836217 
2270.000000	99.821946 
2269.000000	99.806440 
2268.000000	99.799492 
2267.000000	99.806928 
2266.000000	99.824037 
2265.000000	99.840630 
2264.000000	99.849717 
2263.000000	99.850510 
2262.000000	99.847468 
2261.000000	99.848453 
2260.000000	99.858848 
2259.000000	99.874005 
2258.000000	99.881406 
2257.000000	99.874271 
2256.000000	99.859650 
2255.000000	99.849156 
2254.000000	99.845577 
2253.000000	99.843930 
2252.000000	99.842329 
2251.000000	99.844522 
2250.000000	99.852201 
2249.000000	99.861050 
2248.000000	99.866053 
2247.000000	99.866366 
2246.000000	99.863844 
2245.000000	99.859556 
2244.000000	99.853353 
2243.000000	99.845260 
2242.000000	99.836514 
2241.000000	99.829670 
2240.000000	99.826708 
2239.000000	99.826206 
2238.000000	99.824016 
2237.000000	99.817986 
2236.000000	99.810038 
2235.000000	99.802355 
2234.000000	99.794645 
2233.000000	99.787602 
2232.000000	99.785666 
2231.000000	99.792541 
2230.000000	99.806140 
2229.000000	99.821560 
2228.000000	99.837017 
2227.000000	99.852620 
2226.000000	99.864824 
2225.000000	99.867186 
2224.000000	99.857348 
2223.000000	99.840477 
2222.000000	99.825854 
2221.000000	99.821389 
2220.000000	99.829098 
2219.000000	99.843099 
2218.000000	99.853903 
2217.000000	99.857695 
2216.000000	99.859747 
2215.000000	99.866023 
2214.000000	99.874250 
2213.000000	99.877119 
2212.000000	99.872118 
2211.000000	99.864042 
2210.000000	99.859441 
2209.000000	99.862281 
2208.000000	99.872826 
2207.000000	99.886453 
2206.000000	99.894933 
2205.000000	99.892905 
2204.000000	99.882455 
2203.000000	99.869127 
2202.000000	99.856442 
2201.000000	99.846873 
2200.000000	99.843100 
2199.000000	99.843077 
2198.000000	99.838248 
2197.000000	99.823573 
2196.000000	99.806909 
2195.000000	99.802027 
2194.000000	99.814234 
2193.000000	99.837885 
2192.000000	99.864337 
2191.000000	99.885365 
2190.000000	99.892445 
2189.000000	99.883005 
2188.000000	99.867326 
2187.000000	99.860420 
2186.000000	99.866596 
2185.000000	99.878899 
2184.000000	99.892075 
2183.000000	99.906388 
2182.000000	99.918844 
2181.000000	99.922371 
2180.000000	99.916998 
2179.000000	99.911495 
2178.000000	99.909847 
2177.000000	99.905016 
2176.000000	99.890672 
2175.000000	99.871690 
2174.000000	99.857555 
2173.000000	99.850874 
2172.000000	99.847373 
2171.000000	99.843202 
2170.000000	99.838444 
2169.000000	99.836764 
2168.000000	99.843614 
2167.000000	99.860697 
2166.000000	99.880435 
2165.000000	99.890723 
2164.000000	99.887754 
2163.000000	99.879562 
2162.000000	99.875773 
2161.000000	99.879858 
2160.000000	99.891651 
2159.000000	99.908523 
2158.000000	99.921393 
2157.000000	99.920161 
2156.000000	99.907497 
2155.000000	99.897337 
2154.000000	99.896595 
2153.000000	99.896790 
2152.000000	99.887455 
2151.000000	99.871239 
2150.000000	99.860860 
2149.000000	99.865723 
2148.000000	99.885198 
2147.000000	99.910320 
2146.000000	99.927731 
2145.000000	99.926745 
2144.000000	99.908623 
2143.000000	99.886576 
2142.000000	99.873024 
2141.000000	99.869219 
2140.000000	99.869344 
2139.000000	99.870092 
2138.000000	99.871080 
2137.000000	99.869383 
2136.000000	99.861028 
2135.000000	99.848510 
2134.000000	99.841413 
2133.000000	99.846777 
2132.000000	99.860557 
2131.000000	99.870211 
2130.000000	99.865654 
2129.000000	99.848555 
2128.000000	99.831352 
2127.000000	99.825479 
2126.000000	99.830173 
2125.000000	99.834967 
2124.000000	99.833612 
2123.000000	99.831597 
2122.000000	99.837086 
2121.000000	99.848158 
2120.000000	99.854384 
2119.000000	99.850108 
2118.000000	99.840757 
2117.000000	99.835018 
2116.000000	99.835247 
2115.000000	99.838023 
2114.000000	99.840610 
2113.000000	99.842892 
2112.000000	99.844182 
2111.000000	99.842187 
2110.000000	99.836285 
2109.000000	99.829659 
2108.000000	99.826540 
2107.000000	99.827953 
2106.000000	99.830759 
2105.000000	99.830093 
2104.000000	99.822606 
2103.000000	99.809084 
2102.000000	99.795408 
2101.000000	99.789553 
2100.000000	99.794833 
2099.000000	99.806066 
2098.000000	99.814765 
2097.000000	99.818518 
2096.000000	99.822203 
2095.000000	99.828267 
2094.000000	99.829710 
2093.000000	99.817645 
2092.000000	99.794825 
2091.000000	99.776542 
2090.000000	99.776295 
2089.000000	99.792581 
2088.000000	99.811314 
2087.000000	99.819971 
2086.000000	99.817393 
2085.000000	99.811100 
2084.000000	99.808017 
2083.000000	99.809043 
2082.000000	99.811547 
2081.000000	99.814759 
2080.000000	99.820837 
2079.000000	99.830755 
2078.000000	99.841336 
2077.000000	99.848315 
2076.000000	99.851623 
2075.000000	99.855482 
2074.000000	99.863095 
2073.000000	99.872835 
2072.000000	99.879835 
2071.000000	99.880055 
2070.000000	99.872952 
2069.000000	99.861972 
2068.000000	99.852591 
2067.000000	99.848110 
2066.000000	99.846850 
2065.000000	99.844549 
2064.000000	99.839726 
2063.000000	99.835253 
2062.000000	99.834712 
2061.000000	99.839179 
2060.000000	99.847629 
2059.000000	99.858262 
2058.000000	99.868431 
2057.000000	99.875102 
2056.000000	99.876897 
2055.000000	99.874963 
2054.000000	99.871491 
2053.000000	99.868651 
2052.000000	99.868855 
2051.000000	99.873603 
2050.000000	99.880609 
2049.000000	99.884001 
2048.000000	99.880242 
2047.000000	99.872803 
2046.000000	99.868085 
2045.000000	99.867810 
2044.000000	99.868452 
2043.000000	99.867572 
2042.000000	99.867125 
2041.000000	99.869535 
2040.000000	99.873576 
2039.000000	99.876761 
2038.000000	99.880133 
2037.000000	99.887491 
2036.000000	99.899409 
2035.000000	99.910402 
2034.000000	99.913310 
2033.000000	99.905221 
2032.000000	99.888236 
2031.000000	99.866586 
2030.000000	99.845758 
2029.000000	99.832386 
2028.000000	99.830196 
2027.000000	99.835931 
2026.000000	99.843175 
2025.000000	99.850323 
2024.000000	99.860702 
2023.000000	99.873552 
2022.000000	99.880025 
2021.000000	99.872626 
2020.000000	99.856334 
2019.000000	99.845238 
2018.000000	99.848093 
2017.000000	99.859799 
2016.000000	99.867614 
2015.000000	99.863900 
2014.000000	99.851545 
2013.000000	99.839372 
2012.000000	99.834043 
2011.000000	99.836146 
2010.000000	99.843393 
2009.000000	99.855183 
2008.000000	99.871128 
2007.000000	99.885944 
2006.000000	99.891173 
2005.000000	99.884752 
2004.000000	99.874877 
2003.000000	99.870540 
2002.000000	99.871290 
2001.000000	99.869527 
2000.000000	99.860349 
1999.000000	99.845674 
1998.000000	99.830709 
1997.000000	99.820770 
1996.000000	99.820131 
1995.000000	99.829570 
1994.000000	99.844070 
1993.000000	99.855186 
1992.000000	99.857558 
1991.000000	99.852591 
1990.000000	99.845867 
1989.000000	99.843419 
1988.000000	99.849566 
1987.000000	99.863958 
1986.000000	99.879868 
1985.000000	99.888887 
1984.000000	99.888999 
1983.000000	99.885815 
1982.000000	99.884919 
1981.000000	99.885401 
1980.000000	99.882251 
1979.000000	99.873142 
1978.000000	99.860772 
1977.000000	99.849247 
1976.000000	99.840148 
1975.000000	99.833688 
1974.000000	99.832999 
1973.000000	99.844438 
1972.000000	99.870777 
1971.000000	99.903849 
1970.000000	99.926537 
1969.000000	99.925293 
1968.000000	99.902370 
1967.000000	99.874528 
1966.000000	99.857858 
1965.000000	99.854733 
1964.000000	99.855971 
1963.000000	99.852422 
1962.000000	99.842388 
1961.000000	99.830180 
1960.000000	99.820891 
1959.000000	99.817759 
1958.000000	99.822533 
1957.000000	99.834694 
1956.000000	99.849483 
1955.000000	99.859442 
1954.000000	99.860230 
1953.000000	99.854312 
1952.000000	99.847334 
1951.000000	99.841608 
1950.000000	99.835367 
1949.000000	99.827714 
1948.000000	99.820897 
1947.000000	99.816050 
1946.000000	99.809328 
1945.000000	99.795583 
1944.000000	99.776154 
1943.000000	99.761328 
1942.000000	99.762463 
1941.000000	99.780056 
1940.000000	99.802004 
1939.000000	99.814890 
1938.000000	99.816024 
1937.000000	99.814666 
1936.000000	99.820494 
1935.000000	99.831745 
1934.000000	99.838268 
1933.000000	99.835584 
1932.000000	99.831138 
1931.000000	99.834204 
1930.000000	99.843839 
1929.000000	99.851001 
1928.000000	99.850313 
1927.000000	99.844851 
1926.000000	99.839956 
1925.000000	99.837473 
1924.000000	99.836916 
1923.000000	99.838863 
1922.000000	99.843915 
1921.000000	99.849635 
1920.000000	99.850582 
1919.000000	99.841496 
1918.000000	99.822168 
1917.000000	99.800468 
1916.000000	99.786945 
1915.000000	99.785621 
1914.000000	99.792530 
1913.000000	99.801056 
1912.000000	99.806970 
1911.000000	99.809155 
1910.000000	99.807796 
1909.000000	99.804673 
1908.000000	99.803978 
1907.000000	99.809116 
1906.000000	99.818508 
1905.000000	99.826618 
1904.000000	99.829107 
1903.000000	99.825839 
1902.000000	99.819093 
1901.000000	99.811351 
1900.000000	99.804671 
1899.000000	99.800315 
1898.000000	99.798696 
1897.000000	99.799961 
1896.000000	99.803787 
1895.000000	99.808002 
1894.000000	99.808852 
1893.000000	99.804961 
1892.000000	99.799677 
1891.000000	99.797518 
1890.000000	99.799207 
1889.000000	99.801622 
1888.000000	99.802501 
1887.000000	99.802273 
1886.000000	99.801780 
1885.000000	99.801549 
1884.000000	99.802667 
1883.000000	99.805631 
1882.000000	99.808437 
1881.000000	99.808417 
1880.000000	99.806144 
1879.000000	99.805517 
1878.000000	99.809830 
1877.000000	99.818835 
1876.000000	99.829148 
1875.000000	99.836268 
1874.000000	99.836665 
1873.000000	99.830085 
1872.000000	99.820194 
1871.000000	99.811385 
1870.000000	99.804872 
1869.000000	99.799018 
1868.000000	99.793929 
1867.000000	99.791925 
1866.000000	99.792532 
1865.000000	99.792133 
1864.000000	99.788026 
1863.000000	99.780689 
1862.000000	99.772954 
1861.000000	99.768613 
1860.000000	99.771204 
1859.000000	99.781388 
1858.000000	99.794686 
1857.000000	99.804283 
1856.000000	99.807583 
1855.000000	99.808029 
1854.000000	99.809685 
1853.000000	99.812062 
1852.000000	99.811528 
1851.000000	99.806929 
1850.000000	99.802127 
1849.000000	99.803002 
1848.000000	99.811368 
1847.000000	99.822577 
1846.000000	99.829543 
1845.000000	99.829144 
1844.000000	99.825532 
1843.000000	99.825106 
1842.000000	99.828447 
1841.000000	99.831798 
1840.000000	99.832405 
1839.000000	99.829831 
1838.000000	99.824860 
1837.000000	99.818743 
1836.000000	99.813199 
1835.000000	99.810033 
1834.000000	99.809938 
1833.000000	99.811696 
1832.000000	99.812307 
1831.000000	99.809099 
1830.000000	99.803380 
1829.000000	99.800847 
1828.000000	99.804728 
1827.000000	99.811510 
1826.000000	99.815185 
1825.000000	99.813555 
1824.000000	99.810011 
1823.000000	99.807860 
1822.000000	99.805742 
1821.000000	99.801742 
1820.000000	99.798669 
1819.000000	99.801603 
1818.000000	99.810199 
1817.000000	99.817404 
1816.000000	99.818142 
1815.000000	99.815491 
1814.000000	99.815328 
1813.000000	99.818922 
1812.000000	99.823430 
1811.000000	99.827445 
1810.000000	99.831733 
1809.000000	99.834955 
1808.000000	99.834122 
1807.000000	99.828619 
1806.000000	99.820939 
1805.000000	99.814385 
1804.000000	99.810828 
1803.000000	99.809541 
1802.000000	99.807561 
1801.000000	99.802228 
1800.000000	99.795127 
1799.000000	99.791302 
1798.000000	99.793535 
1797.000000	99.800261 
1796.000000	99.808639 
1795.000000	99.816487 
1794.000000	99.821662 
1793.000000	99.822200 
1792.000000	99.819244 
1791.000000	99.817468 
1790.000000	99.818711 
1789.000000	99.820504 
1788.000000	99.821432 
1787.000000	99.822848 
1786.000000	99.825696 
1785.000000	99.828004 
1784.000000	99.827356 
1783.000000	99.823905 
1782.000000	99.819432 
1781.000000	99.815240 
1780.000000	99.811847 
1779.000000	99.809135 
1778.000000	99.806982 
1777.000000	99.806065 
1776.000000	99.807454 
1775.000000	99.810735 
1774.000000	99.813847 
1773.000000	99.815456 
1772.000000	99.816258 
1771.000000	99.817860 
1770.000000	99.820108 
1769.000000	99.820741 
1768.000000	99.818035 
1767.000000	99.813329 
1766.000000	99.809686 
1765.000000	99.808364 
1764.000000	99.808317 
1763.000000	99.807896 
1762.000000	99.806698 
1761.000000	99.805598 
1760.000000	99.805266 
1759.000000	99.805720 
1758.000000	99.807712 
1757.000000	99.812932 
1756.000000	99.821234 
1755.000000	99.829004 
1754.000000	99.832824 
1753.000000	99.832609 
1752.000000	99.830408 
1751.000000	99.827047 
1750.000000	99.821798 
1749.000000	99.815901 
1748.000000	99.812516 
1747.000000	99.812914 
1746.000000	99.814727 
1745.000000	99.814923 
1744.000000	99.813195 
1743.000000	99.811788 
1742.000000	99.812268 
1741.000000	99.813307 
1740.000000	99.813479 
1739.000000	99.815055 
1738.000000	99.821194 
1737.000000	99.830374 
1736.000000	99.837956 
1735.000000	99.840115 
1734.000000	99.836296 
1733.000000	99.830724 
1732.000000	99.826642 
1731.000000	99.822461 
1730.000000	99.817186 
1729.000000	99.812961 
1728.000000	99.811707 
1727.000000	99.812470 
1726.000000	99.813364 
1725.000000	99.814074 
1724.000000	99.815314 
1723.000000	99.816961 
1722.000000	99.818076 
1721.000000	99.818068 
1720.000000	99.818023 
1719.000000	99.820628 
1718.000000	99.826755 
1717.000000	99.830660 
1716.000000	99.829069 
1715.000000	99.826964 
1714.000000	99.827208 
1713.000000	99.827671 
1712.000000	99.826308 
1711.000000	99.823419 
1710.000000	99.820552 
1709.000000	99.818695 
1708.000000	99.817930 
1707.000000	99.818274 
1706.000000	99.818874 
1705.000000	99.818027 
1704.000000	99.816195 
1703.000000	99.815881 
1702.000000	99.817757 
1701.000000	99.819660 
1700.000000	99.819217 
1699.000000	99.821353 
1698.000000	99.827531 
1697.000000	99.830315 
1696.000000	99.824695 
1695.000000	99.816325 
1694.000000	99.812671 
1693.000000	99.812883 
1692.000000	99.813782 
1691.000000	99.814206 
1690.000000	99.814533 
1689.000000	99.815629 
1688.000000	99.818684 
1687.000000	99.824707 
1686.000000	99.832576 
1685.000000	99.837249 
1684.000000	99.831968 
1683.000000	99.821075 
1682.000000	99.812914 
1681.000000	99.809078 
1680.000000	99.808038 
1679.000000	99.808348 
1678.000000	99.808021 
1677.000000	99.805426 
1676.000000	99.801192 
1675.000000	99.798185 
1674.000000	99.799354 
1673.000000	99.804404 
1672.000000	99.810768 
1671.000000	99.815833 
1670.000000	99.817163 
1669.000000	99.814582 
1668.000000	99.811147 
1667.000000	99.808420 
1666.000000	99.805833 
1665.000000	99.802788 
1664.000000	99.800034 
1663.000000	99.799168 
1662.000000	99.800669 
1661.000000	99.803900 
1660.000000	99.808277 
1659.000000	99.812114 
1658.000000	99.813230 
1657.000000	99.811015 
1656.000000	99.807365 
1655.000000	99.804398 
1654.000000	99.803488 
1653.000000	99.803317 
1652.000000	99.805213 
1651.000000	99.809237 
1650.000000	99.812918 
1649.000000	99.814060 
1648.000000	99.812513 
1647.000000	99.808432 
1646.000000	99.803519 
1645.000000	99.801051 
1644.000000	99.802530 
1643.000000	99.806745 
1642.000000	99.810599 
1641.000000	99.811033 
1640.000000	99.807966 
1639.000000	99.803763 
1638.000000	99.800518 
1637.000000	99.799572 
1636.000000	99.802125 
1635.000000	99.806628 
1634.000000	99.809584 
1633.000000	99.809192 
1632.000000	99.805854 
1631.000000	99.801090 
1630.000000	99.796511 
1629.000000	99.793448 
1628.000000	99.792873 
1627.000000	99.794221 
1626.000000	99.795420 
1625.000000	99.795000 
1624.000000	99.793638 
1623.000000	99.792976 
1622.000000	99.793976 
1621.000000	99.796910 
1620.000000	99.801160 
1619.000000	99.805010 
1618.000000	99.806548 
1617.000000	99.806087 
1616.000000	99.807195 
1615.000000	99.810873 
1614.000000	99.814182 
1613.000000	99.815933 
1612.000000	99.817515 
1611.000000	99.819623 
1610.000000	99.820070 
1609.000000	99.817178 
1608.000000	99.812885 
1607.000000	99.810098 
1606.000000	99.809862 
1605.000000	99.811960 
1604.000000	99.815736 
1603.000000	99.819465 
1602.000000	99.821654 
1601.000000	99.823097 
1600.000000	99.825428 
1599.000000	99.828261 
1598.000000	99.830055 
1597.000000	99.830826 
1596.000000	99.831793 
1595.000000	99.832721 
1594.000000	99.832057 
1593.000000	99.830345 
1592.000000	99.830476 
1591.000000	99.833749 
1590.000000	99.838276 
1589.000000	99.842163 
1588.000000	99.845629 
1587.000000	99.848906 
1586.000000	99.850982 
1585.000000	99.851644 
1584.000000	99.852152 
1583.000000	99.852773 
1582.000000	99.851966 
1581.000000	99.849695 
1580.000000	99.847925 
1579.000000	99.847308 
1578.000000	99.846327 
1577.000000	99.844575 
1576.000000	99.843938 
1575.000000	99.844589 
1574.000000	99.844717 
1573.000000	99.844247 
1572.000000	99.844150 
1571.000000	99.845023 
1570.000000	99.846186 
1569.000000	99.847519 
1568.000000	99.849812 
1567.000000	99.851415 
1566.000000	99.850228 
1565.000000	99.847006 
1564.000000	99.844513 
1563.000000	99.843879 
1562.000000	99.843518 
1561.000000	99.842996 
1560.000000	99.844381 
1559.000000	99.843693 
1558.000000	99.837646 
1557.000000	99.838090 
1556.000000	99.845271 
1555.000000	99.851618 
1554.000000	99.852836 
1553.000000	99.849928 
1552.000000	99.845599 
1551.000000	99.841508 
1550.000000	99.839324 
1549.000000	99.840863 
1548.000000	99.844861 
1547.000000	99.846696 
1546.000000	99.842270 
1545.000000	99.832534 
1544.000000	99.824524 
1543.000000	99.825605 
1542.000000	99.836794 
1541.000000	99.851430 
1540.000000	99.859668 
1539.000000	99.859237 
1538.000000	99.856137 
1537.000000	99.854463 
1536.000000	99.854423 
1535.000000	99.854331 
1534.000000	99.850841 
1533.000000	99.842554 
1532.000000	99.834712 
1531.000000	99.832247 
1530.000000	99.833368 
1529.000000	99.833858 
1528.000000	99.832801 
1527.000000	99.832837 
1526.000000	99.835745 
1525.000000	99.839665 
1524.000000	99.842813 
1523.000000	99.845872 
1522.000000	99.848927 
1521.000000	99.849074 
1520.000000	99.845361 
1519.000000	99.839251 
1518.000000	99.831015 
1517.000000	99.821649 
1516.000000	99.815187 
1515.000000	99.814454 
1514.000000	99.817305 
1513.000000	99.819780 
1512.000000	99.819650 
1511.000000	99.817282 
1510.000000	99.813946 
1509.000000	99.810892 
1508.000000	99.811469 
1507.000000	99.820215 
1506.000000	99.832344 
1505.000000	99.837667 
1504.000000	99.836160 
1503.000000	99.832804 
1502.000000	99.829896 
1501.000000	99.826964 
1500.000000	99.823052 
1499.000000	99.819446 
1498.000000	99.818390 
1497.000000	99.817758 
1496.000000	99.813580 
1495.000000	99.808955 
1494.000000	99.809016 
1493.000000	99.812681 
1492.000000	99.815329 
1491.000000	99.814115 
1490.000000	99.810055 
1489.000000	99.805262 
1488.000000	99.801324 
1487.000000	99.799723 
1486.000000	99.799259 
1485.000000	99.797267 
1484.000000	99.793186 
1483.000000	99.788736 
1482.000000	99.786387 
1481.000000	99.787207 
1480.000000	99.789857 
1479.000000	99.791915 
1478.000000	99.791233 
1477.000000	99.787472 
1476.000000	99.783608 
1475.000000	99.784397 
1474.000000	99.790054 
1473.000000	99.794465 
1472.000000	99.792772 
1471.000000	99.788733 
1470.000000	99.786399 
1469.000000	99.784560 
1468.000000	99.781465 
1467.000000	99.778330 
1466.000000	99.777385 
1465.000000	99.778385 
1464.000000	99.779841 
1463.000000	99.781409 
1462.000000	99.782683 
1461.000000	99.781959 
1460.000000	99.778034 
1459.000000	99.770981 
1458.000000	99.761316 
1457.000000	99.749058 
1456.000000	99.737060 
1455.000000	99.730679 
1454.000000	99.730996 
1453.000000	99.735751 
1452.000000	99.742881 
1451.000000	99.750520 
1450.000000	99.756100 
1449.000000	99.756573 
1448.000000	99.751638 
1447.000000	99.746389 
1446.000000	99.746072 
1445.000000	99.750175 
1444.000000	99.755261 
1443.000000	99.759253 
1442.000000	99.762303 
1441.000000	99.764890 
1440.000000	99.766511 
1439.000000	99.766555 
1438.000000	99.765677 
1437.000000	99.764489 
1436.000000	99.762578 
1435.000000	99.761086 
1434.000000	99.761061 
1433.000000	99.760618 
1432.000000	99.757656 
1431.000000	99.752412 
1430.000000	99.747683 
1429.000000	99.745857 
1428.000000	99.746380 
1427.000000	99.747309 
1426.000000	99.747207 
1425.000000	99.745961 
1424.000000	99.743968 
1423.000000	99.740846 
1422.000000	99.735577 
1421.000000	99.726402 
1420.000000	99.712866 
1419.000000	99.699471 
1418.000000	99.693710 
1417.000000	99.694606 
1416.000000	99.693737 
1415.000000	99.686740 
1414.000000	99.675900 
1413.000000	99.665501 
1412.000000	99.657289 
1411.000000	99.650581 
1410.000000	99.644903 
1409.000000	99.640110 
1408.000000	99.635991 
1407.000000	99.633503 
1406.000000	99.634048 
1405.000000	99.637671 
1404.000000	99.643282 
1403.000000	99.650962 
1402.000000	99.661744 
1401.000000	99.674327 
1400.000000	99.684721 
1399.000000	99.688993 
1398.000000	99.685803 
1397.000000	99.673932 
1396.000000	99.652236 
1395.000000	99.627818 
1394.000000	99.617758 
1393.000000	99.632301 
1392.000000	99.662484 
1391.000000	99.691736 
1390.000000	99.710037 
1389.000000	99.716541 
1388.000000	99.714931 
1387.000000	99.709299 
1386.000000	99.703431 
1385.000000	99.699958 
1384.000000	99.698856 
1383.000000	99.698130 
1382.000000	99.696383 
1381.000000	99.694395 
1380.000000	99.694670 
1379.000000	99.699183 
1378.000000	99.707275 
1377.000000	99.716021 
1376.000000	99.722654 
1375.000000	99.726837 
1374.000000	99.731088 
1373.000000	99.738394 
1372.000000	99.748596 
1371.000000	99.758635 
1370.000000	99.765755 
1369.000000	99.770044 
1368.000000	99.773289 
1367.000000	99.776619 
1366.000000	99.780321 
1365.000000	99.784691 
1364.000000	99.790034 
1363.000000	99.795858 
1362.000000	99.800838 
1361.000000	99.804431 
1360.000000	99.807597 
1359.000000	99.811800 
1358.000000	99.817822 
1357.000000	99.824999 
1356.000000	99.831192 
1355.000000	99.834716 
1354.000000	99.836622 
1353.000000	99.839522 
1352.000000	99.844020 
1351.000000	99.847937 
1350.000000	99.849265 
1349.000000	99.849542 
1348.000000	99.851373 
1347.000000	99.854028 
1346.000000	99.854492 
1345.000000	99.852231 
1344.000000	99.849851 
1343.000000	99.849134 
1342.000000	99.849227 
1341.000000	99.849313 
1340.000000	99.850399 
1339.000000	99.853168 
1338.000000	99.856472 
1337.000000	99.859375 
1336.000000	99.862318 
1335.000000	99.865242 
1334.000000	99.866477 
1333.000000	99.864897 
1332.000000	99.861999 
1331.000000	99.860344 
1330.000000	99.860652 
1329.000000	99.861859 
1328.000000	99.863154 
1327.000000	99.864469 
1326.000000	99.865500 
1325.000000	99.865978 
1324.000000	99.866101 
1323.000000	99.866130 
1322.000000	99.866018 
1321.000000	99.865984 
1320.000000	99.866947 
1319.000000	99.869601 
1318.000000	99.873009 
1317.000000	99.874734 
1316.000000	99.872957 
1315.000000	99.868486 
1314.000000	99.864441 
1313.000000	99.863416 
1312.000000	99.864894 
1311.000000	99.866069 
1310.000000	99.865198 
1309.000000	99.863152 
1308.000000	99.861471 
1307.000000	99.860150 
1306.000000	99.858264 
1305.000000	99.856340 
1304.000000	99.856135 
1303.000000	99.858209 
1302.000000	99.860949 
1301.000000	99.862342 
1300.000000	99.861876 
1299.000000	99.860569 
1298.000000	99.859937 
1297.000000	99.860950 
1296.000000	99.863254 
1295.000000	99.865006 
1294.000000	99.864229 
1293.000000	99.860553 
1292.000000	99.855324 
1291.000000	99.850235 
1290.000000	99.846480 
1289.000000	99.844873 
1288.000000	99.845573 
1287.000000	99.847295 
1286.000000	99.847800 
1285.000000	99.845744 
1284.000000	99.841540 
1283.000000	99.836354 
1282.000000	99.831080 
1281.000000	99.826451 
1280.000000	99.823135 
1279.000000	99.820898 
1278.000000	99.818537 
1277.000000	99.815375 
1276.000000	99.812178 
1275.000000	99.809686 
1274.000000	99.807014 
1273.000000	99.802698 
1272.000000	99.796971 
1271.000000	99.791787 
1270.000000	99.788443 
1269.000000	99.786114 
1268.000000	99.782854 
1267.000000	99.777229 
1266.000000	99.769036 
1265.000000	99.759196 
1264.000000	99.749337 
1263.000000	99.740903 
1262.000000	99.734223 
1261.000000	99.728706 
1260.000000	99.724016 
1259.000000	99.720294 
1258.000000	99.717252 
1257.000000	99.714009 
1256.000000	99.710448 
1255.000000	99.707839 
1254.000000	99.707074 
1253.000000	99.706826 
1252.000000	99.704903 
1251.000000	99.701453 
1250.000000	99.699445 
1249.000000	99.701381 
1248.000000	99.706495 
1247.000000	99.711654 
1246.000000	99.713752 
1245.000000	99.710287 
1244.000000	99.699613 
1243.000000	99.683589 
1242.000000	99.669441 
1241.000000	99.665345 
1240.000000	99.672500 
1239.000000	99.683301 
1238.000000	99.688794 
1237.000000	99.686669 
1236.000000	99.680711 
1235.000000	99.674556 
1234.000000	99.668682 
1233.000000	99.662433 
1232.000000	99.655672 
1231.000000	99.647920 
1230.000000	99.638477 
1229.000000	99.628558 
1228.000000	99.621517 
1227.000000	99.619476 
1226.000000	99.620686 
1225.000000	99.621392 
1224.000000	99.619541 
1223.000000	99.615561 
1222.000000	99.610426 
1221.000000	99.604515 
1220.000000	99.598220 
1219.000000	99.592180 
1218.000000	99.586337 
1217.000000	99.579422 
1216.000000	99.570002 
1215.000000	99.557893 
1214.000000	99.544216 
1213.000000	99.530028 
1212.000000	99.515253 
1211.000000	99.499489 
1210.000000	99.483686 
1209.000000	99.470115 
1208.000000	99.460080 
1207.000000	99.452200 
1206.000000	99.443724 
1205.000000	99.433227 
1204.000000	99.421174 
1203.000000	99.408362 
1202.000000	99.395176 
1201.000000	99.382287 
1200.000000	99.370450 
1199.000000	99.359131 
1198.000000	99.346720 
1197.000000	99.332558 
1196.000000	99.317422 
1195.000000	99.301607 
1194.000000	99.284143 
1193.000000	99.264803 
1192.000000	99.245216 
1191.000000	99.226767 
1190.000000	99.208843 
1189.000000	99.190596 
1188.000000	99.173001 
1187.000000	99.157425 
1186.000000	99.143238 
1185.000000	99.128679 
1184.000000	99.113144 
1183.000000	99.096850 
1182.000000	99.079239 
1181.000000	99.059740 
1180.000000	99.039229 
1179.000000	99.018596 
1178.000000	98.996772 
1177.000000	98.972588 
1176.000000	98.947642 
1175.000000	98.924217 
1174.000000	98.900712 
1173.000000	98.872750 
1172.000000	98.839576 
1171.000000	98.806308 
1170.000000	98.778571 
1169.000000	98.757109 
1168.000000	98.738785 
1167.000000	98.720808 
1166.000000	98.703070 
1165.000000	98.688364 
1164.000000	98.681255 
1163.000000	98.684838 
1162.000000	98.697530 
1161.000000	98.714432 
1160.000000	98.731746 
1159.000000	98.747460 
1158.000000	98.757761 
1157.000000	98.756464 
1156.000000	98.740304 
1155.000000	98.713266 
1154.000000	98.683989 
1153.000000	98.659452 
1152.000000	98.641451 
1151.000000	98.627048 
1150.000000	98.611125 
1149.000000	98.590374 
1148.000000	98.566460 
1147.000000	98.544352 
1146.000000	98.526670 
1145.000000	98.510911 
1144.000000	98.492936 
1143.000000	98.471461 
1142.000000	98.448312 
1141.000000	98.426235 
1140.000000	98.407754 
1139.000000	98.394180 
1138.000000	98.383719 
1137.000000	98.371735 
1136.000000	98.354731 
1135.000000	98.333489 
1134.000000	98.311128 
1133.000000	98.288935 
1132.000000	98.265661 
1131.000000	98.240576 
1130.000000	98.215704 
1129.000000	98.194341 
1128.000000	98.177250 
1127.000000	98.160550 
1126.000000	98.138535 
1125.000000	98.109844 
1124.000000	98.079791 
1123.000000	98.054720 
1122.000000	98.034709 
1121.000000	98.014261 
1120.000000	97.989736 
1119.000000	97.962939 
1118.000000	97.937099 
1117.000000	97.912720 
1116.000000	97.888814 
1115.000000	97.865324 
1114.000000	97.842464 
1113.000000	97.819743 
1112.000000	97.797135 
1111.000000	97.775132 
1110.000000	97.752363 
1109.000000	97.725680 
1108.000000	97.694494 
1107.000000	97.663108 
1106.000000	97.636304 
1105.000000	97.613932 
1104.000000	97.592079 
1103.000000	97.568452 
1102.000000	97.544486 
1101.000000	97.522845 
1100.000000	97.504382 
1099.000000	97.488431 
1098.000000	97.473865 
1097.000000	97.460206 
1096.000000	97.447376 
1095.000000	97.434317 
1094.000000	97.418502 
1093.000000	97.397710 
1092.000000	97.371732 
1091.000000	97.341491 
1090.000000	97.307661 
1089.000000	97.271855 
1088.000000	97.237931 
1087.000000	97.209342 
1086.000000	97.185428 
1085.000000	97.162873 
1084.000000	97.140496 
1083.000000	97.119699 
1082.000000	97.100335 
1081.000000	97.079513 
1080.000000	97.055229 
1079.000000	97.028536 
1078.000000	97.001715 
1077.000000	96.976959 
1076.000000	96.957098 
1075.000000	96.944520 
1074.000000	96.938357 
1073.000000	96.934702 
1072.000000	96.928987 
1071.000000	96.915271 
1070.000000	96.884999 
1069.000000	96.832810 
1068.000000	96.765727 
1067.000000	96.702210 
1066.000000	96.658178 
1065.000000	96.635114 
1064.000000	96.622727 
1063.000000	96.609201 
1062.000000	96.586516 
1061.000000	96.550550 
1060.000000	96.502015 
1059.000000	96.447735 
1058.000000	96.397488 
1057.000000	96.357538 
1056.000000	96.327198 
1055.000000	96.301098 
1054.000000	96.274279 
1053.000000	96.245791 
1052.000000	96.217889 
1051.000000	96.191640 
1050.000000	96.164270 
1049.000000	96.132018 
1048.000000	96.094500 
1047.000000	96.054919 
1046.000000	96.017218 
1045.000000	95.983995 
1044.000000	95.955127 
1043.000000	95.926969 
1042.000000	95.895363 
1041.000000	95.861395 
1040.000000	95.831680 
1039.000000	95.810931 
1038.000000	95.797297 
1037.000000	95.787387 
1036.000000	95.781595 
1035.000000	95.780376 
1034.000000	95.779459 
1033.000000	95.774121 
1032.000000	95.764791 
1031.000000	95.753160 
1030.000000	95.736955 
1029.000000	95.715908 
1028.000000	95.699710 
1027.000000	95.700560 
1026.000000	95.717513 
1025.000000	95.736069 
1024.000000	95.744082 
1023.000000	95.741410 
1022.000000	95.734027 
1021.000000	95.726472 
1020.000000	95.721867 
1019.000000	95.722188 
1018.000000	95.725050 
1017.000000	95.725033 
1016.000000	95.720574 
1015.000000	95.715603 
1014.000000	95.713221 
1013.000000	95.712181 
1012.000000	95.710553 
1011.000000	95.708081 
1010.000000	95.703967 
1009.000000	95.697407 
1008.000000	95.691661 
1007.000000	95.692480 
1006.000000	95.700569 
1005.000000	95.710105 
1004.000000	95.716516 
1003.000000	95.721445 
1002.000000	95.728397 
1001.000000	95.737681 
1000.000000	95.747540 
999.000000	 95.756486 
998.000000	 95.762993 
997.000000	 95.766643 
996.000000	 95.770991 
995.000000	 95.781463 
994.000000	 95.798646 
993.000000	 95.817061 
992.000000	 95.831938 
991.000000	 95.843714 
990.000000	 95.854742 
989.000000	 95.865405 
988.000000	 95.875500 
987.000000	 95.886465 
986.000000	 95.900341 
985.000000	 95.918388 
984.000000	 95.941167 
983.000000	 95.967481 
982.000000	 95.993396 
981.000000	 96.015731 
980.000000	 96.036794 
979.000000	 96.062414 
978.000000	 96.095142 
977.000000	 96.132536 
976.000000	 96.171575 
975.000000	 96.210597 
974.000000	 96.247295 
973.000000	 96.279998 
972.000000	 96.311849 
971.000000	 96.348996 
970.000000	 96.392904 
969.000000	 96.438246 
968.000000	 96.479810 
967.000000	 96.517791 
966.000000	 96.554886 
965.000000	 96.591865 
964.000000	 96.628015 
963.000000	 96.663100 
962.000000	 96.697055 
961.000000	 96.729824 
960.000000	 96.762369 
959.000000	 96.795541 
958.000000	 96.827623 
957.000000	 96.855884 
956.000000	 96.881001 
955.000000	 96.906747 
954.000000	 96.934632 
953.000000	 96.962178 
952.000000	 96.987447 
951.000000	 97.011723 
950.000000	 97.036116 
949.000000	 97.058701 
948.000000	 97.076974 
947.000000	 97.090708 
946.000000	 97.100690 
945.000000	 97.107014 
944.000000	 97.110656 
943.000000	 97.115079 
942.000000	 97.124360 
941.000000	 97.140180 
940.000000	 97.160798 
939.000000	 97.181485 
938.000000	 97.196417 
937.000000	 97.203096 
936.000000	 97.205742 
935.000000	 97.212082 
934.000000	 97.225865 
933.000000	 97.244403 
932.000000	 97.263774 
931.000000	 97.283520 
930.000000	 97.304846 
929.000000	 97.326419 
928.000000	 97.343939 
927.000000	 97.353395 
926.000000	 97.354460 
925.000000	 97.351622 
924.000000	 97.351859 
923.000000	 97.359658 
922.000000	 97.373754 
921.000000	 97.389300 
920.000000	 97.402393 
919.000000	 97.411362 
918.000000	 97.415543 
917.000000	 97.415696 
916.000000	 97.414891 
915.000000	 97.416137 
914.000000	 97.419225 
913.000000	 97.422272 
912.000000	 97.426042 
911.000000	 97.434124 
910.000000	 97.449057 
909.000000	 97.470642 
908.000000	 97.497546 
907.000000	 97.527803 
906.000000	 97.558186 
905.000000	 97.585888 
904.000000	 97.610703 
903.000000	 97.633842 
902.000000	 97.656186 
901.000000	 97.680020 
900.000000	 97.709856 
899.000000	 97.747051 
898.000000	 97.784686 
897.000000	 97.812816 
896.000000	 97.828888 
895.000000	 97.839519 
894.000000	 97.852641 
893.000000	 97.871925 
892.000000	 97.898300 
891.000000	 97.931501 
890.000000	 97.968456 
889.000000	 98.003993 
888.000000	 98.035070 
887.000000	 98.062390 
886.000000	 98.087709 
885.000000	 98.111896 
884.000000	 98.135194 
883.000000	 98.156320 
882.000000	 98.171761 
881.000000	 98.179593 
880.000000	 98.184053 
879.000000	 98.192707 
878.000000	 98.208791 
877.000000	 98.229706 
876.000000	 98.252599 
875.000000	 98.276719 
874.000000	 98.300255 
873.000000	 98.320235 
872.000000	 98.336900 
871.000000	 98.353885 
870.000000	 98.373040 
869.000000	 98.393419 
868.000000	 98.416223 
867.000000	 98.445259 
866.000000	 98.479872 
865.000000	 98.512264 
864.000000	 98.535967 
863.000000	 98.554077 
862.000000	 98.574781 
861.000000	 98.600144 
860.000000	 98.623658 
859.000000	 98.638991 
858.000000	 98.647467 
857.000000	 98.655512 
856.000000	 98.667534 
855.000000	 98.683772 
854.000000	 98.703200 
853.000000	 98.724755 
852.000000	 98.745237 
851.000000	 98.759716 
850.000000	 98.766996 
849.000000	 98.772767 
848.000000	 98.783886 
847.000000	 98.800404 
846.000000	 98.816427 
845.000000	 98.828139 
844.000000	 98.836739 
843.000000	 98.843554 
842.000000	 98.847389 
841.000000	 98.847961 
840.000000	 98.846937 
839.000000	 98.843492 
838.000000	 98.833957 
837.000000	 98.818975 
836.000000	 98.806045 
835.000000	 98.800751 
834.000000	 98.799780 
833.000000	 98.797535 
832.000000	 98.795315 
831.000000	 98.797330 
830.000000	 98.801016 
829.000000	 98.799880 
828.000000	 98.795380 
827.000000	 98.797244 
826.000000	 98.809894 
825.000000	 98.825872 
824.000000	 98.835759 
823.000000	 98.838275 
822.000000	 98.837759 
821.000000	 98.837562 
820.000000	 98.839003 
819.000000	 98.842311 
818.000000	 98.846035 
817.000000	 98.848091 
816.000000	 98.847954 
815.000000	 98.845171 
814.000000	 98.836171 
813.000000	 98.816045 
812.000000	 98.783574 
811.000000	 98.740813 
810.000000	 98.687304 
809.000000	 98.618620 
808.000000	 98.532108 
807.000000	 98.431199 
806.000000	 98.322870 
805.000000	 98.213522 
804.000000	 98.108593 
803.000000	 98.013092 
802.000000	 97.930309 
801.000000	 97.861518 
800.000000	 97.807804 
799.000000	 97.770539 
798.000000	 97.750392 
797.000000	 97.747642 
796.000000	 97.761636 
795.000000	 97.787169 
794.000000	 97.814229 
793.000000	 97.835915 
792.000000	 97.854644 
791.000000	 97.876178 
790.000000	 97.899661 
789.000000	 97.917812 
788.000000	 97.923962 
787.000000	 97.913833 
786.000000	 97.884030 
785.000000	 97.836210 
784.000000	 97.781398 
783.000000	 97.732973 
782.000000	 97.695040 
781.000000	 97.663127 
780.000000	 97.635085 
779.000000	 97.614303 
778.000000	 97.602841 
777.000000	 97.599215 
776.000000	 97.603968 
775.000000	 97.620429 
774.000000	 97.648502 
773.000000	 97.683577 
772.000000	 97.722349 
771.000000	 97.763837 
770.000000	 97.804172 
769.000000	 97.836312 
768.000000	 97.856129 
767.000000	 97.864859 
766.000000	 97.866557 
765.000000	 97.867904 
764.000000	 97.878005 
763.000000	 97.900385 
762.000000	 97.925077 
761.000000	 97.936610 
760.000000	 97.931768 
759.000000	 97.923706 
758.000000	 97.927567 
757.000000	 97.946920 
756.000000	 97.973621 
755.000000	 97.994387 
754.000000	 97.998261 
753.000000	 97.985755 
752.000000	 97.971945 
751.000000	 97.974125 
750.000000	 97.994756 
749.000000	 98.021410 
748.000000	 98.042725 
747.000000	 98.057585 
746.000000	 98.069521 
745.000000	 98.080974 
744.000000	 98.094987 
743.000000	 98.114805 
742.000000	 98.138981 
741.000000	 98.162737 
740.000000	 98.185495 
739.000000	 98.211214 
738.000000	 98.240534 
737.000000	 98.268452 
736.000000	 98.289990 
735.000000	 98.302553 
734.000000	 98.304422 
733.000000	 98.298826 
732.000000	 98.298230 
731.000000	 98.314617 
730.000000	 98.344378 
729.000000	 98.372264 
728.000000	 98.390805 
727.000000	 98.405480 
726.000000	 98.419627 
725.000000	 98.425906 
724.000000	 98.417783 
723.000000	 98.400386 
722.000000	 98.384662 
721.000000	 98.378097 
720.000000	 98.385130 
719.000000	 98.408013 
718.000000	 98.441292 
717.000000	 98.472014 
716.000000	 98.490639 
715.000000	 98.497552 
714.000000	 98.497440 
713.000000	 98.494381 
712.000000	 98.494993 
711.000000	 98.507374 
710.000000	 98.530743 
709.000000	 98.552747 
708.000000	 98.562315 
707.000000	 98.559530 
706.000000	 98.549332 
705.000000	 98.532166 
704.000000	 98.506993 
703.000000	 98.478120 
702.000000	 98.451066 
701.000000	 98.424425 
700.000000	 98.391624 
699.000000	 98.348237 
698.000000	 98.295829 
697.000000	 98.242000 
696.000000	 98.198356 
695.000000	 98.174247 
694.000000	 98.169056 
693.000000	 98.175089 
692.000000	 98.188445 
691.000000	 98.210192 
690.000000	 98.238311 
689.000000	 98.267335 
688.000000	 98.297018 
687.000000	 98.331051 
686.000000	 98.363547 
685.000000	 98.379478 
684.000000	 98.373779 
683.000000	 98.359134 
682.000000	 98.351424 
681.000000	 98.356226 
680.000000	 98.370343 
679.000000	 98.385080 
678.000000	 98.387745 
677.000000	 98.375607 
676.000000	 98.368723 
675.000000	 98.390187 
674.000000	 98.433397 
673.000000	 98.464860 
672.000000	 98.463074 
671.000000	 98.439540 
670.000000	 98.419126 
669.000000	 98.419501 
668.000000	 98.443434 
667.000000	 98.474056 
666.000000	 98.496075 
665.000000	 98.508404 
664.000000	 98.517404 
663.000000	 98.538645 
662.000000	 98.577900 
661.000000	 98.613048 
660.000000	 98.614133 
659.000000	 98.577273 
658.000000	 98.526837 
657.000000	 98.487747 
656.000000	 98.467417 
655.000000	 98.462385 
654.000000	 98.468457 
653.000000	 98.480312 
652.000000	 98.491778 
651.000000	 98.501291 
650.000000	 98.510750 

