4000.000000	99.044493 
3999.000000	99.041023 
3998.000000	99.038444 
3997.000000	99.039105 
3996.000000	99.042428 
3995.000000	99.045843 
3994.000000	99.047708 
3993.000000	99.048629 
3992.000000	99.049927 
3991.000000	99.051498 
3990.000000	99.051704 
3989.000000	99.049108 
3988.000000	99.044126 
3987.000000	99.039141 
3986.000000	99.036978 
3985.000000	99.038837 
3984.000000	99.043420 
3983.000000	99.048420 
3982.000000	99.052829 
3981.000000	99.057335 
3980.000000	99.062406 
3979.000000	99.066793 
3978.000000	99.068617 
3977.000000	99.067558 
3976.000000	99.065080 
3975.000000	99.062482 
3974.000000	99.059490 
3973.000000	99.055208 
3972.000000	99.049978 
3971.000000	99.045750 
3970.000000	99.044721 
3969.000000	99.047357 
3968.000000	99.051825 
3967.000000	99.055308 
3966.000000	99.056114 
3965.000000	99.054573 
3964.000000	99.052254 
3963.000000	99.050835 
3962.000000	99.051435 
3961.000000	99.054074 
3960.000000	99.057058 
3959.000000	99.057653 
3958.000000	99.054751 
3957.000000	99.050262 
3956.000000	99.047390 
3955.000000	99.047431 
3954.000000	99.049114 
3953.000000	99.050518 
3952.000000	99.050627 
3951.000000	99.049499 
3950.000000	99.047488 
3949.000000	99.045032 
3948.000000	99.043093 
3947.000000	99.043213 
3946.000000	99.046089 
3945.000000	99.050241 
3944.000000	99.052867 
3943.000000	99.052324 
3942.000000	99.049568 
3941.000000	99.046802 
3940.000000	99.044537 
3939.000000	99.041491 
3938.000000	99.037836 
3937.000000	99.035655 
3936.000000	99.036250 
3935.000000	99.038046 
3934.000000	99.038732 
3933.000000	99.038501 
3932.000000	99.039314 
3931.000000	99.042086 
3930.000000	99.045515 
3929.000000	99.047888 
3928.000000	99.048763 
3927.000000	99.047958 
3926.000000	99.045180 
3925.000000	99.041715 
3924.000000	99.040853 
3923.000000	99.043743 
3922.000000	99.046330 
3921.000000	99.044279 
3920.000000	99.039017 
3919.000000	99.035188 
3918.000000	99.034065 
3917.000000	99.033265 
3916.000000	99.032163 
3915.000000	99.032859 
3914.000000	99.035736 
3913.000000	99.038385 
3912.000000	99.039363 
3911.000000	99.038911 
3910.000000	99.038182 
3909.000000	99.037653 
3908.000000	99.038133 
3907.000000	99.040190 
3906.000000	99.043120 
3905.000000	99.044643 
3904.000000	99.043322 
3903.000000	99.041294 
3902.000000	99.041038 
3901.000000	99.040465 
3900.000000	99.035998 
3899.000000	99.028867 
3898.000000	99.023697 
3897.000000	99.021990 
3896.000000	99.021167 
3895.000000	99.020441 
3894.000000	99.023335 
3893.000000	99.030891 
3892.000000	99.037789 
3891.000000	99.039121 
3890.000000	99.040902 
3889.000000	99.048696 
3888.000000	99.056717 
3887.000000	99.056960 
3886.000000	99.049581 
3885.000000	99.042638 
3884.000000	99.044579 
3883.000000	99.051376 
3882.000000	99.052024 
3881.000000	99.044145 
3880.000000	99.034534 
3879.000000	99.031621 
3878.000000	99.037719 
3877.000000	99.045865 
3876.000000	99.049474 
3875.000000	99.048241 
3874.000000	99.046420 
3873.000000	99.048811 
3872.000000	99.052394 
3871.000000	99.047366 
3870.000000	99.032183 
3869.000000	99.021834 
3868.000000	99.030259 
3867.000000	99.046923 
3866.000000	99.053165 
3865.000000	99.048947 
3864.000000	99.046086 
3863.000000	99.048064 
3862.000000	99.048959 
3861.000000	99.044549 
3860.000000	99.037850 
3859.000000	99.030475 
3858.000000	99.021239 
3857.000000	99.011305 
3856.000000	99.008685 
3855.000000	99.020389 
3854.000000	99.034430 
3853.000000	99.031167 
3852.000000	99.026154 
3851.000000	99.038049 
3850.000000	99.051500 
3849.000000	99.055051 
3848.000000	99.055070 
3847.000000	99.057695 
3846.000000	99.061302 
3845.000000	99.062537 
3844.000000	99.061530 
3843.000000	99.060477 
3842.000000	99.061161 
3841.000000	99.062328 
3840.000000	99.062508 
3839.000000	99.061937 
3838.000000	99.061458 
3837.000000	99.060218 
3836.000000	99.057725 
3835.000000	99.053635 
3834.000000	99.047811 
3833.000000	99.041536 
3832.000000	99.037661 
3831.000000	99.039012 
3830.000000	99.045838 
3829.000000	99.053731 
3828.000000	99.056514 
3827.000000	99.051713 
3826.000000	99.044614 
3825.000000	99.043666 
3824.000000	99.051392 
3823.000000	99.062520 
3822.000000	99.069384 
3821.000000	99.066542 
3820.000000	99.063024 
3819.000000	99.068928 
3818.000000	99.073332 
3817.000000	99.064927 
3816.000000	99.048929 
3815.000000	99.039614 
3814.000000	99.043312 
3813.000000	99.048515 
3812.000000	99.043949 
3811.000000	99.035611 
3810.000000	99.034700 
3809.000000	99.042365 
3808.000000	99.049632 
3807.000000	99.049790 
3806.000000	99.049048 
3805.000000	99.055790 
3804.000000	99.063527 
3803.000000	99.061455 
3802.000000	99.049178 
3801.000000	99.034308 
3800.000000	99.029865 
3799.000000	99.035571 
3798.000000	99.035998 
3797.000000	99.027195 
3796.000000	99.018926 
3795.000000	99.019604 
3794.000000	99.027316 
3793.000000	99.034829 
3792.000000	99.039092 
3791.000000	99.041970 
3790.000000	99.043995 
3789.000000	99.044448 
3788.000000	99.044993 
3787.000000	99.048737 
3786.000000	99.055381 
3785.000000	99.061497 
3784.000000	99.065884 
3783.000000	99.070332 
3782.000000	99.074421 
3781.000000	99.074469 
3780.000000	99.068403 
3779.000000	99.058601 
3778.000000	99.050572 
3777.000000	99.046272 
3776.000000	99.042765 
3775.000000	99.038892 
3774.000000	99.038915 
3773.000000	99.045838 
3772.000000	99.055683 
3771.000000	99.060831 
3770.000000	99.058940 
3769.000000	99.055666 
3768.000000	99.056617 
3767.000000	99.058864 
3766.000000	99.056949 
3765.000000	99.052174 
3764.000000	99.050939 
3763.000000	99.055107 
3762.000000	99.059130 
3761.000000	99.059485 
3760.000000	99.059639 
3759.000000	99.061635 
3758.000000	99.062699 
3757.000000	99.060790 
3756.000000	99.058437 
3755.000000	99.057959 
3754.000000	99.059420 
3753.000000	99.064388 
3752.000000	99.074215 
3751.000000	99.081173 
3750.000000	99.074644 
3749.000000	99.059882 
3748.000000	99.049759 
3747.000000	99.044910 
3746.000000	99.039629 
3745.000000	99.031725 
3744.000000	99.023746 
3743.000000	99.030947 
3742.000000	99.053009 
3741.000000	99.063544 
3740.000000	99.055877 
3739.000000	99.046663 
3738.000000	99.046833 
3737.000000	99.051146 
3736.000000	99.052013 
3735.000000	99.050625 
3734.000000	99.049233 
3733.000000	99.044097 
3732.000000	99.035169 
3731.000000	99.031763 
3730.000000	99.038664 
3729.000000	99.047844 
3728.000000	99.050143 
3727.000000	99.047566 
3726.000000	99.048823 
3725.000000	99.057196 
3724.000000	99.065623 
3723.000000	99.066674 
3722.000000	99.061351 
3721.000000	99.055882 
3720.000000	99.054403 
3719.000000	99.055379 
3718.000000	99.055139 
3717.000000	99.051984 
3716.000000	99.046991 
3715.000000	99.041212 
3714.000000	99.035789 
3713.000000	99.032659 
3712.000000	99.030804 
3711.000000	99.026889 
3710.000000	99.022444 
3709.000000	99.021179 
3708.000000	99.022626 
3707.000000	99.023581 
3706.000000	99.022114 
3705.000000	99.018351 
3704.000000	99.013209 
3703.000000	99.007553 
3702.000000	99.001606 
3701.000000	98.996560 
3700.000000	98.995627 
3699.000000	98.998435 
3698.000000	98.999112 
3697.000000	98.994133 
3696.000000	98.987113 
3695.000000	98.983477 
3694.000000	98.983475 
3693.000000	98.984105 
3692.000000	98.984558 
3691.000000	98.984823 
3690.000000	98.981542 
3689.000000	98.970940 
3688.000000	98.958803 
3687.000000	98.956083 
3686.000000	98.962126 
3685.000000	98.966414 
3684.000000	98.965013 
3683.000000	98.962971 
3682.000000	98.963434 
3681.000000	98.961984 
3680.000000	98.953910 
3679.000000	98.943610 
3678.000000	98.938467 
3677.000000	98.939156 
3676.000000	98.937493 
3675.000000	98.930784 
3674.000000	98.933604 
3673.000000	98.948029 
3672.000000	98.955842 
3671.000000	98.952509 
3670.000000	98.946839 
3669.000000	98.944232 
3668.000000	98.945805 
3667.000000	98.946283 
3666.000000	98.941518 
3665.000000	98.935169 
3664.000000	98.932430 
3663.000000	98.934299 
3662.000000	98.938552 
3661.000000	98.943145 
3660.000000	98.947949 
3659.000000	98.953727 
3658.000000	98.959351 
3657.000000	98.962145 
3656.000000	98.961303 
3655.000000	98.963016 
3654.000000	98.970997 
3653.000000	98.980001 
3652.000000	98.987549 
3651.000000	98.998017 
3650.000000	99.008175 
3649.000000	99.004927 
3648.000000	98.987062 
3647.000000	98.969700 
3646.000000	98.964769 
3645.000000	98.970817 
3644.000000	98.979835 
3643.000000	98.986250 
3642.000000	98.989995 
3641.000000	98.993250 
3640.000000	98.997487 
3639.000000	99.003249 
3638.000000	99.011813 
3637.000000	99.024095 
3636.000000	99.036511 
3635.000000	99.042476 
3634.000000	99.039706 
3633.000000	99.033584 
3632.000000	99.030165 
3631.000000	99.030796 
3630.000000	99.033126 
3629.000000	99.030266 
3628.000000	99.022084 
3627.000000	99.021142 
3626.000000	99.027347 
3625.000000	99.031325 
3624.000000	99.033711 
3623.000000	99.038624 
3622.000000	99.044198 
3621.000000	99.045312 
3620.000000	99.040756 
3619.000000	99.034588 
3618.000000	99.033451 
3617.000000	99.040549 
3616.000000	99.050778 
3615.000000	99.055937 
3614.000000	99.052266 
3613.000000	99.042308 
3612.000000	99.031793 
3611.000000	99.024425 
3610.000000	99.020144 
3609.000000	99.018283 
3608.000000	99.018732 
3607.000000	99.021071 
3606.000000	99.024143 
3605.000000	99.026671 
3604.000000	99.028852 
3603.000000	99.031526 
3602.000000	99.034011 
3601.000000	99.035711 
3600.000000	99.038648 
3599.000000	99.045014 
3598.000000	99.052663 
3597.000000	99.057415 
3596.000000	99.056852 
3595.000000	99.051859 
3594.000000	99.045438 
3593.000000	99.042124 
3592.000000	99.045131 
3591.000000	99.054391 
3590.000000	99.066452 
3589.000000	99.075498 
3588.000000	99.074968 
3587.000000	99.063869 
3586.000000	99.050376 
3585.000000	99.042433 
3584.000000	99.040192 
3583.000000	99.040619 
3582.000000	99.041592 
3581.000000	99.041798 
3580.000000	99.040235 
3579.000000	99.036947 
3578.000000	99.032585 
3577.000000	99.028345 
3576.000000	99.025739 
3575.000000	99.025924 
3574.000000	99.028908 
3573.000000	99.033438 
3572.000000	99.038107 
3571.000000	99.042032 
3570.000000	99.044784 
3569.000000	99.045648 
3568.000000	99.043584 
3567.000000	99.038868 
3566.000000	99.035426 
3565.000000	99.037262 
3564.000000	99.042403 
3563.000000	99.045888 
3562.000000	99.045766 
3561.000000	99.043726 
3560.000000	99.042229 
3559.000000	99.042256 
3558.000000	99.043188 
3557.000000	99.044236 
3556.000000	99.045873 
3555.000000	99.048883 
3554.000000	99.052584 
3553.000000	99.054787 
3552.000000	99.054086 
3551.000000	99.051014 
3550.000000	99.046424 
3549.000000	99.040539 
3548.000000	99.034716 
3547.000000	99.031679 
3546.000000	99.032673 
3545.000000	99.036008 
3544.000000	99.039000 
3543.000000	99.040115 
3542.000000	99.039524 
3541.000000	99.038501 
3540.000000	99.038891 
3539.000000	99.041976 
3538.000000	99.047417 
3537.000000	99.053115 
3536.000000	99.056292 
3535.000000	99.055113 
3534.000000	99.049572 
3533.000000	99.042138 
3532.000000	99.036767 
3531.000000	99.036342 
3530.000000	99.039847 
3529.000000	99.043625 
3528.000000	99.045634 
3527.000000	99.047272 
3526.000000	99.049985 
3525.000000	99.052142 
3524.000000	99.051100 
3523.000000	99.047247 
3522.000000	99.043974 
3521.000000	99.043563 
3520.000000	99.044796 
3519.000000	99.045012 
3518.000000	99.043263 
3517.000000	99.040808 
3516.000000	99.039270 
3515.000000	99.039645 
3514.000000	99.042519 
3513.000000	99.047804 
3512.000000	99.053680 
3511.000000	99.057350 
3510.000000	99.057624 
3509.000000	99.056407 
3508.000000	99.056661 
3507.000000	99.058977 
3506.000000	99.060640 
3505.000000	99.058281 
3504.000000	99.051027 
3503.000000	99.041789 
3502.000000	99.035909 
3501.000000	99.037476 
3500.000000	99.045567 
3499.000000	99.054007 
3498.000000	99.055780 
3497.000000	99.048832 
3496.000000	99.037891 
3495.000000	99.030084 
3494.000000	99.028946 
3493.000000	99.032689 
3492.000000	99.037163 
3491.000000	99.039518 
3490.000000	99.039609 
3489.000000	99.039190 
3488.000000	99.040097 
3487.000000	99.042669 
3486.000000	99.045486 
3485.000000	99.046945 
3484.000000	99.047141 
3483.000000	99.047842 
3482.000000	99.050194 
3481.000000	99.053033 
3480.000000	99.053999 
3479.000000	99.052212 
3478.000000	99.049165 
3477.000000	99.046787 
3476.000000	99.045226 
3475.000000	99.043199 
3474.000000	99.040585 
3473.000000	99.039474 
3472.000000	99.041754 
3471.000000	99.046349 
3470.000000	99.050063 
3469.000000	99.050978 
3468.000000	99.049984 
3467.000000	99.048845 
3466.000000	99.047823 
3465.000000	99.045944 
3464.000000	99.042946 
3463.000000	99.039953 
3462.000000	99.038073 
3461.000000	99.037103 
3460.000000	99.036017 
3459.000000	99.034456 
3458.000000	99.033251 
3457.000000	99.033361 
3456.000000	99.034653 
3455.000000	99.036164 
3454.000000	99.037321 
3453.000000	99.038754 
3452.000000	99.041633 
3451.000000	99.046312 
3450.000000	99.051362 
3449.000000	99.054211 
3448.000000	99.053010 
3447.000000	99.048254 
3446.000000	99.042624 
3445.000000	99.039029 
3444.000000	99.038659 
3443.000000	99.040681 
3442.000000	99.043227 
3441.000000	99.044793 
3440.000000	99.045361 
3439.000000	99.046240 
3438.000000	99.048558 
3437.000000	99.051713 
3436.000000	99.053674 
3435.000000	99.053192 
3434.000000	99.051224 
3433.000000	99.049935 
3432.000000	99.050297 
3431.000000	99.051139 
3430.000000	99.050443 
3429.000000	99.047402 
3428.000000	99.043063 
3427.000000	99.039171 
3426.000000	99.036883 
3425.000000	99.036559 
3424.000000	99.038081 
3423.000000	99.040739 
3422.000000	99.043056 
3421.000000	99.043481 
3420.000000	99.041663 
3419.000000	99.039071 
3418.000000	99.038097 
3417.000000	99.040213 
3416.000000	99.044505 
3415.000000	99.047986 
3414.000000	99.047886 
3413.000000	99.044092 
3412.000000	99.039159 
3411.000000	99.035895 
3410.000000	99.035365 
3409.000000	99.037076 
3408.000000	99.040019 
3407.000000	99.042902 
3406.000000	99.044277 
3405.000000	99.043623 
3404.000000	99.042285 
3403.000000	99.042686 
3402.000000	99.046366 
3401.000000	99.052761 
3400.000000	99.059515 
3399.000000	99.063986 
3398.000000	99.065130 
3397.000000	99.064234 
3396.000000	99.063354 
3395.000000	99.063056 
3394.000000	99.062420 
3393.000000	99.061083 
3392.000000	99.059975 
3391.000000	99.059531 
3390.000000	99.058451 
3389.000000	99.055374 
3388.000000	99.050994 
3387.000000	99.047389 
3386.000000	99.045676 
3385.000000	99.045341 
3384.000000	99.045577 
3383.000000	99.046228 
3382.000000	99.047283 
3381.000000	99.048295 
3380.000000	99.048539 
3379.000000	99.047611 
3378.000000	99.046005 
3377.000000	99.045334 
3376.000000	99.047496 
3375.000000	99.053023 
3374.000000	99.060329 
3373.000000	99.066820 
3372.000000	99.070641 
3371.000000	99.071363 
3370.000000	99.069734 
3369.000000	99.067306 
3368.000000	99.065721 
3367.000000	99.065413 
3366.000000	99.065014 
3365.000000	99.062709 
3364.000000	99.058336 
3363.000000	99.053721 
3362.000000	99.050885 
3361.000000	99.050240 
3360.000000	99.050673 
3359.000000	99.051135 
3358.000000	99.052009 
3357.000000	99.054829 
3356.000000	99.060391 
3355.000000	99.067051 
3354.000000	99.071384 
3353.000000	99.070973 
3352.000000	99.066562 
3351.000000	99.061404 
3350.000000	99.058824 
3349.000000	99.060349 
3348.000000	99.065331 
3347.000000	99.071522 
3346.000000	99.076304 
3345.000000	99.078293 
3344.000000	99.078015 
3343.000000	99.076714 
3342.000000	99.074656 
3341.000000	99.071266 
3340.000000	99.066804 
3339.000000	99.062961 
3338.000000	99.061117 
3337.000000	99.060438 
3336.000000	99.058541 
3335.000000	99.054338 
3334.000000	99.049741 
3333.000000	99.048070 
3332.000000	99.050720 
3331.000000	99.055662 
3330.000000	99.059500 
3329.000000	99.060875 
3328.000000	99.061427 
3327.000000	99.063300 
3326.000000	99.066234 
3325.000000	99.067886 
3324.000000	99.066942 
3323.000000	99.065165 
3322.000000	99.065639 
3321.000000	99.069045 
3320.000000	99.072260 
3319.000000	99.071291 
3318.000000	99.065626 
3317.000000	99.059180 
3316.000000	99.056653 
3315.000000	99.059251 
3314.000000	99.064191 
3313.000000	99.067989 
3312.000000	99.069522 
3311.000000	99.070081 
3310.000000	99.071317 
3309.000000	99.073729 
3308.000000	99.076784 
3307.000000	99.079700 
3306.000000	99.081668 
3305.000000	99.081528 
3304.000000	99.078068 
3303.000000	99.071443 
3302.000000	99.064277 
3301.000000	99.060403 
3300.000000	99.061753 
3299.000000	99.066776 
3298.000000	99.072181 
3297.000000	99.075743 
3296.000000	99.077030 
3295.000000	99.076373 
3294.000000	99.074521 
3293.000000	99.073052 
3292.000000	99.073622 
3291.000000	99.076259 
3290.000000	99.079132 
3289.000000	99.080297 
3288.000000	99.079267 
3287.000000	99.076988 
3286.000000	99.075073 
3285.000000	99.075012 
3284.000000	99.077062 
3283.000000	99.079558 
3282.000000	99.080189 
3281.000000	99.078227 
3280.000000	99.074820 
3279.000000	99.071161 
3278.000000	99.067527 
3277.000000	99.064359 
3276.000000	99.062976 
3275.000000	99.064304 
3274.000000	99.067550 
3273.000000	99.070765 
3272.000000	99.072178 
3271.000000	99.070701 
3270.000000	99.066138 
3269.000000	99.059802 
3268.000000	99.054370 
3267.000000	99.052259 
3266.000000	99.054089 
3265.000000	99.058861 
3264.000000	99.065101 
3263.000000	99.071645 
3262.000000	99.078077 
3261.000000	99.084576 
3260.000000	99.090665 
3259.000000	99.094127 
3258.000000	99.092403 
3257.000000	99.085519 
3256.000000	99.076758 
3255.000000	99.069967 
3254.000000	99.067040 
3253.000000	99.068202 
3252.000000	99.072935 
3251.000000	99.079321 
3250.000000	99.083776 
3249.000000	99.083491 
3248.000000	99.079087 
3247.000000	99.073779 
3246.000000	99.069967 
3245.000000	99.067587 
3244.000000	99.065651 
3243.000000	99.064388 
3242.000000	99.065528 
3241.000000	99.070711 
3240.000000	99.079388 
3239.000000	99.088150 
3238.000000	99.092826 
3237.000000	99.091909 
3236.000000	99.087626 
3235.000000	99.083341 
3234.000000	99.080637 
3233.000000	99.079478 
3232.000000	99.080047 
3231.000000	99.082877 
3230.000000	99.087263 
3229.000000	99.090711 
3228.000000	99.090396 
3227.000000	99.085060 
3226.000000	99.076070 
3225.000000	99.067301 
3224.000000	99.063221 
3223.000000	99.065598 
3222.000000	99.071795 
3221.000000	99.077041 
3220.000000	99.078606 
3219.000000	99.077404 
3218.000000	99.075953 
3217.000000	99.075730 
3216.000000	99.076583 
3215.000000	99.077625 
3214.000000	99.078027 
3213.000000	99.077437 
3212.000000	99.076322 
3211.000000	99.075947 
3210.000000	99.077618 
3209.000000	99.081585 
3208.000000	99.086494 
3207.000000	99.090089 
3206.000000	99.090998 
3205.000000	99.090061 
3204.000000	99.089523 
3203.000000	99.090653 
3202.000000	99.092726 
3201.000000	99.094548 
3200.000000	99.096101 
3199.000000	99.097810 
3198.000000	99.099007 
3197.000000	99.098467 
3196.000000	99.096412 
3195.000000	99.094565 
3194.000000	99.093811 
3193.000000	99.092928 
3192.000000	99.090393 
3191.000000	99.086751 
3190.000000	99.084267 
3189.000000	99.084439 
3188.000000	99.086564 
3187.000000	99.088783 
3186.000000	99.090037 
3185.000000	99.090720 
3184.000000	99.091796 
3183.000000	99.093573 
3182.000000	99.095232 
3181.000000	99.095253 
3180.000000	99.092547 
3179.000000	99.087627 
3178.000000	99.082690 
3177.000000	99.079975 
3176.000000	99.079757 
3175.000000	99.080491 
3174.000000	99.081328 
3173.000000	99.083673 
3172.000000	99.089053 
3171.000000	99.095741 
3170.000000	99.099315 
3169.000000	99.097509 
3168.000000	99.093326 
3167.000000	99.092047 
3166.000000	99.095663 
3165.000000	99.101366 
3164.000000	99.105185 
3163.000000	99.105749 
3162.000000	99.104439 
3161.000000	99.103308 
3160.000000	99.103722 
3159.000000	99.106028 
3158.000000	99.109258 
3157.000000	99.111261 
3156.000000	99.110136 
3155.000000	99.106061 
3154.000000	99.101505 
3153.000000	99.099292 
3152.000000	99.100202 
3151.000000	99.102365 
3150.000000	99.103115 
3149.000000	99.101682 
3148.000000	99.100062 
3147.000000	99.100971 
3146.000000	99.104851 
3145.000000	99.109133 
3144.000000	99.110724 
3143.000000	99.109206 
3142.000000	99.107419 
3141.000000	99.108678 
3140.000000	99.113269 
3139.000000	99.117875 
3138.000000	99.118897 
3137.000000	99.116319 
3136.000000	99.113643 
3135.000000	99.113726 
3134.000000	99.115455 
3133.000000	99.115390 
3132.000000	99.112291 
3131.000000	99.108748 
3130.000000	99.107956 
3129.000000	99.109947 
3128.000000	99.111897 
3127.000000	99.111590 
3126.000000	99.109539 
3125.000000	99.107825 
3124.000000	99.107862 
3123.000000	99.109521 
3122.000000	99.111778 
3121.000000	99.113909 
3120.000000	99.116262 
3119.000000	99.119692 
3118.000000	99.123824 
3117.000000	99.126174 
3116.000000	99.124145 
3115.000000	99.118262 
3114.000000	99.112326 
3113.000000	99.109565 
3112.000000	99.109478 
3111.000000	99.109430 
3110.000000	99.108398 
3109.000000	99.107551 
3108.000000	99.107516 
3107.000000	99.107031 
3106.000000	99.104882 
3105.000000	99.101838 
3104.000000	99.099883 
3103.000000	99.100491 
3102.000000	99.104331 
3101.000000	99.111392 
3100.000000	99.119891 
3099.000000	99.125799 
3098.000000	99.125622 
3097.000000	99.120144 
3096.000000	99.114164 
3095.000000	99.111899 
3094.000000	99.113538 
3093.000000	99.116529 
3092.000000	99.118707 
3091.000000	99.119263 
3090.000000	99.117978 
3089.000000	99.115340 
3088.000000	99.113252 
3087.000000	99.114067 
3086.000000	99.118322 
3085.000000	99.124049 
3084.000000	99.128655 
3083.000000	99.130955 
3082.000000	99.131288 
3081.000000	99.130457 
3080.000000	99.129174 
3079.000000	99.128073 
3078.000000	99.127409 
3077.000000	99.126480 
3076.000000	99.123974 
3075.000000	99.119457 
3074.000000	99.114382 
3073.000000	99.111311 
3072.000000	99.112033 
3071.000000	99.116488 
3070.000000	99.123024 
3069.000000	99.128975 
3068.000000	99.131172 
3067.000000	99.127356 
3066.000000	99.118449 
3065.000000	99.109056 
3064.000000	99.104325 
3063.000000	99.105686 
3062.000000	99.110147 
3061.000000	99.113812 
3060.000000	99.115464 
3059.000000	99.116624 
3058.000000	99.118987 
3057.000000	99.122465 
3056.000000	99.125382 
3055.000000	99.126183 
3054.000000	99.124992 
3053.000000	99.123544 
3052.000000	99.123340 
3051.000000	99.123893 
3050.000000	99.123262 
3049.000000	99.120273 
3048.000000	99.115647 
3047.000000	99.110951 
3046.000000	99.107364 
3045.000000	99.105635 
3044.000000	99.106041 
3043.000000	99.107557 
3042.000000	99.107903 
3041.000000	99.105456 
3040.000000	99.100977 
3039.000000	99.096823 
3038.000000	99.094659 
3037.000000	99.094387 
3036.000000	99.094851 
3035.000000	99.094807 
3034.000000	99.093376 
3033.000000	99.090353 
3032.000000	99.086193 
3031.000000	99.081314 
3030.000000	99.075365 
3029.000000	99.067545 
3028.000000	99.057845 
3027.000000	99.047776 
3026.000000	99.039592 
3025.000000	99.034518 
3024.000000	99.031467 
3023.000000	99.027476 
3022.000000	99.019823 
3021.000000	99.008203 
3020.000000	98.995186 
3019.000000	98.984580 
3018.000000	98.979081 
3017.000000	98.978618 
3016.000000	98.980108 
3015.000000	98.979045 
3014.000000	98.972397 
3013.000000	98.960531 
3012.000000	98.945976 
3011.000000	98.930433 
3010.000000	98.913872 
3009.000000	98.896587 
3008.000000	98.880735 
3007.000000	98.868842 
3006.000000	98.861358 
3005.000000	98.856329 
3004.000000	98.850843 
3003.000000	98.842188 
3002.000000	98.828745 
3001.000000	98.811525 
3000.000000	98.794673 
2999.000000	98.782756 
2998.000000	98.777002 
2997.000000	98.775061 
2996.000000	98.774365 
2995.000000	98.773905 
2994.000000	98.771821 
2993.000000	98.763360 
2992.000000	98.744306 
2991.000000	98.716973 
2990.000000	98.690794 
2989.000000	98.675223 
2988.000000	98.672256 
2987.000000	98.676620 
2986.000000	98.682401 
2985.000000	98.687926 
2984.000000	98.694241 
2983.000000	98.701047 
2982.000000	98.705897 
2981.000000	98.706845 
2980.000000	98.704528 
2979.000000	98.701346 
2978.000000	98.699422 
2977.000000	98.699476 
2976.000000	98.700813 
2975.000000	98.701836 
2974.000000	98.701023 
2973.000000	98.698035 
2972.000000	98.694014 
2971.000000	98.690752 
2970.000000	98.689672 
2969.000000	98.691427 
2968.000000	98.695948 
2967.000000	98.702623 
2966.000000	98.710708 
2965.000000	98.719802 
2964.000000	98.729858 
2963.000000	98.740744 
2962.000000	98.751929 
2961.000000	98.762494 
2960.000000	98.771378 
2959.000000	98.778087 
2958.000000	98.783629 
2957.000000	98.790160 
2956.000000	98.798545 
2955.000000	98.806397 
2954.000000	98.809994 
2953.000000	98.809057 
2952.000000	98.808633 
2951.000000	98.814864 
2950.000000	98.828749 
2949.000000	98.844746 
2948.000000	98.855632 
2947.000000	98.858313 
2946.000000	98.855221 
2945.000000	98.851083 
2944.000000	98.849092 
2943.000000	98.849710 
2942.000000	98.851884 
2941.000000	98.854479 
2940.000000	98.856636 
2939.000000	98.857619 
2938.000000	98.857001 
2937.000000	98.855079 
2936.000000	98.852914 
2935.000000	98.851961 
2934.000000	98.853471 
2933.000000	98.857639 
2932.000000	98.862854 
2931.000000	98.866163 
2930.000000	98.865290 
2929.000000	98.860564 
2928.000000	98.854795 
2927.000000	98.851172 
2926.000000	98.851125 
2925.000000	98.853481 
2924.000000	98.855283 
2923.000000	98.854013 
2922.000000	98.849834 
2921.000000	98.845566 
2920.000000	98.843872 
2919.000000	98.844618 
2918.000000	98.845378 
2917.000000	98.844076 
2916.000000	98.840445 
2915.000000	98.835454 
2914.000000	98.830556 
2913.000000	98.827462 
2912.000000	98.827291 
2911.000000	98.829284 
2910.000000	98.830974 
2909.000000	98.830132 
2908.000000	98.826201 
2907.000000	98.819813 
2906.000000	98.811723 
2905.000000	98.802484 
2904.000000	98.792588 
2903.000000	98.782640 
2902.000000	98.774089 
2901.000000	98.769799 
2900.000000	98.772854 
2899.000000	98.783760 
2898.000000	98.798822 
2897.000000	98.812428 
2896.000000	98.821106 
2895.000000	98.825589 
2894.000000	98.829175 
2893.000000	98.834282 
2892.000000	98.840329 
2891.000000	98.844612 
2890.000000	98.845203 
2889.000000	98.842962 
2888.000000	98.840675 
2887.000000	98.840591 
2886.000000	98.843210 
2885.000000	98.847947 
2884.000000	98.853989 
2883.000000	98.860428 
2882.000000	98.866535 
2881.000000	98.872447 
2880.000000	98.879123 
2879.000000	98.887346 
2878.000000	98.897147 
2877.000000	98.908080 
2876.000000	98.919162 
2875.000000	98.928374 
2874.000000	98.933357 
2873.000000	98.933556 
2872.000000	98.931298 
2871.000000	98.930174 
2870.000000	98.932567 
2869.000000	98.938714 
2868.000000	98.947312 
2867.000000	98.956548 
2866.000000	98.965370 
2865.000000	98.974468 
2864.000000	98.985300 
2863.000000	98.997346 
2862.000000	99.007225 
2861.000000	99.011937 
2860.000000	99.012787 
2859.000000	99.014702 
2858.000000	99.021302 
2857.000000	99.031605 
2856.000000	99.041763 
2855.000000	99.049138 
2854.000000	99.054013 
2853.000000	99.058029 
2852.000000	99.062141 
2851.000000	99.066423 
2850.000000	99.071172 
2849.000000	99.077123 
2848.000000	99.084198 
2847.000000	99.090633 
2846.000000	99.094110 
2845.000000	99.093844 
2844.000000	99.091297 
2843.000000	99.089057 
2842.000000	99.089500 
2841.000000	99.093980 
2840.000000	99.101942 
2839.000000	99.110317 
2838.000000	99.114865 
2837.000000	99.113303 
2836.000000	99.107249 
2835.000000	99.100966 
2834.000000	99.098294 
2833.000000	99.100506 
2832.000000	99.105991 
2831.000000	99.111452 
2830.000000	99.114233 
2829.000000	99.114440 
2828.000000	99.114714 
2827.000000	99.117327 
2826.000000	99.121746 
2825.000000	99.125466 
2824.000000	99.126955 
2823.000000	99.127212 
2822.000000	99.128458 
2821.000000	99.131705 
2820.000000	99.135671 
2819.000000	99.138058 
2818.000000	99.138031 
2817.000000	99.137248 
2816.000000	99.137918 
2815.000000	99.139988 
2814.000000	99.141245 
2813.000000	99.140391 
2812.000000	99.138840 
2811.000000	99.138605 
2810.000000	99.139407 
2809.000000	99.139228 
2808.000000	99.137336 
2807.000000	99.135401 
2806.000000	99.135408 
2805.000000	99.137490 
2804.000000	99.140255 
2803.000000	99.142619 
2802.000000	99.144743 
2801.000000	99.147291 
2800.000000	99.150047 
2799.000000	99.151472 
2798.000000	99.150005 
2797.000000	99.145945 
2796.000000	99.141691 
2795.000000	99.139743 
2794.000000	99.140644 
2793.000000	99.142978 
2792.000000	99.144911 
2791.000000	99.145474 
2790.000000	99.145006 
2789.000000	99.144961 
2788.000000	99.146757 
2787.000000	99.150104 
2786.000000	99.152926 
2785.000000	99.153642 
2784.000000	99.153040 
2783.000000	99.152946 
2782.000000	99.153548 
2781.000000	99.153374 
2780.000000	99.151859 
2779.000000	99.150510 
2778.000000	99.151046 
2777.000000	99.153384 
2776.000000	99.155945 
2775.000000	99.157144 
2774.000000	99.156170 
2773.000000	99.153207 
2772.000000	99.149600 
2771.000000	99.147167 
2770.000000	99.146738 
2769.000000	99.147777 
2768.000000	99.149786 
2767.000000	99.153124 
2766.000000	99.157663 
2765.000000	99.161459 
2764.000000	99.162189 
2763.000000	99.159890 
2762.000000	99.157273 
2761.000000	99.157134 
2760.000000	99.160064 
2759.000000	99.164612 
2758.000000	99.168838 
2757.000000	99.171564 
2756.000000	99.172945 
2755.000000	99.174166 
2754.000000	99.176012 
2753.000000	99.177531 
2752.000000	99.176786 
2751.000000	99.173264 
2750.000000	99.168797 
2749.000000	99.165640 
2748.000000	99.164283 
2747.000000	99.163758 
2746.000000	99.163377 
2745.000000	99.163160 
2744.000000	99.162992 
2743.000000	99.162519 
2742.000000	99.162017 
2741.000000	99.162445 
2740.000000	99.164304 
2739.000000	99.167061 
2738.000000	99.169938 
2737.000000	99.172679 
2736.000000	99.175211 
2735.000000	99.177030 
2734.000000	99.177352 
2733.000000	99.175696 
2732.000000	99.172244 
2731.000000	99.168013 
2730.000000	99.164735 
2729.000000	99.164039 
2728.000000	99.166283 
2727.000000	99.170247 
2726.000000	99.173923 
2725.000000	99.175506 
2724.000000	99.174177 
2723.000000	99.170930 
2722.000000	99.168660 
2721.000000	99.170297 
2720.000000	99.176069 
2719.000000	99.183031 
2718.000000	99.187660 
2717.000000	99.188535 
2716.000000	99.186614 
2715.000000	99.184015 
2714.000000	99.182965 
2713.000000	99.184644 
2712.000000	99.187870 
2711.000000	99.189633 
2710.000000	99.188096 
2709.000000	99.184667 
2708.000000	99.182176 
2707.000000	99.181474 
2706.000000	99.180977 
2705.000000	99.179292 
2704.000000	99.176951 
2703.000000	99.175397 
2702.000000	99.175248 
2701.000000	99.175859 
2700.000000	99.175915 
2699.000000	99.174313 
2698.000000	99.171105 
2697.000000	99.167719 
2696.000000	99.165855 
2695.000000	99.166209 
2694.000000	99.168573 
2693.000000	99.172461 
2692.000000	99.176702 
2691.000000	99.179058 
2690.000000	99.177983 
2689.000000	99.175039 
2688.000000	99.174004 
2687.000000	99.176683 
2686.000000	99.180595 
2685.000000	99.181834 
2684.000000	99.179745 
2683.000000	99.177834 
2682.000000	99.180082 
2681.000000	99.186943 
2680.000000	99.194930 
2679.000000	99.199626 
2678.000000	99.199004 
2677.000000	99.194304 
2676.000000	99.188419 
2675.000000	99.183851 
2674.000000	99.181819 
2673.000000	99.182211 
2672.000000	99.183631 
2671.000000	99.183916 
2670.000000	99.181395 
2669.000000	99.175975 
2668.000000	99.169179 
2667.000000	99.163572 
2666.000000	99.161929 
2665.000000	99.165516 
2664.000000	99.172297 
2663.000000	99.177826 
2662.000000	99.179216 
2661.000000	99.177765 
2660.000000	99.176611 
2659.000000	99.176570 
2658.000000	99.175909 
2657.000000	99.173842 
2656.000000	99.172196 
2655.000000	99.173040 
2654.000000	99.176037 
2653.000000	99.178810 
2652.000000	99.179107 
2651.000000	99.176319 
2650.000000	99.171772 
2649.000000	99.167788 
2648.000000	99.165725 
2647.000000	99.165044 
2646.000000	99.165079 
2645.000000	99.166949 
2644.000000	99.171934 
2643.000000	99.178430 
2642.000000	99.182901 
2641.000000	99.184217 
2640.000000	99.184611 
2639.000000	99.185599 
2638.000000	99.185523 
2637.000000	99.182569 
2636.000000	99.177933 
2635.000000	99.174007 
2634.000000	99.171318 
2633.000000	99.169467 
2632.000000	99.169489 
2631.000000	99.172547 
2630.000000	99.176995 
2629.000000	99.179349 
2628.000000	99.178194 
2627.000000	99.175195 
2626.000000	99.172223 
2625.000000	99.169331 
2624.000000	99.165855 
2623.000000	99.162023 
2622.000000	99.159095 
2621.000000	99.158818 
2620.000000	99.162471 
2619.000000	99.169201 
2618.000000	99.175426 
2617.000000	99.177389 
2616.000000	99.174701 
2615.000000	99.170410 
2614.000000	99.167558 
2613.000000	99.166804 
2612.000000	99.167512 
2611.000000	99.169753 
2610.000000	99.174223 
2609.000000	99.180571 
2608.000000	99.186613 
2607.000000	99.189674 
2606.000000	99.189116 
2605.000000	99.187346 
2604.000000	99.187301 
2603.000000	99.188512 
2602.000000	99.186892 
2601.000000	99.179589 
2600.000000	99.169243 
2599.000000	99.162095 
2598.000000	99.162235 
2597.000000	99.168635 
2596.000000	99.176932 
2595.000000	99.182466 
2594.000000	99.182245 
2593.000000	99.176447 
2592.000000	99.168873 
2591.000000	99.164374 
2590.000000	99.164791 
2589.000000	99.168008 
2588.000000	99.171071 
2587.000000	99.172838 
2586.000000	99.172975 
2585.000000	99.170190 
2584.000000	99.163586 
2583.000000	99.155500 
2582.000000	99.150906 
2581.000000	99.152783 
2580.000000	99.158666 
2579.000000	99.162835 
2578.000000	99.161945 
2577.000000	99.157785 
2576.000000	99.154500 
2575.000000	99.154256 
2574.000000	99.156421 
2573.000000	99.159829 
2572.000000	99.163928 
2571.000000	99.167661 
2570.000000	99.169277 
2569.000000	99.168470 
2568.000000	99.167483 
2567.000000	99.168666 
2566.000000	99.171546 
2565.000000	99.173649 
2564.000000	99.173852 
2563.000000	99.173365 
2562.000000	99.173316 
2561.000000	99.173051 
2560.000000	99.171709 
2559.000000	99.170241 
2558.000000	99.170173 
2557.000000	99.170653 
2556.000000	99.168617 
2555.000000	99.162880 
2554.000000	99.156765 
2553.000000	99.154871 
2552.000000	99.157543 
2551.000000	99.160457 
2550.000000	99.160019 
2549.000000	99.157146 
2548.000000	99.154607 
2547.000000	99.152728 
2546.000000	99.150117 
2545.000000	99.147622 
2544.000000	99.148662 
2543.000000	99.155099 
2542.000000	99.164578 
2541.000000	99.172562 
2540.000000	99.175939 
2539.000000	99.174597 
2538.000000	99.170824 
2537.000000	99.167412 
2536.000000	99.165282 
2535.000000	99.163113 
2534.000000	99.160290 
2533.000000	99.159259 
2532.000000	99.162798 
2531.000000	99.169496 
2530.000000	99.174771 
2529.000000	99.176670 
2528.000000	99.177860 
2527.000000	99.181007 
2526.000000	99.185069 
2525.000000	99.187668 
2524.000000	99.188445 
2523.000000	99.187974 
2522.000000	99.185464 
2521.000000	99.180145 
2520.000000	99.173725 
2519.000000	99.169094 
2518.000000	99.167181 
2517.000000	99.166717 
2516.000000	99.166441 
2515.000000	99.166118 
2514.000000	99.166165 
2513.000000	99.167476 
2512.000000	99.170507 
2511.000000	99.173342 
2510.000000	99.172373 
2509.000000	99.166944 
2508.000000	99.161852 
2507.000000	99.162539 
2506.000000	99.168372 
2505.000000	99.173181 
2504.000000	99.172292 
2503.000000	99.166688 
2502.000000	99.160264 
2501.000000	99.155732 
2500.000000	99.154188 
2499.000000	99.156511 
2498.000000	99.163237 
2497.000000	99.173382 
2496.000000	99.184097 
2495.000000	99.191356 
2494.000000	99.191350 
2493.000000	99.182620 
2492.000000	99.167639 
2491.000000	99.151930 
2490.000000	99.141170 
2489.000000	99.138702 
2488.000000	99.144580 
2487.000000	99.155577 
2486.000000	99.166426 
2485.000000	99.172789 
2484.000000	99.173954 
2483.000000	99.172274 
2482.000000	99.170019 
2481.000000	99.167605 
2480.000000	99.164804 
2479.000000	99.162233 
2478.000000	99.160712 
2477.000000	99.159915 
2476.000000	99.158761 
2475.000000	99.157130 
2474.000000	99.156441 
2473.000000	99.158278 
2472.000000	99.162821 
2471.000000	99.168833 
2470.000000	99.174614 
2469.000000	99.178403 
2468.000000	99.178439 
2467.000000	99.174261 
2466.000000	99.168618 
2465.000000	99.166564 
2464.000000	99.170795 
2463.000000	99.178126 
2462.000000	99.182155 
2461.000000	99.179574 
2460.000000	99.172672 
2459.000000	99.165867 
2458.000000	99.161652 
2457.000000	99.160181 
2456.000000	99.160554 
2455.000000	99.161051 
2454.000000	99.159614 
2453.000000	99.155838 
2452.000000	99.151868 
2451.000000	99.150146 
2450.000000	99.150882 
2449.000000	99.152639 
2448.000000	99.154383 
2447.000000	99.155718 
2446.000000	99.156023 
2445.000000	99.155103 
2444.000000	99.154457 
2443.000000	99.156316 
2442.000000	99.161166 
2441.000000	99.167092 
2440.000000	99.171646 
2439.000000	99.173738 
2438.000000	99.173926 
2437.000000	99.173637 
2436.000000	99.173877 
2435.000000	99.173852 
2434.000000	99.171028 
2433.000000	99.163453 
2432.000000	99.152203 
2431.000000	99.141059 
2430.000000	99.133865 
2429.000000	99.132598 
2428.000000	99.137453 
2427.000000	99.147406 
2426.000000	99.159830 
2425.000000	99.170099 
2424.000000	99.173132 
2423.000000	99.166876 
2422.000000	99.154692 
2421.000000	99.143356 
2420.000000	99.137698 
2419.000000	99.137531 
2418.000000	99.140215 
2417.000000	99.144686 
2416.000000	99.150972 
2415.000000	99.156797 
2414.000000	99.158190 
2413.000000	99.154628 
2412.000000	99.150875 
2411.000000	99.151642 
2410.000000	99.156048 
2409.000000	99.159488 
2408.000000	99.159765 
2407.000000	99.158964 
2406.000000	99.159674 
2405.000000	99.161759 
2404.000000	99.163259 
2403.000000	99.162753 
2402.000000	99.160164 
2401.000000	99.156448 
2400.000000	99.153154 
2399.000000	99.151567 
2398.000000	99.151742 
2397.000000	99.152768 
2396.000000	99.154122 
2395.000000	99.156147 
2394.000000	99.158923 
2393.000000	99.161321 
2392.000000	99.162036 
2391.000000	99.161643 
2390.000000	99.162937 
2389.000000	99.168432 
2388.000000	99.177362 
2387.000000	99.185811 
2386.000000	99.190238 
2385.000000	99.190330 
2384.000000	99.188078 
2383.000000	99.185100 
2382.000000	99.182172 
2381.000000	99.180451 
2380.000000	99.180684 
2379.000000	99.180799 
2378.000000	99.176801 
2377.000000	99.168061 
2376.000000	99.160287 
2375.000000	99.160708 
2374.000000	99.170576 
2373.000000	99.184258 
2372.000000	99.195526 
2371.000000	99.202495 
2370.000000	99.206129 
2369.000000	99.206647 
2368.000000	99.203140 
2367.000000	99.195527 
2366.000000	99.185887 
2365.000000	99.178624 
2364.000000	99.178805 
2363.000000	99.187668 
2362.000000	99.200154 
2361.000000	99.208769 
2360.000000	99.209672 
2359.000000	99.205109 
2358.000000	99.199820 
2357.000000	99.196981 
2356.000000	99.197600 
2355.000000	99.199949 
2354.000000	99.200075 
2353.000000	99.195622 
2352.000000	99.189753 
2351.000000	99.187994 
2350.000000	99.191201 
2349.000000	99.196058 
2348.000000	99.199595 
2347.000000	99.201141 
2346.000000	99.200997 
2345.000000	99.199179 
2344.000000	99.196812 
2343.000000	99.195273 
2342.000000	99.195512 
2341.000000	99.197413 
2340.000000	99.199051 
2339.000000	99.198333 
2338.000000	99.195326 
2337.000000	99.193533 
2336.000000	99.196680 
2335.000000	99.204011 
2334.000000	99.210378 
2333.000000	99.211662 
2332.000000	99.208187 
2331.000000	99.201924 
2330.000000	99.192892 
2329.000000	99.182429 
2328.000000	99.175329 
2327.000000	99.175573 
2326.000000	99.180881 
2325.000000	99.183984 
2324.000000	99.180855 
2323.000000	99.174369 
2322.000000	99.171438 
2321.000000	99.175895 
2320.000000	99.185179 
2319.000000	99.193107 
2318.000000	99.195130 
2317.000000	99.191862 
2316.000000	99.187111 
2315.000000	99.183873 
2314.000000	99.182137 
2313.000000	99.180761 
2312.000000	99.179633 
2311.000000	99.179735 
2310.000000	99.181863 
2309.000000	99.185701 
2308.000000	99.189211 
2307.000000	99.188783 
2306.000000	99.182038 
2305.000000	99.170797 
2304.000000	99.160110 
2303.000000	99.153457 
2302.000000	99.150689 
2301.000000	99.150583 
2300.000000	99.152743 
2299.000000	99.155874 
2298.000000	99.157268 
2297.000000	99.156502 
2296.000000	99.157256 
2295.000000	99.162170 
2294.000000	99.167519 
2293.000000	99.166569 
2292.000000	99.158016 
2291.000000	99.147407 
2290.000000	99.140125 
2289.000000	99.136074 
2288.000000	99.132315 
2287.000000	99.127746 
2286.000000	99.123389 
2285.000000	99.120003 
2284.000000	99.117564 
2283.000000	99.115998 
2282.000000	99.114486 
2281.000000	99.110607 
2280.000000	99.102243 
2279.000000	99.091036 
2278.000000	99.082742 
2277.000000	99.082908 
2276.000000	99.091843 
2275.000000	99.104288 
2274.000000	99.113766 
2273.000000	99.116514 
2272.000000	99.111503 
2271.000000	99.099170 
2270.000000	99.082844 
2269.000000	99.070360 
2268.000000	99.070324 
2267.000000	99.084811 
2266.000000	99.106746 
2265.000000	99.125039 
2264.000000	99.131649 
2263.000000	99.125246 
2262.000000	99.111781 
2261.000000	99.101720 
2260.000000	99.102217 
2259.000000	99.109625 
2258.000000	99.112674 
2257.000000	99.104942 
2256.000000	99.091225 
2255.000000	99.080052 
2254.000000	99.074292 
2253.000000	99.072439 
2252.000000	99.074831 
2251.000000	99.083171 
2250.000000	99.095790 
2249.000000	99.108001 
2248.000000	99.116545 
2247.000000	99.120224 
2246.000000	99.117457 
2245.000000	99.107115 
2244.000000	99.091130 
2243.000000	99.073358 
2242.000000	99.056582 
2241.000000	99.042837 
2240.000000	99.034655 
2239.000000	99.032727 
2238.000000	99.033640 
2237.000000	99.032850 
2236.000000	99.028623 
2235.000000	99.020897 
2234.000000	99.009351 
2233.000000	98.996658 
2232.000000	98.990692 
2231.000000	98.997822 
2230.000000	99.014791 
2229.000000	99.031945 
2228.000000	99.043971 
2227.000000	99.052739 
2226.000000	99.060103 
2225.000000	99.063684 
2224.000000	99.061120 
2223.000000	99.054228 
2222.000000	99.047277 
2221.000000	99.043610 
2220.000000	99.044331 
2219.000000	99.047937 
2218.000000	99.051664 
2217.000000	99.055650 
2216.000000	99.064424 
2215.000000	99.080494 
2214.000000	99.097163 
2213.000000	99.102103 
2212.000000	99.089215 
2211.000000	99.064781 
2210.000000	99.042389 
2209.000000	99.033744 
2208.000000	99.041816 
2207.000000	99.058600 
2206.000000	99.069936 
2205.000000	99.066178 
2204.000000	99.049152 
2203.000000	99.028133 
2202.000000	99.011776 
2201.000000	99.005130 
2200.000000	99.008656 
2199.000000	99.015269 
2198.000000	99.013281 
2197.000000	98.999744 
2196.000000	98.988330 
2195.000000	98.996289 
2194.000000	99.024565 
2193.000000	99.056838 
2192.000000	99.076425 
2191.000000	99.077273 
2190.000000	99.060882 
2189.000000	99.033286 
2188.000000	99.006597 
2187.000000	98.994022 
2186.000000	98.999088 
2185.000000	99.014242 
2184.000000	99.031058 
2183.000000	99.046375 
2182.000000	99.058465 
2181.000000	99.065360 
2180.000000	99.068831 
2179.000000	99.072305 
2178.000000	99.072825 
2177.000000	99.062505 
2176.000000	99.040381 
2175.000000	99.015888 
2174.000000	98.997925 
2173.000000	98.987042 
2172.000000	98.980713 
2171.000000	98.979206 
2170.000000	98.982924 
2169.000000	98.990026 
2168.000000	98.999974 
2167.000000	99.013843 
2166.000000	99.028096 
2165.000000	99.034224 
2164.000000	99.028498 
2163.000000	99.016356 
2162.000000	99.003923 
2161.000000	98.992081 
2160.000000	98.982541 
2159.000000	98.981716 
2158.000000	98.992060 
2157.000000	99.006569 
2156.000000	99.018118 
2155.000000	99.026836 
2154.000000	99.033747 
2153.000000	99.035221 
2152.000000	99.028828 
2151.000000	99.019327 
2150.000000	99.014621 
2149.000000	99.019456 
2148.000000	99.034827 
2147.000000	99.057867 
2146.000000	99.079319 
2145.000000	99.087555 
2144.000000	99.080230 
2143.000000	99.067265 
2142.000000	99.058768 
2141.000000	99.055182 
2140.000000	99.052770 
2139.000000	99.052420 
2138.000000	99.056531 
2137.000000	99.061438 
2136.000000	99.060688 
2135.000000	99.054843 
2134.000000	99.051890 
2133.000000	99.057445 
2132.000000	99.068463 
2131.000000	99.076765 
2130.000000	99.076137 
2129.000000	99.066899 
2128.000000	99.055999 
2127.000000	99.051519 
2126.000000	99.055240 
2125.000000	99.061863 
2124.000000	99.066879 
2123.000000	99.072386 
2122.000000	99.082175 
2121.000000	99.093768 
2120.000000	99.100030 
2119.000000	99.098006 
2118.000000	99.091950 
2117.000000	99.087316 
2116.000000	99.085311 
2115.000000	99.084430 
2114.000000	99.084282 
2113.000000	99.085729 
2112.000000	99.088502 
2111.000000	99.090468 
2110.000000	99.089304 
2109.000000	99.084657 
2108.000000	99.078725 
2107.000000	99.074049 
2106.000000	99.070016 
2105.000000	99.062502 
2104.000000	99.048697 
2103.000000	99.032180 
2102.000000	99.021345 
2101.000000	99.021783 
2100.000000	99.030823 
2099.000000	99.040490 
2098.000000	99.045775 
2097.000000	99.049237 
2096.000000	99.056537 
2095.000000	99.067254 
2094.000000	99.072077 
2093.000000	99.061904 
2092.000000	99.039627 
2091.000000	99.020040 
2090.000000	99.016619 
2089.000000	99.029130 
2088.000000	99.044917 
2087.000000	99.051442 
2086.000000	99.046433 
2085.000000	99.037392 
2084.000000	99.033361 
2083.000000	99.037076 
2082.000000	99.044003 
2081.000000	99.048329 
2080.000000	99.049201 
2079.000000	99.050100 
2078.000000	99.053071 
2077.000000	99.056659 
2076.000000	99.060252 
2075.000000	99.066791 
2074.000000	99.078223 
2073.000000	99.090531 
2072.000000	99.096551 
2071.000000	99.093018 
2070.000000	99.082454 
2069.000000	99.069321 
2068.000000	99.057021 
2067.000000	99.047740 
2066.000000	99.041814 
2065.000000	99.036670 
2064.000000	99.029401 
2063.000000	99.021651 
2062.000000	99.019603 
2061.000000	99.027513 
2060.000000	99.042494 
2059.000000	99.057128 
2058.000000	99.066322 
2057.000000	99.070153 
2056.000000	99.070676 
2055.000000	99.067987 
2054.000000	99.060728 
2053.000000	99.049834 
2052.000000	99.039573 
2051.000000	99.033760 
2050.000000	99.031672 
2049.000000	99.028549 
2048.000000	99.020278 
2047.000000	99.007199 
2046.000000	98.993447 
2045.000000	98.983857 
2044.000000	98.981203 
2043.000000	98.984290 
2042.000000	98.987961 
2041.000000	98.987036 
2040.000000	98.982181 
2039.000000	98.980559 
2038.000000	98.988582 
2037.000000	99.004093 
2036.000000	99.016936 
2035.000000	99.017855 
2034.000000	99.006296 
2033.000000	98.989418 
2032.000000	98.974262 
2031.000000	98.962072 
2030.000000	98.950891 
2029.000000	98.941532 
2028.000000	98.937595 
2027.000000	98.939740 
2026.000000	98.944034 
2025.000000	98.948206 
2024.000000	98.955348 
2023.000000	98.966896 
2022.000000	98.974919 
2021.000000	98.968621 
2020.000000	98.949454 
2019.000000	98.932940 
2018.000000	98.932147 
2017.000000	98.943257 
2016.000000	98.951864 
2015.000000	98.951118 
2014.000000	98.947637 
2013.000000	98.950608 
2012.000000	98.960330 
2011.000000	98.969253 
2010.000000	98.972532 
2009.000000	98.975164 
2008.000000	98.986878 
2007.000000	99.009241 
2006.000000	99.030352 
2005.000000	99.036284 
2004.000000	99.026752 
2003.000000	99.014826 
2002.000000	99.011243 
2001.000000	99.013317 
2000.000000	99.010595 
1999.000000	98.997709 
1998.000000	98.979804 
1997.000000	98.968060 
1996.000000	98.971309 
1995.000000	98.989843 
1994.000000	99.014736 
1993.000000	99.033346 
1992.000000	99.038495 
1991.000000	99.033154 
1990.000000	99.025078 
1989.000000	99.019080 
1988.000000	99.015374 
1987.000000	99.011557 
1986.000000	99.004141 
1985.000000	98.991478 
1984.000000	98.978181 
1983.000000	98.974116 
1982.000000	98.984454 
1981.000000	99.000837 
1980.000000	99.007102 
1979.000000	98.995570 
1978.000000	98.975535 
1977.000000	98.962710 
1976.000000	98.961181 
1975.000000	98.961402 
1974.000000	98.956782 
1973.000000	98.955609 
1972.000000	98.971537 
1971.000000	99.004343 
1970.000000	99.035783 
1969.000000	99.046272 
1968.000000	99.032961 
1967.000000	99.009381 
1966.000000	98.989766 
1965.000000	98.978758 
1964.000000	98.975267 
1963.000000	98.978541 
1962.000000	98.987011 
1961.000000	98.996141 
1960.000000	99.002560 
1959.000000	99.008857 
1958.000000	99.020322 
1957.000000	99.037158 
1956.000000	99.052935 
1955.000000	99.060901 
1954.000000	99.059773 
1953.000000	99.052979 
1952.000000	99.044023 
1951.000000	99.034660 
1950.000000	99.026541 
1949.000000	99.022007 
1948.000000	99.022136 
1947.000000	99.023978 
1946.000000	99.021029 
1945.000000	99.008338 
1944.000000	98.988416 
1943.000000	98.971931 
1942.000000	98.970112 
1941.000000	98.984294 
1940.000000	99.004702 
1939.000000	99.020433 
1938.000000	99.028923 
1937.000000	99.035518 
1936.000000	99.044546 
1935.000000	99.052862 
1934.000000	99.054818 
1933.000000	99.051815 
1932.000000	99.052171 
1931.000000	99.061241 
1930.000000	99.074722 
1929.000000	99.084055 
1928.000000	99.086088 
1927.000000	99.083627 
1926.000000	99.079494 
1925.000000	99.073887 
1924.000000	99.067685 
1923.000000	99.064463 
1922.000000	99.066422 
1921.000000	99.070929 
1920.000000	99.072758 
1919.000000	99.068268 
1918.000000	99.057776 
1917.000000	99.046175 
1916.000000	99.039842 
1915.000000	99.040732 
1914.000000	99.045301 
1913.000000	99.049528 
1912.000000	99.053101 
1911.000000	99.057778 
1910.000000	99.062275 
1909.000000	99.063349 
1908.000000	99.062159 
1907.000000	99.063551 
1906.000000	99.068803 
1905.000000	99.072895 
1904.000000	99.071322 
1903.000000	99.066370 
1902.000000	99.063183 
1901.000000	99.063699 
1900.000000	99.066809 
1899.000000	99.071015 
1898.000000	99.075036 
1897.000000	99.077325 
1896.000000	99.077512 
1895.000000	99.077204 
1894.000000	99.077260 
1893.000000	99.076686 
1892.000000	99.075418 
1891.000000	99.075243 
1890.000000	99.076176 
1889.000000	99.075042 
1888.000000	99.070560 
1887.000000	99.066068 
1886.000000	99.065266 
1885.000000	99.068649 
1884.000000	99.074692 
1883.000000	99.082116 
1882.000000	99.089015 
1881.000000	99.092923 
1880.000000	99.094463 
1879.000000	99.097893 
1878.000000	99.106495 
1877.000000	99.118613 
1876.000000	99.128980 
1875.000000	99.133084 
1874.000000	99.129122 
1873.000000	99.118218 
1872.000000	99.104949 
1871.000000	99.095290 
1870.000000	99.091561 
1869.000000	99.090352 
1868.000000	99.089734 
1867.000000	99.093957 
1866.000000	99.104402 
1865.000000	99.113596 
1864.000000	99.112585 
1863.000000	99.100421 
1862.000000	99.084471 
1861.000000	99.072777 
1860.000000	99.068686 
1859.000000	99.071486 
1858.000000	99.078097 
1857.000000	99.084224 
1856.000000	99.087428 
1855.000000	99.089518 
1854.000000	99.093335 
1853.000000	99.097983 
1852.000000	99.100387 
1851.000000	99.099342 
1850.000000	99.097069 
1849.000000	99.097102 
1848.000000	99.100766 
1847.000000	99.106081 
1846.000000	99.109479 
1845.000000	99.108945 
1844.000000	99.106368 
1843.000000	99.106660 
1842.000000	99.111391 
1841.000000	99.116940 
1840.000000	99.119822 
1839.000000	99.119020 
1838.000000	99.115223 
1837.000000	99.109815 
1836.000000	99.105086 
1835.000000	99.103586 
1834.000000	99.105351 
1833.000000	99.107508 
1832.000000	99.106750 
1831.000000	99.101306 
1830.000000	99.093117 
1829.000000	99.088228 
1828.000000	99.090619 
1827.000000	99.097388 
1826.000000	99.102756 
1825.000000	99.103419 
1824.000000	99.100351 
1823.000000	99.096310 
1822.000000	99.091522 
1821.000000	99.085155 
1820.000000	99.079414 
1819.000000	99.078886 
1818.000000	99.085400 
1817.000000	99.094107 
1816.000000	99.099028 
1815.000000	99.100692 
1814.000000	99.103459 
1813.000000	99.108654 
1812.000000	99.113308 
1811.000000	99.116140 
1810.000000	99.119488 
1809.000000	99.122841 
1808.000000	99.122223 
1807.000000	99.116344 
1806.000000	99.107971 
1805.000000	99.099935 
1804.000000	99.093769 
1803.000000	99.091031 
1802.000000	99.091619 
1801.000000	99.092121 
1800.000000	99.089252 
1799.000000	99.085679 
1798.000000	99.086972 
1797.000000	99.093528 
1796.000000	99.101157 
1795.000000	99.106726 
1794.000000	99.110063 
1793.000000	99.111338 
1792.000000	99.109700 
1791.000000	99.107455 
1790.000000	99.107871 
1789.000000	99.109321 
1788.000000	99.109110 
1787.000000	99.108324 
1786.000000	99.109960 
1785.000000	99.113369 
1784.000000	99.114755 
1783.000000	99.112441 
1782.000000	99.107237 
1781.000000	99.101436 
1780.000000	99.096906 
1779.000000	99.094787 
1778.000000	99.095735 
1777.000000	99.098976 
1776.000000	99.103110 
1775.000000	99.106593 
1774.000000	99.109597 
1773.000000	99.114272 
1772.000000	99.119424 
1771.000000	99.120617 
1770.000000	99.116508 
1769.000000	99.109387 
1768.000000	99.103074 
1767.000000	99.100386 
1766.000000	99.101103 
1765.000000	99.103306 
1764.000000	99.105407 
1763.000000	99.106968 
1762.000000	99.107572 
1761.000000	99.106935 
1760.000000	99.104526 
1759.000000	99.100848 
1758.000000	99.099221 
1757.000000	99.103963 
1756.000000	99.114325 
1755.000000	99.122799 
1754.000000	99.124193 
1753.000000	99.121654 
1752.000000	99.121469 
1751.000000	99.122558 
1750.000000	99.118743 
1749.000000	99.110285 
1748.000000	99.104373 
1747.000000	99.105103 
1746.000000	99.109602 
1745.000000	99.114349 
1744.000000	99.117851 
1743.000000	99.119407 
1742.000000	99.119225 
1741.000000	99.118680 
1740.000000	99.119025 
1739.000000	99.120736 
1738.000000	99.122983 
1737.000000	99.123932 
1736.000000	99.123655 
1735.000000	99.125979 
1734.000000	99.128257 
1733.000000	99.125639 
1732.000000	99.121257 
1731.000000	99.117128 
1730.000000	99.113450 
1729.000000	99.111490 
1728.000000	99.111986 
1727.000000	99.114389 
1726.000000	99.117573 
1725.000000	99.121258 
1724.000000	99.123762 
1723.000000	99.123544 
1722.000000	99.121112 
1721.000000	99.117842 
1720.000000	99.115939 
1719.000000	99.119444 
1718.000000	99.128628 
1717.000000	99.133301 
1716.000000	99.127668 
1715.000000	99.120826 
1714.000000	99.120840 
1713.000000	99.124773 
1712.000000	99.126294 
1711.000000	99.125038 
1710.000000	99.124830 
1709.000000	99.126263 
1708.000000	99.126151 
1707.000000	99.123478 
1706.000000	99.122103 
1705.000000	99.123335 
1704.000000	99.124236 
1703.000000	99.122968 
1702.000000	99.122422 
1701.000000	99.125493 
1700.000000	99.123684 
1699.000000	99.116590 
1698.000000	99.114084 
1697.000000	99.115064 
1696.000000	99.115183 
1695.000000	99.114434 
1694.000000	99.115016 
1693.000000	99.115878 
1692.000000	99.114769 
1691.000000	99.114157 
1690.000000	99.116415 
1689.000000	99.120209 
1688.000000	99.123071 
1687.000000	99.123619 
1686.000000	99.124858 
1685.000000	99.129881 
1684.000000	99.130584 
1683.000000	99.123955 
1682.000000	99.116428 
1681.000000	99.110464 
1680.000000	99.109365 
1679.000000	99.113031 
1678.000000	99.115187 
1677.000000	99.112615 
1676.000000	99.109830 
1675.000000	99.111593 
1674.000000	99.116243 
1673.000000	99.121181 
1672.000000	99.125432 
1671.000000	99.129614 
1670.000000	99.131478 
1669.000000	99.128168 
1668.000000	99.123743 
1667.000000	99.121107 
1666.000000	99.118096 
1665.000000	99.113859 
1664.000000	99.111224 
1663.000000	99.112856 
1662.000000	99.116034 
1661.000000	99.118518 
1660.000000	99.123073 
1659.000000	99.131052 
1658.000000	99.138288 
1657.000000	99.138734 
1656.000000	99.131227 
1655.000000	99.120133 
1654.000000	99.115214 
1653.000000	99.113806 
1652.000000	99.114615 
1651.000000	99.122538 
1650.000000	99.128963 
1649.000000	99.129666 
1648.000000	99.128545 
1647.000000	99.126387 
1646.000000	99.123679 
1645.000000	99.123759 
1644.000000	99.127555 
1643.000000	99.132666 
1642.000000	99.136273 
1641.000000	99.136856 
1640.000000	99.134912 
1639.000000	99.131897 
1638.000000	99.129498 
1637.000000	99.130094 
1636.000000	99.133202 
1635.000000	99.134251 
1634.000000	99.133162 
1633.000000	99.131518 
1632.000000	99.128419 
1631.000000	99.124412 
1630.000000	99.120435 
1629.000000	99.117358 
1628.000000	99.116685 
1627.000000	99.118455 
1626.000000	99.119544 
1625.000000	99.117895 
1624.000000	99.115880 
1623.000000	99.116231 
1622.000000	99.117665 
1621.000000	99.118064 
1620.000000	99.117669 
1619.000000	99.117670 
1618.000000	99.119193 
1617.000000	99.121233 
1616.000000	99.124153 
1615.000000	99.129350 
1614.000000	99.133767 
1613.000000	99.134770 
1612.000000	99.135231 
1611.000000	99.137898 
1610.000000	99.139643 
1609.000000	99.137061 
1608.000000	99.133075 
1607.000000	99.131892 
1606.000000	99.132176 
1605.000000	99.131781 
1604.000000	99.132283 
1603.000000	99.134518 
1602.000000	99.136249 
1601.000000	99.136464 
1600.000000	99.137634 
1599.000000	99.141015 
1598.000000	99.144126 
1597.000000	99.144975 
1596.000000	99.144757 
1595.000000	99.144647 
1594.000000	99.143206 
1593.000000	99.140209 
1592.000000	99.139309 
1591.000000	99.143039 
1590.000000	99.148130 
1589.000000	99.150054 
1588.000000	99.149509 
1587.000000	99.150197 
1586.000000	99.152438 
1585.000000	99.153747 
1584.000000	99.154658 
1583.000000	99.156714 
1582.000000	99.158079 
1581.000000	99.156437 
1580.000000	99.152578 
1579.000000	99.147537 
1578.000000	99.141140 
1577.000000	99.135178 
1576.000000	99.133392 
1575.000000	99.137681 
1574.000000	99.144020 
1573.000000	99.147458 
1572.000000	99.148079 
1571.000000	99.149629 
1570.000000	99.152386 
1569.000000	99.154189 
1568.000000	99.156638 
1567.000000	99.158678 
1566.000000	99.156424 
1565.000000	99.149784 
1564.000000	99.143241 
1563.000000	99.137073 
1562.000000	99.129590 
1561.000000	99.121837 
1560.000000	99.128126 
1559.000000	99.139449 
1558.000000	99.137610 
1557.000000	99.135677 
1556.000000	99.139037 
1555.000000	99.142420 
1554.000000	99.142945 
1553.000000	99.140388 
1552.000000	99.137888 
1551.000000	99.137186 
1550.000000	99.139108 
1549.000000	99.142332 
1548.000000	99.144900 
1547.000000	99.144916 
1546.000000	99.140732 
1545.000000	99.132779 
1544.000000	99.125107 
1543.000000	99.123627 
1542.000000	99.131175 
1541.000000	99.142504 
1540.000000	99.145440 
1539.000000	99.140523 
1538.000000	99.138384 
1537.000000	99.139514 
1536.000000	99.140345 
1535.000000	99.142026 
1534.000000	99.143604 
1533.000000	99.140840 
1532.000000	99.135193 
1531.000000	99.132493 
1530.000000	99.133642 
1529.000000	99.134549 
1528.000000	99.132216 
1527.000000	99.129342 
1526.000000	99.130293 
1525.000000	99.134331 
1524.000000	99.137491 
1523.000000	99.140030 
1522.000000	99.145410 
1521.000000	99.151185 
1520.000000	99.151998 
1519.000000	99.146177 
1518.000000	99.135289 
1517.000000	99.123967 
1516.000000	99.117146 
1515.000000	99.116186 
1514.000000	99.118911 
1513.000000	99.123477 
1512.000000	99.128193 
1511.000000	99.130345 
1510.000000	99.129250 
1509.000000	99.126344 
1508.000000	99.125407 
1507.000000	99.125785 
1506.000000	99.125269 
1505.000000	99.125240 
1504.000000	99.125963 
1503.000000	99.125999 
1502.000000	99.125324 
1501.000000	99.123574 
1500.000000	99.119405 
1499.000000	99.113210 
1498.000000	99.109311 
1497.000000	99.110058 
1496.000000	99.111353 
1495.000000	99.112519 
1494.000000	99.117562 
1493.000000	99.127205 
1492.000000	99.138244 
1491.000000	99.146124 
1490.000000	99.146788 
1489.000000	99.139878 
1488.000000	99.129247 
1487.000000	99.120763 
1486.000000	99.116372 
1485.000000	99.112772 
1484.000000	99.109078 
1483.000000	99.107709 
1482.000000	99.110498 
1481.000000	99.115000 
1480.000000	99.117163 
1479.000000	99.116892 
1478.000000	99.116859 
1477.000000	99.117299 
1476.000000	99.115980 
1475.000000	99.114245 
1474.000000	99.115478 
1473.000000	99.118199 
1472.000000	99.117425 
1471.000000	99.114261 
1470.000000	99.112825 
1469.000000	99.112389 
1468.000000	99.110521 
1467.000000	99.107579 
1466.000000	99.105602 
1465.000000	99.105106 
1464.000000	99.105864 
1463.000000	99.108368 
1462.000000	99.112505 
1461.000000	99.115513 
1460.000000	99.114112 
1459.000000	99.106812 
1458.000000	99.095893 
1457.000000	99.084395 
1456.000000	99.075562 
1455.000000	99.071373 
1454.000000	99.070392 
1453.000000	99.072760 
1452.000000	99.079237 
1451.000000	99.087364 
1450.000000	99.093599 
1449.000000	99.096074 
1448.000000	99.094918 
1447.000000	99.093261 
1446.000000	99.094173 
1445.000000	99.098151 
1444.000000	99.102870 
1443.000000	99.105269 
1442.000000	99.105191 
1441.000000	99.104468 
1440.000000	99.103588 
1439.000000	99.101309 
1438.000000	99.099479 
1437.000000	99.100624 
1436.000000	99.102527 
1435.000000	99.102418 
1434.000000	99.101371 
1433.000000	99.100690 
1432.000000	99.100131 
1431.000000	99.098061 
1430.000000	99.094590 
1429.000000	99.092228 
1428.000000	99.090928 
1427.000000	99.088409 
1426.000000	99.083674 
1425.000000	99.079910 
1424.000000	99.079225 
1423.000000	99.077215 
1422.000000	99.069281 
1421.000000	99.056765 
1420.000000	99.044706 
1419.000000	99.034610 
1418.000000	99.026564 
1417.000000	99.021222 
1416.000000	99.015755 
1415.000000	99.007162 
1414.000000	98.996016 
1413.000000	98.985468 
1412.000000	98.977444 
1411.000000	98.970233 
1410.000000	98.962285 
1409.000000	98.954942 
1408.000000	98.950058 
1407.000000	98.948434 
1406.000000	98.949196 
1405.000000	98.951733 
1404.000000	98.956585 
1403.000000	98.963865 
1402.000000	98.973385 
1401.000000	98.984766 
1400.000000	98.996244 
1399.000000	99.003129 
1398.000000	99.000677 
1397.000000	98.986550 
1396.000000	98.961397 
1395.000000	98.933567 
1394.000000	98.919385 
1393.000000	98.930066 
1392.000000	98.959285 
1391.000000	98.990334 
1390.000000	99.010675 
1389.000000	99.017611 
1388.000000	99.014970 
1387.000000	99.007565 
1386.000000	98.998986 
1385.000000	98.991659 
1384.000000	98.986502 
1383.000000	98.982834 
1382.000000	98.980083 
1381.000000	98.978950 
1380.000000	98.981041 
1379.000000	98.986926 
1378.000000	98.995110 
1377.000000	99.003707 
1376.000000	99.012182 
1375.000000	99.020675 
1374.000000	99.028908 
1373.000000	99.037226 
1372.000000	99.045976 
1371.000000	99.054016 
1370.000000	99.059376 
1369.000000	99.062354 
1368.000000	99.065532 
1367.000000	99.069938 
1366.000000	99.074149 
1365.000000	99.077175 
1364.000000	99.080066 
1363.000000	99.083823 
1362.000000	99.087532 
1361.000000	99.090079 
1360.000000	99.092299 
1359.000000	99.096079 
1358.000000	99.102177 
1357.000000	99.109570 
1356.000000	99.116199 
1355.000000	99.120347 
1354.000000	99.122285 
1353.000000	99.124031 
1352.000000	99.126717 
1351.000000	99.129496 
1350.000000	99.130521 
1349.000000	99.130228 
1348.000000	99.131108 
1347.000000	99.133761 
1346.000000	99.136160 
1345.000000	99.136942 
1344.000000	99.137026 
1343.000000	99.137259 
1342.000000	99.137001 
1341.000000	99.136048 
1340.000000	99.135873 
1339.000000	99.137399 
1338.000000	99.139576 
1337.000000	99.141549 
1336.000000	99.143962 
1335.000000	99.147036 
1334.000000	99.149380 
1333.000000	99.149864 
1332.000000	99.149159 
1331.000000	99.148272 
1330.000000	99.147033 
1329.000000	99.145473 
1328.000000	99.144892 
1327.000000	99.145944 
1326.000000	99.146920 
1325.000000	99.146231 
1324.000000	99.144820 
1323.000000	99.144398 
1322.000000	99.145023 
1321.000000	99.145993 
1320.000000	99.147925 
1319.000000	99.151895 
1318.000000	99.156905 
1317.000000	99.159826 
1316.000000	99.158238 
1315.000000	99.152637 
1314.000000	99.146036 
1313.000000	99.141596 
1312.000000	99.140181 
1311.000000	99.140149 
1310.000000	99.139737 
1309.000000	99.139124 
1308.000000	99.139385 
1307.000000	99.140321 
1306.000000	99.140605 
1305.000000	99.140329 
1304.000000	99.141246 
1303.000000	99.143956 
1302.000000	99.146603 
1301.000000	99.147149 
1300.000000	99.145763 
1299.000000	99.144256 
1298.000000	99.144240 
1297.000000	99.146214 
1296.000000	99.149399 
1295.000000	99.151770 
1294.000000	99.151319 
1293.000000	99.147953 
1292.000000	99.143427 
1291.000000	99.139366 
1290.000000	99.136296 
1289.000000	99.134494 
1288.000000	99.134221 
1287.000000	99.134688 
1286.000000	99.134273 
1285.000000	99.132383 
1284.000000	99.129754 
1283.000000	99.126607 
1282.000000	99.122241 
1281.000000	99.117053 
1280.000000	99.113193 
1279.000000	99.111858 
1278.000000	99.111531 
1277.000000	99.110323 
1276.000000	99.108678 
1275.000000	99.107993 
1274.000000	99.107670 
1273.000000	99.105558 
1272.000000	99.100841 
1271.000000	99.094821 
1270.000000	99.089000 
1269.000000	99.083794 
1268.000000	99.078940 
1267.000000	99.073755 
1266.000000	99.067151 
1265.000000	99.058671 
1264.000000	99.049472 
1263.000000	99.041339 
1262.000000	99.034713 
1261.000000	99.028667 
1260.000000	99.022841 
1259.000000	99.018057 
1258.000000	99.014886 
1257.000000	99.012802 
1256.000000	99.011286 
1255.000000	99.010833 
1254.000000	99.011993 
1253.000000	99.013828 
1252.000000	99.014352 
1251.000000	99.012803 
1250.000000	99.010992 
1249.000000	99.011808 
1248.000000	99.016260 
1247.000000	99.022027 
1246.000000	99.024810 
1245.000000	99.021002 
1244.000000	99.010061 
1243.000000	98.996012 
1242.000000	98.986506 
1241.000000	98.987810 
1240.000000	98.998938 
1239.000000	99.011573 
1238.000000	99.017341 
1237.000000	99.014816 
1236.000000	99.008460 
1235.000000	99.002397 
1234.000000	98.997468 
1233.000000	98.993227 
1232.000000	98.989443 
1231.000000	98.985144 
1230.000000	98.979091 
1229.000000	98.972527 
1228.000000	98.969339 
1227.000000	98.971847 
1226.000000	98.977710 
1225.000000	98.982437 
1224.000000	98.984019 
1223.000000	98.983859 
1222.000000	98.984173 
1221.000000	98.986019 
1220.000000	98.989448 
1219.000000	98.994041 
1218.000000	98.998949 
1217.000000	99.003000 
1216.000000	99.005065 
1215.000000	99.004472 
1214.000000	99.001358 
1213.000000	98.996520 
1212.000000	98.990640 
1211.000000	98.984174 
1210.000000	98.978431 
1209.000000	98.975655 
1208.000000	98.976655 
1207.000000	98.978937 
1206.000000	98.978920 
1205.000000	98.975905 
1204.000000	98.972200 
1203.000000	98.969448 
1202.000000	98.966826 
1201.000000	98.963143 
1200.000000	98.958679 
1199.000000	98.954237 
1198.000000	98.950122 
1197.000000	98.946687 
1196.000000	98.944080 
1195.000000	98.940777 
1194.000000	98.934390 
1193.000000	98.925104 
1192.000000	98.916365 
1191.000000	98.910696 
1190.000000	98.906480 
1189.000000	98.900565 
1188.000000	98.892609 
1187.000000	98.884970 
1186.000000	98.879383 
1185.000000	98.875642 
1184.000000	98.872851 
1183.000000	98.870111 
1182.000000	98.866418 
1181.000000	98.861500 
1180.000000	98.856446 
1179.000000	98.852168 
1178.000000	98.847842 
1177.000000	98.842285 
1176.000000	98.836089 
1175.000000	98.830426 
1174.000000	98.824091 
1173.000000	98.814080 
1172.000000	98.799820 
1171.000000	98.785201 
1170.000000	98.775260 
1169.000000	98.771345 
1168.000000	98.770049 
1167.000000	98.766625 
1166.000000	98.759455 
1165.000000	98.751632 
1164.000000	98.748110 
1163.000000	98.751019 
1162.000000	98.758020 
1161.000000	98.765383 
1160.000000	98.771704 
1159.000000	98.777557 
1158.000000	98.782200 
1157.000000	98.782310 
1156.000000	98.774687 
1155.000000	98.760080 
1154.000000	98.744116 
1153.000000	98.733797 
1152.000000	98.731908 
1151.000000	98.734338 
1150.000000	98.733687 
1149.000000	98.726243 
1148.000000	98.714848 
1147.000000	98.704709 
1146.000000	98.697656 
1145.000000	98.691358 
1144.000000	98.682930 
1143.000000	98.671809 
1142.000000	98.659781 
1141.000000	98.649788 
1140.000000	98.644471 
1139.000000	98.644156 
1138.000000	98.645652 
1137.000000	98.644105 
1136.000000	98.636881 
1135.000000	98.625592 
1134.000000	98.614098 
1133.000000	98.604479 
1132.000000	98.595173 
1131.000000	98.583440 
1130.000000	98.569648 
1129.000000	98.557952 
1128.000000	98.551519 
1127.000000	98.547791 
1126.000000	98.540551 
1125.000000	98.526972 
1124.000000	98.510799 
1123.000000	98.497927 
1122.000000	98.490638 
1121.000000	98.486973 
1120.000000	98.483776 
1119.000000	98.478720 
1118.000000	98.470837 
1117.000000	98.460901 
1116.000000	98.450621 
1115.000000	98.440443 
1114.000000	98.429208 
1113.000000	98.416887 
1112.000000	98.405771 
1111.000000	98.397124 
1110.000000	98.388173 
1109.000000	98.375135 
1108.000000	98.358519 
1107.000000	98.343082 
1106.000000	98.332366 
1105.000000	98.325102 
1104.000000	98.317506 
1103.000000	98.307700 
1102.000000	98.297185 
1101.000000	98.288869 
1100.000000	98.283731 
1099.000000	98.280116 
1098.000000	98.276019 
1097.000000	98.271781 
1096.000000	98.269125 
1095.000000	98.267145 
1094.000000	98.261260 
1093.000000	98.247193 
1092.000000	98.224633 
1091.000000	98.196277 
1090.000000	98.165172 
1089.000000	98.134239 
1088.000000	98.106493 
1087.000000	98.083534 
1086.000000	98.064625 
1085.000000	98.048611 
1084.000000	98.035353 
1083.000000	98.023710 
1082.000000	98.010048 
1081.000000	97.991301 
1080.000000	97.968494 
1079.000000	97.945239 
1078.000000	97.924072 
1077.000000	97.906449 
1076.000000	97.894749 
1075.000000	97.891046 
1074.000000	97.894383 
1073.000000	97.901484 
1072.000000	97.908668 
1071.000000	97.910277 
1070.000000	97.897734 
1069.000000	97.866051 
1068.000000	97.822644 
1067.000000	97.785774 
1066.000000	97.771050 
1065.000000	97.779779 
1064.000000	97.800426 
1063.000000	97.818382 
1062.000000	97.823276 
1061.000000	97.810843 
1060.000000	97.782731 
1059.000000	97.746132 
1058.000000	97.711633 
1057.000000	97.688373 
1056.000000	97.679241 
1055.000000	97.680012 
1054.000000	97.683438 
1053.000000	97.684809 
1052.000000	97.683800 
1051.000000	97.681827 
1050.000000	97.679304 
1049.000000	97.675745 
1048.000000	97.670838 
1047.000000	97.664935 
1046.000000	97.659808 
1045.000000	97.658523 
1044.000000	97.662380 
1043.000000	97.668154 
1042.000000	97.671075 
1041.000000	97.670866 
1040.000000	97.671960 
1039.000000	97.677603 
1038.000000	97.687340 
1037.000000	97.700890 
1036.000000	97.719826 
1035.000000	97.743406 
1034.000000	97.767050 
1033.000000	97.787221 
1032.000000	97.803393 
1031.000000	97.812882 
1030.000000	97.809950 
1029.000000	97.795624 
1028.000000	97.783865 
1027.000000	97.790421 
1026.000000	97.816061 
1025.000000	97.846257 
1024.000000	97.866800 
1023.000000	97.874838 
1022.000000	97.875834 
1021.000000	97.875962 
1020.000000	97.878969 
1019.000000	97.885926 
1018.000000	97.895216 
1017.000000	97.904359 
1016.000000	97.912756 
1015.000000	97.921362 
1014.000000	97.929964 
1013.000000	97.936782 
1012.000000	97.940688 
1011.000000	97.942296 
1010.000000	97.943387 
1009.000000	97.946522 
1008.000000	97.953940 
1007.000000	97.965084 
1006.000000	97.976534 
1005.000000	97.986250 
1004.000000	97.996063 
1003.000000	98.007887 
1002.000000	98.019838 
1001.000000	98.029252 
1000.000000	98.037405 
999.000000	 98.047244 
998.000000	 98.057821 
997.000000	 98.065371 
996.000000	 98.069589 
995.000000	 98.074711 
994.000000	 98.083830 
993.000000	 98.095531 
992.000000	 98.106839 
991.000000	 98.116464 
990.000000	 98.124298 
989.000000	 98.130251 
988.000000	 98.134785 
987.000000	 98.139184 
986.000000	 98.144791 
985.000000	 98.152849 
984.000000	 98.164387 
983.000000	 98.178673 
982.000000	 98.192630 
981.000000	 98.203702 
980.000000	 98.212564 
979.000000	 98.221375 
978.000000	 98.230725 
977.000000	 98.240455 
976.000000	 98.251833 
975.000000	 98.265863 
974.000000	 98.280585 
973.000000	 98.293340 
972.000000	 98.305053 
971.000000	 98.318970 
970.000000	 98.335560 
969.000000	 98.351917 
968.000000	 98.366072 
967.000000	 98.378675 
966.000000	 98.390382 
965.000000	 98.400838 
964.000000	 98.410645 
963.000000	 98.421363 
962.000000	 98.432977 
961.000000	 98.444027 
960.000000	 98.454560 
959.000000	 98.465991 
958.000000	 98.477425 
957.000000	 98.485366 
956.000000	 98.488588 
955.000000	 98.490837 
954.000000	 98.496921 
953.000000	 98.507649 
952.000000	 98.519830 
951.000000	 98.529747 
950.000000	 98.535593 
949.000000	 98.537916 
948.000000	 98.538836 
947.000000	 98.539967 
946.000000	 98.540465 
945.000000	 98.538150 
944.000000	 98.533196 
943.000000	 98.529619 
942.000000	 98.532082 
941.000000	 98.541357 
940.000000	 98.553042 
939.000000	 98.560553 
938.000000	 98.560149 
937.000000	 98.554116 
936.000000	 98.548858 
935.000000	 98.549221 
934.000000	 98.555049 
933.000000	 98.563544 
932.000000	 98.573352 
931.000000	 98.584575 
930.000000	 98.595857 
929.000000	 98.603756 
928.000000	 98.605181 
927.000000	 98.599533 
926.000000	 98.589163 
925.000000	 98.578924 
924.000000	 98.574308 
923.000000	 98.577864 
922.000000	 98.587002 
921.000000	 98.596134 
920.000000	 98.600877 
919.000000	 98.600110 
918.000000	 98.595639 
917.000000	 98.590942 
916.000000	 98.588617 
915.000000	 98.587556 
914.000000	 98.583912 
913.000000	 98.576267 
912.000000	 98.568224 
911.000000	 98.564453 
910.000000	 98.566251 
909.000000	 98.572868 
908.000000	 98.584449 
907.000000	 98.600220 
906.000000	 98.615557 
905.000000	 98.624858 
904.000000	 98.627038 
903.000000	 98.625755 
902.000000	 98.625304 
901.000000	 98.628480 
900.000000	 98.636545 
899.000000	 98.647752 
898.000000	 98.656816 
897.000000	 98.659318 
896.000000	 98.655929 
895.000000	 98.649833 
894.000000	 98.642057 
893.000000	 98.633300 
892.000000	 98.628792 
891.000000	 98.635875 
890.000000	 98.655772 
889.000000	 98.681344 
888.000000	 98.703546 
887.000000	 98.717335 
886.000000	 98.722137 
885.000000	 98.720845 
884.000000	 98.718771 
883.000000	 98.719657 
882.000000	 98.721507 
881.000000	 98.719451 
880.000000	 98.713501 
879.000000	 98.710235 
878.000000	 98.715716 
877.000000	 98.729419 
876.000000	 98.745582 
875.000000	 98.757460 
874.000000	 98.760326 
873.000000	 98.754390 
872.000000	 98.745818 
871.000000	 98.741724 
870.000000	 98.743459 
869.000000	 98.747751 
868.000000	 98.753950 
867.000000	 98.765146 
866.000000	 98.781247 
865.000000	 98.796597 
864.000000	 98.807734 
863.000000	 98.819114 
862.000000	 98.836340 
861.000000	 98.856016 
860.000000	 98.867681 
859.000000	 98.865965 
858.000000	 98.856713 
857.000000	 98.849797 
856.000000	 98.849488 
855.000000	 98.854160 
854.000000	 98.862080 
853.000000	 98.872869 
852.000000	 98.883730 
851.000000	 98.889237 
850.000000	 98.887565 
849.000000	 98.883972 
848.000000	 98.884685 
847.000000	 98.889111 
846.000000	 98.891749 
845.000000	 98.890676 
844.000000	 98.889714 
843.000000	 98.892275 
842.000000	 98.897745 
841.000000	 98.904709 
840.000000	 98.912618 
839.000000	 98.918219 
838.000000	 98.915546 
837.000000	 98.903378 
836.000000	 98.889131 
835.000000	 98.881251 
834.000000	 98.880397 
833.000000	 98.882052 
832.000000	 98.884946 
831.000000	 98.891247 
830.000000	 98.899552 
829.000000	 98.903830 
828.000000	 98.900996 
827.000000	 98.895446 
826.000000	 98.893744 
825.000000	 98.896996 
824.000000	 98.900478 
823.000000	 98.899730 
822.000000	 98.895635 
821.000000	 98.893219 
820.000000	 98.895694 
819.000000	 98.900999 
818.000000	 98.905595 
817.000000	 98.910097 
816.000000	 98.917312 
815.000000	 98.924724 
814.000000	 98.924248 
813.000000	 98.912079 
812.000000	 98.894104 
811.000000	 98.877390 
810.000000	 98.859945 
809.000000	 98.834010 
808.000000	 98.797309 
807.000000	 98.755740 
806.000000	 98.715684 
805.000000	 98.678642 
804.000000	 98.644320 
803.000000	 98.615062 
802.000000	 98.595072 
801.000000	 98.586207 
800.000000	 98.585183 
799.000000	 98.585419 
798.000000	 98.583500 
797.000000	 98.583497 
796.000000	 98.591253 
795.000000	 98.604331 
794.000000	 98.613021 
793.000000	 98.613017 
792.000000	 98.610874 
791.000000	 98.613690 
790.000000	 98.619866 
789.000000	 98.624635 
788.000000	 98.627907 
787.000000	 98.629683 
786.000000	 98.623478 
785.000000	 98.603217 
784.000000	 98.573952 
783.000000	 98.547898 
782.000000	 98.531389 
781.000000	 98.522013 
780.000000	 98.515986 
779.000000	 98.511025 
778.000000	 98.504327 
777.000000	 98.496034 
776.000000	 98.493660 
775.000000	 98.504826 
774.000000	 98.525372 
773.000000	 98.542191 
772.000000	 98.548657 
771.000000	 98.550896 
770.000000	 98.558302 
769.000000	 98.573574 
768.000000	 98.592440 
767.000000	 98.607913 
766.000000	 98.615084 
765.000000	 98.616812 
764.000000	 98.623400 
763.000000	 98.640859 
762.000000	 98.660895 
761.000000	 98.669219 
760.000000	 98.662926 
759.000000	 98.652923 
758.000000	 98.650152 
757.000000	 98.656481 
756.000000	 98.667824 
755.000000	 98.677433 
754.000000	 98.676444 
753.000000	 98.661406 
752.000000	 98.643824 
751.000000	 98.643416 
750.000000	 98.667012 
749.000000	 98.699572 
748.000000	 98.719676 
747.000000	 98.719484 
746.000000	 98.707767 
745.000000	 98.698810 
744.000000	 98.701391 
743.000000	 98.714197 
742.000000	 98.728581 
741.000000	 98.737864 
740.000000	 98.744317 
739.000000	 98.754032 
738.000000	 98.766028 
737.000000	 98.771428 
736.000000	 98.763392 
735.000000	 98.743681 
734.000000	 98.720466 
733.000000	 98.704513 
732.000000	 98.705665 
731.000000	 98.725556 
730.000000	 98.753080 
729.000000	 98.773491 
728.000000	 98.782101 
727.000000	 98.783628 
726.000000	 98.780588 
725.000000	 98.770628 
724.000000	 98.754901 
723.000000	 98.740237 
722.000000	 98.731442 
721.000000	 98.728761 
720.000000	 98.733814 
719.000000	 98.749606 
718.000000	 98.772699 
717.000000	 98.793250 
716.000000	 98.804852 
715.000000	 98.807896 
714.000000	 98.803213 
713.000000	 98.790953 
712.000000	 98.777175 
711.000000	 98.772160 
710.000000	 98.778228 
709.000000	 98.786656 
708.000000	 98.789642 
707.000000	 98.787424 
706.000000	 98.781067 
705.000000	 98.767434 
704.000000	 98.747140 
703.000000	 98.730243 
702.000000	 98.726197 
701.000000	 98.731459 
700.000000	 98.732372 
699.000000	 98.717984 
698.000000	 98.688992 
697.000000	 98.657775 
696.000000	 98.639909 
695.000000	 98.641036 
694.000000	 98.650894 
693.000000	 98.655301 
692.000000	 98.653190 
691.000000	 98.654662 
690.000000	 98.665071 
689.000000	 98.681141 
688.000000	 98.701391 
687.000000	 98.726932 
686.000000	 98.749308 
685.000000	 98.752668 
684.000000	 98.733822 
683.000000	 98.708001 
682.000000	 98.691007 
681.000000	 98.686215 
680.000000	 98.690440 
679.000000	 98.699177 
678.000000	 98.703196 
677.000000	 98.695515 
676.000000	 98.685938 
675.000000	 98.690897 
674.000000	 98.707707 
673.000000	 98.714999 
672.000000	 98.702303 
671.000000	 98.683093 
670.000000	 98.675533 
669.000000	 98.684032 
668.000000	 98.699769 
667.000000	 98.716334 
666.000000	 98.727926 
665.000000	 98.723797 
664.000000	 98.706807 
663.000000	 98.699261 
662.000000	 98.716901 
661.000000	 98.742406 
660.000000	 98.743626 
659.000000	 98.713118 
658.000000	 98.671955 
657.000000	 98.640782 
656.000000	 98.624998 
655.000000	 98.623597 
654.000000	 98.635019 
653.000000	 98.653209 
652.000000	 98.670470 
651.000000	 98.685141 
650.000000	 98.697327 

