4000.000000	99.137748 
3999.000000	99.135529 
3998.000000	99.133263 
3997.000000	99.133307 
3996.000000	99.135706 
3995.000000	99.138579 
3994.000000	99.140312 
3993.000000	99.140855 
3992.000000	99.140925 
3991.000000	99.140470 
3990.000000	99.138414 
3989.000000	99.133939 
3988.000000	99.127749 
3987.000000	99.121967 
3986.000000	99.118787 
3985.000000	99.119138 
3984.000000	99.122429 
3983.000000	99.127399 
3982.000000	99.133098 
3981.000000	99.139049 
3980.000000	99.144839 
3979.000000	99.149993 
3978.000000	99.154232 
3977.000000	99.157455 
3976.000000	99.159318 
3975.000000	99.158973 
3974.000000	99.155496 
3973.000000	99.148826 
3972.000000	99.140573 
3971.000000	99.133794 
3970.000000	99.131435 
3969.000000	99.134343 
3968.000000	99.140567 
3967.000000	99.146658 
3966.000000	99.149904 
3965.000000	99.149688 
3964.000000	99.147288 
3963.000000	99.144876 
3962.000000	99.144228 
3961.000000	99.145498 
3960.000000	99.147060 
3959.000000	99.147016 
3958.000000	99.145067 
3957.000000	99.142863 
3956.000000	99.142316 
3955.000000	99.143601 
3954.000000	99.145161 
3953.000000	99.145403 
3952.000000	99.144049 
3951.000000	99.141865 
3950.000000	99.139550 
3949.000000	99.137476 
3948.000000	99.136184 
3947.000000	99.136493 
3946.000000	99.138871 
3945.000000	99.142691 
3944.000000	99.146034 
3943.000000	99.146742 
3942.000000	99.144233 
3941.000000	99.139960 
3940.000000	99.135960 
3939.000000	99.133803 
3938.000000	99.134249 
3937.000000	99.136991 
3936.000000	99.140762 
3935.000000	99.143957 
3934.000000	99.145741 
3933.000000	99.146522 
3932.000000	99.147483 
3931.000000	99.149594 
3930.000000	99.152590 
3929.000000	99.154869 
3928.000000	99.154433 
3927.000000	99.150673 
3926.000000	99.145450 
3925.000000	99.141721 
3924.000000	99.141117 
3923.000000	99.142484 
3922.000000	99.142966 
3921.000000	99.140921 
3920.000000	99.137279 
3919.000000	99.134150 
3918.000000	99.132521 
3917.000000	99.131738 
3916.000000	99.131049 
3915.000000	99.130655 
3914.000000	99.130929 
3913.000000	99.131481 
3912.000000	99.131262 
3911.000000	99.129851 
3910.000000	99.128130 
3909.000000	99.127820 
3908.000000	99.130540 
3907.000000	99.136866 
3906.000000	99.145808 
3905.000000	99.154559 
3904.000000	99.159584 
3903.000000	99.159080 
3902.000000	99.153373 
3901.000000	99.144130 
3900.000000	99.134042 
3899.000000	99.125787 
3898.000000	99.120902 
3897.000000	99.119045 
3896.000000	99.118842 
3895.000000	99.120036 
3894.000000	99.123539 
3893.000000	99.129506 
3892.000000	99.136247 
3891.000000	99.142323 
3890.000000	99.147947 
3889.000000	99.152659 
3888.000000	99.155605 
3887.000000	99.156839 
3886.000000	99.156398 
3885.000000	99.154556 
3884.000000	99.152520 
3883.000000	99.150429 
3882.000000	99.147317 
3881.000000	99.143204 
3880.000000	99.139852 
3879.000000	99.139406 
3878.000000	99.141563 
3877.000000	99.144132 
3876.000000	99.145750 
3875.000000	99.145835 
3874.000000	99.144013 
3873.000000	99.140623 
3872.000000	99.136110 
3871.000000	99.130748 
3870.000000	99.126046 
3869.000000	99.125500 
3868.000000	99.130625 
3867.000000	99.138182 
3866.000000	99.144180 
3865.000000	99.146511 
3864.000000	99.145447 
3863.000000	99.143592 
3862.000000	99.143208 
3861.000000	99.144003 
3860.000000	99.143452 
3859.000000	99.137742 
3858.000000	99.124907 
3857.000000	99.108614 
3856.000000	99.098923 
3855.000000	99.104256 
3854.000000	99.116567 
3853.000000	99.121435 
3852.000000	99.122934 
3851.000000	99.129199 
3850.000000	99.137944 
3849.000000	99.145822 
3848.000000	99.151699 
3847.000000	99.155724 
3846.000000	99.158236 
3845.000000	99.160134 
3844.000000	99.162910 
3843.000000	99.166784 
3842.000000	99.169541 
3841.000000	99.169476 
3840.000000	99.167492 
3839.000000	99.165471 
3838.000000	99.164092 
3837.000000	99.162277 
3836.000000	99.158672 
3835.000000	99.152879 
3834.000000	99.146278 
3833.000000	99.141849 
3832.000000	99.141735 
3831.000000	99.145197 
3830.000000	99.149294 
3829.000000	99.150962 
3828.000000	99.149433 
3827.000000	99.146825 
3826.000000	99.145793 
3825.000000	99.147518 
3824.000000	99.152107 
3823.000000	99.158837 
3822.000000	99.164118 
3821.000000	99.163948 
3820.000000	99.160792 
3819.000000	99.158179 
3818.000000	99.155227 
3817.000000	99.151356 
3816.000000	99.147218 
3815.000000	99.143721 
3814.000000	99.141550 
3813.000000	99.140056 
3812.000000	99.138301 
3811.000000	99.136685 
3810.000000	99.136593 
3809.000000	99.139259 
3808.000000	99.144438 
3807.000000	99.150071 
3806.000000	99.154377 
3805.000000	99.156389 
3804.000000	99.155396 
3803.000000	99.152191 
3802.000000	99.147427 
3801.000000	99.141396 
3800.000000	99.136431 
3799.000000	99.132947 
3798.000000	99.128804 
3797.000000	99.123776 
3796.000000	99.119353 
3795.000000	99.116941 
3794.000000	99.117283 
3793.000000	99.120633 
3792.000000	99.126382 
3791.000000	99.132496 
3790.000000	99.136529 
3789.000000	99.138004 
3788.000000	99.139199 
3787.000000	99.142803 
3786.000000	99.149163 
3785.000000	99.156508 
3784.000000	99.163423 
3783.000000	99.169818 
3782.000000	99.175443 
3781.000000	99.178387 
3780.000000	99.175771 
3779.000000	99.167071 
3778.000000	99.155759 
3777.000000	99.146289 
3776.000000	99.141428 
3775.000000	99.141980 
3774.000000	99.147024 
3773.000000	99.154281 
3772.000000	99.161076 
3771.000000	99.164882 
3770.000000	99.164184 
3769.000000	99.160227 
3768.000000	99.155578 
3767.000000	99.151598 
3766.000000	99.149116 
3765.000000	99.148998 
3764.000000	99.151435 
3763.000000	99.155844 
3762.000000	99.161510 
3761.000000	99.167862 
3760.000000	99.173383 
3759.000000	99.176535 
3758.000000	99.177471 
3757.000000	99.176584 
3756.000000	99.173615 
3755.000000	99.169266 
3754.000000	99.166596 
3753.000000	99.169156 
3752.000000	99.175544 
3751.000000	99.178613 
3750.000000	99.174526 
3749.000000	99.166231 
3748.000000	99.155551 
3747.000000	99.143032 
3746.000000	99.132759 
3745.000000	99.127914 
3744.000000	99.127920 
3743.000000	99.132911 
3742.000000	99.140744 
3741.000000	99.146962 
3740.000000	99.150977 
3739.000000	99.155838 
3738.000000	99.163597 
3737.000000	99.171197 
3736.000000	99.172783 
3735.000000	99.166031 
3734.000000	99.155046 
3733.000000	99.146063 
3732.000000	99.143025 
3731.000000	99.146245 
3730.000000	99.152211 
3729.000000	99.156913 
3728.000000	99.159769 
3727.000000	99.163097 
3726.000000	99.168520 
3725.000000	99.174725 
3724.000000	99.178302 
3723.000000	99.176301 
3722.000000	99.169112 
3721.000000	99.160892 
3720.000000	99.155773 
3719.000000	99.154786 
3718.000000	99.155795 
3717.000000	99.154956 
3716.000000	99.149885 
3715.000000	99.141640 
3714.000000	99.133356 
3713.000000	99.126369 
3712.000000	99.118225 
3711.000000	99.107585 
3710.000000	99.097853 
3709.000000	99.092259 
3708.000000	99.090047 
3707.000000	99.088145 
3706.000000	99.083952 
3705.000000	99.076765 
3704.000000	99.067412 
3703.000000	99.057260 
3702.000000	99.047742 
3701.000000	99.040691 
3700.000000	99.036937 
3699.000000	99.034265 
3698.000000	99.029382 
3697.000000	99.020820 
3696.000000	99.009906 
3695.000000	99.000065 
3694.000000	98.994058 
3693.000000	98.991729 
3692.000000	98.989999 
3691.000000	98.984726 
3690.000000	98.973567 
3689.000000	98.959272 
3688.000000	98.948683 
3687.000000	98.944786 
3686.000000	98.944616 
3685.000000	98.945324 
3684.000000	98.947200 
3683.000000	98.951548 
3682.000000	98.957667 
3681.000000	98.962008 
3680.000000	98.960090 
3679.000000	98.949279 
3678.000000	98.931054 
3677.000000	98.910889 
3676.000000	98.894474 
3675.000000	98.887820 
3674.000000	98.893636 
3673.000000	98.904198 
3672.000000	98.910658 
3671.000000	98.911171 
3670.000000	98.905922 
3669.000000	98.896555 
3668.000000	98.886981 
3667.000000	98.878650 
3666.000000	98.871845 
3665.000000	98.868134 
3664.000000	98.868157 
3663.000000	98.870751 
3662.000000	98.874095 
3661.000000	98.877107 
3660.000000	98.880223 
3659.000000	98.884642 
3658.000000	98.890639 
3657.000000	98.896498 
3656.000000	98.900716 
3655.000000	98.905027 
3654.000000	98.911923 
3653.000000	98.922814 
3652.000000	98.938935 
3651.000000	98.957063 
3650.000000	98.965495 
3649.000000	98.954974 
3648.000000	98.933604 
3647.000000	98.917463 
3646.000000	98.913321 
3645.000000	98.917987 
3644.000000	98.925627 
3643.000000	98.932771 
3642.000000	98.938393 
3641.000000	98.942839 
3640.000000	98.947825 
3639.000000	98.955826 
3638.000000	98.968057 
3637.000000	98.982306 
3636.000000	98.993473 
3635.000000	98.997094 
3634.000000	98.992733 
3633.000000	98.984450 
3632.000000	98.978276 
3631.000000	98.979418 
3630.000000	98.986894 
3629.000000	98.991107 
3628.000000	98.986874 
3627.000000	98.980358 
3626.000000	98.976464 
3625.000000	98.976128 
3624.000000	98.979264 
3623.000000	98.983805 
3622.000000	98.986940 
3621.000000	98.987453 
3620.000000	98.986192 
3619.000000	98.985711 
3618.000000	98.989471 
3617.000000	98.998063 
3616.000000	99.008295 
3615.000000	99.016240 
3614.000000	99.019163 
3613.000000	99.016724 
3612.000000	99.011351 
3611.000000	99.006407 
3610.000000	99.004248 
3609.000000	99.005186 
3608.000000	99.007413 
3607.000000	99.009222 
3606.000000	99.010426 
3605.000000	99.012047 
3604.000000	99.015404 
3603.000000	99.020478 
3602.000000	99.025861 
3601.000000	99.030558 
3600.000000	99.035448 
3599.000000	99.042129 
3598.000000	99.050506 
3597.000000	99.057934 
3596.000000	99.061165 
3595.000000	99.058878 
3594.000000	99.053407 
3593.000000	99.050200 
3592.000000	99.053696 
3591.000000	99.064062 
3590.000000	99.076890 
3589.000000	99.084648 
3588.000000	99.080827 
3587.000000	99.067171 
3586.000000	99.052891 
3585.000000	99.044579 
3584.000000	99.042158 
3583.000000	99.042941 
3582.000000	99.044459 
3581.000000	99.044818 
3580.000000	99.042771 
3579.000000	99.038237 
3578.000000	99.032401 
3577.000000	99.027275 
3576.000000	99.024701 
3575.000000	99.025505 
3574.000000	99.029078 
3573.000000	99.034125 
3572.000000	99.039621 
3571.000000	99.044780 
3570.000000	99.048626 
3569.000000	99.049446 
3568.000000	99.045252 
3567.000000	99.036995 
3566.000000	99.029939 
3565.000000	99.027929 
3564.000000	99.029174 
3563.000000	99.029826 
3562.000000	99.028126 
3561.000000	99.024980 
3560.000000	99.022075 
3559.000000	99.020257 
3558.000000	99.019410 
3557.000000	99.019389 
3556.000000	99.020430 
3555.000000	99.022607 
3554.000000	99.025239 
3553.000000	99.027138 
3552.000000	99.027480 
3551.000000	99.026091 
3550.000000	99.023251 
3549.000000	99.020054 
3548.000000	99.018345 
3547.000000	99.019336 
3546.000000	99.022331 
3545.000000	99.025533 
3544.000000	99.027836 
3543.000000	99.029252 
3542.000000	99.029980 
3541.000000	99.029845 
3540.000000	99.028687 
3539.000000	99.026910 
3538.000000	99.025462 
3537.000000	99.025080 
3536.000000	99.025745 
3535.000000	99.026590 
3534.000000	99.026530 
3533.000000	99.025174 
3532.000000	99.023035 
3531.000000	99.020987 
3530.000000	99.019687 
3529.000000	99.019862 
3528.000000	99.022464 
3527.000000	99.027572 
3526.000000	99.033017 
3525.000000	99.035098 
3524.000000	99.031569 
3523.000000	99.024013 
3522.000000	99.016590 
3521.000000	99.012305 
3520.000000	99.011031 
3519.000000	99.010997 
3518.000000	99.011284 
3517.000000	99.012389 
3516.000000	99.015048 
3515.000000	99.019275 
3514.000000	99.024477 
3513.000000	99.029728 
3512.000000	99.033534 
3511.000000	99.034197 
3510.000000	99.031498 
3509.000000	99.027713 
3508.000000	99.025781 
3507.000000	99.026291 
3506.000000	99.026800 
3505.000000	99.024088 
3504.000000	99.017002 
3503.000000	99.008044 
3502.000000	99.002342 
3501.000000	99.004111 
3500.000000	99.012948 
3499.000000	99.023329 
3498.000000	99.028397 
3497.000000	99.025364 
3496.000000	99.017650 
3495.000000	99.011208 
3494.000000	99.008884 
3493.000000	99.008722 
3492.000000	99.007281 
3491.000000	99.003600 
3490.000000	99.000010 
3489.000000	98.999677 
3488.000000	99.003551 
3487.000000	99.009477 
3486.000000	99.014124 
3485.000000	99.015807 
3484.000000	99.015560 
3483.000000	99.015556 
3482.000000	99.016545 
3481.000000	99.017079 
3480.000000	99.015330 
3479.000000	99.011437 
3478.000000	99.007543 
3477.000000	99.005378 
3476.000000	99.004301 
3475.000000	99.002402 
3474.000000	98.999573 
3473.000000	98.998347 
3472.000000	99.001115 
3471.000000	99.007112 
3470.000000	99.012958 
3469.000000	99.015875 
3468.000000	99.015505 
3467.000000	99.012851 
3466.000000	99.008729 
3465.000000	99.003766 
3464.000000	98.999097 
3463.000000	98.995925 
3462.000000	98.994302 
3461.000000	98.992886 
3460.000000	98.990269 
3459.000000	98.986642 
3458.000000	98.983977 
3457.000000	98.984253 
3456.000000	98.987350 
3455.000000	98.990842 
3454.000000	98.992412 
3453.000000	98.992223 
3452.000000	98.992414 
3451.000000	98.994548 
3450.000000	98.998052 
3449.000000	99.001113 
3448.000000	99.002271 
3447.000000	99.001067 
3446.000000	98.998034 
3445.000000	98.994510 
3444.000000	98.992010 
3443.000000	98.991171 
3442.000000	98.991308 
3441.000000	98.991344 
3440.000000	98.990990 
3439.000000	98.990562 
3438.000000	98.990064 
3437.000000	98.989087 
3436.000000	98.987687 
3435.000000	98.986867 
3434.000000	98.988083 
3433.000000	98.992098 
3432.000000	98.997945 
3431.000000	99.002922 
3430.000000	99.004049 
3429.000000	99.000223 
3428.000000	98.993059 
3427.000000	98.985547 
3426.000000	98.980119 
3425.000000	98.977910 
3424.000000	98.978972 
3423.000000	98.982279 
3422.000000	98.985746 
3421.000000	98.987201 
3420.000000	98.985915 
3419.000000	98.983151 
3418.000000	98.981117 
3417.000000	98.981212 
3416.000000	98.982793 
3415.000000	98.983454 
3414.000000	98.980977 
3413.000000	98.975531 
3412.000000	98.969784 
3411.000000	98.966613 
3410.000000	98.966949 
3409.000000	98.969784 
3408.000000	98.973393 
3407.000000	98.976040 
3406.000000	98.976312 
3405.000000	98.974092 
3404.000000	98.971447 
3403.000000	98.971569 
3402.000000	98.976076 
3401.000000	98.983268 
3400.000000	98.989349 
3399.000000	98.991525 
3398.000000	98.990048 
3397.000000	98.987373 
3396.000000	98.985463 
3395.000000	98.984258 
3394.000000	98.982859 
3393.000000	98.981481 
3392.000000	98.981315 
3391.000000	98.982615 
3390.000000	98.983971 
3389.000000	98.983967 
3388.000000	98.982806 
3387.000000	98.981732 
3386.000000	98.981376 
3385.000000	98.981352 
3384.000000	98.981312 
3383.000000	98.981689 
3382.000000	98.983153 
3381.000000	98.985486 
3380.000000	98.987172 
3379.000000	98.986381 
3378.000000	98.982823 
3377.000000	98.978714 
3376.000000	98.977360 
3375.000000	98.980464 
3374.000000	98.986881 
3373.000000	98.993837 
3372.000000	98.998894 
3371.000000	99.000887 
3370.000000	99.000004 
3369.000000	98.997613 
3368.000000	98.995420 
3367.000000	98.993967 
3366.000000	98.992146 
3365.000000	98.988774 
3364.000000	98.984484 
3363.000000	98.981466 
3362.000000	98.981268 
3361.000000	98.983156 
3360.000000	98.984698 
3359.000000	98.983975 
3358.000000	98.981490 
3357.000000	98.979984 
3356.000000	98.981945 
3355.000000	98.986967 
3354.000000	98.991924 
3353.000000	98.994051 
3352.000000	98.993549 
3351.000000	98.993001 
3350.000000	98.994731 
3349.000000	98.999096 
3348.000000	99.004641 
3347.000000	99.009039 
3346.000000	99.010283 
3345.000000	99.008011 
3344.000000	99.004031 
3343.000000	99.000955 
3342.000000	99.000030 
3341.000000	99.000556 
3340.000000	99.001214 
3339.000000	99.001250 
3338.000000	99.000227 
3337.000000	98.997542 
3336.000000	98.993154 
3335.000000	98.988699 
3334.000000	98.986964 
3333.000000	98.989552 
3332.000000	98.994985 
3331.000000	98.999618 
3330.000000	99.000934 
3329.000000	98.999962 
3328.000000	99.000093 
3327.000000	99.003338 
3326.000000	99.008214 
3325.000000	99.011569 
3324.000000	99.012106 
3323.000000	99.011505 
3322.000000	99.012074 
3321.000000	99.013917 
3320.000000	99.014798 
3319.000000	99.012752 
3318.000000	99.008562 
3317.000000	99.005403 
3316.000000	99.005945 
3315.000000	99.009836 
3314.000000	99.014055 
3313.000000	99.015622 
3312.000000	99.013879 
3311.000000	99.010523 
3310.000000	99.008025 
3309.000000	99.008019 
3308.000000	99.010531 
3307.000000	99.014148 
3306.000000	99.016957 
3305.000000	99.017675 
3304.000000	99.016248 
3303.000000	99.013753 
3302.000000	99.011959 
3301.000000	99.012544 
3300.000000	99.015941 
3299.000000	99.020706 
3298.000000	99.024546 
3297.000000	99.026314 
3296.000000	99.026789 
3295.000000	99.027478 
3294.000000	99.029117 
3293.000000	99.031551 
3292.000000	99.034369 
3291.000000	99.036965 
3290.000000	99.038184 
3289.000000	99.036749 
3288.000000	99.032491 
3287.000000	99.027075 
3286.000000	99.023113 
3285.000000	99.022165 
3284.000000	99.023442 
3283.000000	99.024717 
3282.000000	99.024685 
3281.000000	99.024106 
3280.000000	99.024330 
3279.000000	99.025293 
3278.000000	99.025813 
3277.000000	99.025598 
3276.000000	99.025875 
3275.000000	99.027797 
3274.000000	99.030973 
3273.000000	99.033775 
3272.000000	99.034275 
3271.000000	99.030819 
3270.000000	99.023067 
3269.000000	99.013457 
3268.000000	99.006712 
3267.000000	99.006498 
3266.000000	99.012367 
3265.000000	99.020453 
3264.000000	99.026990 
3263.000000	99.030755 
3262.000000	99.032602 
3261.000000	99.033802 
3260.000000	99.035075 
3259.000000	99.036389 
3258.000000	99.037025 
3257.000000	99.035886 
3256.000000	99.032316 
3255.000000	99.027084 
3254.000000	99.022626 
3253.000000	99.021706 
3252.000000	99.025151 
3251.000000	99.030776 
3250.000000	99.035041 
3249.000000	99.036033 
3248.000000	99.034636 
3247.000000	99.032925 
3246.000000	99.031961 
3245.000000	99.031316 
3244.000000	99.030265 
3243.000000	99.029157 
3242.000000	99.029765 
3241.000000	99.034072 
3240.000000	99.041883 
3239.000000	99.049656 
3238.000000	99.052846 
3237.000000	99.050133 
3236.000000	99.044667 
3235.000000	99.040602 
3234.000000	99.039169 
3233.000000	99.038825 
3232.000000	99.038416 
3231.000000	99.038856 
3230.000000	99.041602 
3229.000000	99.046358 
3228.000000	99.050490 
3227.000000	99.050536 
3226.000000	99.044821 
3225.000000	99.035324 
3224.000000	99.026775 
3223.000000	99.023173 
3222.000000	99.024980 
3221.000000	99.029829 
3220.000000	99.035338 
3219.000000	99.040450 
3218.000000	99.044538 
3217.000000	99.046772 
3216.000000	99.046941 
3215.000000	99.046037 
3214.000000	99.045270 
3213.000000	99.044895 
3212.000000	99.044587 
3211.000000	99.044731 
3210.000000	99.046550 
3209.000000	99.050632 
3208.000000	99.055597 
3207.000000	99.058741 
3206.000000	99.058392 
3205.000000	99.055723 
3204.000000	99.053993 
3203.000000	99.055824 
3202.000000	99.061250 
3201.000000	99.068208 
3200.000000	99.074223 
3199.000000	99.077386 
3198.000000	99.076732 
3197.000000	99.072970 
3196.000000	99.068787 
3195.000000	99.067075 
3194.000000	99.068141 
3193.000000	99.069235 
3192.000000	99.067562 
3191.000000	99.063558 
3190.000000	99.060560 
3189.000000	99.061297 
3188.000000	99.065217 
3187.000000	99.069377 
3186.000000	99.071282 
3185.000000	99.070517 
3184.000000	99.068093 
3183.000000	99.065074 
3182.000000	99.062115 
3181.000000	99.059729 
3180.000000	99.058476 
3179.000000	99.058767 
3178.000000	99.060523 
3177.000000	99.062829 
3176.000000	99.064037 
3175.000000	99.062982 
3174.000000	99.060636 
3173.000000	99.059940 
3172.000000	99.062990 
3171.000000	99.068466 
3170.000000	99.072873 
3169.000000	99.074488 
3168.000000	99.075069 
3167.000000	99.077228 
3166.000000	99.081168 
3165.000000	99.084902 
3164.000000	99.086894 
3163.000000	99.087243 
3162.000000	99.086632 
3161.000000	99.085477 
3160.000000	99.084518 
3159.000000	99.085109 
3158.000000	99.088027 
3157.000000	99.092237 
3156.000000	99.095514 
3155.000000	99.096390 
3154.000000	99.095315 
3153.000000	99.093957 
3152.000000	99.093514 
3151.000000	99.093688 
3150.000000	99.093219 
3149.000000	99.091398 
3148.000000	99.088943 
3147.000000	99.087322 
3146.000000	99.087261 
3145.000000	99.088163 
3144.000000	99.089082 
3143.000000	99.090142 
3142.000000	99.092628 
3141.000000	99.097399 
3140.000000	99.103305 
3139.000000	99.107679 
3138.000000	99.108754 
3137.000000	99.107360 
3136.000000	99.105805 
3135.000000	99.105252 
3134.000000	99.104819 
3133.000000	99.103211 
3132.000000	99.100493 
3131.000000	99.097834 
3130.000000	99.096083 
3129.000000	99.095213 
3128.000000	99.094931 
3127.000000	99.095307 
3126.000000	99.096803 
3125.000000	99.099927 
3124.000000	99.104516 
3123.000000	99.109067 
3122.000000	99.111340 
3121.000000	99.110501 
3120.000000	99.108526 
3119.000000	99.108522 
3118.000000	99.111386 
3117.000000	99.114845 
3116.000000	99.116154 
3115.000000	99.114986 
3114.000000	99.113019 
3113.000000	99.111393 
3112.000000	99.109802 
3111.000000	99.108022 
3110.000000	99.106966 
3109.000000	99.107362 
3108.000000	99.108120 
3107.000000	99.107173 
3106.000000	99.103998 
3105.000000	99.100576 
3104.000000	99.099551 
3103.000000	99.102052 
3102.000000	99.107433 
3101.000000	99.114169 
3100.000000	99.120185 
3099.000000	99.123001 
3098.000000	99.121162 
3097.000000	99.116015 
3096.000000	99.111240 
3095.000000	99.109922 
3094.000000	99.112319 
3093.000000	99.116448 
3092.000000	99.119996 
3091.000000	99.121369 
3090.000000	99.120137 
3089.000000	99.117703 
3088.000000	99.117040 
3087.000000	99.120329 
3086.000000	99.126461 
3085.000000	99.131726 
3084.000000	99.133332 
3083.000000	99.131742 
3082.000000	99.129515 
3081.000000	99.128637 
3080.000000	99.129398 
3079.000000	99.130942 
3078.000000	99.131856 
3077.000000	99.130577 
3076.000000	99.126541 
3075.000000	99.121317 
3074.000000	99.117781 
3073.000000	99.117557 
3072.000000	99.119680 
3071.000000	99.122247 
3070.000000	99.124621 
3069.000000	99.127033 
3068.000000	99.128509 
3067.000000	99.126897 
3066.000000	99.121625 
3065.000000	99.115298 
3064.000000	99.111448 
3063.000000	99.111200 
3062.000000	99.113018 
3061.000000	99.115149 
3060.000000	99.117152 
3059.000000	99.119263 
3058.000000	99.121528 
3057.000000	99.123949 
3056.000000	99.126670 
3055.000000	99.129540 
3054.000000	99.131953 
3053.000000	99.133328 
3052.000000	99.133351 
3051.000000	99.131805 
3050.000000	99.128730 
3049.000000	99.124712 
3048.000000	99.120262 
3047.000000	99.114855 
3046.000000	99.107594 
3045.000000	99.099169 
3044.000000	99.092151 
3043.000000	99.088544 
3042.000000	99.087590 
3041.000000	99.086739 
3040.000000	99.084451 
3039.000000	99.081313 
3038.000000	99.078644 
3037.000000	99.076736 
3036.000000	99.074545 
3035.000000	99.070637 
3034.000000	99.064258 
3033.000000	99.055748 
3032.000000	99.045966 
3031.000000	99.035234 
3030.000000	99.022929 
3029.000000	99.008290 
3028.000000	98.991679 
3027.000000	98.975039 
3026.000000	98.960910 
3025.000000	98.950511 
3024.000000	98.942309 
3023.000000	98.932664 
3022.000000	98.918588 
3021.000000	98.900246 
3020.000000	98.880709 
3019.000000	98.863409 
3018.000000	98.849898 
3017.000000	98.839344 
3016.000000	98.829059 
3015.000000	98.815687 
3014.000000	98.797301 
3013.000000	98.774997 
3012.000000	98.751603 
3011.000000	98.728319 
3010.000000	98.703593 
3009.000000	98.676024 
3008.000000	98.647318 
3007.000000	98.621265 
3006.000000	98.600209 
3005.000000	98.583322 
3004.000000	98.567665 
3003.000000	98.549926 
3002.000000	98.527915 
3001.000000	98.502283 
3000.000000	98.476957 
2999.000000	98.456309 
2998.000000	98.441356 
2997.000000	98.429890 
2996.000000	98.420208 
2995.000000	98.412070 
2994.000000	98.402397 
2993.000000	98.382826 
2992.000000	98.346162 
2991.000000	98.296237 
2990.000000	98.248482 
2989.000000	98.218341 
2988.000000	98.209704 
2987.000000	98.215491 
2986.000000	98.227176 
2985.000000	98.240976 
2984.000000	98.255635 
2983.000000	98.268528 
2982.000000	98.276506 
2981.000000	98.279156 
2980.000000	98.279049 
2979.000000	98.278702 
2978.000000	98.278457 
2977.000000	98.277191 
2976.000000	98.274051 
2975.000000	98.269317 
2974.000000	98.264322 
2973.000000	98.260821 
2972.000000	98.260051 
2971.000000	98.262296 
2970.000000	98.267527 
2969.000000	98.276161 
2968.000000	98.288706 
2967.000000	98.304819 
2966.000000	98.323202 
2965.000000	98.342361 
2964.000000	98.361103 
2963.000000	98.378556 
2962.000000	98.394369 
2961.000000	98.408847 
2960.000000	98.422391 
2959.000000	98.434905 
2958.000000	98.446272 
2957.000000	98.457083 
2956.000000	98.467917 
2955.000000	98.477913 
2954.000000	98.485411 
2953.000000	98.490847 
2952.000000	98.498031 
2951.000000	98.511001 
2950.000000	98.529308 
2949.000000	98.547295 
2948.000000	98.558751 
2947.000000	98.562218 
2946.000000	98.561663 
2945.000000	98.562388 
2944.000000	98.566988 
2943.000000	98.574920 
2942.000000	98.584445 
2941.000000	98.593659 
2940.000000	98.600238 
2939.000000	98.602222 
2938.000000	98.600093 
2937.000000	98.597217 
2936.000000	98.597188 
2935.000000	98.600898 
2934.000000	98.606615 
2933.000000	98.612125 
2932.000000	98.615900 
2931.000000	98.616775 
2930.000000	98.613981 
2929.000000	98.607912 
2928.000000	98.600229 
2927.000000	98.592920 
2926.000000	98.587445 
2925.000000	98.584306 
2924.000000	98.582747 
2923.000000	98.581100 
2922.000000	98.578218 
2921.000000	98.574502 
2920.000000	98.570923 
2919.000000	98.567390 
2918.000000	98.562901 
2917.000000	98.556972 
2916.000000	98.549906 
2915.000000	98.541892 
2914.000000	98.533194 
2913.000000	98.525355 
2912.000000	98.520671 
2911.000000	98.519500 
2910.000000	98.518962 
2909.000000	98.515344 
2908.000000	98.507605 
2907.000000	98.497708 
2906.000000	98.487521 
2905.000000	98.476100 
2904.000000	98.460768 
2903.000000	98.441389 
2902.000000	98.423704 
2901.000000	98.417216 
2900.000000	98.428210 
2899.000000	98.453910 
2898.000000	98.483533 
2897.000000	98.506261 
2896.000000	98.518443 
2895.000000	98.524050 
2894.000000	98.529131 
2893.000000	98.536274 
2892.000000	98.543773 
2891.000000	98.548893 
2890.000000	98.551100 
2889.000000	98.552043 
2888.000000	98.553185 
2887.000000	98.554585 
2886.000000	98.556342 
2885.000000	98.560123 
2884.000000	98.568093 
2883.000000	98.580604 
2882.000000	98.596004 
2881.000000	98.612703 
2880.000000	98.630437 
2879.000000	98.649411 
2878.000000	98.669127 
2877.000000	98.688333 
2876.000000	98.705276 
2875.000000	98.717789 
2874.000000	98.724322 
2873.000000	98.725864 
2872.000000	98.726283 
2871.000000	98.729812 
2870.000000	98.738143 
2869.000000	98.750132 
2868.000000	98.763845 
2867.000000	98.778381 
2866.000000	98.794173 
2865.000000	98.812175 
2864.000000	98.832562 
2863.000000	98.853599 
2862.000000	98.872020 
2861.000000	98.885482 
2860.000000	98.895092 
2859.000000	98.904876 
2858.000000	98.918070 
2857.000000	98.934034 
2856.000000	98.949272 
2855.000000	98.961427 
2854.000000	98.971476 
2853.000000	98.981539 
2852.000000	98.991479 
2851.000000	98.999065 
2850.000000	99.003515 
2849.000000	99.007325 
2848.000000	99.013617 
2847.000000	99.022596 
2846.000000	99.031600 
2845.000000	99.038078 
2844.000000	99.041641 
2843.000000	99.043913 
2842.000000	99.047560 
2841.000000	99.054872 
2840.000000	99.065651 
2839.000000	99.076360 
2838.000000	99.082662 
2837.000000	99.083260 
2836.000000	99.080606 
2835.000000	99.078145 
2834.000000	99.077986 
2833.000000	99.080929 
2832.000000	99.086772 
2831.000000	99.093849 
2830.000000	99.099681 
2829.000000	99.103288 
2828.000000	99.106289 
2827.000000	99.110898 
2826.000000	99.117240 
2825.000000	99.123108 
2824.000000	99.126023 
2823.000000	99.125419 
2822.000000	99.123325 
2821.000000	99.123022 
2820.000000	99.126266 
2819.000000	99.131697 
2818.000000	99.136631 
2817.000000	99.140262 
2816.000000	99.143945 
2815.000000	99.148351 
2814.000000	99.151975 
2813.000000	99.153094 
2812.000000	99.151822 
2811.000000	99.149302 
2810.000000	99.146121 
2809.000000	99.142732 
2808.000000	99.140426 
2807.000000	99.140429 
2806.000000	99.142407 
2805.000000	99.144964 
2804.000000	99.147401 
2803.000000	99.150087 
2802.000000	99.153316 
2801.000000	99.156582 
2800.000000	99.158867 
2799.000000	99.159248 
2798.000000	99.157670 
2797.000000	99.155637 
2796.000000	99.155450 
2795.000000	99.157987 
2794.000000	99.161573 
2793.000000	99.163675 
2792.000000	99.163242 
2791.000000	99.160964 
2790.000000	99.158176 
2789.000000	99.156477 
2788.000000	99.157531 
2787.000000	99.161716 
2786.000000	99.167163 
2785.000000	99.171417 
2784.000000	99.173995 
2783.000000	99.176162 
2782.000000	99.178381 
2781.000000	99.179450 
2780.000000	99.178559 
2779.000000	99.176888 
2778.000000	99.176308 
2777.000000	99.177182 
2776.000000	99.178142 
2775.000000	99.177703 
2774.000000	99.175625 
2773.000000	99.172980 
2772.000000	99.171266 
2771.000000	99.171352 
2770.000000	99.173101 
2769.000000	99.176002 
2768.000000	99.179892 
2767.000000	99.184667 
2766.000000	99.189474 
2765.000000	99.192895 
2764.000000	99.194098 
2763.000000	99.193399 
2762.000000	99.191747 
2761.000000	99.190257 
2760.000000	99.190204 
2759.000000	99.192396 
2758.000000	99.195942 
2757.000000	99.198475 
2756.000000	99.198579 
2755.000000	99.197671 
2754.000000	99.198412 
2753.000000	99.201277 
2752.000000	99.203756 
2751.000000	99.203439 
2750.000000	99.201023 
2749.000000	99.199399 
2748.000000	99.200092 
2747.000000	99.201612 
2746.000000	99.201447 
2745.000000	99.198898 
2744.000000	99.195527 
2743.000000	99.193391 
2742.000000	99.193525 
2741.000000	99.195867 
2740.000000	99.199784 
2739.000000	99.204316 
2738.000000	99.208316 
2737.000000	99.210901 
2736.000000	99.211899 
2735.000000	99.211781 
2734.000000	99.211095 
2733.000000	99.210022 
2732.000000	99.208515 
2731.000000	99.206843 
2730.000000	99.205823 
2729.000000	99.206346 
2728.000000	99.208726 
2727.000000	99.212526 
2726.000000	99.216767 
2725.000000	99.220106 
2724.000000	99.221314 
2723.000000	99.220355 
2722.000000	99.218865 
2721.000000	99.218728 
2720.000000	99.219975 
2719.000000	99.220849 
2718.000000	99.220161 
2717.000000	99.218719 
2716.000000	99.218129 
2715.000000	99.219161 
2714.000000	99.221808 
2713.000000	99.225722 
2712.000000	99.229602 
2711.000000	99.231254 
2710.000000	99.229862 
2709.000000	99.227683 
2708.000000	99.227815 
2707.000000	99.230309 
2706.000000	99.231943 
2705.000000	99.230179 
2704.000000	99.226118 
2703.000000	99.223047 
2702.000000	99.223020 
2701.000000	99.225329 
2700.000000	99.227633 
2699.000000	99.228001 
2698.000000	99.226215 
2697.000000	99.223562 
2696.000000	99.221538 
2695.000000	99.220980 
2694.000000	99.222321 
2693.000000	99.225564 
2692.000000	99.229198 
2691.000000	99.230351 
2690.000000	99.227808 
2689.000000	99.224513 
2688.000000	99.225126 
2687.000000	99.230706 
2686.000000	99.237294 
2685.000000	99.240240 
2684.000000	99.238622 
2683.000000	99.235005 
2682.000000	99.232330 
2681.000000	99.232005 
2680.000000	99.233748 
2679.000000	99.235974 
2678.000000	99.236855 
2677.000000	99.235998 
2676.000000	99.234890 
2675.000000	99.235129 
2674.000000	99.236637 
2673.000000	99.237977 
2672.000000	99.237822 
2671.000000	99.235526 
2670.000000	99.230827 
2669.000000	99.223927 
2668.000000	99.215996 
2667.000000	99.209244 
2666.000000	99.206209 
2665.000000	99.208406 
2664.000000	99.215045 
2663.000000	99.223221 
2662.000000	99.230072 
2661.000000	99.234790 
2660.000000	99.237982 
2659.000000	99.239541 
2658.000000	99.238420 
2657.000000	99.234616 
2656.000000	99.230082 
2655.000000	99.227076 
2654.000000	99.226348 
2653.000000	99.227077 
2652.000000	99.227669 
2651.000000	99.226569 
2650.000000	99.223521 
2649.000000	99.220335 
2648.000000	99.219200 
2647.000000	99.220014 
2646.000000	99.220770 
2645.000000	99.220858 
2644.000000	99.222168 
2643.000000	99.226097 
2642.000000	99.231194 
2641.000000	99.234961 
2640.000000	99.236667 
2639.000000	99.237181 
2638.000000	99.237242 
2637.000000	99.237050 
2636.000000	99.236425 
2635.000000	99.234412 
2634.000000	99.230122 
2633.000000	99.225064 
2632.000000	99.222981 
2631.000000	99.225807 
2630.000000	99.231202 
2629.000000	99.235656 
2628.000000	99.238452 
2627.000000	99.240640 
2626.000000	99.241861 
2625.000000	99.241035 
2624.000000	99.239245 
2623.000000	99.238942 
2622.000000	99.240436 
2621.000000	99.241772 
2620.000000	99.242092 
2619.000000	99.242554 
2618.000000	99.243545 
2617.000000	99.243425 
2616.000000	99.241069 
2615.000000	99.237885 
2614.000000	99.236247 
2613.000000	99.237005 
2612.000000	99.239256 
2611.000000	99.241771 
2610.000000	99.244157 
2609.000000	99.247134 
2608.000000	99.251656 
2607.000000	99.257295 
2606.000000	99.262015 
2605.000000	99.264291 
2604.000000	99.264512 
2603.000000	99.263148 
2602.000000	99.258935 
2601.000000	99.251181 
2600.000000	99.243154 
2599.000000	99.240323 
2598.000000	99.244722 
2597.000000	99.252939 
2596.000000	99.259795 
2595.000000	99.262063 
2594.000000	99.258735 
2593.000000	99.250759 
2592.000000	99.241821 
2591.000000	99.237033 
2590.000000	99.238865 
2589.000000	99.245348 
2588.000000	99.253008 
2587.000000	99.259809 
2586.000000	99.264121 
2585.000000	99.263159 
2584.000000	99.255306 
2583.000000	99.243447 
2582.000000	99.233682 
2581.000000	99.230136 
2580.000000	99.231866 
2579.000000	99.234716 
2578.000000	99.235342 
2577.000000	99.233721 
2576.000000	99.232750 
2575.000000	99.235453 
2574.000000	99.241845 
2573.000000	99.248518 
2572.000000	99.251739 
2571.000000	99.250681 
2570.000000	99.247229 
2569.000000	99.243404 
2568.000000	99.240136 
2567.000000	99.238194 
2566.000000	99.238636 
2565.000000	99.241648 
2564.000000	99.245740 
2563.000000	99.248829 
2562.000000	99.249837 
2561.000000	99.249185 
2560.000000	99.248508 
2559.000000	99.250009 
2558.000000	99.254686 
2557.000000	99.260189 
2556.000000	99.261746 
2555.000000	99.257269 
2554.000000	99.251096 
2553.000000	99.250266 
2552.000000	99.256496 
2551.000000	99.264038 
2550.000000	99.266611 
2549.000000	99.264227 
2548.000000	99.261152 
2547.000000	99.259108 
2546.000000	99.255981 
2545.000000	99.250972 
2544.000000	99.247410 
2543.000000	99.248879 
2542.000000	99.254690 
2541.000000	99.260935 
2540.000000	99.264900 
2539.000000	99.266804 
2538.000000	99.267614 
2537.000000	99.266599 
2536.000000	99.261766 
2535.000000	99.252877 
2534.000000	99.243792 
2533.000000	99.240544 
2532.000000	99.245774 
2531.000000	99.255662 
2530.000000	99.263820 
2529.000000	99.267716 
2528.000000	99.269527 
2527.000000	99.271547 
2526.000000	99.273866 
2525.000000	99.276802 
2524.000000	99.281891 
2523.000000	99.288428 
2522.000000	99.291814 
2521.000000	99.288329 
2520.000000	99.280305 
2519.000000	99.273997 
2518.000000	99.272854 
2517.000000	99.274819 
2516.000000	99.275802 
2515.000000	99.274063 
2514.000000	99.271284 
2513.000000	99.270529 
2512.000000	99.272889 
2511.000000	99.275492 
2510.000000	99.273846 
2509.000000	99.267265 
2508.000000	99.260690 
2507.000000	99.259417 
2506.000000	99.262953 
2505.000000	99.265985 
2504.000000	99.264769 
2503.000000	99.260424 
2502.000000	99.256120 
2501.000000	99.253523 
2500.000000	99.252930 
2499.000000	99.255130 
2498.000000	99.261357 
2497.000000	99.271309 
2496.000000	99.281908 
2495.000000	99.288596 
2494.000000	99.288469 
2493.000000	99.282492 
2492.000000	99.274381 
2491.000000	99.267301 
2490.000000	99.262208 
2489.000000	99.259036 
2488.000000	99.257803 
2487.000000	99.257950 
2486.000000	99.258278 
2485.000000	99.258870 
2484.000000	99.261732 
2483.000000	99.267902 
2482.000000	99.274863 
2481.000000	99.278573 
2480.000000	99.277635 
2479.000000	99.273891 
2478.000000	99.269429 
2477.000000	99.264810 
2476.000000	99.260193 
2475.000000	99.256474 
2474.000000	99.254710 
2473.000000	99.255383 
2472.000000	99.258582 
2471.000000	99.264162 
2470.000000	99.271268 
2469.000000	99.277940 
2468.000000	99.281419 
2467.000000	99.279403 
2466.000000	99.272229 
2465.000000	99.264145 
2464.000000	99.260823 
2463.000000	99.264157 
2462.000000	99.270201 
2461.000000	99.273392 
2460.000000	99.272195 
2459.000000	99.269509 
2458.000000	99.268470 
2457.000000	99.269509 
2456.000000	99.271042 
2455.000000	99.271249 
2454.000000	99.269071 
2453.000000	99.264844 
2452.000000	99.260293 
2451.000000	99.257056 
2450.000000	99.255277 
2449.000000	99.254304 
2448.000000	99.254254 
2447.000000	99.255821 
2446.000000	99.259024 
2445.000000	99.263277 
2444.000000	99.268238 
2443.000000	99.273264 
2442.000000	99.276608 
2441.000000	99.276885 
2440.000000	99.275212 
2439.000000	99.274210 
2438.000000	99.274797 
2437.000000	99.275520 
2436.000000	99.274997 
2435.000000	99.273008 
2434.000000	99.268878 
2433.000000	99.261271 
2432.000000	99.251098 
2431.000000	99.242878 
2430.000000	99.241098 
2429.000000	99.245815 
2428.000000	99.253502 
2427.000000	99.261651 
2426.000000	99.270337 
2425.000000	99.278860 
2424.000000	99.283224 
2423.000000	99.279228 
2422.000000	99.267812 
2421.000000	99.255653 
2420.000000	99.249725 
2419.000000	99.251867 
2418.000000	99.258695 
2417.000000	99.265498 
2416.000000	99.269260 
2415.000000	99.269138 
2414.000000	99.266094 
2413.000000	99.262407 
2412.000000	99.260163 
2411.000000	99.259591 
2410.000000	99.259577 
2409.000000	99.259884 
2408.000000	99.261707 
2407.000000	99.265672 
2406.000000	99.270515 
2405.000000	99.274398 
2404.000000	99.276502 
2403.000000	99.276638 
2402.000000	99.274431 
2401.000000	99.270023 
2400.000000	99.264882 
2399.000000	99.260782 
2398.000000	99.258299 
2397.000000	99.257007 
2396.000000	99.256724 
2395.000000	99.257764 
2394.000000	99.260293 
2393.000000	99.264075 
2392.000000	99.268651 
2391.000000	99.273376 
2390.000000	99.277706 
2389.000000	99.281748 
2388.000000	99.285915 
2387.000000	99.289679 
2386.000000	99.291489 
2385.000000	99.290536 
2384.000000	99.287905 
2383.000000	99.285421 
2382.000000	99.284159 
2381.000000	99.284674 
2380.000000	99.287397 
2379.000000	99.291342 
2378.000000	99.293321 
2377.000000	99.290721 
2376.000000	99.285342 
2375.000000	99.282393 
2374.000000	99.284722 
2373.000000	99.289879 
2372.000000	99.294247 
2371.000000	99.298381 
2370.000000	99.305806 
2369.000000	99.316856 
2368.000000	99.325835 
2367.000000	99.325360 
2366.000000	99.313506 
2365.000000	99.296916 
2364.000000	99.286299 
2363.000000	99.287585 
2362.000000	99.297087 
2361.000000	99.305531 
2360.000000	99.307100 
2359.000000	99.303322 
2358.000000	99.299614 
2357.000000	99.299989 
2356.000000	99.304553 
2355.000000	99.309864 
2354.000000	99.310857 
2353.000000	99.306295 
2352.000000	99.300415 
2351.000000	99.297691 
2350.000000	99.298447 
2349.000000	99.300015 
2348.000000	99.300813 
2347.000000	99.300151 
2346.000000	99.297273 
2345.000000	99.292642 
2344.000000	99.289144 
2343.000000	99.290055 
2342.000000	99.294326 
2341.000000	99.297971 
2340.000000	99.298105 
2339.000000	99.294829 
2338.000000	99.289587 
2337.000000	99.284572 
2336.000000	99.283243 
2335.000000	99.288063 
2334.000000	99.297111 
2333.000000	99.305260 
2332.000000	99.308419 
2331.000000	99.305052 
2330.000000	99.295975 
2329.000000	99.283994 
2328.000000	99.274289 
2327.000000	99.270079 
2326.000000	99.269608 
2325.000000	99.268199 
2324.000000	99.263729 
2323.000000	99.259935 
2322.000000	99.262561 
2321.000000	99.273676 
2320.000000	99.288562 
2319.000000	99.299536 
2318.000000	99.302285 
2317.000000	99.298621 
2316.000000	99.293439 
2315.000000	99.289408 
2314.000000	99.286021 
2313.000000	99.282385 
2312.000000	99.279983 
2311.000000	99.281386 
2310.000000	99.287747 
2309.000000	99.297278 
2308.000000	99.305700 
2307.000000	99.308340 
2306.000000	99.303630 
2305.000000	99.294870 
2304.000000	99.287046 
2303.000000	99.281804 
2302.000000	99.276952 
2301.000000	99.270715 
2300.000000	99.264127 
2299.000000	99.258623 
2298.000000	99.254247 
2297.000000	99.251441 
2296.000000	99.252405 
2295.000000	99.257953 
2294.000000	99.264754 
2293.000000	99.267885 
2292.000000	99.265655 
2291.000000	99.260059 
2290.000000	99.253629 
2289.000000	99.248055 
2288.000000	99.244856 
2287.000000	99.244754 
2286.000000	99.246092 
2285.000000	99.246020 
2284.000000	99.243480 
2283.000000	99.239575 
2282.000000	99.234877 
2281.000000	99.228378 
2280.000000	99.219863 
2279.000000	99.212156 
2278.000000	99.209730 
2277.000000	99.214882 
2276.000000	99.225307 
2275.000000	99.235657 
2274.000000	99.241866 
2273.000000	99.243531 
2272.000000	99.241561 
2271.000000	99.235161 
2270.000000	99.224400 
2269.000000	99.215340 
2268.000000	99.217621 
2267.000000	99.234047 
2266.000000	99.255408 
2265.000000	99.268744 
2264.000000	99.269260 
2263.000000	99.262193 
2262.000000	99.256024 
2261.000000	99.256896 
2260.000000	99.266310 
2259.000000	99.279286 
2258.000000	99.286026 
2257.000000	99.280428 
2256.000000	99.267077 
2255.000000	99.256101 
2254.000000	99.251405 
2253.000000	99.248176 
2252.000000	99.242333 
2251.000000	99.237591 
2250.000000	99.240883 
2249.000000	99.253324 
2248.000000	99.268253 
2247.000000	99.277058 
2246.000000	99.275733 
2245.000000	99.266780 
2244.000000	99.255878 
2243.000000	99.247261 
2242.000000	99.242066 
2241.000000	99.239772 
2240.000000	99.238999 
2239.000000	99.236956 
2238.000000	99.230981 
2237.000000	99.222015 
2236.000000	99.214209 
2235.000000	99.209847 
2234.000000	99.207544 
2233.000000	99.207114 
2232.000000	99.212401 
2231.000000	99.225801 
2230.000000	99.242843 
2229.000000	99.256509 
2228.000000	99.265306 
2227.000000	99.272626 
2226.000000	99.279108 
2225.000000	99.280396 
2224.000000	99.273165 
2223.000000	99.260210 
2222.000000	99.248752 
2221.000000	99.245135 
2220.000000	99.250295 
2219.000000	99.258852 
2218.000000	99.264130 
2217.000000	99.266147 
2216.000000	99.272696 
2215.000000	99.289573 
2214.000000	99.311201 
2213.000000	99.324168 
2212.000000	99.319912 
2211.000000	99.302401 
2210.000000	99.284807 
2209.000000	99.279970 
2208.000000	99.290737 
2207.000000	99.306688 
2206.000000	99.312567 
2205.000000	99.302522 
2204.000000	99.284108 
2203.000000	99.267237 
2202.000000	99.254258 
2201.000000	99.243495 
2200.000000	99.235815 
2199.000000	99.231788 
2198.000000	99.227445 
2197.000000	99.220343 
2196.000000	99.216661 
2195.000000	99.224620 
2194.000000	99.242455 
2193.000000	99.259549 
2192.000000	99.268200 
2191.000000	99.268067 
2190.000000	99.260934 
2189.000000	99.248969 
2188.000000	99.237809 
2187.000000	99.234047 
2186.000000	99.238835 
2185.000000	99.248824 
2184.000000	99.262037 
2183.000000	99.276913 
2182.000000	99.287852 
2181.000000	99.290268 
2180.000000	99.289157 
2179.000000	99.293456 
2178.000000	99.301872 
2177.000000	99.303216 
2176.000000	99.291805 
2175.000000	99.274054 
2174.000000	99.257813 
2173.000000	99.243699 
2172.000000	99.230403 
2171.000000	99.221263 
2170.000000	99.221128 
2169.000000	99.230903 
2168.000000	99.247663 
2167.000000	99.266334 
2166.000000	99.280101 
2165.000000	99.284412 
2164.000000	99.282588 
2163.000000	99.282748 
2162.000000	99.288469 
2161.000000	99.297483 
2160.000000	99.308531 
2159.000000	99.321609 
2158.000000	99.331659 
2157.000000	99.332698 
2156.000000	99.328894 
2155.000000	99.330100 
2154.000000	99.335610 
2153.000000	99.332737 
2152.000000	99.314248 
2151.000000	99.289664 
2150.000000	99.275993 
2149.000000	99.282619 
2148.000000	99.306343 
2147.000000	99.334495 
2146.000000	99.350443 
2145.000000	99.343818 
2144.000000	99.320787 
2143.000000	99.299454 
2142.000000	99.291809 
2141.000000	99.294208 
2140.000000	99.297105 
2139.000000	99.297715 
2138.000000	99.298547 
2137.000000	99.299246 
2136.000000	99.297081 
2135.000000	99.293512 
2134.000000	99.294102 
2133.000000	99.301126 
2132.000000	99.309457 
2131.000000	99.310514 
2130.000000	99.299602 
2129.000000	99.280776 
2128.000000	99.264915 
2127.000000	99.260388 
2126.000000	99.264592 
2125.000000	99.267243 
2124.000000	99.263298 
2123.000000	99.259225 
2122.000000	99.263907 
2121.000000	99.276591 
2120.000000	99.287941 
2119.000000	99.291391 
2118.000000	99.288911 
2117.000000	99.285700 
2116.000000	99.283532 
2115.000000	99.281114 
2114.000000	99.278162 
2113.000000	99.276181 
2112.000000	99.275641 
2111.000000	99.274516 
2110.000000	99.270580 
2109.000000	99.264434 
2108.000000	99.259128 
2107.000000	99.256429 
2106.000000	99.254136 
2105.000000	99.247944 
2104.000000	99.236255 
2103.000000	99.222977 
2102.000000	99.215393 
2101.000000	99.218484 
2100.000000	99.230044 
2099.000000	99.241530 
2098.000000	99.245441 
2097.000000	99.242581 
2096.000000	99.240136 
2095.000000	99.241508 
2094.000000	99.241037 
2093.000000	99.231750 
2092.000000	99.216073 
2091.000000	99.204748 
2090.000000	99.205576 
2089.000000	99.216102 
2088.000000	99.227231 
2087.000000	99.231409 
2086.000000	99.227078 
2085.000000	99.218457 
2084.000000	99.212286 
2083.000000	99.212554 
2082.000000	99.217305 
2081.000000	99.221643 
2080.000000	99.223583 
2079.000000	99.224944 
2078.000000	99.227303 
2077.000000	99.230733 
2076.000000	99.236744 
2075.000000	99.247906 
2074.000000	99.262413 
2073.000000	99.272722 
2072.000000	99.272925 
2071.000000	99.265540 
2070.000000	99.258490 
2069.000000	99.256976 
2068.000000	99.260268 
2067.000000	99.264798 
2066.000000	99.267679 
2065.000000	99.267754 
2064.000000	99.265621 
2063.000000	99.263144 
2062.000000	99.262497 
2061.000000	99.265664 
2060.000000	99.273951 
2059.000000	99.286288 
2058.000000	99.298117 
2057.000000	99.304028 
2056.000000	99.302060 
2055.000000	99.293945 
2054.000000	99.281745 
2053.000000	99.267377 
2052.000000	99.255486 
2051.000000	99.252612 
2050.000000	99.260542 
2049.000000	99.271804 
2048.000000	99.275437 
2047.000000	99.267933 
2046.000000	99.256002 
2045.000000	99.248957 
2044.000000	99.250613 
2043.000000	99.257963 
2042.000000	99.265263 
2041.000000	99.268802 
2040.000000	99.269175 
2039.000000	99.269674 
2038.000000	99.272567 
2037.000000	99.276982 
2036.000000	99.279792 
2035.000000	99.278231 
2034.000000	99.272447 
2033.000000	99.266385 
2032.000000	99.265033 
2031.000000	99.269463 
2030.000000	99.275431 
2029.000000	99.277577 
2028.000000	99.273851 
2027.000000	99.265508 
2026.000000	99.255803 
2025.000000	99.250276 
2024.000000	99.253989 
2023.000000	99.264569 
2022.000000	99.271078 
2021.000000	99.265050 
2020.000000	99.251650 
2019.000000	99.244647 
2018.000000	99.250382 
2017.000000	99.260947 
2016.000000	99.264182 
2015.000000	99.256433 
2014.000000	99.243511 
2013.000000	99.233294 
2012.000000	99.229844 
2011.000000	99.233059 
2010.000000	99.242666 
2009.000000	99.261005 
2008.000000	99.288589 
2007.000000	99.316095 
2006.000000	99.326784 
2005.000000	99.313118 
2004.000000	99.287512 
2003.000000	99.269761 
2002.000000	99.266251 
2001.000000	99.267067 
2000.000000	99.261081 
1999.000000	99.247366 
1998.000000	99.232361 
1997.000000	99.223270 
1996.000000	99.225539 
1995.000000	99.240598 
1994.000000	99.262440 
1993.000000	99.279204 
1992.000000	99.282241 
1991.000000	99.272797 
1990.000000	99.258275 
1989.000000	99.245966 
1988.000000	99.241616 
1987.000000	99.247991 
1986.000000	99.261156 
1985.000000	99.271601 
1984.000000	99.272516 
1983.000000	99.265021 
1982.000000	99.253633 
1981.000000	99.240176 
1980.000000	99.225256 
1979.000000	99.212984 
1978.000000	99.209542 
1977.000000	99.215952 
1976.000000	99.225228 
1975.000000	99.229588 
1974.000000	99.230304 
1973.000000	99.238733 
1972.000000	99.265122 
1971.000000	99.304677 
1970.000000	99.336722 
1969.000000	99.341308 
1968.000000	99.318068 
1967.000000	99.286427 
1966.000000	99.265849 
1965.000000	99.259659 
1964.000000	99.259575 
1963.000000	99.259430 
1962.000000	99.259632 
1961.000000	99.261726 
1960.000000	99.264221 
1959.000000	99.264828 
1958.000000	99.263823 
1957.000000	99.263126 
1956.000000	99.263146 
1955.000000	99.262266 
1954.000000	99.259370 
1953.000000	99.255122 
1952.000000	99.249812 
1951.000000	99.241639 
1950.000000	99.229576 
1949.000000	99.217697 
1948.000000	99.213273 
1947.000000	99.218097 
1946.000000	99.223760 
1945.000000	99.219085 
1944.000000	99.202338 
1943.000000	99.184229 
1942.000000	99.177745 
1941.000000	99.185521 
1940.000000	99.199115 
1939.000000	99.209353 
1938.000000	99.214766 
1937.000000	99.220829 
1936.000000	99.231748 
1935.000000	99.243916 
1934.000000	99.249816 
1933.000000	99.248204 
1932.000000	99.246745 
1931.000000	99.252142 
1930.000000	99.260701 
1929.000000	99.263056 
1928.000000	99.256785 
1927.000000	99.249139 
1926.000000	99.247460 
1925.000000	99.251646 
1924.000000	99.256758 
1923.000000	99.259617 
1922.000000	99.260510 
1921.000000	99.260438 
1920.000000	99.259009 
1919.000000	99.254145 
1918.000000	99.243778 
1917.000000	99.229928 
1916.000000	99.218991 
1915.000000	99.215193 
1914.000000	99.216633 
1913.000000	99.218930 
1912.000000	99.220608 
1911.000000	99.222991 
1910.000000	99.225478 
1909.000000	99.225577 
1908.000000	99.224379 
1907.000000	99.226638 
1906.000000	99.233933 
1905.000000	99.241606 
1904.000000	99.244354 
1903.000000	99.242083 
1902.000000	99.238044 
1901.000000	99.234352 
1900.000000	99.231303 
1899.000000	99.228789 
1898.000000	99.226922 
1897.000000	99.225899 
1896.000000	99.226017 
1895.000000	99.227028 
1894.000000	99.227318 
1893.000000	99.225609 
1892.000000	99.223057 
1891.000000	99.221643 
1890.000000	99.221394 
1889.000000	99.221749 
1888.000000	99.224296 
1887.000000	99.229931 
1886.000000	99.235355 
1885.000000	99.236750 
1884.000000	99.235695 
1883.000000	99.236951 
1882.000000	99.240259 
1881.000000	99.240229 
1880.000000	99.235417 
1879.000000	99.231764 
1878.000000	99.235170 
1877.000000	99.244584 
1876.000000	99.254367 
1875.000000	99.260145 
1874.000000	99.259880 
1873.000000	99.253070 
1872.000000	99.242405 
1871.000000	99.233411 
1870.000000	99.229031 
1869.000000	99.225996 
1868.000000	99.221794 
1867.000000	99.220677 
1866.000000	99.226185 
1865.000000	99.234298 
1864.000000	99.237121 
1863.000000	99.230386 
1862.000000	99.217022 
1861.000000	99.204785 
1860.000000	99.201401 
1859.000000	99.209728 
1858.000000	99.225048 
1857.000000	99.238141 
1856.000000	99.243426 
1855.000000	99.243161 
1854.000000	99.242659 
1853.000000	99.243709 
1852.000000	99.244390 
1851.000000	99.243404 
1850.000000	99.242398 
1849.000000	99.244265 
1848.000000	99.249979 
1847.000000	99.257630 
1846.000000	99.264413 
1845.000000	99.268693 
1844.000000	99.271020 
1843.000000	99.272935 
1842.000000	99.273770 
1841.000000	99.271731 
1840.000000	99.267178 
1839.000000	99.261805 
1838.000000	99.256599 
1837.000000	99.251977 
1836.000000	99.249099 
1835.000000	99.248954 
1834.000000	99.250393 
1833.000000	99.251251 
1832.000000	99.250795 
1831.000000	99.249716 
1830.000000	99.248742 
1829.000000	99.248666 
1828.000000	99.249619 
1827.000000	99.250321 
1826.000000	99.249755 
1825.000000	99.248559 
1824.000000	99.248569 
1823.000000	99.249736 
1822.000000	99.248491 
1821.000000	99.242293 
1820.000000	99.234816 
1819.000000	99.233668 
1818.000000	99.241347 
1817.000000	99.250950 
1816.000000	99.254790 
1815.000000	99.253830 
1814.000000	99.253992 
1813.000000	99.257194 
1812.000000	99.260414 
1811.000000	99.262393 
1810.000000	99.265452 
1809.000000	99.269641 
1808.000000	99.271834 
1807.000000	99.270161 
1806.000000	99.264829 
1805.000000	99.256580 
1804.000000	99.247136 
1803.000000	99.239323 
1802.000000	99.234199 
1801.000000	99.229570 
1800.000000	99.224594 
1799.000000	99.223272 
1798.000000	99.228888 
1797.000000	99.238614 
1796.000000	99.247271 
1795.000000	99.252750 
1794.000000	99.255747 
1793.000000	99.255978 
1792.000000	99.253034 
1791.000000	99.250646 
1790.000000	99.251760 
1789.000000	99.253916 
1788.000000	99.254923 
1787.000000	99.256679 
1786.000000	99.261662 
1785.000000	99.267993 
1784.000000	99.271179 
1783.000000	99.269345 
1782.000000	99.263638 
1781.000000	99.256102 
1780.000000	99.248862 
1779.000000	99.243894 
1778.000000	99.242081 
1777.000000	99.242929 
1776.000000	99.245420 
1775.000000	99.248193 
1774.000000	99.250197 
1773.000000	99.250948 
1772.000000	99.250283 
1771.000000	99.249607 
1770.000000	99.250124 
1769.000000	99.250900 
1768.000000	99.250962 
1767.000000	99.250832 
1766.000000	99.251468 
1765.000000	99.252596 
1764.000000	99.253205 
1763.000000	99.252700 
1762.000000	99.251263 
1761.000000	99.249757 
1760.000000	99.248397 
1759.000000	99.247402 
1758.000000	99.248928 
1757.000000	99.255523 
1756.000000	99.265682 
1755.000000	99.273844 
1754.000000	99.276797 
1753.000000	99.276939 
1752.000000	99.277789 
1751.000000	99.278029 
1750.000000	99.274486 
1749.000000	99.268675 
1748.000000	99.264605 
1747.000000	99.263645 
1746.000000	99.264403 
1745.000000	99.265550 
1744.000000	99.266282 
1743.000000	99.265931 
1742.000000	99.265235 
1741.000000	99.266146 
1740.000000	99.269504 
1739.000000	99.274005 
1738.000000	99.277432 
1737.000000	99.277969 
1736.000000	99.276618 
1735.000000	99.276378 
1734.000000	99.275932 
1733.000000	99.274479 
1732.000000	99.274017 
1731.000000	99.272861 
1730.000000	99.269539 
1729.000000	99.265847 
1728.000000	99.264024 
1727.000000	99.264257 
1726.000000	99.265253 
1725.000000	99.266537 
1724.000000	99.268142 
1723.000000	99.269909 
1722.000000	99.270924 
1721.000000	99.270411 
1720.000000	99.270176 
1719.000000	99.274898 
1718.000000	99.284493 
1717.000000	99.288870 
1716.000000	99.283940 
1715.000000	99.278822 
1714.000000	99.278843 
1713.000000	99.279786 
1712.000000	99.277122 
1711.000000	99.272118 
1710.000000	99.268879 
1709.000000	99.268326 
1708.000000	99.268271 
1707.000000	99.267996 
1706.000000	99.267769 
1705.000000	99.264559 
1704.000000	99.256389 
1703.000000	99.246168 
1702.000000	99.240526 
1701.000000	99.241511 
1700.000000	99.241071 
1699.000000	99.239999 
1698.000000	99.244209 
1697.000000	99.248673 
1696.000000	99.247667 
1695.000000	99.243928 
1694.000000	99.242835 
1693.000000	99.243261 
1692.000000	99.242837 
1691.000000	99.242595 
1690.000000	99.243202 
1689.000000	99.243247 
1688.000000	99.242094 
1687.000000	99.241867 
1686.000000	99.247566 
1685.000000	99.258506 
1684.000000	99.262235 
1683.000000	99.256818 
1682.000000	99.250612 
1681.000000	99.245575 
1680.000000	99.242211 
1679.000000	99.240069 
1678.000000	99.237033 
1677.000000	99.233180 
1676.000000	99.231198 
1675.000000	99.231988 
1674.000000	99.234190 
1673.000000	99.237049 
1672.000000	99.240286 
1671.000000	99.243714 
1670.000000	99.244526 
1669.000000	99.241410 
1668.000000	99.238449 
1667.000000	99.237064 
1666.000000	99.234852 
1665.000000	99.231276 
1664.000000	99.228731 
1663.000000	99.228884 
1662.000000	99.229776 
1661.000000	99.230112 
1660.000000	99.231989 
1659.000000	99.236946 
1658.000000	99.241908 
1657.000000	99.242368 
1656.000000	99.237335 
1655.000000	99.232383 
1654.000000	99.231477 
1653.000000	99.227942 
1652.000000	99.225691 
1651.000000	99.229948 
1650.000000	99.233106 
1649.000000	99.233203 
1648.000000	99.232696 
1647.000000	99.230855 
1646.000000	99.227969 
1645.000000	99.227591 
1644.000000	99.230505 
1643.000000	99.234521 
1642.000000	99.237500 
1641.000000	99.237654 
1640.000000	99.234669 
1639.000000	99.229639 
1638.000000	99.224503 
1637.000000	99.222054 
1636.000000	99.223172 
1635.000000	99.226125 
1634.000000	99.229106 
1633.000000	99.229754 
1632.000000	99.226759 
1631.000000	99.221507 
1630.000000	99.215989 
1629.000000	99.212019 
1628.000000	99.211268 
1627.000000	99.213360 
1626.000000	99.215410 
1625.000000	99.215749 
1624.000000	99.215793 
1623.000000	99.216582 
1622.000000	99.216944 
1621.000000	99.216261 
1620.000000	99.215561 
1619.000000	99.216440 
1618.000000	99.219502 
1617.000000	99.222972 
1616.000000	99.226998 
1615.000000	99.232833 
1614.000000	99.238359 
1613.000000	99.242504 
1612.000000	99.247380 
1611.000000	99.253113 
1610.000000	99.255362 
1609.000000	99.251604 
1608.000000	99.245722 
1607.000000	99.242223 
1606.000000	99.241252 
1605.000000	99.241882 
1604.000000	99.244761 
1603.000000	99.249262 
1602.000000	99.252876 
1601.000000	99.254987 
1600.000000	99.257464 
1599.000000	99.260845 
1598.000000	99.263564 
1597.000000	99.265000 
1596.000000	99.265966 
1595.000000	99.265889 
1594.000000	99.262979 
1593.000000	99.258627 
1592.000000	99.257512 
1591.000000	99.261397 
1590.000000	99.266468 
1589.000000	99.269143 
1588.000000	99.270855 
1587.000000	99.274213 
1586.000000	99.278261 
1585.000000	99.280868 
1584.000000	99.282639 
1583.000000	99.284556 
1582.000000	99.284802 
1581.000000	99.281744 
1580.000000	99.276541 
1579.000000	99.270734 
1578.000000	99.265151 
1577.000000	99.261537 
1576.000000	99.262070 
1575.000000	99.266095 
1574.000000	99.269636 
1573.000000	99.270543 
1572.000000	99.270746 
1571.000000	99.272847 
1570.000000	99.275022 
1569.000000	99.275514 
1568.000000	99.276921 
1567.000000	99.279018 
1566.000000	99.279002 
1565.000000	99.276779 
1564.000000	99.273434 
1563.000000	99.267194 
1562.000000	99.257011 
1561.000000	99.248514 
1560.000000	99.255338 
1559.000000	99.265288 
1558.000000	99.262789 
1557.000000	99.262845 
1556.000000	99.269244 
1555.000000	99.275217 
1554.000000	99.277330 
1553.000000	99.274705 
1552.000000	99.269834 
1551.000000	99.264651 
1550.000000	99.261509 
1549.000000	99.261954 
1548.000000	99.265090 
1547.000000	99.267189 
1546.000000	99.264095 
1545.000000	99.254160 
1544.000000	99.241823 
1543.000000	99.236033 
1542.000000	99.242453 
1541.000000	99.255275 
1540.000000	99.259748 
1539.000000	99.254474 
1538.000000	99.249588 
1537.000000	99.247390 
1536.000000	99.246588 
1535.000000	99.247627 
1534.000000	99.247110 
1533.000000	99.240370 
1532.000000	99.231562 
1531.000000	99.227495 
1530.000000	99.226888 
1529.000000	99.224372 
1528.000000	99.218132 
1527.000000	99.212320 
1526.000000	99.210967 
1525.000000	99.212339 
1524.000000	99.213469 
1523.000000	99.216073 
1522.000000	99.220843 
1521.000000	99.221698 
1520.000000	99.215524 
1519.000000	99.205849 
1518.000000	99.195921 
1517.000000	99.187477 
1516.000000	99.182117 
1515.000000	99.180622 
1514.000000	99.181663 
1513.000000	99.183195 
1512.000000	99.183007 
1511.000000	99.179445 
1510.000000	99.173196 
1509.000000	99.166745 
1508.000000	99.163604 
1507.000000	99.164231 
1506.000000	99.167665 
1505.000000	99.171062 
1504.000000	99.171112 
1503.000000	99.168839 
1502.000000	99.166814 
1501.000000	99.164909 
1500.000000	99.160192 
1499.000000	99.151749 
1498.000000	99.143822 
1497.000000	99.139013 
1496.000000	99.135194 
1495.000000	99.133558 
1494.000000	99.137354 
1493.000000	99.145179 
1492.000000	99.152528 
1491.000000	99.154862 
1490.000000	99.149793 
1489.000000	99.138800 
1488.000000	99.126769 
1487.000000	99.119100 
1486.000000	99.116001 
1485.000000	99.113172 
1484.000000	99.108624 
1483.000000	99.104412 
1482.000000	99.103452 
1481.000000	99.105222 
1480.000000	99.106325 
1479.000000	99.104930 
1478.000000	99.101475 
1477.000000	99.096056 
1476.000000	99.089418 
1475.000000	99.085838 
1474.000000	99.089000 
1473.000000	99.095056 
1472.000000	99.097186 
1471.000000	99.096258 
1470.000000	99.095724 
1469.000000	99.094457 
1468.000000	99.090926 
1467.000000	99.087141 
1466.000000	99.086673 
1465.000000	99.089573 
1464.000000	99.093104 
1463.000000	99.095795 
1462.000000	99.096890 
1461.000000	99.094738 
1460.000000	99.088396 
1459.000000	99.079153 
1458.000000	99.068733 
1457.000000	99.055544 
1456.000000	99.040575 
1455.000000	99.029125 
1454.000000	99.023092 
1453.000000	99.022163 
1452.000000	99.025579 
1451.000000	99.031211 
1450.000000	99.036978 
1449.000000	99.041031 
1448.000000	99.041673 
1447.000000	99.040066 
1446.000000	99.039677 
1445.000000	99.042076 
1444.000000	99.046286 
1443.000000	99.050821 
1442.000000	99.055016 
1441.000000	99.058078 
1440.000000	99.058259 
1439.000000	99.055094 
1438.000000	99.052274 
1437.000000	99.052978 
1436.000000	99.054596 
1435.000000	99.054333 
1434.000000	99.053133 
1433.000000	99.052062 
1432.000000	99.051109 
1431.000000	99.048926 
1430.000000	99.044777 
1429.000000	99.039780 
1428.000000	99.034782 
1427.000000	99.030173 
1426.000000	99.026544 
1425.000000	99.024584 
1424.000000	99.022177 
1423.000000	99.014840 
1422.000000	99.001265 
1421.000000	98.984092 
1420.000000	98.965719 
1419.000000	98.946528 
1418.000000	98.929764 
1417.000000	98.917018 
1416.000000	98.902724 
1415.000000	98.882622 
1414.000000	98.858602 
1413.000000	98.835560 
1412.000000	98.816578 
1411.000000	98.801351 
1410.000000	98.789098 
1409.000000	98.779556 
1408.000000	98.772254 
1407.000000	98.767531 
1406.000000	98.766720 
1405.000000	98.771334 
1404.000000	98.781584 
1403.000000	98.796273 
1402.000000	98.814748 
1401.000000	98.836881 
1400.000000	98.860235 
1399.000000	98.877341 
1398.000000	98.878543 
1397.000000	98.856426 
1396.000000	98.810538 
1395.000000	98.757907 
1394.000000	98.731787 
1393.000000	98.751987 
1392.000000	98.804195 
1391.000000	98.858590 
1390.000000	98.894913 
1389.000000	98.908985 
1388.000000	98.906106 
1387.000000	98.893788 
1386.000000	98.880016 
1385.000000	98.871269 
1384.000000	98.869159 
1383.000000	98.870531 
1382.000000	98.871626 
1381.000000	98.872115 
1380.000000	98.875057 
1379.000000	98.883055 
1378.000000	98.895731 
1377.000000	98.911012 
1376.000000	98.926926 
1375.000000	98.941663 
1374.000000	98.954781 
1373.000000	98.968867 
1372.000000	98.986053 
1371.000000	99.004071 
1370.000000	99.018539 
1369.000000	99.028481 
1368.000000	99.036832 
1367.000000	99.045759 
1366.000000	99.054967 
1365.000000	99.064365 
1364.000000	99.075240 
1363.000000	99.087647 
1362.000000	99.099115 
1361.000000	99.107867 
1360.000000	99.114997 
1359.000000	99.122530 
1358.000000	99.131443 
1357.000000	99.141648 
1356.000000	99.152016 
1355.000000	99.160470 
1354.000000	99.165901 
1353.000000	99.169608 
1352.000000	99.173686 
1351.000000	99.178289 
1350.000000	99.181372 
1349.000000	99.182416 
1348.000000	99.183347 
1347.000000	99.185266 
1346.000000	99.187485 
1345.000000	99.189901 
1344.000000	99.193451 
1343.000000	99.197665 
1342.000000	99.200521 
1341.000000	99.201509 
1340.000000	99.202432 
1339.000000	99.204212 
1338.000000	99.205848 
1337.000000	99.207540 
1336.000000	99.211430 
1335.000000	99.217956 
1334.000000	99.224035 
1333.000000	99.226367 
1332.000000	99.224948 
1331.000000	99.222029 
1330.000000	99.219407 
1329.000000	99.218212 
1328.000000	99.219404 
1327.000000	99.222452 
1326.000000	99.224862 
1325.000000	99.225098 
1324.000000	99.224228 
1323.000000	99.223743 
1322.000000	99.223709 
1321.000000	99.224029 
1320.000000	99.225768 
1319.000000	99.229623 
1318.000000	99.234097 
1317.000000	99.236602 
1316.000000	99.235971 
1315.000000	99.233164 
1314.000000	99.230147 
1313.000000	99.228408 
1312.000000	99.227903 
1311.000000	99.227285 
1310.000000	99.225697 
1309.000000	99.224002 
1308.000000	99.223381 
1307.000000	99.223172 
1306.000000	99.221555 
1305.000000	99.218780 
1304.000000	99.217429 
1303.000000	99.218839 
1302.000000	99.221017 
1301.000000	99.221115 
1300.000000	99.218834 
1299.000000	99.216484 
1298.000000	99.216527 
1297.000000	99.219567 
1296.000000	99.223952 
1295.000000	99.226652 
1294.000000	99.225444 
1293.000000	99.220831 
1292.000000	99.215245 
1291.000000	99.210400 
1290.000000	99.206305 
1289.000000	99.202775 
1288.000000	99.200265 
1287.000000	99.198520 
1286.000000	99.195877 
1285.000000	99.191083 
1284.000000	99.184772 
1283.000000	99.178230 
1282.000000	99.171589 
1281.000000	99.164312 
1280.000000	99.156826 
1279.000000	99.150299 
1278.000000	99.145133 
1277.000000	99.140705 
1276.000000	99.136361 
1275.000000	99.131723 
1274.000000	99.126228 
1273.000000	99.119286 
1272.000000	99.110841 
1271.000000	99.101279 
1270.000000	99.090963 
1269.000000	99.080315 
1268.000000	99.069807 
1267.000000	99.059223 
1266.000000	99.047501 
1265.000000	99.034023 
1264.000000	99.019613 
1263.000000	99.005491 
1262.000000	98.991674 
1261.000000	98.977584 
1260.000000	98.964080 
1259.000000	98.953223 
1258.000000	98.945793 
1257.000000	98.940434 
1256.000000	98.935890 
1255.000000	98.932636 
1254.000000	98.931005 
1253.000000	98.928836 
1252.000000	98.923234 
1251.000000	98.914906 
1250.000000	98.908904 
1249.000000	98.910020 
1248.000000	98.918276 
1247.000000	98.929122 
1246.000000	98.936203 
1245.000000	98.933129 
1244.000000	98.916104 
1243.000000	98.889525 
1242.000000	98.867851 
1241.000000	98.865735 
1240.000000	98.883542 
1239.000000	98.905613 
1238.000000	98.915302 
1237.000000	98.909481 
1236.000000	98.896252 
1235.000000	98.882607 
1234.000000	98.869374 
1233.000000	98.855969 
1232.000000	98.843588 
1231.000000	98.832408 
1230.000000	98.820462 
1229.000000	98.807734 
1228.000000	98.798229 
1227.000000	98.795445 
1226.000000	98.797652 
1225.000000	98.799818 
1224.000000	98.798852 
1223.000000	98.795203 
1222.000000	98.790709 
1221.000000	98.786873 
1220.000000	98.784468 
1219.000000	98.783040 
1218.000000	98.780927 
1217.000000	98.776645 
1216.000000	98.769837 
1215.000000	98.760501 
1214.000000	98.748288 
1213.000000	98.733228 
1212.000000	98.716291 
1211.000000	98.698741 
1210.000000	98.681760 
1209.000000	98.666919 
1208.000000	98.655445 
1207.000000	98.646135 
1206.000000	98.635391 
1205.000000	98.620603 
1204.000000	98.602555 
1203.000000	98.583622 
1202.000000	98.564851 
1201.000000	98.546069 
1200.000000	98.527630 
1199.000000	98.510286 
1198.000000	98.493827 
1197.000000	98.477110 
1196.000000	98.458970 
1195.000000	98.438285 
1194.000000	98.414155 
1193.000000	98.387379 
1192.000000	98.360876 
1191.000000	98.337048 
1190.000000	98.315032 
1189.000000	98.291877 
1188.000000	98.266118 
1187.000000	98.239150 
1186.000000	98.213565 
1185.000000	98.190992 
1184.000000	98.170848 
1183.000000	98.150148 
1182.000000	98.125480 
1181.000000	98.096516 
1180.000000	98.066643 
1179.000000	98.038663 
1178.000000	98.011035 
1177.000000	97.980288 
1176.000000	97.945991 
1175.000000	97.910733 
1174.000000	97.875641 
1173.000000	97.838846 
1172.000000	97.799009 
1171.000000	97.758130 
1170.000000	97.719767 
1169.000000	97.685629 
1168.000000	97.654619 
1167.000000	97.624730 
1166.000000	97.596233 
1165.000000	97.573642 
1164.000000	97.563324 
1163.000000	97.567568 
1162.000000	97.581887 
1161.000000	97.599685 
1160.000000	97.617824 
1159.000000	97.634987 
1158.000000	97.646380 
1157.000000	97.644361 
1156.000000	97.625199 
1155.000000	97.593190 
1154.000000	97.557672 
1153.000000	97.526995 
1152.000000	97.504389 
1151.000000	97.486873 
1150.000000	97.467772 
1149.000000	97.442389 
1148.000000	97.411860 
1147.000000	97.380717 
1146.000000	97.351573 
1145.000000	97.323757 
1144.000000	97.295872 
1143.000000	97.267136 
1142.000000	97.236979 
1141.000000	97.206034 
1140.000000	97.177115 
1139.000000	97.152515 
1138.000000	97.130538 
1137.000000	97.107142 
1136.000000	97.080611 
1135.000000	97.052051 
1134.000000	97.021930 
1133.000000	96.989289 
1132.000000	96.954410 
1131.000000	96.919414 
1130.000000	96.885937 
1129.000000	96.854346 
1128.000000	96.824665 
1127.000000	96.795564 
1126.000000	96.763413 
1125.000000	96.725981 
1124.000000	96.686717 
1123.000000	96.651488 
1122.000000	96.620923 
1121.000000	96.589735 
1120.000000	96.553983 
1119.000000	96.515099 
1118.000000	96.476078 
1117.000000	96.437585 
1116.000000	96.399150 
1115.000000	96.360889 
1114.000000	96.322636 
1113.000000	96.283985 
1112.000000	96.245794 
1111.000000	96.208723 
1110.000000	96.170089 
1109.000000	96.125973 
1108.000000	96.077201 
1107.000000	96.029775 
1106.000000	95.988031 
1105.000000	95.950456 
1104.000000	95.913372 
1103.000000	95.875562 
1102.000000	95.837894 
1101.000000	95.801602 
1100.000000	95.767603 
1099.000000	95.736294 
1098.000000	95.706649 
1097.000000	95.677873 
1096.000000	95.651300 
1095.000000	95.626934 
1094.000000	95.598882 
1093.000000	95.558479 
1092.000000	95.502727 
1091.000000	95.436666 
1090.000000	95.367806 
1089.000000	95.301709 
1088.000000	95.242234 
1087.000000	95.190858 
1086.000000	95.144672 
1085.000000	95.099179 
1084.000000	95.053646 
1083.000000	95.010010 
1082.000000	94.967227 
1081.000000	94.921866 
1080.000000	94.874334 
1079.000000	94.829216 
1078.000000	94.789281 
1077.000000	94.754539 
1076.000000	94.727228 
1075.000000	94.711338 
1074.000000	94.706171 
1073.000000	94.705538 
1072.000000	94.702394 
1071.000000	94.687326 
1070.000000	94.644604 
1069.000000	94.562239 
1068.000000	94.451409 
1067.000000	94.347613 
1066.000000	94.284111 
1065.000000	94.265993 
1064.000000	94.272523 
1063.000000	94.277261 
1062.000000	94.260650 
1061.000000	94.212037 
1060.000000	94.132439 
1059.000000	94.037620 
1058.000000	93.951199 
1057.000000	93.889268 
1056.000000	93.851086 
1055.000000	93.823611 
1054.000000	93.793526 
1053.000000	93.756115 
1052.000000	93.714807 
1051.000000	93.673541 
1050.000000	93.631349 
1049.000000	93.585421 
1048.000000	93.536550 
1047.000000	93.488403 
1046.000000	93.443591 
1045.000000	93.403472 
1044.000000	93.369195 
1043.000000	93.339243 
1042.000000	93.308217 
1041.000000	93.272426 
1040.000000	93.235446 
1039.000000	93.204927 
1038.000000	93.185739 
1037.000000	93.179077 
1036.000000	93.184592 
1035.000000	93.198694 
1034.000000	93.213917 
1033.000000	93.224434 
1032.000000	93.228409 
1031.000000	93.221400 
1030.000000	93.195568 
1029.000000	93.154362 
1028.000000	93.121407 
1027.000000	93.121416 
1026.000000	93.152461 
1025.000000	93.187838 
1024.000000	93.205162 
1023.000000	93.203584 
1022.000000	93.193655 
1021.000000	93.182957 
1020.000000	93.175105 
1019.000000	93.172227 
1018.000000	93.172300 
1017.000000	93.170273 
1016.000000	93.165673 
1015.000000	93.163813 
1014.000000	93.167197 
1013.000000	93.171486 
1012.000000	93.172158 
1011.000000	93.169563 
1010.000000	93.165671 
1009.000000	93.161569 
1008.000000	93.160035 
1007.000000	93.164915 
1006.000000	93.175708 
1005.000000	93.187612 
1004.000000	93.198318 
1003.000000	93.209948 
1002.000000	93.223561 
1001.000000	93.237119 
1000.000000	93.249800 
999.000000	 93.262830 
998.000000	 93.275157 
997.000000	 93.284001 
996.000000	 93.290798 
995.000000	 93.300862 
994.000000	 93.315737 
993.000000	 93.331329 
992.000000	 93.344925 
991.000000	 93.358446 
990.000000	 93.373271 
989.000000	 93.387521 
988.000000	 93.400759 
987.000000	 93.416508 
986.000000	 93.437823 
985.000000	 93.464206 
984.000000	 93.494198 
983.000000	 93.526994 
982.000000	 93.560684 
981.000000	 93.593148 
980.000000	 93.625596 
979.000000	 93.661468 
978.000000	 93.701671 
977.000000	 93.744710 
976.000000	 93.790688 
975.000000	 93.840221 
974.000000	 93.890183 
973.000000	 93.936468 
972.000000	 93.981092 
971.000000	 94.030715 
970.000000	 94.087365 
969.000000	 94.146128 
968.000000	 94.202788 
967.000000	 94.258176 
966.000000	 94.313781 
965.000000	 94.368291 
964.000000	 94.420306 
963.000000	 94.470399 
962.000000	 94.519323 
961.000000	 94.567702 
960.000000	 94.617620 
959.000000	 94.670239 
958.000000	 94.721741 
957.000000	 94.766347 
956.000000	 94.803871 
955.000000	 94.839978 
954.000000	 94.878675 
953.000000	 94.919010 
952.000000	 94.959266 
951.000000	 94.999231 
950.000000	 95.037312 
949.000000	 95.070262 
948.000000	 95.097300 
947.000000	 95.120798 
946.000000	 95.142079 
945.000000	 95.160312 
944.000000	 95.176208 
943.000000	 95.192994 
942.000000	 95.212915 
941.000000	 95.235798 
940.000000	 95.260678 
939.000000	 95.285172 
938.000000	 95.304378 
937.000000	 95.315554 
936.000000	 95.323780 
935.000000	 95.337847 
934.000000	 95.360122 
933.000000	 95.385311 
932.000000	 95.409313 
931.000000	 95.433408 
930.000000	 95.458539 
929.000000	 95.481149 
928.000000	 95.497244 
927.000000	 95.506900 
926.000000	 95.513264 
925.000000	 95.520544 
924.000000	 95.533617 
923.000000	 95.555231 
922.000000	 95.581789 
921.000000	 95.605254 
920.000000	 95.620449 
919.000000	 95.628014 
918.000000	 95.630753 
917.000000	 95.631017 
916.000000	 95.631613 
915.000000	 95.634786 
914.000000	 95.639374 
913.000000	 95.642704 
912.000000	 95.645872 
911.000000	 95.653622 
910.000000	 95.668936 
909.000000	 95.691360 
908.000000	 95.720048 
907.000000	 95.753853 
906.000000	 95.788703 
905.000000	 95.819895 
904.000000	 95.847520 
903.000000	 95.875868 
902.000000	 95.907964 
901.000000	 95.944428 
900.000000	 95.985968 
899.000000	 96.031765 
898.000000	 96.076287 
897.000000	 96.113541 
896.000000	 96.143993 
895.000000	 96.172583 
894.000000	 96.201634 
893.000000	 96.231603 
892.000000	 96.267058 
891.000000	 96.314045 
890.000000	 96.370900 
889.000000	 96.428115 
888.000000	 96.477840 
887.000000	 96.517933 
886.000000	 96.547716 
885.000000	 96.567288 
884.000000	 96.581436 
883.000000	 96.596571 
882.000000	 96.612268 
881.000000	 96.623043 
880.000000	 96.630242 
879.000000	 96.644361 
878.000000	 96.672425 
877.000000	 96.709876 
876.000000	 96.747776 
875.000000	 96.781007 
874.000000	 96.806974 
873.000000	 96.824285 
872.000000	 96.837141 
871.000000	 96.854871 
870.000000	 96.883043 
869.000000	 96.919694 
868.000000	 96.962018 
867.000000	 97.009711 
866.000000	 97.058847 
865.000000	 97.100459 
864.000000	 97.131071 
863.000000	 97.159253 
862.000000	 97.195426 
861.000000	 97.238424 
860.000000	 97.277997 
859.000000	 97.308291 
858.000000	 97.333316 
857.000000	 97.360179 
856.000000	 97.392106 
855.000000	 97.428323 
854.000000	 97.466273 
853.000000	 97.502218 
852.000000	 97.532254 
851.000000	 97.554999 
850.000000	 97.573118 
849.000000	 97.591234 
848.000000	 97.611968 
847.000000	 97.634019 
846.000000	 97.654173 
845.000000	 97.670891 
844.000000	 97.685126 
843.000000	 97.697920 
842.000000	 97.708905 
841.000000	 97.717275 
840.000000	 97.721714 
839.000000	 97.718911 
838.000000	 97.705908 
837.000000	 97.686088 
836.000000	 97.669030 
835.000000	 97.660768 
834.000000	 97.657269 
833.000000	 97.651907 
832.000000	 97.646003 
831.000000	 97.645456 
830.000000	 97.648952 
829.000000	 97.648085 
828.000000	 97.640630 
827.000000	 97.635920 
826.000000	 97.643096 
825.000000	 97.659694 
824.000000	 97.676336 
823.000000	 97.688205 
822.000000	 97.697511 
821.000000	 97.707760 
820.000000	 97.719185 
819.000000	 97.728535 
818.000000	 97.732110 
817.000000	 97.729921 
816.000000	 97.725634 
815.000000	 97.720327 
814.000000	 97.708488 
813.000000	 97.683709 
812.000000	 97.645799 
811.000000	 97.596965 
810.000000	 97.532913 
809.000000	 97.444990 
808.000000	 97.331891 
807.000000	 97.202871 
806.000000	 97.067544 
805.000000	 96.928639 
804.000000	 96.787802 
803.000000	 96.652404 
802.000000	 96.531769 
801.000000	 96.430305 
800.000000	 96.348177 
799.000000	 96.285875 
798.000000	 96.245379 
797.000000	 96.228793 
796.000000	 96.235938 
795.000000	 96.260088 
794.000000	 96.287632 
793.000000	 96.307364 
792.000000	 96.319427 
791.000000	 96.330191 
790.000000	 96.340295 
789.000000	 96.344189 
788.000000	 96.339655 
787.000000	 96.329308 
786.000000	 96.312216 
785.000000	 96.282302 
784.000000	 96.237412 
783.000000	 96.183670 
782.000000	 96.129018 
781.000000	 96.078063 
780.000000	 96.034324 
779.000000	 96.001270 
778.000000	 95.979725 
777.000000	 95.970210 
776.000000	 95.978112 
775.000000	 96.009033 
774.000000	 96.057857 
773.000000	 96.110368 
772.000000	 96.157732 
771.000000	 96.202333 
770.000000	 96.247755 
769.000000	 96.290502 
768.000000	 96.324571 
767.000000	 96.348254 
766.000000	 96.363782 
765.000000	 96.375225 
764.000000	 96.388092 
763.000000	 96.405319 
762.000000	 96.421867 
761.000000	 96.429014 
760.000000	 96.426144 
759.000000	 96.423636 
758.000000	 96.432624 
757.000000	 96.455559 
756.000000	 96.485952 
755.000000	 96.511958 
754.000000	 96.522136 
753.000000	 96.515893 
752.000000	 96.508806 
751.000000	 96.520330 
750.000000	 96.554383 
749.000000	 96.597177 
748.000000	 96.633630 
747.000000	 96.659246 
746.000000	 96.677038 
745.000000	 96.691708 
744.000000	 96.708333 
743.000000	 96.729552 
742.000000	 96.752832 
741.000000	 96.776524 
740.000000	 96.807077 
739.000000	 96.851440 
738.000000	 96.902957 
737.000000	 96.944628 
736.000000	 96.967232 
735.000000	 96.975752 
734.000000	 96.978668 
733.000000	 96.981771 
732.000000	 96.992960 
731.000000	 97.019813 
730.000000	 97.057593 
729.000000	 97.090603 
728.000000	 97.109876 
727.000000	 97.120245 
726.000000	 97.127263 
725.000000	 97.128188 
724.000000	 97.121341 
723.000000	 97.114098 
722.000000	 97.114474 
721.000000	 97.122745 
720.000000	 97.137656 
719.000000	 97.162789 
718.000000	 97.198930 
717.000000	 97.236095 
716.000000	 97.260082 
715.000000	 97.263703 
714.000000	 97.249881 
713.000000	 97.230342 
712.000000	 97.223424 
711.000000	 97.243516 
710.000000	 97.285517 
709.000000	 97.325965 
708.000000	 97.344895 
707.000000	 97.341454 
706.000000	 97.325979 
705.000000	 97.305343 
704.000000	 97.282278 
703.000000	 97.261070 
702.000000	 97.243421 
701.000000	 97.221646 
700.000000	 97.183675 
699.000000	 97.123636 
698.000000	 97.046300 
697.000000	 96.965140 
696.000000	 96.897535 
695.000000	 96.856220 
694.000000	 96.840723 
693.000000	 96.841778 
692.000000	 96.854926 
691.000000	 96.882557 
690.000000	 96.924048 
689.000000	 96.973060 
688.000000	 97.024726 
687.000000	 97.074830 
686.000000	 97.111112 
685.000000	 97.121064 
684.000000	 97.112000 
683.000000	 97.108207 
682.000000	 97.124456 
681.000000	 97.154981 
680.000000	 97.189431 
679.000000	 97.222260 
678.000000	 97.243218 
677.000000	 97.241831 
676.000000	 97.229088 
675.000000	 97.231851 
674.000000	 97.257809 
673.000000	 97.282845 
672.000000	 97.282752 
671.000000	 97.263339 
670.000000	 97.251300 
669.000000	 97.270014 
668.000000	 97.316394 
667.000000	 97.357929 
666.000000	 97.377265 
665.000000	 97.380865 
664.000000	 97.383668 
663.000000	 97.405757 
662.000000	 97.448410 
661.000000	 97.479306 
660.000000	 97.465407 
659.000000	 97.413072 
658.000000	 97.359813 
657.000000	 97.331186 
656.000000	 97.322255 
655.000000	 97.317744 
654.000000	 97.312920 
653.000000	 97.310349 
652.000000	 97.309758 
651.000000	 97.309118 
650.000000	 97.307619 

