4000.000000	99.786339 
3999.000000	99.785156 
3998.000000	99.784246 
3997.000000	99.784186 
3996.000000	99.784952 
3995.000000	99.785966 
3994.000000	99.786676 
3993.000000	99.786962 
3992.000000	99.786958 
3991.000000	99.786660 
3990.000000	99.785818 
3989.000000	99.784250 
3988.000000	99.782232 
3987.000000	99.780490 
3986.000000	99.779701 
3985.000000	99.780029 
3984.000000	99.781098 
3983.000000	99.782449 
3982.000000	99.783974 
3981.000000	99.785785 
3980.000000	99.787759 
3979.000000	99.789360 
3978.000000	99.789976 
3977.000000	99.789400 
3976.000000	99.788008 
3975.000000	99.786427 
3974.000000	99.784990 
3973.000000	99.783616 
3972.000000	99.782249 
3971.000000	99.781274 
3970.000000	99.781304 
3969.000000	99.782592 
3968.000000	99.784695 
3967.000000	99.786690 
3966.000000	99.787773 
3965.000000	99.787691 
3964.000000	99.786795 
3963.000000	99.785865 
3962.000000	99.785571 
3961.000000	99.785894 
3960.000000	99.786150 
3959.000000	99.785652 
3958.000000	99.784358 
3957.000000	99.782899 
3956.000000	99.781971 
3955.000000	99.781726 
3954.000000	99.781774 
3953.000000	99.781654 
3952.000000	99.781258 
3951.000000	99.780817 
3950.000000	99.780584 
3949.000000	99.780573 
3948.000000	99.780572 
3947.000000	99.780430 
3946.000000	99.780222 
3945.000000	99.780120 
3944.000000	99.780164 
3943.000000	99.780220 
3942.000000	99.780117 
3941.000000	99.779793 
3940.000000	99.779358 
3939.000000	99.778994 
3938.000000	99.778788 
3937.000000	99.778689 
3936.000000	99.778599 
3935.000000	99.778467 
3934.000000	99.778325 
3933.000000	99.778232 
3932.000000	99.778217 
3931.000000	99.778255 
3930.000000	99.778284 
3929.000000	99.778210 
3928.000000	99.777925 
3927.000000	99.777407 
3926.000000	99.776841 
3925.000000	99.776531 
3924.000000	99.776656 
3923.000000	99.777109 
3922.000000	99.777566 
3921.000000	99.777760 
3920.000000	99.777633 
3919.000000	99.777300 
3918.000000	99.776893 
3917.000000	99.776494 
3916.000000	99.776221 
3915.000000	99.776246 
3914.000000	99.776631 
3913.000000	99.777151 
3912.000000	99.777399 
3911.000000	99.777137 
3910.000000	99.776518 
3909.000000	99.776023 
3908.000000	99.776084 
3907.000000	99.776788 
3906.000000	99.777902 
3905.000000	99.779075 
3904.000000	99.780060 
3903.000000	99.780668 
3902.000000	99.780678 
3901.000000	99.780065 
3900.000000	99.779063 
3899.000000	99.777940 
3898.000000	99.776764 
3897.000000	99.775432 
3896.000000	99.774023 
3895.000000	99.773011 
3894.000000	99.772972 
3893.000000	99.774184 
3892.000000	99.776392 
3891.000000	99.778920 
3890.000000	99.781095 
3889.000000	99.782534 
3888.000000	99.783019 
3887.000000	99.782319 
3886.000000	99.780657 
3885.000000	99.778973 
3884.000000	99.778118 
3883.000000	99.778029 
3882.000000	99.778046 
3881.000000	99.777819 
3880.000000	99.777612 
3879.000000	99.777740 
3878.000000	99.778132 
3877.000000	99.778483 
3876.000000	99.778471 
3875.000000	99.778148 
3874.000000	99.778027 
3873.000000	99.778389 
3872.000000	99.778686 
3871.000000	99.778151 
3870.000000	99.777014 
3869.000000	99.776408 
3868.000000	99.776865 
3867.000000	99.777787 
3866.000000	99.778183 
3865.000000	99.777645 
3864.000000	99.776891 
3863.000000	99.776716 
3862.000000	99.776952 
3861.000000	99.776900 
3860.000000	99.775963 
3859.000000	99.773865 
3858.000000	99.770944 
3857.000000	99.768275 
3856.000000	99.767321 
3855.000000	99.768484 
3854.000000	99.770892 
3853.000000	99.773708 
3852.000000	99.776365 
3851.000000	99.778445 
3850.000000	99.779916 
3849.000000	99.780620 
3848.000000	99.780501 
3847.000000	99.779795 
3846.000000	99.778865 
3845.000000	99.778213 
3844.000000	99.778363 
3843.000000	99.779246 
3842.000000	99.780274 
3841.000000	99.781135 
3840.000000	99.781961 
3839.000000	99.783013 
3838.000000	99.784234 
3837.000000	99.785066 
3836.000000	99.785012 
3835.000000	99.783948 
3834.000000	99.782236 
3833.000000	99.780548 
3832.000000	99.779412 
3831.000000	99.778920 
3830.000000	99.778736 
3829.000000	99.778401 
3828.000000	99.777868 
3827.000000	99.777606 
3826.000000	99.778128 
3825.000000	99.779578 
3824.000000	99.781525 
3823.000000	99.782890 
3822.000000	99.782931 
3821.000000	99.782467 
3820.000000	99.782734 
3819.000000	99.783392 
3818.000000	99.783324 
3817.000000	99.781910 
3816.000000	99.779578 
3815.000000	99.777459 
3814.000000	99.776183 
3813.000000	99.775446 
3812.000000	99.774639 
3811.000000	99.773642 
3810.000000	99.772892 
3809.000000	99.772885 
3808.000000	99.773853 
3807.000000	99.775625 
3806.000000	99.777610 
3805.000000	99.778912 
3804.000000	99.778706 
3803.000000	99.776654 
3802.000000	99.773450 
3801.000000	99.770760 
3800.000000	99.769534 
3799.000000	99.769209 
3798.000000	99.768787 
3797.000000	99.767805 
3796.000000	99.766580 
3795.000000	99.765754 
3794.000000	99.765786 
3793.000000	99.766613 
3792.000000	99.767598 
3791.000000	99.767965 
3790.000000	99.767428 
3789.000000	99.766506 
3788.000000	99.766203 
3787.000000	99.767322 
3786.000000	99.770025 
3785.000000	99.773811 
3784.000000	99.777750 
3783.000000	99.780844 
3782.000000	99.782312 
3781.000000	99.781830 
3780.000000	99.779842 
3779.000000	99.777358 
3778.000000	99.774975 
3777.000000	99.772626 
3776.000000	99.770407 
3775.000000	99.768880 
3774.000000	99.768698 
3773.000000	99.769939 
3772.000000	99.771822 
3771.000000	99.773092 
3770.000000	99.773170 
3769.000000	99.772687 
3768.000000	99.772457 
3767.000000	99.772800 
3766.000000	99.773727 
3765.000000	99.775122 
3764.000000	99.776924 
3763.000000	99.779142 
3762.000000	99.781592 
3761.000000	99.783764 
3760.000000	99.785194 
3759.000000	99.785949 
3758.000000	99.786153 
3757.000000	99.785695 
3756.000000	99.784827 
3755.000000	99.784170 
3754.000000	99.784451 
3753.000000	99.785969 
3752.000000	99.788058 
3751.000000	99.789395 
3750.000000	99.788671 
3749.000000	99.785781 
3748.000000	99.781961 
3747.000000	99.778585 
3746.000000	99.776211 
3745.000000	99.774622 
3744.000000	99.773710 
3743.000000	99.773359 
3742.000000	99.773275 
3741.000000	99.773338 
3740.000000	99.773759 
3739.000000	99.775315 
3738.000000	99.777785 
3737.000000	99.779240 
3736.000000	99.778641 
3735.000000	99.776975 
3734.000000	99.775262 
3733.000000	99.773189 
3732.000000	99.770699 
3731.000000	99.768729 
3730.000000	99.767647 
3729.000000	99.766817 
3728.000000	99.765594 
3727.000000	99.764507 
3726.000000	99.765125 
3725.000000	99.768031 
3724.000000	99.771421 
3723.000000	99.772411 
3722.000000	99.769877 
3721.000000	99.765205 
3720.000000	99.760640 
3719.000000	99.757637 
3718.000000	99.755752 
3717.000000	99.753265 
3716.000000	99.748975 
3715.000000	99.742854 
3714.000000	99.735828 
3713.000000	99.729303 
3712.000000	99.725084 
3711.000000	99.724168 
3710.000000	99.725024 
3709.000000	99.724905 
3708.000000	99.722284 
3707.000000	99.717356 
3706.000000	99.711078 
3705.000000	99.704097 
3704.000000	99.696516 
3703.000000	99.688627 
3702.000000	99.681621 
3701.000000	99.676643 
3700.000000	99.673146 
3699.000000	99.669311 
3698.000000	99.663741 
3697.000000	99.656446 
3696.000000	99.649061 
3695.000000	99.643721 
3694.000000	99.641061 
3693.000000	99.639533 
3692.000000	99.636749 
3691.000000	99.631471 
3690.000000	99.624672 
3689.000000	99.618457 
3688.000000	99.613870 
3687.000000	99.610690 
3686.000000	99.608715 
3685.000000	99.607638 
3684.000000	99.606772 
3683.000000	99.605471 
3682.000000	99.603449 
3681.000000	99.600736 
3680.000000	99.597212 
3679.000000	99.592168 
3678.000000	99.584896 
3677.000000	99.576090 
3676.000000	99.569991 
3675.000000	99.571939 
3674.000000	99.580673 
3673.000000	99.589688 
3672.000000	99.594412 
3671.000000	99.593693 
3670.000000	99.589508 
3669.000000	99.584816 
3668.000000	99.580276 
3667.000000	99.575249 
3666.000000	99.570284 
3665.000000	99.566939 
3664.000000	99.566343 
3663.000000	99.568451 
3662.000000	99.572054 
3661.000000	99.575667 
3660.000000	99.578640 
3659.000000	99.581330 
3658.000000	99.584575 
3657.000000	99.589065 
3656.000000	99.595142 
3655.000000	99.602843 
3654.000000	99.612097 
3653.000000	99.622659 
3652.000000	99.633354 
3651.000000	99.641392 
3650.000000	99.643946 
3649.000000	99.641180 
3648.000000	99.636739 
3647.000000	99.634344 
3646.000000	99.634731 
3645.000000	99.636401 
3644.000000	99.637854 
3643.000000	99.638899 
3642.000000	99.640142 
3641.000000	99.642339 
3640.000000	99.646169 
3639.000000	99.652166 
3638.000000	99.660312 
3637.000000	99.669357 
3636.000000	99.677208 
3635.000000	99.682249 
3634.000000	99.684558 
3633.000000	99.685740 
3632.000000	99.687544 
3631.000000	99.690767 
3630.000000	99.694703 
3629.000000	99.698054 
3628.000000	99.699775 
3627.000000	99.699652 
3626.000000	99.698928 
3625.000000	99.699145 
3624.000000	99.700665 
3623.000000	99.702538 
3622.000000	99.703535 
3621.000000	99.703149 
3620.000000	99.702308 
3619.000000	99.702893 
3618.000000	99.705782 
3617.000000	99.710031 
3616.000000	99.714201 
3615.000000	99.717113 
3614.000000	99.718110 
3613.000000	99.717262 
3612.000000	99.715120 
3611.000000	99.712399 
3610.000000	99.710077 
3609.000000	99.709218 
3608.000000	99.710329 
3607.000000	99.712810 
3606.000000	99.715327 
3605.000000	99.717110 
3604.000000	99.718255 
3603.000000	99.719034 
3602.000000	99.719649 
3601.000000	99.720388 
3600.000000	99.721801 
3599.000000	99.724224 
3598.000000	99.727161 
3597.000000	99.729442 
3596.000000	99.730199 
3595.000000	99.729502 
3594.000000	99.728509 
3593.000000	99.728793 
3592.000000	99.731182 
3591.000000	99.735221 
3590.000000	99.739235 
3589.000000	99.741221 
3588.000000	99.740395 
3587.000000	99.737771 
3586.000000	99.734689 
3585.000000	99.731817 
3584.000000	99.729500 
3583.000000	99.728014 
3582.000000	99.727247 
3581.000000	99.726666 
3580.000000	99.725746 
3579.000000	99.724390 
3578.000000	99.722942 
3577.000000	99.721890 
3576.000000	99.721615 
3575.000000	99.722185 
3574.000000	99.723264 
3573.000000	99.724415 
3572.000000	99.725374 
3571.000000	99.726040 
3570.000000	99.726247 
3569.000000	99.725764 
3568.000000	99.724787 
3567.000000	99.724242 
3566.000000	99.724821 
3565.000000	99.726101 
3564.000000	99.727147 
3563.000000	99.727405 
3562.000000	99.726966 
3561.000000	99.726350 
3560.000000	99.726026 
3559.000000	99.726057 
3558.000000	99.726117 
3557.000000	99.725884 
3556.000000	99.725377 
3555.000000	99.724932 
3554.000000	99.724854 
3553.000000	99.725121 
3552.000000	99.725406 
3551.000000	99.725379 
3550.000000	99.724997 
3549.000000	99.724492 
3548.000000	99.724132 
3547.000000	99.724014 
3546.000000	99.724046 
3545.000000	99.724117 
3544.000000	99.724170 
3543.000000	99.724188 
3542.000000	99.724179 
3541.000000	99.724152 
3540.000000	99.724123 
3539.000000	99.724102 
3538.000000	99.724085 
3537.000000	99.724059 
3536.000000	99.724012 
3535.000000	99.723945 
3534.000000	99.723865 
3533.000000	99.723777 
3532.000000	99.723688 
3531.000000	99.723602 
3530.000000	99.723522 
3529.000000	99.723445 
3528.000000	99.723369 
3527.000000	99.723291 
3526.000000	99.723207 
3525.000000	99.723114 
3524.000000	99.723007 
3523.000000	99.722889 
3522.000000	99.722761 
3521.000000	99.722626 
3520.000000	99.722485 
3519.000000	99.722339 
3518.000000	99.722190 
3517.000000	99.722042 
3516.000000	99.721898 
3515.000000	99.721758 
3514.000000	99.721620 
3513.000000	99.721485 
3512.000000	99.721351 
3511.000000	99.721216 
3510.000000	99.721085 
3509.000000	99.720959 
3508.000000	99.720841 
3507.000000	99.720722 
3506.000000	99.720592 
3505.000000	99.720441 
3504.000000	99.720264 
3503.000000	99.720067 
3502.000000	99.719861 
3501.000000	99.719655 
3500.000000	99.719450 
3499.000000	99.719238 
3498.000000	99.719010 
3497.000000	99.718765 
3496.000000	99.718506 
3495.000000	99.718243 
3494.000000	99.717974 
3493.000000	99.717714 
3492.000000	99.717471 
3491.000000	99.717219 
3490.000000	99.716922 
3489.000000	99.716598 
3488.000000	99.716331 
3487.000000	99.716202 
3486.000000	99.716187 
3485.000000	99.716155 
3484.000000	99.716021 
3483.000000	99.715852 
3482.000000	99.715766 
3481.000000	99.715692 
3480.000000	99.715368 
3479.000000	99.714681 
3478.000000	99.713917 
3477.000000	99.713504 
3476.000000	99.713488 
3475.000000	99.713457 
3474.000000	99.713156 
3473.000000	99.712958 
3472.000000	99.713465 
3471.000000	99.714691 
3470.000000	99.715928 
3469.000000	99.716456 
3468.000000	99.716090 
3467.000000	99.714972 
3466.000000	99.713143 
3465.000000	99.710617 
3464.000000	99.707751 
3463.000000	99.705223 
3462.000000	99.703564 
3461.000000	99.702781 
3460.000000	99.702525 
3459.000000	99.702571 
3458.000000	99.702942 
3457.000000	99.703617 
3456.000000	99.704269 
3455.000000	99.704460 
3454.000000	99.704244 
3453.000000	99.704316 
3452.000000	99.705338 
3451.000000	99.707160 
3450.000000	99.708918 
3449.000000	99.709890 
3448.000000	99.709948 
3447.000000	99.709269 
3446.000000	99.707973 
3445.000000	99.706313 
3444.000000	99.704928 
3443.000000	99.704490 
3442.000000	99.705123 
3441.000000	99.706370 
3440.000000	99.707680 
3439.000000	99.708745 
3438.000000	99.709388 
3437.000000	99.709385 
3436.000000	99.708642 
3435.000000	99.707485 
3434.000000	99.706673 
3433.000000	99.706872 
3432.000000	99.708032 
3431.000000	99.709259 
3430.000000	99.709474 
3429.000000	99.708324 
3428.000000	99.706390 
3427.000000	99.704617 
3426.000000	99.703525 
3425.000000	99.703055 
3424.000000	99.702961 
3423.000000	99.703102 
3422.000000	99.703364 
3421.000000	99.703512 
3420.000000	99.703299 
3419.000000	99.702746 
3418.000000	99.702210 
3417.000000	99.702068 
3416.000000	99.702340 
3415.000000	99.702674 
3414.000000	99.702726 
3413.000000	99.702511 
3412.000000	99.702318 
3411.000000	99.702385 
3410.000000	99.702772 
3409.000000	99.703476 
3408.000000	99.704413 
3407.000000	99.705251 
3406.000000	99.705495 
3405.000000	99.704958 
3404.000000	99.704064 
3403.000000	99.703489 
3402.000000	99.703501 
3401.000000	99.703761 
3400.000000	99.703791 
3399.000000	99.703568 
3398.000000	99.703632 
3397.000000	99.704575 
3396.000000	99.706337 
3395.000000	99.708015 
3394.000000	99.708605 
3393.000000	99.707961 
3392.000000	99.706912 
3391.000000	99.706343 
3390.000000	99.706295 
3389.000000	99.706161 
3388.000000	99.705542 
3387.000000	99.704584 
3386.000000	99.703604 
3385.000000	99.702634 
3384.000000	99.701463 
3383.000000	99.700016 
3382.000000	99.698613 
3381.000000	99.697809 
3380.000000	99.697917 
3379.000000	99.698657 
3378.000000	99.699440 
3377.000000	99.700125 
3376.000000	99.701324 
3375.000000	99.703755 
3374.000000	99.707349 
3373.000000	99.711094 
3372.000000	99.713802 
3371.000000	99.714883 
3370.000000	99.714448 
3369.000000	99.713047 
3368.000000	99.711339 
3367.000000	99.709811 
3366.000000	99.708585 
3365.000000	99.707406 
3364.000000	99.705935 
3363.000000	99.704155 
3362.000000	99.702496 
3361.000000	99.701465 
3360.000000	99.701127 
3359.000000	99.701063 
3358.000000	99.700958 
3357.000000	99.701113 
3356.000000	99.702091 
3355.000000	99.703834 
3354.000000	99.705469 
3353.000000	99.706199 
3352.000000	99.706192 
3351.000000	99.706372 
3350.000000	99.707474 
3349.000000	99.709482 
3348.000000	99.711797 
3347.000000	99.713653 
3346.000000	99.714456 
3345.000000	99.714036 
3344.000000	99.712763 
3343.000000	99.711269 
3342.000000	99.709920 
3341.000000	99.708661 
3340.000000	99.707432 
3339.000000	99.706467 
3338.000000	99.706007 
3337.000000	99.705917 
3336.000000	99.705862 
3335.000000	99.705832 
3334.000000	99.706204 
3333.000000	99.707177 
3332.000000	99.708327 
3331.000000	99.708917 
3330.000000	99.708669 
3329.000000	99.708062 
3328.000000	99.707883 
3327.000000	99.708481 
3326.000000	99.709529 
3325.000000	99.710385 
3324.000000	99.710716 
3323.000000	99.710727 
3322.000000	99.710812 
3321.000000	99.711055 
3320.000000	99.711167 
3319.000000	99.710917 
3318.000000	99.710468 
3317.000000	99.710234 
3316.000000	99.710427 
3315.000000	99.710883 
3314.000000	99.711265 
3313.000000	99.711407 
3312.000000	99.711427 
3311.000000	99.711547 
3310.000000	99.711857 
3309.000000	99.712256 
3308.000000	99.712558 
3307.000000	99.712656 
3306.000000	99.712576 
3305.000000	99.712385 
3304.000000	99.712103 
3303.000000	99.711734 
3302.000000	99.711365 
3301.000000	99.711172 
3300.000000	99.711293 
3299.000000	99.711689 
3298.000000	99.712143 
3297.000000	99.712434 
3296.000000	99.712484 
3295.000000	99.712371 
3294.000000	99.712288 
3293.000000	99.712438 
3292.000000	99.712893 
3291.000000	99.713509 
3290.000000	99.714041 
3289.000000	99.714356 
3288.000000	99.714441 
3287.000000	99.714283 
3286.000000	99.713868 
3285.000000	99.713333 
3284.000000	99.712976 
3283.000000	99.713004 
3282.000000	99.713355 
3281.000000	99.713811 
3280.000000	99.714173 
3279.000000	99.714322 
3278.000000	99.714223 
3277.000000	99.713997 
3276.000000	99.713905 
3275.000000	99.714115 
3274.000000	99.714494 
3273.000000	99.714676 
3272.000000	99.714338 
3271.000000	99.713389 
3270.000000	99.712049 
3269.000000	99.710814 
3268.000000	99.710228 
3267.000000	99.710610 
3266.000000	99.711905 
3265.000000	99.713747 
3264.000000	99.715625 
3263.000000	99.717097 
3262.000000	99.717952 
3261.000000	99.718234 
3260.000000	99.718054 
3259.000000	99.717416 
3258.000000	99.716311 
3257.000000	99.714929 
3256.000000	99.713616 
3255.000000	99.712616 
3254.000000	99.712008 
3253.000000	99.711846 
3252.000000	99.712184 
3251.000000	99.712878 
3250.000000	99.713526 
3249.000000	99.713751 
3248.000000	99.713513 
3247.000000	99.713064 
3246.000000	99.712660 
3245.000000	99.712373 
3244.000000	99.712171 
3243.000000	99.712115 
3242.000000	99.712409 
3241.000000	99.713201 
3240.000000	99.714316 
3239.000000	99.715223 
3238.000000	99.715433 
3237.000000	99.714920 
3236.000000	99.714097 
3235.000000	99.713405 
3234.000000	99.712977 
3233.000000	99.712749 
3232.000000	99.712712 
3231.000000	99.712914 
3230.000000	99.713286 
3229.000000	99.713602 
3228.000000	99.713643 
3227.000000	99.713362 
3226.000000	99.712881 
3225.000000	99.712396 
3224.000000	99.712073 
3223.000000	99.711960 
3222.000000	99.711993 
3221.000000	99.712072 
3220.000000	99.712135 
3219.000000	99.712174 
3218.000000	99.712189 
3217.000000	99.712164 
3216.000000	99.712090 
3215.000000	99.711979 
3214.000000	99.711869 
3213.000000	99.711792 
3212.000000	99.711751 
3211.000000	99.711730 
3210.000000	99.711740 
3209.000000	99.711806 
3208.000000	99.711913 
3207.000000	99.711999 
3206.000000	99.712010 
3205.000000	99.711965 
3204.000000	99.711945 
3203.000000	99.712018 
3202.000000	99.712183 
3201.000000	99.712381 
3200.000000	99.712546 
3199.000000	99.712629 
3198.000000	99.712598 
3197.000000	99.712477 
3196.000000	99.712373 
3195.000000	99.712411 
3194.000000	99.712617 
3193.000000	99.712864 
3192.000000	99.712978 
3191.000000	99.712924 
3190.000000	99.712867 
3189.000000	99.713007 
3188.000000	99.713377 
3187.000000	99.713831 
3186.000000	99.714189 
3185.000000	99.714377 
3184.000000	99.714418 
3183.000000	99.714387 
3182.000000	99.714369 
3181.000000	99.714430 
3180.000000	99.714580 
3179.000000	99.714758 
3178.000000	99.714883 
3177.000000	99.714909 
3176.000000	99.714826 
3175.000000	99.714702 
3174.000000	99.714759 
3173.000000	99.715301 
3172.000000	99.716412 
3171.000000	99.717750 
3170.000000	99.718757 
3169.000000	99.719199 
3168.000000	99.719369 
3167.000000	99.719782 
3166.000000	99.720679 
3165.000000	99.721873 
3164.000000	99.722953 
3163.000000	99.723578 
3162.000000	99.723636 
3161.000000	99.723273 
3160.000000	99.722863 
3159.000000	99.722767 
3158.000000	99.723075 
3157.000000	99.723616 
3156.000000	99.724195 
3155.000000	99.724779 
3154.000000	99.725452 
3153.000000	99.726249 
3152.000000	99.727067 
3151.000000	99.727675 
3150.000000	99.727819 
3149.000000	99.727429 
3148.000000	99.726804 
3147.000000	99.726459 
3146.000000	99.726666 
3145.000000	99.727214 
3144.000000	99.727657 
3143.000000	99.727860 
3142.000000	99.728156 
3141.000000	99.728902 
3140.000000	99.729969 
3139.000000	99.730804 
3138.000000	99.730982 
3137.000000	99.730598 
3136.000000	99.730131 
3135.000000	99.729968 
3134.000000	99.730115 
3133.000000	99.730329 
3132.000000	99.730420 
3131.000000	99.730362 
3130.000000	99.730154 
3129.000000	99.729729 
3128.000000	99.729074 
3127.000000	99.728380 
3126.000000	99.727970 
3125.000000	99.728017 
3124.000000	99.728390 
3123.000000	99.728767 
3122.000000	99.728847 
3121.000000	99.728532 
3120.000000	99.728023 
3119.000000	99.727754 
3118.000000	99.728018 
3117.000000	99.728584 
3116.000000	99.728815 
3115.000000	99.728344 
3114.000000	99.727464 
3113.000000	99.726728 
3112.000000	99.726283 
3111.000000	99.725905 
3110.000000	99.725575 
3109.000000	99.725595 
3108.000000	99.726009 
3107.000000	99.726272 
3106.000000	99.725834 
3105.000000	99.724906 
3104.000000	99.724308 
3103.000000	99.724627 
3102.000000	99.725794 
3101.000000	99.727333 
3100.000000	99.728692 
3099.000000	99.729428 
3098.000000	99.729366 
3097.000000	99.728782 
3096.000000	99.728327 
3095.000000	99.728566 
3094.000000	99.729593 
3093.000000	99.731056 
3092.000000	99.732437 
3091.000000	99.733228 
3090.000000	99.733056 
3089.000000	99.731997 
3088.000000	99.730859 
3087.000000	99.730765 
3086.000000	99.732123 
3085.000000	99.734072 
3084.000000	99.735199 
3083.000000	99.734822 
3082.000000	99.733499 
3081.000000	99.732403 
3080.000000	99.732301 
3079.000000	99.733073 
3078.000000	99.733928 
3077.000000	99.733945 
3076.000000	99.732727 
3075.000000	99.730861 
3074.000000	99.729666 
3073.000000	99.730092 
3072.000000	99.731852 
3071.000000	99.733811 
3070.000000	99.735009 
3069.000000	99.734823 
3068.000000	99.732407 
3067.000000	99.727137 
3066.000000	99.720108 
3065.000000	99.714263 
3064.000000	99.711968 
3063.000000	99.712736 
3062.000000	99.714145 
3061.000000	99.714780 
3060.000000	99.715467 
3059.000000	99.717658 
3058.000000	99.721448 
3057.000000	99.725429 
3056.000000	99.727997 
3055.000000	99.728457 
3054.000000	99.727165 
3053.000000	99.724882 
3052.000000	99.722047 
3051.000000	99.718804 
3050.000000	99.715649 
3049.000000	99.713384 
3048.000000	99.711853 
3047.000000	99.709305 
3046.000000	99.704084 
3045.000000	99.696919 
3044.000000	99.690659 
3043.000000	99.687443 
3042.000000	99.686695 
3041.000000	99.686060 
3040.000000	99.683588 
3039.000000	99.678780 
3038.000000	99.672347 
3037.000000	99.665669 
3036.000000	99.660076 
3035.000000	99.655876 
3034.000000	99.652076 
3033.000000	99.647230 
3032.000000	99.640466 
3031.000000	99.631743 
3030.000000	99.621261 
3029.000000	99.608868 
3028.000000	99.594460 
3027.000000	99.578955 
3026.000000	99.564496 
3025.000000	99.553108 
3024.000000	99.544727 
3023.000000	99.536695 
3022.000000	99.525672 
3021.000000	99.510305 
3020.000000	99.492172 
3019.000000	99.474466 
3018.000000	99.459826 
3017.000000	99.448784 
3016.000000	99.439440 
3015.000000	99.428728 
3014.000000	99.414643 
3013.000000	99.397440 
3012.000000	99.378343 
3011.000000	99.357478 
3010.000000	99.334112 
3009.000000	99.309012 
3008.000000	99.285335 
3007.000000	99.266259 
3006.000000	99.252041 
3005.000000	99.239888 
3004.000000	99.226327 
3003.000000	99.209362 
3002.000000	99.189089 
3001.000000	99.167371 
3000.000000	99.146880 
2999.000000	99.129442 
2998.000000	99.114947 
2997.000000	99.102403 
2996.000000	99.091854 
2995.000000	99.083805 
2994.000000	99.075862 
2993.000000	99.061458 
2992.000000	99.034703 
2991.000000	98.997618 
2990.000000	98.961119 
2989.000000	98.936908 
2988.000000	98.928547 
2987.000000	98.930958 
2986.000000	98.937182 
2985.000000	98.944243 
2984.000000	98.952285 
2983.000000	98.960502 
2982.000000	98.966229 
2981.000000	98.967580 
2980.000000	98.965373 
2979.000000	98.962087 
2978.000000	98.959777 
2977.000000	98.959045 
2976.000000	98.959096 
2975.000000	98.958396 
2974.000000	98.955901 
2973.000000	98.952161 
2972.000000	98.949038 
2971.000000	98.948233 
2970.000000	98.950439 
2969.000000	98.955903 
2968.000000	98.965101 
2967.000000	98.978221 
2966.000000	98.994123 
2965.000000	99.010336 
2964.000000	99.024438 
2963.000000	99.035573 
2962.000000	99.044708 
2961.000000	99.053362 
2960.000000	99.062157 
2959.000000	99.070770 
2958.000000	99.079219 
2957.000000	99.088466 
2956.000000	99.099042 
2955.000000	99.109509 
2954.000000	99.117462 
2953.000000	99.122638 
2952.000000	99.128260 
2951.000000	99.138288 
2950.000000	99.153121 
2949.000000	99.168534 
2948.000000	99.179301 
2947.000000	99.183537 
2946.000000	99.183517 
2945.000000	99.182964 
2944.000000	99.184018 
2943.000000	99.186835 
2942.000000	99.191095 
2941.000000	99.196479 
2940.000000	99.201658 
2939.000000	99.204221 
2938.000000	99.202590 
2937.000000	99.197839 
2936.000000	99.193261 
2935.000000	99.192047 
2934.000000	99.195111 
2933.000000	99.200582 
2932.000000	99.205100 
2931.000000	99.206186 
2930.000000	99.203881 
2929.000000	99.200102 
2928.000000	99.196459 
2927.000000	99.193199 
2926.000000	99.190204 
2925.000000	99.187854 
2924.000000	99.186267 
2923.000000	99.184615 
2922.000000	99.182183 
2921.000000	99.179504 
2920.000000	99.177487 
2919.000000	99.175932 
2918.000000	99.173896 
2917.000000	99.171066 
2916.000000	99.167686 
2915.000000	99.163505 
2914.000000	99.158168 
2913.000000	99.152658 
2912.000000	99.148923 
2911.000000	99.147575 
2910.000000	99.146937 
2909.000000	99.144893 
2908.000000	99.140994 
2907.000000	99.136128 
2906.000000	99.130702 
2905.000000	99.123764 
2904.000000	99.113971 
2903.000000	99.101616 
2902.000000	99.090301 
2901.000000	99.085904 
2900.000000	99.092839 
2899.000000	99.109806 
2898.000000	99.129798 
2897.000000	99.145173 
2896.000000	99.153369 
2895.000000	99.157410 
2894.000000	99.161752 
2893.000000	99.168301 
2892.000000	99.175918 
2891.000000	99.182408 
2890.000000	99.186496 
2889.000000	99.188409 
2888.000000	99.189330 
2887.000000	99.190643 
2886.000000	99.193578 
2885.000000	99.199004 
2884.000000	99.207048 
2883.000000	99.216899 
2882.000000	99.227460 
2881.000000	99.238428 
2880.000000	99.250484 
2879.000000	99.264347 
2878.000000	99.279852 
2877.000000	99.295858 
2876.000000	99.310604 
2875.000000	99.322146 
2874.000000	99.329187 
2873.000000	99.332196 
2872.000000	99.333655 
2871.000000	99.336752 
2870.000000	99.343519 
2869.000000	99.353901 
2868.000000	99.366183 
2867.000000	99.378298 
2866.000000	99.389377 
2865.000000	99.400348 
2864.000000	99.412715 
2863.000000	99.426469 
2862.000000	99.439625 
2861.000000	99.450278 
2860.000000	99.458862 
2859.000000	99.467872 
2858.000000	99.479346 
2857.000000	99.492993 
2856.000000	99.506716 
2855.000000	99.518636 
2854.000000	99.528351 
2853.000000	99.536648 
2852.000000	99.544318 
2851.000000	99.551500 
2850.000000	99.558186 
2849.000000	99.564792 
2848.000000	99.571756 
2847.000000	99.578814 
2846.000000	99.585180 
2845.000000	99.590452 
2844.000000	99.595004 
2843.000000	99.599628 
2842.000000	99.605206 
2841.000000	99.612415 
2840.000000	99.620885 
2839.000000	99.628573 
2838.000000	99.632874 
2837.000000	99.632918 
2836.000000	99.630460 
2835.000000	99.628388 
2834.000000	99.628624 
2833.000000	99.631530 
2832.000000	99.636453 
2831.000000	99.642214 
2830.000000	99.647631 
2829.000000	99.652382 
2828.000000	99.657222 
2827.000000	99.662855 
2826.000000	99.668652 
2825.000000	99.672924 
2824.000000	99.674481 
2823.000000	99.673817 
2822.000000	99.672893 
2821.000000	99.673774 
2820.000000	99.677053 
2819.000000	99.681424 
2818.000000	99.685029 
2817.000000	99.687308 
2816.000000	99.689169 
2815.000000	99.691424 
2814.000000	99.693778 
2813.000000	99.695571 
2812.000000	99.696666 
2811.000000	99.697037 
2810.000000	99.696215 
2809.000000	99.694078 
2808.000000	99.691838 
2807.000000	99.691320 
2806.000000	99.693161 
2805.000000	99.696326 
2804.000000	99.699321 
2803.000000	99.701398 
2802.000000	99.702616 
2801.000000	99.703332 
2800.000000	99.703859 
2799.000000	99.704314 
2798.000000	99.704629 
2797.000000	99.704834 
2796.000000	99.705252 
2795.000000	99.706186 
2794.000000	99.707487 
2793.000000	99.708674 
2792.000000	99.709440 
2791.000000	99.709803 
2790.000000	99.709856 
2789.000000	99.709719 
2788.000000	99.709734 
2787.000000	99.710359 
2786.000000	99.711708 
2785.000000	99.713425 
2784.000000	99.715051 
2783.000000	99.716320 
2782.000000	99.717047 
2781.000000	99.717052 
2780.000000	99.716455 
2779.000000	99.715899 
2778.000000	99.716133 
2777.000000	99.717332 
2776.000000	99.718926 
2775.000000	99.720123 
2774.000000	99.720503 
2773.000000	99.720160 
2772.000000	99.719519 
2771.000000	99.719102 
2770.000000	99.719371 
2769.000000	99.720609 
2768.000000	99.722844 
2767.000000	99.725752 
2766.000000	99.728641 
2765.000000	99.730695 
2764.000000	99.731462 
2763.000000	99.731193 
2762.000000	99.730674 
2761.000000	99.730644 
2760.000000	99.731399 
2759.000000	99.732868 
2758.000000	99.734834 
2757.000000	99.736950 
2756.000000	99.738725 
2755.000000	99.739685 
2754.000000	99.739587 
2753.000000	99.738467 
2752.000000	99.736613 
2751.000000	99.734556 
2750.000000	99.732935 
2749.000000	99.732154 
2748.000000	99.732115 
2747.000000	99.732379 
2746.000000	99.732587 
2745.000000	99.732682 
2744.000000	99.732763 
2743.000000	99.732895 
2742.000000	99.733109 
2741.000000	99.733502 
2740.000000	99.734280 
2739.000000	99.735669 
2738.000000	99.737732 
2737.000000	99.740182 
2736.000000	99.742425 
2735.000000	99.743883 
2734.000000	99.744270 
2733.000000	99.743621 
2732.000000	99.742243 
2731.000000	99.740736 
2730.000000	99.739838 
2729.000000	99.739972 
2728.000000	99.741048 
2727.000000	99.742754 
2726.000000	99.744848 
2725.000000	99.747022 
2724.000000	99.748740 
2723.000000	99.749622 
2722.000000	99.749880 
2721.000000	99.750032 
2720.000000	99.750197 
2719.000000	99.750061 
2718.000000	99.749518 
2717.000000	99.748937 
2716.000000	99.748750 
2715.000000	99.749121 
2714.000000	99.750101 
2713.000000	99.751669 
2712.000000	99.753441 
2711.000000	99.754720 
2710.000000	99.755169 
2709.000000	99.755189 
2708.000000	99.755395 
2707.000000	99.755823 
2706.000000	99.755991 
2705.000000	99.755636 
2704.000000	99.755031 
2703.000000	99.754617 
2702.000000	99.754551 
2701.000000	99.754649 
2700.000000	99.754671 
2699.000000	99.754590 
2698.000000	99.754606 
2697.000000	99.754858 
2696.000000	99.755215 
2695.000000	99.755458 
2694.000000	99.755613 
2693.000000	99.755891 
2692.000000	99.756288 
2691.000000	99.756512 
2690.000000	99.756406 
2689.000000	99.756230 
2688.000000	99.756361 
2687.000000	99.756854 
2686.000000	99.757446 
2685.000000	99.757844 
2684.000000	99.757977 
2683.000000	99.757938 
2682.000000	99.757848 
2681.000000	99.757796 
2680.000000	99.757813 
2679.000000	99.757858 
2678.000000	99.757871 
2677.000000	99.757873 
2676.000000	99.757949 
2675.000000	99.758100 
2674.000000	99.758212 
2673.000000	99.758202 
2672.000000	99.758138 
2671.000000	99.758137 
2670.000000	99.758204 
2669.000000	99.758214 
2668.000000	99.758038 
2667.000000	99.757680 
2666.000000	99.757337 
2665.000000	99.757309 
2664.000000	99.757765 
2663.000000	99.758609 
2662.000000	99.759548 
2661.000000	99.760329 
2660.000000	99.760838 
2659.000000	99.761001 
2658.000000	99.760781 
2657.000000	99.760316 
2656.000000	99.759944 
2655.000000	99.759952 
2654.000000	99.760352 
2653.000000	99.760896 
2652.000000	99.761245 
2651.000000	99.761144 
2650.000000	99.760587 
2649.000000	99.759882 
2648.000000	99.759421 
2647.000000	99.759301 
2646.000000	99.759314 
2645.000000	99.759302 
2644.000000	99.759316 
2643.000000	99.759388 
2642.000000	99.759452 
2641.000000	99.759577 
2640.000000	99.760036 
2639.000000	99.760984 
2638.000000	99.762240 
2637.000000	99.763455 
2636.000000	99.764349 
2635.000000	99.764733 
2634.000000	99.764553 
2633.000000	99.764082 
2632.000000	99.763840 
2631.000000	99.764052 
2630.000000	99.764451 
2629.000000	99.764678 
2628.000000	99.764721 
2627.000000	99.764824 
2626.000000	99.765142 
2625.000000	99.765666 
2624.000000	99.766346 
2623.000000	99.767076 
2622.000000	99.767644 
2621.000000	99.767859 
2620.000000	99.767747 
2619.000000	99.767500 
2618.000000	99.767266 
2617.000000	99.767096 
2616.000000	99.767045 
2615.000000	99.767197 
2614.000000	99.767568 
2613.000000	99.768061 
2612.000000	99.768540 
2611.000000	99.768922 
2610.000000	99.769187 
2609.000000	99.769363 
2608.000000	99.769502 
2607.000000	99.769659 
2606.000000	99.769858 
2605.000000	99.770097 
2604.000000	99.770350 
2603.000000	99.770546 
2602.000000	99.770607 
2601.000000	99.770542 
2600.000000	99.770472 
2599.000000	99.770520 
2598.000000	99.770687 
2597.000000	99.770855 
2596.000000	99.770911 
2595.000000	99.770835 
2594.000000	99.770666 
2593.000000	99.770446 
2592.000000	99.770246 
2591.000000	99.770169 
2590.000000	99.770273 
2589.000000	99.770517 
2588.000000	99.770786 
2587.000000	99.770982 
2586.000000	99.771069 
2585.000000	99.771034 
2584.000000	99.770876 
2583.000000	99.770640 
2582.000000	99.770442 
2581.000000	99.770379 
2580.000000	99.770449 
2579.000000	99.770558 
2578.000000	99.770621 
2577.000000	99.770653 
2576.000000	99.770725 
2575.000000	99.770876 
2574.000000	99.771079 
2573.000000	99.771283 
2572.000000	99.771456 
2571.000000	99.771589 
2570.000000	99.771693 
2569.000000	99.771788 
2568.000000	99.771897 
2567.000000	99.772041 
2566.000000	99.772231 
2565.000000	99.772461 
2564.000000	99.772707 
2563.000000	99.772947 
2562.000000	99.773185 
2561.000000	99.773443 
2560.000000	99.773747 
2559.000000	99.774108 
2558.000000	99.774515 
2557.000000	99.774926 
2556.000000	99.775280 
2555.000000	99.775552 
2554.000000	99.775823 
2553.000000	99.776240 
2552.000000	99.776864 
2551.000000	99.777532 
2550.000000	99.777994 
2549.000000	99.778200 
2548.000000	99.778308 
2547.000000	99.778410 
2546.000000	99.778429 
2545.000000	99.778360 
2544.000000	99.778405 
2543.000000	99.778749 
2542.000000	99.779347 
2541.000000	99.780009 
2540.000000	99.780605 
2539.000000	99.781122 
2538.000000	99.781574 
2537.000000	99.781927 
2536.000000	99.782067 
2535.000000	99.781874 
2534.000000	99.781433 
2533.000000	99.781142 
2532.000000	99.781393 
2531.000000	99.782162 
2530.000000	99.783011 
2529.000000	99.783587 
2528.000000	99.783969 
2527.000000	99.784351 
2526.000000	99.784672 
2525.000000	99.784811 
2524.000000	99.784964 
2523.000000	99.785477 
2522.000000	99.786353 
2521.000000	99.787192 
2520.000000	99.787629 
2519.000000	99.787605 
2518.000000	99.787232 
2517.000000	99.786611 
2516.000000	99.785833 
2515.000000	99.785036 
2514.000000	99.784432 
2513.000000	99.784219 
2512.000000	99.784341 
2511.000000	99.784353 
2510.000000	99.783814 
2509.000000	99.782935 
2508.000000	99.782566 
2507.000000	99.783249 
2506.000000	99.784513 
2505.000000	99.785261 
2504.000000	99.784899 
2503.000000	99.783779 
2502.000000	99.782782 
2501.000000	99.782551 
2500.000000	99.783177 
2499.000000	99.784352 
2498.000000	99.785639 
2497.000000	99.786701 
2496.000000	99.787389 
2495.000000	99.787665 
2494.000000	99.787478 
2493.000000	99.786762 
2492.000000	99.785531 
2491.000000	99.783964 
2490.000000	99.782407 
2489.000000	99.781270 
2488.000000	99.780783 
2487.000000	99.780851 
2486.000000	99.781237 
2485.000000	99.781844 
2484.000000	99.782705 
2483.000000	99.783653 
2482.000000	99.784277 
2481.000000	99.784305 
2480.000000	99.783886 
2479.000000	99.783382 
2478.000000	99.782972 
2477.000000	99.782594 
2476.000000	99.782195 
2475.000000	99.781846 
2474.000000	99.781642 
2473.000000	99.781621 
2472.000000	99.781801 
2471.000000	99.782194 
2470.000000	99.782718 
2469.000000	99.783122 
2468.000000	99.783065 
2467.000000	99.782353 
2466.000000	99.781196 
2465.000000	99.780246 
2464.000000	99.780102 
2463.000000	99.780731 
2462.000000	99.781423 
2461.000000	99.781450 
2460.000000	99.780763 
2459.000000	99.779875 
2458.000000	99.779312 
2457.000000	99.779244 
2456.000000	99.779555 
2455.000000	99.779989 
2454.000000	99.780221 
2453.000000	99.779979 
2452.000000	99.779202 
2451.000000	99.778098 
2450.000000	99.777050 
2449.000000	99.776447 
2448.000000	99.776464 
2447.000000	99.776953 
2446.000000	99.777628 
2445.000000	99.778405 
2444.000000	99.779416 
2443.000000	99.780625 
2442.000000	99.781639 
2441.000000	99.782098 
2440.000000	99.782078 
2439.000000	99.781897 
2438.000000	99.781692 
2437.000000	99.781418 
2436.000000	99.781084 
2435.000000	99.780626 
2434.000000	99.779721 
2433.000000	99.778167 
2432.000000	99.776462 
2431.000000	99.775554 
2430.000000	99.775852 
2429.000000	99.776812 
2428.000000	99.777614 
2427.000000	99.778083 
2426.000000	99.778548 
2425.000000	99.778928 
2424.000000	99.778515 
2423.000000	99.776881 
2422.000000	99.774683 
2421.000000	99.773272 
2420.000000	99.773351 
2419.000000	99.774452 
2418.000000	99.775617 
2417.000000	99.776354 
2416.000000	99.776714 
2415.000000	99.776654 
2414.000000	99.775943 
2413.000000	99.774756 
2412.000000	99.773854 
2411.000000	99.773807 
2410.000000	99.774343 
2409.000000	99.774765 
2408.000000	99.774934 
2407.000000	99.775400 
2406.000000	99.776537 
2405.000000	99.777993 
2404.000000	99.779139 
2403.000000	99.779644 
2402.000000	99.779562 
2401.000000	99.779115 
2400.000000	99.778542 
2399.000000	99.778043 
2398.000000	99.777699 
2397.000000	99.777494 
2396.000000	99.777478 
2395.000000	99.777848 
2394.000000	99.778790 
2393.000000	99.780208 
2392.000000	99.781750 
2391.000000	99.783125 
2390.000000	99.784301 
2389.000000	99.785369 
2388.000000	99.786313 
2387.000000	99.786990 
2386.000000	99.787334 
2385.000000	99.787454 
2384.000000	99.787522 
2383.000000	99.787664 
2382.000000	99.787937 
2381.000000	99.788348 
2380.000000	99.788842 
2379.000000	99.789321 
2378.000000	99.789728 
2377.000000	99.790095 
2376.000000	99.790479 
2375.000000	99.790889 
2374.000000	99.791293 
2373.000000	99.791674 
2372.000000	99.792035 
2371.000000	99.792374 
2370.000000	99.792687 
2369.000000	99.792968 
2368.000000	99.793211 
2367.000000	99.793413 
2366.000000	99.793575 
2365.000000	99.793711 
2364.000000	99.793832 
2363.000000	99.793946 
2362.000000	99.794052 
2361.000000	99.794147 
2360.000000	99.794228 
2359.000000	99.794295 
2358.000000	99.794351 
2357.000000	99.794396 
2356.000000	99.794426 
2355.000000	99.794433 
2354.000000	99.794409 
2353.000000	99.794358 
2352.000000	99.794287 
2351.000000	99.794209 
2350.000000	99.794133 
2349.000000	99.794057 
2348.000000	99.793977 
2347.000000	99.793889 
2346.000000	99.793796 
2345.000000	99.793695 
2344.000000	99.793584 
2343.000000	99.793486 
2342.000000	99.793420 
2341.000000	99.793396 
2340.000000	99.793412 
2339.000000	99.793430 
2338.000000	99.793367 
2337.000000	99.793153 
2336.000000	99.792772 
2335.000000	99.792263 
2334.000000	99.791724 
2333.000000	99.791324 
2332.000000	99.791109 
2331.000000	99.790786 
2330.000000	99.789949 
2329.000000	99.788812 
2328.000000	99.788097 
2327.000000	99.788186 
2326.000000	99.788519 
2325.000000	99.788237 
2324.000000	99.787184 
2323.000000	99.786014 
2322.000000	99.785648 
2321.000000	99.786579 
2320.000000	99.788543 
2319.000000	99.790487 
2318.000000	99.791274 
2317.000000	99.790645 
2316.000000	99.789358 
2315.000000	99.788370 
2314.000000	99.787874 
2313.000000	99.787562 
2312.000000	99.787231 
2311.000000	99.787194 
2310.000000	99.787881 
2309.000000	99.789324 
2308.000000	99.790528 
2307.000000	99.790030 
2306.000000	99.787281 
2305.000000	99.783420 
2304.000000	99.780103 
2303.000000	99.777831 
2302.000000	99.776000 
2301.000000	99.774387 
2300.000000	99.773488 
2299.000000	99.773446 
2298.000000	99.773546 
2297.000000	99.773298 
2296.000000	99.773114 
2295.000000	99.773464 
2294.000000	99.773834 
2293.000000	99.773264 
2292.000000	99.771595 
2291.000000	99.769652 
2290.000000	99.768316 
2289.000000	99.767819 
2288.000000	99.767882 
2287.000000	99.768078 
2286.000000	99.768046 
2285.000000	99.767623 
2284.000000	99.766961 
2283.000000	99.766388 
2282.000000	99.766068 
2281.000000	99.765807 
2280.000000	99.765277 
2279.000000	99.764509 
2278.000000	99.764089 
2277.000000	99.764611 
2276.000000	99.765907 
2275.000000	99.767027 
2274.000000	99.767159 
2273.000000	99.766438 
2272.000000	99.765458 
2271.000000	99.764206 
2270.000000	99.762283 
2269.000000	99.760316 
2268.000000	99.759984 
2267.000000	99.762180 
2266.000000	99.765871 
2265.000000	99.769030 
2264.000000	99.770480 
2263.000000	99.770291 
2262.000000	99.769301 
2261.000000	99.768878 
2260.000000	99.770241 
2259.000000	99.772989 
2258.000000	99.774860 
2257.000000	99.774036 
2256.000000	99.771200 
2255.000000	99.768547 
2254.000000	99.767167 
2253.000000	99.766589 
2252.000000	99.766588 
2251.000000	99.767871 
2250.000000	99.770813 
2249.000000	99.774569 
2248.000000	99.777746 
2247.000000	99.779308 
2246.000000	99.778897 
2245.000000	99.776944 
2244.000000	99.774565 
2243.000000	99.772697 
2242.000000	99.771412 
2241.000000	99.770353 
2240.000000	99.769342 
2239.000000	99.768086 
2238.000000	99.765938 
2237.000000	99.762655 
2236.000000	99.758751 
2235.000000	99.754561 
2234.000000	99.749996 
2233.000000	99.746152 
2232.000000	99.745813 
2231.000000	99.750767 
2230.000000	99.759425 
2229.000000	99.767836 
2228.000000	99.773272 
2227.000000	99.775753 
2226.000000	99.776370 
2225.000000	99.775706 
2224.000000	99.773845 
2223.000000	99.770988 
2222.000000	99.767838 
2221.000000	99.765638 
2220.000000	99.765401 
2219.000000	99.766800 
2218.000000	99.768428 
2217.000000	99.769529 
2216.000000	99.770835 
2215.000000	99.773093 
2214.000000	99.775506 
2213.000000	99.776469 
2212.000000	99.775404 
2211.000000	99.773247 
2210.000000	99.771563 
2209.000000	99.771507 
2208.000000	99.773080 
2207.000000	99.774836 
2206.000000	99.774881 
2205.000000	99.772634 
2204.000000	99.769201 
2203.000000	99.766024 
2202.000000	99.763761 
2201.000000	99.762711 
2200.000000	99.763126 
2199.000000	99.764383 
2198.000000	99.764916 
2197.000000	99.763973 
2196.000000	99.762840 
2195.000000	99.763334 
2194.000000	99.765696 
2193.000000	99.768754 
2192.000000	99.771306 
2191.000000	99.772708 
2190.000000	99.772600 
2189.000000	99.771081 
2188.000000	99.769225 
2187.000000	99.768497 
2186.000000	99.769399 
2185.000000	99.771359 
2184.000000	99.773622 
2183.000000	99.775787 
2182.000000	99.777430 
2181.000000	99.778141 
2180.000000	99.778176 
2179.000000	99.778265 
2178.000000	99.778531 
2177.000000	99.778381 
2176.000000	99.777580 
2175.000000	99.776657 
2174.000000	99.776079 
2173.000000	99.775766 
2172.000000	99.775603 
2171.000000	99.775784 
2170.000000	99.776472 
2169.000000	99.777598 
2168.000000	99.779119 
2167.000000	99.780986 
2166.000000	99.782733 
2165.000000	99.783667 
2164.000000	99.783656 
2163.000000	99.783319 
2162.000000	99.783398 
2161.000000	99.784114 
2160.000000	99.785229 
2159.000000	99.786294 
2158.000000	99.786850 
2157.000000	99.786810 
2156.000000	99.786638 
2155.000000	99.786802 
2154.000000	99.787110 
2153.000000	99.786985 
2152.000000	99.786282 
2151.000000	99.785491 
2150.000000	99.785160 
2149.000000	99.785398 
2148.000000	99.786005 
2147.000000	99.786647 
2146.000000	99.786852 
2145.000000	99.786238 
2144.000000	99.784883 
2143.000000	99.783378 
2142.000000	99.782253 
2141.000000	99.781529 
2140.000000	99.780966 
2139.000000	99.780407 
2138.000000	99.779806 
2137.000000	99.779079 
2136.000000	99.778151 
2135.000000	99.777119 
2134.000000	99.776201 
2133.000000	99.775480 
2132.000000	99.774801 
2131.000000	99.773895 
2130.000000	99.772601 
2129.000000	99.770954 
2128.000000	99.769182 
2127.000000	99.767556 
2126.000000	99.766190 
2125.000000	99.764997 
2124.000000	99.763866 
2123.000000	99.762867 
2122.000000	99.762111 
2121.000000	99.761451 
2120.000000	99.760515 
2119.000000	99.759079 
2118.000000	99.757329 
2117.000000	99.755680 
2116.000000	99.754351 
2115.000000	99.753280 
2114.000000	99.752387 
2113.000000	99.751710 
2112.000000	99.751188 
2111.000000	99.750441 
2110.000000	99.749032 
2109.000000	99.747015 
2108.000000	99.745044 
2107.000000	99.743713 
2106.000000	99.742895 
2105.000000	99.741899 
2104.000000	99.740249 
2103.000000	99.738139 
2102.000000	99.736227 
2101.000000	99.735032 
2100.000000	99.734506 
2099.000000	99.734064 
2098.000000	99.733134 
2097.000000	99.731923 
2096.000000	99.731375 
2095.000000	99.731936 
2094.000000	99.732439 
2093.000000	99.730944 
2092.000000	99.727002 
2091.000000	99.722737 
2090.000000	99.720956 
2089.000000	99.722287 
2088.000000	99.724766 
2087.000000	99.725940 
2086.000000	99.725244 
2085.000000	99.723788 
2084.000000	99.722606 
2083.000000	99.721799 
2082.000000	99.721203 
2081.000000	99.721082 
2080.000000	99.721738 
2079.000000	99.722934 
2078.000000	99.724270 
2077.000000	99.725987 
2076.000000	99.728822 
2075.000000	99.732919 
2074.000000	99.737233 
2073.000000	99.740277 
2072.000000	99.741366 
2071.000000	99.740805 
2070.000000	99.739170 
2069.000000	99.736862 
2068.000000	99.734326 
2067.000000	99.732312 
2066.000000	99.731629 
2065.000000	99.732555 
2064.000000	99.734548 
2063.000000	99.736570 
2062.000000	99.738030 
2061.000000	99.739164 
2060.000000	99.740392 
2059.000000	99.741509 
2058.000000	99.741845 
2057.000000	99.741198 
2056.000000	99.740056 
2055.000000	99.738796 
2054.000000	99.737256 
2053.000000	99.735411 
2052.000000	99.733982 
2051.000000	99.733822 
2050.000000	99.734861 
2049.000000	99.736007 
2048.000000	99.736281 
2047.000000	99.735803 
2046.000000	99.735496 
2045.000000	99.736075 
2044.000000	99.737454 
2043.000000	99.738877 
2042.000000	99.739571 
2041.000000	99.739343 
2040.000000	99.738644 
2039.000000	99.738144 
2038.000000	99.738202 
2037.000000	99.738713 
2036.000000	99.739264 
2035.000000	99.739403 
2034.000000	99.738921 
2033.000000	99.737975 
2032.000000	99.736950 
2031.000000	99.736130 
2030.000000	99.735549 
2029.000000	99.735123 
2028.000000	99.734753 
2027.000000	99.734352 
2026.000000	99.733933 
2025.000000	99.733724 
2024.000000	99.733965 
2023.000000	99.734548 
2022.000000	99.734941 
2021.000000	99.734693 
2020.000000	99.733829 
2019.000000	99.732889 
2018.000000	99.732461 
2017.000000	99.732635 
2016.000000	99.733036 
2015.000000	99.733292 
2014.000000	99.733412 
2013.000000	99.733594 
2012.000000	99.733924 
2011.000000	99.734328 
2010.000000	99.734737 
2009.000000	99.735216 
2008.000000	99.735844 
2007.000000	99.736502 
2006.000000	99.736910 
2005.000000	99.736913 
2004.000000	99.736655 
2003.000000	99.736425 
2002.000000	99.736370 
2001.000000	99.736439 
2000.000000	99.736493 
1999.000000	99.736427 
1998.000000	99.736231 
1997.000000	99.736002 
1996.000000	99.735873 
1995.000000	99.735900 
1994.000000	99.736018 
1993.000000	99.736099 
1992.000000	99.736057 
1991.000000	99.735881 
1990.000000	99.735611 
1989.000000	99.735308 
1988.000000	99.735030 
1987.000000	99.734786 
1986.000000	99.734527 
1985.000000	99.734203 
1984.000000	99.733815 
1983.000000	99.733401 
1982.000000	99.732989 
1981.000000	99.732547 
1980.000000	99.731999 
1979.000000	99.731314 
1978.000000	99.730554 
1977.000000	99.729833 
1976.000000	99.729171 
1975.000000	99.728514 
1974.000000	99.727821 
1973.000000	99.727142 
1972.000000	99.726564 
1971.000000	99.726126 
1970.000000	99.725762 
1969.000000	99.725296 
1968.000000	99.724592 
1967.000000	99.723648 
1966.000000	99.722645 
1965.000000	99.721740 
1964.000000	99.720943 
1963.000000	99.720209 
1962.000000	99.719515 
1961.000000	99.718828 
1960.000000	99.718077 
1959.000000	99.717250 
1958.000000	99.716495 
1957.000000	99.716005 
1956.000000	99.715767 
1955.000000	99.715524 
1954.000000	99.715040 
1953.000000	99.714305 
1952.000000	99.713379 
1951.000000	99.712198 
1950.000000	99.710747 
1949.000000	99.709396 
1948.000000	99.708708 
1947.000000	99.708799 
1946.000000	99.708994 
1945.000000	99.708325 
1944.000000	99.706421 
1943.000000	99.703996 
1942.000000	99.702447 
1941.000000	99.702564 
1940.000000	99.703804 
1939.000000	99.704908 
1938.000000	99.705395 
1937.000000	99.706044 
1936.000000	99.707667 
1935.000000	99.709734 
1934.000000	99.710792 
1933.000000	99.710309 
1932.000000	99.709418 
1931.000000	99.709545 
1930.000000	99.710670 
1929.000000	99.711574 
1928.000000	99.711475 
1927.000000	99.710682 
1926.000000	99.709752 
1925.000000	99.708968 
1924.000000	99.708566 
1923.000000	99.708860 
1922.000000	99.709752 
1921.000000	99.710486 
1920.000000	99.710194 
1919.000000	99.708474 
1918.000000	99.705677 
1917.000000	99.702989 
1916.000000	99.701613 
1915.000000	99.701771 
1914.000000	99.702796 
1913.000000	99.703866 
1912.000000	99.704579 
1911.000000	99.704861 
1910.000000	99.704712 
1909.000000	99.704468 
1908.000000	99.704866 
1907.000000	99.706270 
1906.000000	99.708048 
1905.000000	99.709158 
1904.000000	99.709269 
1903.000000	99.708845 
1902.000000	99.708419 
1901.000000	99.708219 
1900.000000	99.708292 
1899.000000	99.708616 
1898.000000	99.709040 
1897.000000	99.709403 
1896.000000	99.709698 
1895.000000	99.709943 
1894.000000	99.709976 
1893.000000	99.709682 
1892.000000	99.709320 
1891.000000	99.709268 
1890.000000	99.709463 
1889.000000	99.709497 
1888.000000	99.709305 
1887.000000	99.709246 
1886.000000	99.709571 
1885.000000	99.710255 
1884.000000	99.711228 
1883.000000	99.712438 
1882.000000	99.713591 
1881.000000	99.714256 
1880.000000	99.714397 
1879.000000	99.714560 
1878.000000	99.715329 
1877.000000	99.716735 
1876.000000	99.718292 
1875.000000	99.719484 
1874.000000	99.720059 
1873.000000	99.720021 
1872.000000	99.719675 
1871.000000	99.719498 
1870.000000	99.719731 
1869.000000	99.720136 
1868.000000	99.720509 
1867.000000	99.721139 
1866.000000	99.722257 
1865.000000	99.723468 
1864.000000	99.723961 
1863.000000	99.723209 
1862.000000	99.721495 
1861.000000	99.719936 
1860.000000	99.719630 
1859.000000	99.720859 
1858.000000	99.723021 
1857.000000	99.725243 
1856.000000	99.727193 
1855.000000	99.729048 
1854.000000	99.730860 
1853.000000	99.732265 
1852.000000	99.732843 
1851.000000	99.732644 
1850.000000	99.732244 
1849.000000	99.732362 
1848.000000	99.733227 
1847.000000	99.734390 
1846.000000	99.735167 
1845.000000	99.735327 
1844.000000	99.735415 
1843.000000	99.736147 
1842.000000	99.737383 
1841.000000	99.738440 
1840.000000	99.738929 
1839.000000	99.738879 
1838.000000	99.738482 
1837.000000	99.737969 
1836.000000	99.737589 
1835.000000	99.737568 
1834.000000	99.737974 
1833.000000	99.738642 
1832.000000	99.739176 
1831.000000	99.739152 
1830.000000	99.738597 
1829.000000	99.738249 
1828.000000	99.738640 
1827.000000	99.739428 
1826.000000	99.739949 
1825.000000	99.739974 
1824.000000	99.739890 
1823.000000	99.739981 
1822.000000	99.739879 
1821.000000	99.739221 
1820.000000	99.738479 
1819.000000	99.738570 
1818.000000	99.739655 
1817.000000	99.740873 
1816.000000	99.741399 
1815.000000	99.741492 
1814.000000	99.741904 
1813.000000	99.742822 
1812.000000	99.743793 
1811.000000	99.744561 
1810.000000	99.745237 
1809.000000	99.745588 
1808.000000	99.745211 
1807.000000	99.744230 
1806.000000	99.743152 
1805.000000	99.742313 
1804.000000	99.741760 
1803.000000	99.741452 
1802.000000	99.741222 
1801.000000	99.740666 
1800.000000	99.739761 
1799.000000	99.739231 
1798.000000	99.739664 
1797.000000	99.740811 
1796.000000	99.742011 
1795.000000	99.742925 
1794.000000	99.743637 
1793.000000	99.744138 
1792.000000	99.744262 
1791.000000	99.744257 
1790.000000	99.744282 
1789.000000	99.744122 
1788.000000	99.743923 
1787.000000	99.744199 
1786.000000	99.745113 
1785.000000	99.746146 
1784.000000	99.746736 
1783.000000	99.746718 
1782.000000	99.746097 
1781.000000	99.744860 
1780.000000	99.743299 
1779.000000	99.741982 
1778.000000	99.741333 
1777.000000	99.741451 
1776.000000	99.742095 
1775.000000	99.742679 
1774.000000	99.742762 
1773.000000	99.742552 
1772.000000	99.742749 
1771.000000	99.743862 
1770.000000	99.745327 
1769.000000	99.746143 
1768.000000	99.746006 
1767.000000	99.745502 
1766.000000	99.745369 
1765.000000	99.745649 
1764.000000	99.745879 
1763.000000	99.745608 
1762.000000	99.744954 
1761.000000	99.744662 
1760.000000	99.745193 
1759.000000	99.746401 
1758.000000	99.748216 
1757.000000	99.750665 
1756.000000	99.753185 
1755.000000	99.754755 
1754.000000	99.755135 
1753.000000	99.755279 
1752.000000	99.756042 
1751.000000	99.756573 
1750.000000	99.755460 
1749.000000	99.753096 
1748.000000	99.751122 
1747.000000	99.750433 
1746.000000	99.750667 
1745.000000	99.751116 
1744.000000	99.751419 
1743.000000	99.751610 
1742.000000	99.751969 
1741.000000	99.752665 
1740.000000	99.753574 
1739.000000	99.754526 
1738.000000	99.755423 
1737.000000	99.755899 
1736.000000	99.755930 
1735.000000	99.755656 
1734.000000	99.754528 
1733.000000	99.753265 
1732.000000	99.752961 
1731.000000	99.752934 
1730.000000	99.752542 
1729.000000	99.752118 
1728.000000	99.752070 
1727.000000	99.752198 
1726.000000	99.752247 
1725.000000	99.752434 
1724.000000	99.753142 
1723.000000	99.754263 
1722.000000	99.755213 
1721.000000	99.755564 
1720.000000	99.755797 
1719.000000	99.757038 
1718.000000	99.759268 
1717.000000	99.760418 
1716.000000	99.759973 
1715.000000	99.759751 
1714.000000	99.760097 
1713.000000	99.759785 
1712.000000	99.758400 
1711.000000	99.756778 
1710.000000	99.755818 
1709.000000	99.755504 
1708.000000	99.755259 
1707.000000	99.754950 
1706.000000	99.754459 
1705.000000	99.753083 
1704.000000	99.750482 
1703.000000	99.747401 
1702.000000	99.745344 
1701.000000	99.745139 
1700.000000	99.745795 
1699.000000	99.747593 
1698.000000	99.750320 
1697.000000	99.752138 
1696.000000	99.752214 
1695.000000	99.751671 
1694.000000	99.751643 
1693.000000	99.751671 
1692.000000	99.751443 
1691.000000	99.751347 
1690.000000	99.751666 
1689.000000	99.752083 
1688.000000	99.752106 
1687.000000	99.751757 
1686.000000	99.751579 
1685.000000	99.751627 
1684.000000	99.751175 
1683.000000	99.750736 
1682.000000	99.750629 
1681.000000	99.750532 
1680.000000	99.750393 
1679.000000	99.750230 
1678.000000	99.749977 
1677.000000	99.749692 
1676.000000	99.749523 
1675.000000	99.749440 
1674.000000	99.749451 
1673.000000	99.749610 
1672.000000	99.749902 
1671.000000	99.750242 
1670.000000	99.750408 
1669.000000	99.750349 
1668.000000	99.750305 
1667.000000	99.750315 
1666.000000	99.750255 
1665.000000	99.750103 
1664.000000	99.749969 
1663.000000	99.749936 
1662.000000	99.750015 
1661.000000	99.750212 
1660.000000	99.750535 
1659.000000	99.750863 
1658.000000	99.750936 
1657.000000	99.750520 
1656.000000	99.749588 
1655.000000	99.748530 
1654.000000	99.747879 
1653.000000	99.747827 
1652.000000	99.748685 
1651.000000	99.749941 
1650.000000	99.750816 
1649.000000	99.751218 
1648.000000	99.751423 
1647.000000	99.751541 
1646.000000	99.751610 
1645.000000	99.751822 
1644.000000	99.752238 
1643.000000	99.752695 
1642.000000	99.752925 
1641.000000	99.752759 
1640.000000	99.752324 
1639.000000	99.751885 
1638.000000	99.751651 
1637.000000	99.751817 
1636.000000	99.752404 
1635.000000	99.753119 
1634.000000	99.753566 
1633.000000	99.753520 
1632.000000	99.753063 
1631.000000	99.752453 
1630.000000	99.751879 
1629.000000	99.751486 
1628.000000	99.751492 
1627.000000	99.751892 
1626.000000	99.752261 
1625.000000	99.752250 
1624.000000	99.752020 
1623.000000	99.751924 
1622.000000	99.752041 
1621.000000	99.752140 
1620.000000	99.751938 
1619.000000	99.751414 
1618.000000	99.750986 
1617.000000	99.751394 
1616.000000	99.753321 
1615.000000	99.756087 
1614.000000	99.758015 
1613.000000	99.758690 
1612.000000	99.758936 
1611.000000	99.759323 
1610.000000	99.759367 
1609.000000	99.758731 
1608.000000	99.758142 
1607.000000	99.758190 
1606.000000	99.758536 
1605.000000	99.758852 
1604.000000	99.759443 
1603.000000	99.760419 
1602.000000	99.761294 
1601.000000	99.761867 
1600.000000	99.762535 
1599.000000	99.763514 
1598.000000	99.764535 
1597.000000	99.765401 
1596.000000	99.766187 
1595.000000	99.766738 
1594.000000	99.766664 
1593.000000	99.766218 
1592.000000	99.766334 
1591.000000	99.767410 
1590.000000	99.768819 
1589.000000	99.769961 
1588.000000	99.771011 
1587.000000	99.772165 
1586.000000	99.773039 
1585.000000	99.773420 
1584.000000	99.773734 
1583.000000	99.774198 
1582.000000	99.774369 
1581.000000	99.773980 
1580.000000	99.773223 
1579.000000	99.772278 
1578.000000	99.771238 
1577.000000	99.770457 
1576.000000	99.770470 
1575.000000	99.771282 
1574.000000	99.772214 
1573.000000	99.772832 
1572.000000	99.773274 
1571.000000	99.773789 
1570.000000	99.774272 
1569.000000	99.774678 
1568.000000	99.775148 
1567.000000	99.775507 
1566.000000	99.775574 
1565.000000	99.775450 
1564.000000	99.775296 
1563.000000	99.775092 
1562.000000	99.774792 
1561.000000	99.774736 
1560.000000	99.775339 
1559.000000	99.775999 
1558.000000	99.776211 
1557.000000	99.776565 
1556.000000	99.777025 
1555.000000	99.777355 
1554.000000	99.777496 
1553.000000	99.777545 
1552.000000	99.777596 
1551.000000	99.777663 
1550.000000	99.777733 
1549.000000	99.777820 
1548.000000	99.777915 
1547.000000	99.777959 
1546.000000	99.777892 
1545.000000	99.777711 
1544.000000	99.777514 
1543.000000	99.777433 
1542.000000	99.777511 
1541.000000	99.777677 
1540.000000	99.777745 
1539.000000	99.777684 
1538.000000	99.777589 
1537.000000	99.777472 
1536.000000	99.777319 
1535.000000	99.777153 
1534.000000	99.776907 
1533.000000	99.776468 
1532.000000	99.775941 
1531.000000	99.775504 
1530.000000	99.775130 
1529.000000	99.774689 
1528.000000	99.774137 
1527.000000	99.773585 
1526.000000	99.773137 
1525.000000	99.772728 
1524.000000	99.772268 
1523.000000	99.771806 
1522.000000	99.771355 
1521.000000	99.770715 
1520.000000	99.769810 
1519.000000	99.768772 
1518.000000	99.767714 
1517.000000	99.766687 
1516.000000	99.765747 
1515.000000	99.764919 
1514.000000	99.764142 
1513.000000	99.763338 
1512.000000	99.762437 
1511.000000	99.761420 
1510.000000	99.760341 
1509.000000	99.759310 
1508.000000	99.758458 
1507.000000	99.757775 
1506.000000	99.757064 
1505.000000	99.756113 
1504.000000	99.754961 
1503.000000	99.753799 
1502.000000	99.752743 
1501.000000	99.751748 
1500.000000	99.750624 
1499.000000	99.749284 
1498.000000	99.747850 
1497.000000	99.746354 
1496.000000	99.744736 
1495.000000	99.743242 
1494.000000	99.742200 
1493.000000	99.741633 
1492.000000	99.741273 
1491.000000	99.740707 
1490.000000	99.739552 
1489.000000	99.737662 
1488.000000	99.735338 
1487.000000	99.733180 
1486.000000	99.731300 
1485.000000	99.729360 
1484.000000	99.727339 
1483.000000	99.725686 
1482.000000	99.724773 
1481.000000	99.724300 
1480.000000	99.723613 
1479.000000	99.722581 
1478.000000	99.721456 
1477.000000	99.720203 
1476.000000	99.718860 
1475.000000	99.718547 
1474.000000	99.720128 
1473.000000	99.721861 
1472.000000	99.721157 
1471.000000	99.718920 
1470.000000	99.716962 
1469.000000	99.714792 
1468.000000	99.711427 
1467.000000	99.707698 
1466.000000	99.705851 
1465.000000	99.706783 
1464.000000	99.709382 
1463.000000	99.712220 
1462.000000	99.714115 
1461.000000	99.713600 
1460.000000	99.709647 
1459.000000	99.702789 
1458.000000	99.694537 
1457.000000	99.685209 
1456.000000	99.675606 
1455.000000	99.668157 
1454.000000	99.663938 
1453.000000	99.662746 
1452.000000	99.664035 
1451.000000	99.666716 
1450.000000	99.669504 
1449.000000	99.671198 
1448.000000	99.671109 
1447.000000	99.670423 
1446.000000	99.671127 
1445.000000	99.673330 
1444.000000	99.676191 
1443.000000	99.679403 
1442.000000	99.682777 
1441.000000	99.685014 
1440.000000	99.684396 
1439.000000	99.681438 
1438.000000	99.679590 
1437.000000	99.680127 
1436.000000	99.679354 
1435.000000	99.675490 
1434.000000	99.670636 
1433.000000	99.666272 
1432.000000	99.662981 
1431.000000	99.660577 
1430.000000	99.658323 
1429.000000	99.655216 
1428.000000	99.650430 
1427.000000	99.644457 
1426.000000	99.638860 
1425.000000	99.634817 
1424.000000	99.631602 
1423.000000	99.627168 
1422.000000	99.620640 
1421.000000	99.612195 
1420.000000	99.601449 
1419.000000	99.588265 
1418.000000	99.576045 
1417.000000	99.566652 
1416.000000	99.557159 
1415.000000	99.545513 
1414.000000	99.532762 
1413.000000	99.520870 
1412.000000	99.510435 
1411.000000	99.500874 
1410.000000	99.492056 
1409.000000	99.484501 
1408.000000	99.478936 
1407.000000	99.476399 
1406.000000	99.477472 
1405.000000	99.481383 
1404.000000	99.486492 
1403.000000	99.492135 
1402.000000	99.499212 
1401.000000	99.508383 
1400.000000	99.518377 
1399.000000	99.525568 
1398.000000	99.525865 
1397.000000	99.516438 
1396.000000	99.497427 
1395.000000	99.476295 
1394.000000	99.466639 
1393.000000	99.475356 
1392.000000	99.496155 
1391.000000	99.517258 
1390.000000	99.531143 
1389.000000	99.536930 
1388.000000	99.537079 
1387.000000	99.534231 
1386.000000	99.530721 
1385.000000	99.528510 
1384.000000	99.528273 
1383.000000	99.529255 
1382.000000	99.530549 
1381.000000	99.532481 
1380.000000	99.536382 
1379.000000	99.542875 
1378.000000	99.551029 
1377.000000	99.559559 
1376.000000	99.567997 
1375.000000	99.576304 
1374.000000	99.584421 
1373.000000	99.592711 
1372.000000	99.601659 
1371.000000	99.611034 
1370.000000	99.619985 
1369.000000	99.628127 
1368.000000	99.635733 
1367.000000	99.642936 
1366.000000	99.649558 
1365.000000	99.655692 
1364.000000	99.661883 
1363.000000	99.668523 
1362.000000	99.675336 
1361.000000	99.681910 
1360.000000	99.688335 
1359.000000	99.695088 
1358.000000	99.702567 
1357.000000	99.710774 
1356.000000	99.718939 
1355.000000	99.725836 
1354.000000	99.731218 
1353.000000	99.736494 
1352.000000	99.743016 
1351.000000	99.749804 
1350.000000	99.754257 
1349.000000	99.756280 
1348.000000	99.757603 
1347.000000	99.758718 
1346.000000	99.758943 
1345.000000	99.758655 
1344.000000	99.759259 
1343.000000	99.760927 
1342.000000	99.762398 
1341.000000	99.763420 
1340.000000	99.765339 
1339.000000	99.768555 
1338.000000	99.771714 
1337.000000	99.774259 
1336.000000	99.777125 
1335.000000	99.780244 
1334.000000	99.781714 
1333.000000	99.780582 
1332.000000	99.778648 
1331.000000	99.778075 
1330.000000	99.778494 
1329.000000	99.778236 
1328.000000	99.777140 
1327.000000	99.776382 
1326.000000	99.776388 
1325.000000	99.776863 
1324.000000	99.777815 
1323.000000	99.779351 
1322.000000	99.781036 
1321.000000	99.782556 
1320.000000	99.784637 
1319.000000	99.788117 
1318.000000	99.792021 
1317.000000	99.793641 
1316.000000	99.791192 
1315.000000	99.785863 
1314.000000	99.781040 
1313.000000	99.779331 
1312.000000	99.780538 
1311.000000	99.782610 
1310.000000	99.784040 
1309.000000	99.784774 
1308.000000	99.785069 
1307.000000	99.784567 
1306.000000	99.782929 
1305.000000	99.781084 
1304.000000	99.780595 
1303.000000	99.781926 
1302.000000	99.783922 
1301.000000	99.785086 
1300.000000	99.784942 
1299.000000	99.784271 
1298.000000	99.784430 
1297.000000	99.786199 
1296.000000	99.788861 
1295.000000	99.790466 
1294.000000	99.789583 
1293.000000	99.786635 
1292.000000	99.783171 
1291.000000	99.780262 
1290.000000	99.778122 
1289.000000	99.776784 
1288.000000	99.776124 
1287.000000	99.775309 
1286.000000	99.773262 
1285.000000	99.769705 
1284.000000	99.765053 
1283.000000	99.759757 
1282.000000	99.754088 
1281.000000	99.748421 
1280.000000	99.743363 
1279.000000	99.738968 
1278.000000	99.734478 
1277.000000	99.729355 
1276.000000	99.724037 
1275.000000	99.719124 
1274.000000	99.714285 
1273.000000	99.708504 
1272.000000	99.701269 
1271.000000	99.693114 
1270.000000	99.685067 
1269.000000	99.677779 
1268.000000	99.671170 
1267.000000	99.664682 
1266.000000	99.657835 
1265.000000	99.650596 
1264.000000	99.643265 
1263.000000	99.636061 
1262.000000	99.628848 
1261.000000	99.621357 
1260.000000	99.613696 
1259.000000	99.606473 
1258.000000	99.600369 
1257.000000	99.595604 
1256.000000	99.591944 
1255.000000	99.589095 
1254.000000	99.586788 
1253.000000	99.584488 
1252.000000	99.581549 
1251.000000	99.578055 
1250.000000	99.575248 
1249.000000	99.574590 
1248.000000	99.576348 
1247.000000	99.579135 
1246.000000	99.580565 
1245.000000	99.578324 
1244.000000	99.571420 
1243.000000	99.561553 
1242.000000	99.553143 
1241.000000	99.550113 
1240.000000	99.552406 
1239.000000	99.555908 
1238.000000	99.556284 
1237.000000	99.552841 
1236.000000	99.547772 
1235.000000	99.542918 
1234.000000	99.538247 
1233.000000	99.533138 
1232.000000	99.527569 
1231.000000	99.521766 
1230.000000	99.515916 
1229.000000	99.510701 
1228.000000	99.507159 
1227.000000	99.505408 
1226.000000	99.504148 
1225.000000	99.502037 
1224.000000	99.499132 
1223.000000	99.496439 
1222.000000	99.494499 
1221.000000	99.492971 
1220.000000	99.491254 
1219.000000	99.489003 
1218.000000	99.486169 
1217.000000	99.482904 
1216.000000	99.479304 
1215.000000	99.475142 
1214.000000	99.470109 
1213.000000	99.464322 
1212.000000	99.458166 
1211.000000	99.451694 
1210.000000	99.444809 
1209.000000	99.438106 
1208.000000	99.432700 
1207.000000	99.428848 
1206.000000	99.425464 
1205.000000	99.421459 
1204.000000	99.416739 
1203.000000	99.411283 
1202.000000	99.404465 
1201.000000	99.396374 
1200.000000	99.388723 
1199.000000	99.383056 
1198.000000	99.378743 
1197.000000	99.373952 
1196.000000	99.367883 
1195.000000	99.360804 
1194.000000	99.352998 
1193.000000	99.344829 
1192.000000	99.337230 
1191.000000	99.330730 
1190.000000	99.324317 
1189.000000	99.316646 
1188.000000	99.308144 
1187.000000	99.300733 
1186.000000	99.295652 
1185.000000	99.292553 
1184.000000	99.290314 
1183.000000	99.287614 
1182.000000	99.283162 
1181.000000	99.276767 
1180.000000	99.269883 
1179.000000	99.263886 
1178.000000	99.258173 
1177.000000	99.251274 
1176.000000	99.243231 
1175.000000	99.235123 
1174.000000	99.226483 
1173.000000	99.215310 
1172.000000	99.201079 
1171.000000	99.185974 
1170.000000	99.172249 
1169.000000	99.159576 
1168.000000	99.145975 
1167.000000	99.130711 
1166.000000	99.115640 
1165.000000	99.104089 
1164.000000	99.098633 
1163.000000	99.099411 
1162.000000	99.104214 
1161.000000	99.110515 
1160.000000	99.117192 
1159.000000	99.123699 
1158.000000	99.128097 
1157.000000	99.127138 
1156.000000	99.118632 
1155.000000	99.103574 
1154.000000	99.086218 
1153.000000	99.071902 
1152.000000	99.063480 
1151.000000	99.058844 
1150.000000	99.052518 
1149.000000	99.040700 
1148.000000	99.024437 
1147.000000	99.007440 
1146.000000	98.991733 
1145.000000	98.976431 
1144.000000	98.959880 
1143.000000	98.941414 
1142.000000	98.921580 
1141.000000	98.902075 
1140.000000	98.885031 
1139.000000	98.870844 
1138.000000	98.857009 
1137.000000	98.840546 
1136.000000	98.821278 
1135.000000	98.801278 
1134.000000	98.781425 
1133.000000	98.760211 
1132.000000	98.736272 
1131.000000	98.710771 
1130.000000	98.686792 
1129.000000	98.666768 
1128.000000	98.650043 
1127.000000	98.632440 
1126.000000	98.609368 
1125.000000	98.580688 
1124.000000	98.551547 
1123.000000	98.526845 
1122.000000	98.505704 
1121.000000	98.483380 
1120.000000	98.457460 
1119.000000	98.429426 
1118.000000	98.400836 
1117.000000	98.371146 
1116.000000	98.339766 
1115.000000	98.307619 
1114.000000	98.275776 
1113.000000	98.244544 
1112.000000	98.214355 
1111.000000	98.185388 
1110.000000	98.155775 
1109.000000	98.122742 
1108.000000	98.086489 
1107.000000	98.050898 
1106.000000	98.019315 
1105.000000	97.991333 
1104.000000	97.964301 
1103.000000	97.936502 
1102.000000	97.908251 
1101.000000	97.881142 
1100.000000	97.856518 
1099.000000	97.834563 
1098.000000	97.813948 
1097.000000	97.793705 
1096.000000	97.774406 
1095.000000	97.756111 
1094.000000	97.735827 
1093.000000	97.708998 
1092.000000	97.673588 
1091.000000	97.631455 
1090.000000	97.586318 
1089.000000	97.542014 
1088.000000	97.502047 
1087.000000	97.468214 
1086.000000	97.439126 
1085.000000	97.411821 
1084.000000	97.384844 
1083.000000	97.358118 
1082.000000	97.330668 
1081.000000	97.301314 
1080.000000	97.271652 
1079.000000	97.245647 
1078.000000	97.225896 
1077.000000	97.212449 
1076.000000	97.205136 
1075.000000	97.204397 
1074.000000	97.209729 
1073.000000	97.219450 
1072.000000	97.230965 
1071.000000	97.238269 
1070.000000	97.230999 
1069.000000	97.202000 
1068.000000	97.158006 
1067.000000	97.119072 
1066.000000	97.103377 
1065.000000	97.113715 
1064.000000	97.138864 
1063.000000	97.163825 
1062.000000	97.177356 
1061.000000	97.173773 
1060.000000	97.153841 
1059.000000	97.125943 
1058.000000	97.102859 
1057.000000	97.093654 
1056.000000	97.097927 
1055.000000	97.107839 
1054.000000	97.115559 
1053.000000	97.119146 
1052.000000	97.121645 
1051.000000	97.125524 
1050.000000	97.129363 
1049.000000	97.130159 
1048.000000	97.127225 
1047.000000	97.122867 
1046.000000	97.120438 
1045.000000	97.122326 
1044.000000	97.128406 
1043.000000	97.135648 
1042.000000	97.140646 
1041.000000	97.143437 
1040.000000	97.147638 
1039.000000	97.156619 
1038.000000	97.171483 
1037.000000	97.192799 
1036.000000	97.221039 
1035.000000	97.253845 
1034.000000	97.285857 
1033.000000	97.313096 
1032.000000	97.334595 
1031.000000	97.348497 
1030.000000	97.351515 
1029.000000	97.346368 
1028.000000	97.345907 
1027.000000	97.363166 
1026.000000	97.397795 
1025.000000	97.436520 
1024.000000	97.466876 
1023.000000	97.486559 
1022.000000	97.500145 
1021.000000	97.512437 
1020.000000	97.526359 
1019.000000	97.543027 
1018.000000	97.561021 
1017.000000	97.577691 
1016.000000	97.592684 
1015.000000	97.608498 
1014.000000	97.627039 
1013.000000	97.647538 
1012.000000	97.668232 
1011.000000	97.688048 
1010.000000	97.706405 
1009.000000	97.723537 
1008.000000	97.741362 
1007.000000	97.762077 
1006.000000	97.785517 
1005.000000	97.809587 
1004.000000	97.833294 
1003.000000	97.857426 
1002.000000	97.882208 
1001.000000	97.906475 
1000.000000	97.929500 
999.000000	 97.951606 
998.000000	 97.972607 
997.000000	 97.991844 
996.000000	 98.010486 
995.000000	 98.031551 
994.000000	 98.056328 
993.000000	 98.082554 
992.000000	 98.107384 
991.000000	 98.130435 
990.000000	 98.152610 
989.000000	 98.173839 
988.000000	 98.193780 
987.000000	 98.213468 
986.000000	 98.234741 
985.000000	 98.258912 
984.000000	 98.286464 
983.000000	 98.316653 
982.000000	 98.347330 
981.000000	 98.376245 
980.000000	 98.403091 
979.000000	 98.429751 
978.000000	 98.458378 
977.000000	 98.490116 
976.000000	 98.524889 
975.000000	 98.560668 
974.000000	 98.593648 
973.000000	 98.621542 
972.000000	 98.646608 
971.000000	 98.673320 
970.000000	 98.702938 
969.000000	 98.732398 
968.000000	 98.758737 
967.000000	 98.782321 
966.000000	 98.805292 
965.000000	 98.828774 
964.000000	 98.852329 
963.000000	 98.874886 
962.000000	 98.895776 
961.000000	 98.915784 
960.000000	 98.936794 
959.000000	 98.958986 
958.000000	 98.979049 
957.000000	 98.993284 
956.000000	 99.002297 
955.000000	 99.010691 
954.000000	 99.022080 
953.000000	 99.036254 
952.000000	 99.051252 
951.000000	 99.065618 
950.000000	 99.078063 
949.000000	 99.087444 
948.000000	 99.094375 
947.000000	 99.101038 
946.000000	 99.108118 
945.000000	 99.113397 
944.000000	 99.114947 
943.000000	 99.114807 
942.000000	 99.117928 
941.000000	 99.127229 
940.000000	 99.140232 
939.000000	 99.150813 
938.000000	 99.154582 
937.000000	 99.152987 
936.000000	 99.152014 
935.000000	 99.156590 
934.000000	 99.166634 
933.000000	 99.178698 
932.000000	 99.190048 
931.000000	 99.200024 
930.000000	 99.208695 
929.000000	 99.215997 
928.000000	 99.221699 
927.000000	 99.225054 
926.000000	 99.225315 
925.000000	 99.223862 
924.000000	 99.224674 
923.000000	 99.230714 
922.000000	 99.240227 
921.000000	 99.248256 
920.000000	 99.251478 
919.000000	 99.250178 
918.000000	 99.246494 
917.000000	 99.242798 
916.000000	 99.241273 
915.000000	 99.242863 
914.000000	 99.246241 
913.000000	 99.249237 
912.000000	 99.251384 
911.000000	 99.253919 
910.000000	 99.257680 
909.000000	 99.262552 
908.000000	 99.268700 
907.000000	 99.276570 
906.000000	 99.285579 
905.000000	 99.294352 
904.000000	 99.302440 
903.000000	 99.310672 
902.000000	 99.319845 
901.000000	 99.330078 
900.000000	 99.341245 
899.000000	 99.352791 
898.000000	 99.363102 
897.000000	 99.370378 
896.000000	 99.374201 
895.000000	 99.375629 
894.000000	 99.376211 
893.000000	 99.377841 
892.000000	 99.383005 
891.000000	 99.393579 
890.000000	 99.409043 
889.000000	 99.426589 
888.000000	 99.442986 
887.000000	 99.455928 
886.000000	 99.464519 
885.000000	 99.470117 
884.000000	 99.476139 
883.000000	 99.484727 
882.000000	 99.493556 
881.000000	 99.498307 
880.000000	 99.498764 
879.000000	 99.500158 
878.000000	 99.507219 
877.000000	 99.519082 
876.000000	 99.531418 
875.000000	 99.541462 
874.000000	 99.549212 
873.000000	 99.555498 
872.000000	 99.561154 
871.000000	 99.567114 
870.000000	 99.573651 
869.000000	 99.580390 
868.000000	 99.587996 
867.000000	 99.598158 
866.000000	 99.610481 
865.000000	 99.621430 
864.000000	 99.628822 
863.000000	 99.635961 
862.000000	 99.648211 
861.000000	 99.665686 
860.000000	 99.682382 
859.000000	 99.693187 
858.000000	 99.698987 
857.000000	 99.703841 
856.000000	 99.709873 
855.000000	 99.717219 
854.000000	 99.726703 
853.000000	 99.738751 
852.000000	 99.750043 
851.000000	 99.755240 
850.000000	 99.753576 
849.000000	 99.750959 
848.000000	 99.753408 
847.000000	 99.760187 
846.000000	 99.765850 
845.000000	 99.767623 
844.000000	 99.767786 
843.000000	 99.769329 
842.000000	 99.772323 
841.000000	 99.774870 
840.000000	 99.774813 
839.000000	 99.770046 
838.000000	 99.760329 
837.000000	 99.749816 
836.000000	 99.744481 
835.000000	 99.744950 
834.000000	 99.744845 
833.000000	 99.739194 
832.000000	 99.731809 
831.000000	 99.730356 
830.000000	 99.735392 
829.000000	 99.739108 
828.000000	 99.735793 
827.000000	 99.729395 
826.000000	 99.728437 
825.000000	 99.735564 
824.000000	 99.744732 
823.000000	 99.748132 
822.000000	 99.744113 
821.000000	 99.737866 
820.000000	 99.735170 
819.000000	 99.736675 
818.000000	 99.738756 
817.000000	 99.738578 
816.000000	 99.735873 
815.000000	 99.729813 
814.000000	 99.717751 
813.000000	 99.699229 
812.000000	 99.678337 
811.000000	 99.658325 
810.000000	 99.635096 
809.000000	 99.600068 
808.000000	 99.549728 
807.000000	 99.489559 
806.000000	 99.428184 
805.000000	 99.370438 
804.000000	 99.317583 
803.000000	 99.271369 
802.000000	 99.234784 
801.000000	 99.209286 
800.000000	 99.193283 
799.000000	 99.184371 
798.000000	 99.183220 
797.000000	 99.193931 
796.000000	 99.218347 
795.000000	 99.250240 
794.000000	 99.278471 
793.000000	 99.297405 
792.000000	 99.311044 
791.000000	 99.325330 
790.000000	 99.340061 
789.000000	 99.350705 
788.000000	 99.354191 
787.000000	 99.349008 
786.000000	 99.332715 
785.000000	 99.304236 
784.000000	 99.267748 
783.000000	 99.230997 
782.000000	 99.200580 
781.000000	 99.180848 
780.000000	 99.174512 
779.000000	 99.180203 
778.000000	 99.191795 
777.000000	 99.205201 
776.000000	 99.224189 
775.000000	 99.254403 
774.000000	 99.293156 
773.000000	 99.330595 
772.000000	 99.360610 
771.000000	 99.385177 
770.000000	 99.407961 
769.000000	 99.428794 
768.000000	 99.445401 
767.000000	 99.456866 
766.000000	 99.464560 
765.000000	 99.472308 
764.000000	 99.485136 
763.000000	 99.504216 
762.000000	 99.523072 
761.000000	 99.532630 
760.000000	 99.530773 
759.000000	 99.524498 
758.000000	 99.522821 
757.000000	 99.529534 
756.000000	 99.542001 
755.000000	 99.553594 
754.000000	 99.557732 
753.000000	 99.553362 
752.000000	 99.547319 
751.000000	 99.548862 
750.000000	 99.560917 
749.000000	 99.577955 
748.000000	 99.592056 
747.000000	 99.599392 
746.000000	 99.601596 
745.000000	 99.603275 
744.000000	 99.608184 
743.000000	 99.616162 
742.000000	 99.624036 
741.000000	 99.630309 
740.000000	 99.637264 
739.000000	 99.647072 
738.000000	 99.657902 
737.000000	 99.665785 
736.000000	 99.668629 
735.000000	 99.666753 
734.000000	 99.661635 
733.000000	 99.656302 
732.000000	 99.655402 
731.000000	 99.661842 
730.000000	 99.673074 
729.000000	 99.682856 
728.000000	 99.687860 
727.000000	 99.690047 
726.000000	 99.692240 
725.000000	 99.694060 
724.000000	 99.693551 
723.000000	 99.690426 
722.000000	 99.686408 
721.000000	 99.684152 
720.000000	 99.686405 
719.000000	 99.693974 
718.000000	 99.703732 
717.000000	 99.710769 
716.000000	 99.713222 
715.000000	 99.712748 
714.000000	 99.710927 
713.000000	 99.708100 
712.000000	 99.706268 
711.000000	 99.709148 
710.000000	 99.716949 
709.000000	 99.724205 
708.000000	 99.725234 
707.000000	 99.719609 
706.000000	 99.710688 
705.000000	 99.701121 
704.000000	 99.692130 
703.000000	 99.685401 
702.000000	 99.682655 
701.000000	 99.683316 
700.000000	 99.684337 
699.000000	 99.682299 
698.000000	 99.676081 
697.000000	 99.668269 
696.000000	 99.663451 
695.000000	 99.664004 
694.000000	 99.667864 
693.000000	 99.671672 
692.000000	 99.675267 
691.000000	 99.680650 
690.000000	 99.688045 
689.000000	 99.695915 
688.000000	 99.703856 
687.000000	 99.712173 
686.000000	 99.718860 
685.000000	 99.721003 
684.000000	 99.719184 
683.000000	 99.717191 
682.000000	 99.717514 
681.000000	 99.719540 
680.000000	 99.721830 
679.000000	 99.723342 
678.000000	 99.722888 
677.000000	 99.720558 
676.000000	 99.719354 
675.000000	 99.721993 
674.000000	 99.727181 
673.000000	 99.730934 
672.000000	 99.731435 
671.000000	 99.730384 
670.000000	 99.730475 
669.000000	 99.733184 
668.000000	 99.738219 
667.000000	 99.743684 
666.000000	 99.748186 
665.000000	 99.751358 
664.000000	 99.753623 
663.000000	 99.756404 
662.000000	 99.760565 
661.000000	 99.764839 
660.000000	 99.767370 
659.000000	 99.768043 
658.000000	 99.768162 
657.000000	 99.768887 
656.000000	 99.770406 
655.000000	 99.772737 
654.000000	 99.775962 
653.000000	 99.779749 
652.000000	 99.783417 
651.000000	 99.786587 
650.000000	 99.789349 

