4000.000000	99.065337 
3999.000000	99.060756 
3998.000000	99.056610 
3997.000000	99.055423 
3996.000000	99.057154 
3995.000000	99.059720 
3994.000000	99.061459 
3993.000000	99.062311 
3992.000000	99.062713 
3991.000000	99.062317 
3990.000000	99.060367 
3989.000000	99.056843 
3988.000000	99.052732 
3987.000000	99.049412 
3986.000000	99.048028 
3985.000000	99.049113 
3984.000000	99.052332 
3983.000000	99.056783 
3982.000000	99.061791 
3981.000000	99.067282 
3980.000000	99.073191 
3979.000000	99.078701 
3978.000000	99.082440 
3977.000000	99.083407 
3976.000000	99.081498 
3975.000000	99.077338 
3974.000000	99.071920 
3973.000000	99.066405 
3972.000000	99.061851 
3971.000000	99.059026 
3970.000000	99.058579 
3969.000000	99.060833 
3968.000000	99.065204 
3967.000000	99.069934 
3966.000000	99.072913 
3965.000000	99.072879 
3964.000000	99.070018 
3963.000000	99.065939 
3962.000000	99.062978 
3961.000000	99.062686 
3960.000000	99.064223 
3959.000000	99.064774 
3958.000000	99.062667 
3957.000000	99.059344 
3956.000000	99.057842 
3955.000000	99.059439 
3954.000000	99.062812 
3953.000000	99.065960 
3952.000000	99.067818 
3951.000000	99.068335 
3950.000000	99.067575 
3949.000000	99.065615 
3948.000000	99.063339 
3947.000000	99.062688 
3946.000000	99.064905 
3945.000000	99.068617 
3944.000000	99.070507 
3943.000000	99.068445 
3942.000000	99.063871 
3941.000000	99.060416 
3940.000000	99.059655 
3939.000000	99.059766 
3938.000000	99.059017 
3937.000000	99.057831 
3936.000000	99.057446 
3935.000000	99.057711 
3934.000000	99.057866 
3933.000000	99.058537 
3932.000000	99.060840 
3931.000000	99.064457 
3930.000000	99.067536 
3929.000000	99.068768 
3928.000000	99.068615 
3927.000000	99.067604 
3926.000000	99.065367 
3925.000000	99.062264 
3924.000000	99.060585 
3923.000000	99.061497 
3922.000000	99.062041 
3921.000000	99.058908 
3920.000000	99.053585 
3919.000000	99.050095 
3918.000000	99.049385 
3917.000000	99.049454 
3916.000000	99.050161 
3915.000000	99.053471 
3914.000000	99.058959 
3913.000000	99.063176 
3912.000000	99.063883 
3911.000000	99.061143 
3910.000000	99.056702 
3909.000000	99.052276 
3908.000000	99.050114 
3907.000000	99.051932 
3906.000000	99.057299 
3905.000000	99.063035 
3904.000000	99.065962 
3903.000000	99.066766 
3902.000000	99.067717 
3901.000000	99.067373 
3900.000000	99.062716 
3899.000000	99.055108 
3898.000000	99.049121 
3897.000000	99.046269 
3896.000000	99.044085 
3895.000000	99.042051 
3894.000000	99.044327 
3893.000000	99.052494 
3892.000000	99.060548 
3891.000000	99.061753 
3890.000000	99.061316 
3889.000000	99.066455 
3888.000000	99.073732 
3887.000000	99.075745 
3886.000000	99.070799 
3885.000000	99.064228 
3884.000000	99.063872 
3883.000000	99.067763 
3882.000000	99.066894 
3881.000000	99.059100 
3880.000000	99.050283 
3879.000000	99.048218 
3878.000000	99.055515 
3877.000000	99.065524 
3876.000000	99.070639 
3875.000000	99.068704 
3874.000000	99.063200 
3873.000000	99.060624 
3872.000000	99.061321 
3871.000000	99.057566 
3870.000000	99.046046 
3869.000000	99.037682 
3868.000000	99.044844 
3867.000000	99.059210 
3866.000000	99.064770 
3865.000000	99.062132 
3864.000000	99.061923 
3863.000000	99.066329 
3862.000000	99.069287 
3861.000000	99.066742 
3860.000000	99.061115 
3859.000000	99.052845 
3858.000000	99.039683 
3857.000000	99.022802 
3856.000000	99.012293 
3855.000000	99.019323 
3854.000000	99.034029 
3853.000000	99.032710 
3852.000000	99.027145 
3851.000000	99.038867 
3850.000000	99.055313 
3849.000000	99.063465 
3848.000000	99.067369 
3847.000000	99.072759 
3846.000000	99.078715 
3845.000000	99.081907 
3844.000000	99.081658 
3843.000000	99.079885 
3842.000000	99.079166 
3841.000000	99.079183 
3840.000000	99.078499 
3839.000000	99.076652 
3838.000000	99.074243 
3837.000000	99.071411 
3836.000000	99.068995 
3835.000000	99.067059 
3834.000000	99.064635 
3833.000000	99.061626 
3832.000000	99.059584 
3831.000000	99.060651 
3830.000000	99.065801 
3829.000000	99.072520 
3828.000000	99.075860 
3827.000000	99.072487 
3826.000000	99.065658 
3825.000000	99.063149 
3824.000000	99.069162 
3823.000000	99.080469 
3822.000000	99.088952 
3821.000000	99.085811 
3820.000000	99.077867 
3819.000000	99.077462 
3818.000000	99.077224 
3817.000000	99.067049 
3816.000000	99.051442 
3815.000000	99.043735 
3814.000000	99.050145 
3813.000000	99.058909 
3812.000000	99.056925 
3811.000000	99.048298 
3810.000000	99.044731 
3809.000000	99.049929 
3808.000000	99.056869 
3807.000000	99.058184 
3806.000000	99.058242 
3805.000000	99.065504 
3804.000000	99.075125 
3803.000000	99.076838 
3802.000000	99.068912 
3801.000000	99.056776 
3800.000000	99.053086 
3799.000000	99.059823 
3798.000000	99.062619 
3797.000000	99.055641 
3796.000000	99.046476 
3795.000000	99.043539 
3794.000000	99.047013 
3793.000000	99.051910 
3792.000000	99.056054 
3791.000000	99.060809 
3790.000000	99.065582 
3789.000000	99.068282 
3788.000000	99.069293 
3787.000000	99.071195 
3786.000000	99.074357 
3785.000000	99.076817 
3784.000000	99.078650 
3783.000000	99.082208 
3782.000000	99.087175 
3781.000000	99.089702 
3780.000000	99.087064 
3779.000000	99.080553 
3778.000000	99.074923 
3777.000000	99.072154 
3776.000000	99.069372 
3775.000000	99.064918 
3774.000000	99.062584 
3773.000000	99.065920 
3772.000000	99.072420 
3771.000000	99.075687 
3770.000000	99.073316 
3769.000000	99.070040 
3768.000000	99.070951 
3767.000000	99.073166 
3766.000000	99.071196 
3765.000000	99.066499 
3764.000000	99.066298 
3763.000000	99.073543 
3762.000000	99.082833 
3761.000000	99.089116 
3760.000000	99.093274 
3759.000000	99.095398 
3758.000000	99.092930 
3757.000000	99.085891 
3756.000000	99.078952 
3755.000000	99.075498 
3754.000000	99.075391 
3753.000000	99.079110 
3752.000000	99.086421 
3751.000000	99.088392 
3750.000000	99.075197 
3749.000000	99.055047 
3748.000000	99.043614 
3747.000000	99.042017 
3746.000000	99.042360 
3745.000000	99.038406 
3744.000000	99.029053 
3743.000000	99.030992 
3742.000000	99.050395 
3741.000000	99.064278 
3740.000000	99.063074 
3739.000000	99.059642 
3738.000000	99.064090 
3737.000000	99.072071 
3736.000000	99.075942 
3735.000000	99.076334 
3734.000000	99.076423 
3733.000000	99.073918 
3732.000000	99.068195 
3731.000000	99.066659 
3730.000000	99.073537 
3729.000000	99.081879 
3728.000000	99.083717 
3727.000000	99.081450 
3726.000000	99.083230 
3725.000000	99.091347 
3724.000000	99.098235 
3723.000000	99.096772 
3722.000000	99.088912 
3721.000000	99.081874 
3720.000000	99.080002 
3719.000000	99.080916 
3718.000000	99.079938 
3717.000000	99.075088 
3716.000000	99.067660 
3715.000000	99.058865 
3714.000000	99.050113 
3713.000000	99.044586 
3712.000000	99.042984 
3711.000000	99.041702 
3710.000000	99.039497 
3709.000000	99.037658 
3708.000000	99.035903 
3707.000000	99.033167 
3706.000000	99.029418 
3705.000000	99.025284 
3704.000000	99.021352 
3703.000000	99.018256 
3702.000000	99.015815 
3701.000000	99.013788 
3700.000000	99.013601 
3699.000000	99.014324 
3698.000000	99.011063 
3697.000000	99.001804 
3696.000000	98.991184 
3695.000000	98.984948 
3694.000000	98.983196 
3693.000000	98.982285 
3692.000000	98.980426 
3691.000000	98.977067 
3690.000000	98.969636 
3689.000000	98.956194 
3688.000000	98.943933 
3687.000000	98.944018 
3686.000000	98.954788 
3685.000000	98.963515 
3684.000000	98.964086 
3683.000000	98.961423 
3682.000000	98.960824 
3681.000000	98.959937 
3680.000000	98.953614 
3679.000000	98.943588 
3678.000000	98.935016 
3677.000000	98.929192 
3676.000000	98.921091 
3675.000000	98.910414 
3674.000000	98.912076 
3673.000000	98.928030 
3672.000000	98.939297 
3671.000000	98.939752 
3670.000000	98.936636 
3669.000000	98.934405 
3668.000000	98.934910 
3667.000000	98.934684 
3666.000000	98.930685 
3665.000000	98.926795 
3664.000000	98.927716 
3663.000000	98.933005 
3662.000000	98.938680 
3661.000000	98.941927 
3660.000000	98.943370 
3659.000000	98.945338 
3658.000000	98.947965 
3657.000000	98.948990 
3656.000000	98.947335 
3655.000000	98.949034 
3654.000000	98.958271 
3653.000000	98.969823 
3652.000000	98.980176 
3651.000000	98.992793 
3650.000000	99.004451 
3649.000000	99.002223 
3648.000000	98.984879 
3647.000000	98.967603 
3646.000000	98.962427 
3645.000000	98.968112 
3644.000000	98.976999 
3643.000000	98.983675 
3642.000000	98.987817 
3641.000000	98.991295 
3640.000000	98.995743 
3639.000000	99.002336 
3638.000000	99.012591 
3637.000000	99.026551 
3636.000000	99.038925 
3635.000000	99.041728 
3634.000000	99.032761 
3633.000000	99.019110 
3632.000000	99.009275 
3631.000000	99.006905 
3630.000000	99.011201 
3629.000000	99.014506 
3628.000000	99.013155 
3627.000000	99.017196 
3626.000000	99.026495 
3625.000000	99.031378 
3624.000000	99.031935 
3623.000000	99.033499 
3622.000000	99.037041 
3621.000000	99.039747 
3620.000000	99.039957 
3619.000000	99.038377 
3618.000000	99.038447 
3617.000000	99.043387 
3616.000000	99.050644 
3615.000000	99.054412 
3614.000000	99.051519 
3613.000000	99.043258 
3612.000000	99.033864 
3611.000000	99.027005 
3610.000000	99.023968 
3609.000000	99.025066 
3608.000000	99.029376 
3607.000000	99.034353 
3606.000000	99.037167 
3605.000000	99.036492 
3604.000000	99.034193 
3603.000000	99.033907 
3602.000000	99.037125 
3601.000000	99.042819 
3600.000000	99.050289 
3599.000000	99.059564 
3598.000000	99.069008 
3597.000000	99.076278 
3596.000000	99.079174 
3595.000000	99.076303 
3594.000000	99.068281 
3593.000000	99.059889 
3592.000000	99.057121 
3591.000000	99.062786 
3590.000000	99.074637 
3589.000000	99.086216 
3588.000000	99.089141 
3587.000000	99.080558 
3586.000000	99.067818 
3585.000000	99.058948 
3584.000000	99.054352 
3583.000000	99.051543 
3582.000000	99.049694 
3581.000000	99.048956 
3580.000000	99.048689 
3579.000000	99.047827 
3578.000000	99.045531 
3577.000000	99.042221 
3576.000000	99.039326 
3575.000000	99.038051 
3574.000000	99.038528 
3573.000000	99.039936 
3572.000000	99.041468 
3571.000000	99.042757 
3570.000000	99.044060 
3569.000000	99.045921 
3568.000000	99.048227 
3567.000000	99.049887 
3566.000000	99.051301 
3565.000000	99.054063 
3564.000000	99.056899 
3563.000000	99.057371 
3562.000000	99.055476 
3561.000000	99.052940 
3560.000000	99.050849 
3559.000000	99.049083 
3558.000000	99.047333 
3557.000000	99.046090 
3556.000000	99.046746 
3555.000000	99.049839 
3554.000000	99.053609 
3553.000000	99.055059 
3552.000000	99.053140 
3551.000000	99.049724 
3550.000000	99.046738 
3549.000000	99.044114 
3548.000000	99.041651 
3547.000000	99.040538 
3546.000000	99.041783 
3545.000000	99.044644 
3544.000000	99.047352 
3543.000000	99.048571 
3542.000000	99.048354 
3541.000000	99.048004 
3540.000000	99.049327 
3539.000000	99.053142 
3538.000000	99.058459 
3537.000000	99.063087 
3536.000000	99.065212 
3535.000000	99.064667 
3534.000000	99.062637 
3533.000000	99.061098 
3532.000000	99.061728 
3531.000000	99.064804 
3530.000000	99.068336 
3529.000000	99.069636 
3528.000000	99.067855 
3527.000000	99.064463 
3526.000000	99.060870 
3525.000000	99.056960 
3524.000000	99.052534 
3523.000000	99.048790 
3522.000000	99.047336 
3521.000000	99.048088 
3520.000000	99.049190 
3519.000000	99.048944 
3518.000000	99.047368 
3517.000000	99.045925 
3516.000000	99.046121 
3515.000000	99.048831 
3514.000000	99.054289 
3513.000000	99.061858 
3512.000000	99.069404 
3511.000000	99.074086 
3510.000000	99.074490 
3509.000000	99.072079 
3508.000000	99.069758 
3507.000000	99.068780 
3506.000000	99.067399 
3505.000000	99.063012 
3504.000000	99.055175 
3503.000000	99.046791 
3502.000000	99.042615 
3501.000000	99.045763 
3500.000000	99.054510 
3499.000000	99.062407 
3498.000000	99.062749 
3497.000000	99.054606 
3496.000000	99.044576 
3495.000000	99.041086 
3494.000000	99.046472 
3493.000000	99.055251 
3492.000000	99.059997 
3491.000000	99.057971 
3490.000000	99.052304 
3489.000000	99.048089 
3488.000000	99.048179 
3487.000000	99.051930 
3486.000000	99.056529 
3485.000000	99.059322 
3484.000000	99.059673 
3483.000000	99.059222 
3482.000000	99.059900 
3481.000000	99.061671 
3480.000000	99.062668 
3479.000000	99.061725 
3478.000000	99.059938 
3477.000000	99.059051 
3476.000000	99.058860 
3475.000000	99.057249 
3474.000000	99.053233 
3473.000000	99.048921 
3472.000000	99.047655 
3471.000000	99.050731 
3470.000000	99.056552 
3469.000000	99.062320 
3468.000000	99.065720 
3467.000000	99.065520 
3466.000000	99.061937 
3465.000000	99.056813 
3464.000000	99.052723 
3463.000000	99.051068 
3462.000000	99.050874 
3461.000000	99.049870 
3460.000000	99.046902 
3459.000000	99.043282 
3458.000000	99.041587 
3457.000000	99.043003 
3456.000000	99.045991 
3455.000000	99.048002 
3454.000000	99.048292 
3453.000000	99.048692 
3452.000000	99.051414 
3451.000000	99.056644 
3450.000000	99.062215 
3449.000000	99.065433 
3448.000000	99.064920 
3447.000000	99.061231 
3446.000000	99.056443 
3445.000000	99.053078 
3444.000000	99.052720 
3443.000000	99.055130 
3442.000000	99.058468 
3441.000000	99.060766 
3440.000000	99.061529 
3439.000000	99.061653 
3438.000000	99.061854 
3437.000000	99.061618 
3436.000000	99.060087 
3435.000000	99.057848 
3434.000000	99.056961 
3433.000000	99.059061 
3432.000000	99.063527 
3431.000000	99.067822 
3430.000000	99.069372 
3429.000000	99.067241 
3428.000000	99.062341 
3427.000000	99.056403 
3426.000000	99.051042 
3425.000000	99.047530 
3424.000000	99.046762 
3423.000000	99.048751 
3422.000000	99.052087 
3421.000000	99.054342 
3420.000000	99.053616 
3419.000000	99.050212 
3418.000000	99.046807 
3417.000000	99.046460 
3416.000000	99.049756 
3415.000000	99.053853 
3414.000000	99.054923 
3413.000000	99.051921 
3412.000000	99.047655 
3411.000000	99.046043 
3410.000000	99.048791 
3409.000000	99.054556 
3408.000000	99.060307 
3407.000000	99.063086 
3406.000000	99.061624 
3405.000000	99.057437 
3404.000000	99.054090 
3403.000000	99.054498 
3402.000000	99.058643 
3401.000000	99.064015 
3400.000000	99.067891 
3399.000000	99.069239 
3398.000000	99.069083 
3397.000000	99.069291 
3396.000000	99.070439 
3395.000000	99.070888 
3394.000000	99.068812 
3393.000000	99.065084 
3392.000000	99.062869 
3391.000000	99.063757 
3390.000000	99.065600 
3389.000000	99.065202 
3388.000000	99.062158 
3387.000000	99.058856 
3386.000000	99.057421 
3385.000000	99.057907 
3384.000000	99.059103 
3383.000000	99.059842 
3382.000000	99.059383 
3381.000000	99.057548 
3380.000000	99.054833 
3379.000000	99.052087 
3378.000000	99.050056 
3377.000000	99.049423 
3376.000000	99.050813 
3375.000000	99.054207 
3374.000000	99.058653 
3373.000000	99.063040 
3372.000000	99.066950 
3371.000000	99.070362 
3370.000000	99.072960 
3369.000000	99.074331 
3368.000000	99.074609 
3367.000000	99.074255 
3366.000000	99.073335 
3365.000000	99.071597 
3364.000000	99.069273 
3363.000000	99.067220 
3362.000000	99.066122 
3361.000000	99.065752 
3360.000000	99.065056 
3359.000000	99.062983 
3358.000000	99.059642 
3357.000000	99.056880 
3356.000000	99.057100 
3355.000000	99.060865 
3354.000000	99.066038 
3353.000000	99.069941 
3352.000000	99.071979 
3351.000000	99.073502 
3350.000000	99.075574 
3349.000000	99.077931 
3348.000000	99.080035 
3347.000000	99.081954 
3346.000000	99.083716 
3345.000000	99.084636 
3344.000000	99.083950 
3343.000000	99.081807 
3342.000000	99.079245 
3341.000000	99.077406 
3340.000000	99.076832 
3339.000000	99.077021 
3338.000000	99.076392 
3337.000000	99.073196 
3336.000000	99.067235 
3335.000000	99.060827 
3334.000000	99.057563 
3333.000000	99.059613 
3332.000000	99.065875 
3331.000000	99.072669 
3330.000000	99.076560 
3329.000000	99.077010 
3328.000000	99.076395 
3327.000000	99.077250 
3326.000000	99.079562 
3325.000000	99.081125 
3324.000000	99.080412 
3323.000000	99.078468 
3322.000000	99.077589 
3321.000000	99.078519 
3320.000000	99.079517 
3319.000000	99.078369 
3318.000000	99.075029 
3317.000000	99.071896 
3316.000000	99.071402 
3315.000000	99.073549 
3314.000000	99.076081 
3313.000000	99.077044 
3312.000000	99.076846 
3311.000000	99.077621 
3310.000000	99.080771 
3309.000000	99.085459 
3308.000000	99.089517 
3307.000000	99.091447 
3306.000000	99.091266 
3305.000000	99.089588 
3304.000000	99.086528 
3303.000000	99.082050 
3302.000000	99.077284 
3301.000000	99.074674 
3300.000000	99.076043 
3299.000000	99.080550 
3298.000000	99.085039 
3297.000000	99.086665 
3296.000000	99.085111 
3295.000000	99.082445 
3294.000000	99.081246 
3293.000000	99.082818 
3292.000000	99.086488 
3291.000000	99.090280 
3290.000000	99.092509 
3289.000000	99.092999 
3288.000000	99.092788 
3287.000000	99.092734 
3286.000000	99.092742 
3285.000000	99.092350 
3284.000000	99.091539 
3283.000000	99.090638 
3282.000000	99.089789 
3281.000000	99.088743 
3280.000000	99.087052 
3279.000000	99.084439 
3278.000000	99.081294 
3277.000000	99.078785 
3276.000000	99.078061 
3275.000000	99.079144 
3274.000000	99.080803 
3273.000000	99.081493 
3272.000000	99.080103 
3271.000000	99.076073 
3270.000000	99.069714 
3269.000000	99.062844 
3268.000000	99.058469 
3267.000000	99.059087 
3266.000000	99.065038 
3265.000000	99.074395 
3264.000000	99.084149 
3263.000000	99.091777 
3262.000000	99.096537 
3261.000000	99.099491 
3260.000000	99.101759 
3259.000000	99.102750 
3258.000000	99.100819 
3257.000000	99.095694 
3256.000000	99.089472 
3255.000000	99.084872 
3254.000000	99.083157 
3253.000000	99.084029 
3252.000000	99.086527 
3251.000000	99.089289 
3250.000000	99.090711 
3249.000000	99.089954 
3248.000000	99.087709 
3247.000000	99.085379 
3246.000000	99.083607 
3245.000000	99.082060 
3244.000000	99.080531 
3243.000000	99.079827 
3242.000000	99.081507 
3241.000000	99.086514 
3240.000000	99.093518 
3239.000000	99.098817 
3238.000000	99.099041 
3237.000000	99.094553 
3236.000000	99.089479 
3235.000000	99.087756 
3234.000000	99.089769 
3233.000000	99.093407 
3232.000000	99.097261 
3231.000000	99.101389 
3230.000000	99.105338 
3229.000000	99.107082 
3228.000000	99.104602 
3227.000000	99.097988 
3226.000000	99.089686 
3225.000000	99.083023 
3224.000000	99.080281 
3223.000000	99.081357 
3222.000000	99.084010 
3221.000000	99.085885 
3220.000000	99.086519 
3219.000000	99.087074 
3218.000000	99.088185 
3217.000000	99.088661 
3216.000000	99.086790 
3215.000000	99.082665 
3214.000000	99.078789 
3213.000000	99.078191 
3212.000000	99.081953 
3211.000000	99.088481 
3210.000000	99.094911 
3209.000000	99.099136 
3208.000000	99.100724 
3207.000000	99.100510 
3206.000000	99.099824 
3205.000000	99.099901 
3204.000000	99.101271 
3203.000000	99.103448 
3202.000000	99.105680 
3201.000000	99.108043 
3200.000000	99.111026 
3199.000000	99.113856 
3198.000000	99.114509 
3197.000000	99.112420 
3196.000000	99.110249 
3195.000000	99.111142 
3194.000000	99.114327 
3193.000000	99.115219 
3192.000000	99.110683 
3191.000000	99.102993 
3190.000000	99.097517 
3189.000000	99.097212 
3188.000000	99.100453 
3187.000000	99.103647 
3186.000000	99.104562 
3185.000000	99.103074 
3184.000000	99.100218 
3183.000000	99.097430 
3182.000000	99.095969 
3181.000000	99.096059 
3180.000000	99.096754 
3179.000000	99.097121 
3178.000000	99.097249 
3177.000000	99.097544 
3176.000000	99.097445 
3175.000000	99.095947 
3174.000000	99.093572 
3173.000000	99.092782 
3172.000000	99.095522 
3171.000000	99.100640 
3170.000000	99.104681 
3169.000000	99.105524 
3168.000000	99.104696 
3167.000000	99.105650 
3166.000000	99.109912 
3165.000000	99.115332 
3164.000000	99.118252 
3163.000000	99.117158 
3162.000000	99.114013 
3161.000000	99.112220 
3160.000000	99.113664 
3159.000000	99.117614 
3158.000000	99.121757 
3157.000000	99.123852 
3156.000000	99.122869 
3155.000000	99.119475 
3154.000000	99.115727 
3153.000000	99.113794 
3152.000000	99.114422 
3151.000000	99.116475 
3150.000000	99.118071 
3149.000000	99.118274 
3148.000000	99.117853 
3147.000000	99.118488 
3146.000000	99.121011 
3145.000000	99.124216 
3144.000000	99.125732 
3143.000000	99.124583 
3142.000000	99.122722 
3141.000000	99.123261 
3140.000000	99.126990 
3139.000000	99.131421 
3138.000000	99.133724 
3137.000000	99.133900 
3136.000000	99.134211 
3135.000000	99.135965 
3134.000000	99.137995 
3133.000000	99.138416 
3132.000000	99.136930 
3131.000000	99.134775 
3130.000000	99.132781 
3129.000000	99.130323 
3128.000000	99.126522 
3127.000000	99.122154 
3126.000000	99.119605 
3125.000000	99.120567 
3124.000000	99.124119 
3123.000000	99.127577 
3122.000000	99.129218 
3121.000000	99.129820 
3120.000000	99.131390 
3119.000000	99.134689 
3118.000000	99.138270 
3117.000000	99.139795 
3116.000000	99.138194 
3115.000000	99.134596 
3114.000000	99.131090 
3113.000000	99.128612 
3112.000000	99.126542 
3111.000000	99.124629 
3110.000000	99.124311 
3109.000000	99.126837 
3108.000000	99.130459 
3107.000000	99.131234 
3106.000000	99.127243 
3105.000000	99.120922 
3104.000000	99.116621 
3103.000000	99.116812 
3102.000000	99.121244 
3101.000000	99.128359 
3100.000000	99.135867 
3099.000000	99.140624 
3098.000000	99.140272 
3097.000000	99.135718 
3096.000000	99.130805 
3095.000000	99.128863 
3094.000000	99.130240 
3093.000000	99.133267 
3092.000000	99.136311 
3091.000000	99.138314 
3090.000000	99.138638 
3089.000000	99.137742 
3088.000000	99.137523 
3087.000000	99.139747 
3086.000000	99.144004 
3085.000000	99.147913 
3084.000000	99.149494 
3083.000000	99.148865 
3082.000000	99.147663 
3081.000000	99.147365 
3080.000000	99.148228 
3079.000000	99.149279 
3078.000000	99.148948 
3077.000000	99.146045 
3076.000000	99.140823 
3075.000000	99.135292 
3074.000000	99.132059 
3073.000000	99.132383 
3072.000000	99.135370 
3071.000000	99.139212 
3070.000000	99.142783 
3069.000000	99.145494 
3068.000000	99.145982 
3067.000000	99.142385 
3066.000000	99.134714 
3065.000000	99.126134 
3064.000000	99.120694 
3063.000000	99.119865 
3062.000000	99.122088 
3061.000000	99.125362 
3060.000000	99.129119 
3059.000000	99.133427 
3058.000000	99.137575 
3057.000000	99.140331 
3056.000000	99.141343 
3055.000000	99.141750 
3054.000000	99.143229 
3053.000000	99.146353 
3052.000000	99.149712 
3051.000000	99.150934 
3050.000000	99.148953 
3049.000000	99.145003 
3048.000000	99.140887 
3047.000000	99.136798 
3046.000000	99.131865 
3045.000000	99.126492 
3044.000000	99.122657 
3043.000000	99.121477 
3042.000000	99.121611 
3041.000000	99.120705 
3040.000000	99.117762 
3039.000000	99.113600 
3038.000000	99.109746 
3037.000000	99.107498 
3036.000000	99.107388 
3035.000000	99.108658 
3034.000000	99.109434 
3033.000000	99.107961 
3032.000000	99.103711 
3031.000000	99.097170 
3030.000000	99.088896 
3029.000000	99.079084 
3028.000000	99.067929 
3027.000000	99.056272 
3026.000000	99.045812 
3025.000000	99.038262 
3024.000000	99.033713 
3023.000000	99.029879 
3022.000000	99.023650 
3021.000000	99.013701 
3020.000000	99.001445 
3019.000000	98.989664 
3018.000000	98.980691 
3017.000000	98.975447 
3016.000000	98.972932 
3015.000000	98.970302 
3014.000000	98.964434 
3013.000000	98.954009 
3012.000000	98.939611 
3011.000000	98.921982 
3010.000000	98.901570 
3009.000000	98.880159 
3008.000000	98.861321 
3007.000000	98.847874 
3006.000000	98.839412 
3005.000000	98.833133 
3004.000000	98.826263 
3003.000000	98.816787 
3002.000000	98.803141 
3001.000000	98.785459 
3000.000000	98.767009 
2999.000000	98.752214 
2998.000000	98.742482 
2997.000000	98.735404 
2996.000000	98.728615 
2995.000000	98.722441 
2994.000000	98.716948 
2993.000000	98.708022 
2992.000000	98.689866 
2991.000000	98.662459 
2990.000000	98.634412 
2989.000000	98.616345 
2988.000000	98.611841 
2987.000000	98.616167 
2986.000000	98.622960 
2985.000000	98.629915 
2984.000000	98.637641 
2983.000000	98.645612 
2982.000000	98.651505 
2981.000000	98.653805 
2980.000000	98.653263 
2979.000000	98.651608 
2978.000000	98.650026 
2977.000000	98.649075 
2976.000000	98.648942 
2975.000000	98.649176 
2974.000000	98.648798 
2973.000000	98.647287 
2972.000000	98.645290 
2971.000000	98.644212 
2970.000000	98.645387 
2969.000000	98.649659 
2968.000000	98.657243 
2967.000000	98.667726 
2966.000000	98.680421 
2965.000000	98.694703 
2964.000000	98.709782 
2963.000000	98.724362 
2962.000000	98.736998 
2961.000000	98.746802 
2960.000000	98.753613 
2959.000000	98.758019 
2958.000000	98.761822 
2957.000000	98.767707 
2956.000000	98.776888 
2955.000000	98.786999 
2954.000000	98.793910 
2953.000000	98.796503 
2952.000000	98.798609 
2951.000000	98.805186 
2950.000000	98.817103 
2949.000000	98.830525 
2948.000000	98.840953 
2947.000000	98.846838 
2946.000000	98.849438 
2945.000000	98.850413 
2944.000000	98.850381 
2943.000000	98.849452 
2942.000000	98.848271 
2941.000000	98.847910 
2940.000000	98.848632 
2939.000000	98.849277 
2938.000000	98.848527 
2937.000000	98.846895 
2936.000000	98.847012 
2935.000000	98.851596 
2934.000000	98.861108 
2933.000000	98.873255 
2932.000000	98.884312 
2931.000000	98.890940 
2930.000000	98.891521 
2929.000000	98.886723 
2928.000000	98.879103 
2927.000000	98.871833 
2926.000000	98.867160 
2925.000000	98.865372 
2924.000000	98.865036 
2923.000000	98.864555 
2922.000000	98.863722 
2921.000000	98.863466 
2920.000000	98.863958 
2919.000000	98.863712 
2918.000000	98.861152 
2917.000000	98.856437 
2916.000000	98.850844 
2915.000000	98.844773 
2914.000000	98.837609 
2913.000000	98.829650 
2912.000000	98.822885 
2911.000000	98.819085 
2910.000000	98.817683 
2909.000000	98.816207 
2908.000000	98.812505 
2907.000000	98.806092 
2906.000000	98.797584 
2905.000000	98.787355 
2904.000000	98.775206 
2903.000000	98.761691 
2902.000000	98.749915 
2901.000000	98.744991 
2900.000000	98.750470 
2899.000000	98.764816 
2898.000000	98.781777 
2897.000000	98.795093 
2896.000000	98.802639 
2895.000000	98.806433 
2894.000000	98.809497 
2893.000000	98.813265 
2892.000000	98.817401 
2891.000000	98.821029 
2890.000000	98.823678 
2889.000000	98.825310 
2888.000000	98.825951 
2887.000000	98.825728 
2886.000000	98.825386 
2885.000000	98.826372 
2884.000000	98.829990 
2883.000000	98.836449 
2882.000000	98.844913 
2881.000000	98.854286 
2880.000000	98.863795 
2879.000000	98.873309 
2878.000000	98.883547 
2877.000000	98.895414 
2876.000000	98.908200 
2875.000000	98.918690 
2874.000000	98.923294 
2873.000000	98.921729 
2872.000000	98.918034 
2871.000000	98.917449 
2870.000000	98.922456 
2869.000000	98.931768 
2868.000000	98.942516 
2867.000000	98.952997 
2866.000000	98.963672 
2865.000000	98.975960 
2864.000000	98.990161 
2863.000000	99.004630 
2862.000000	99.017122 
2861.000000	99.026800 
2860.000000	99.034681 
2859.000000	99.042347 
2858.000000	99.050566 
2857.000000	99.058926 
2856.000000	99.066332 
2855.000000	99.072026 
2854.000000	99.076493 
2853.000000	99.080952 
2852.000000	99.085606 
2851.000000	99.089019 
2850.000000	99.090104 
2849.000000	99.090217 
2848.000000	99.092122 
2847.000000	99.097028 
2846.000000	99.103540 
2845.000000	99.109272 
2844.000000	99.112496 
2843.000000	99.112653 
2842.000000	99.110880 
2841.000000	99.110073 
2840.000000	99.112657 
2839.000000	99.117595 
2838.000000	99.120959 
2837.000000	99.120277 
2836.000000	99.117162 
2835.000000	99.115008 
2834.000000	99.115430 
2833.000000	99.118023 
2832.000000	99.122220 
2831.000000	99.127591 
2830.000000	99.132875 
2829.000000	99.136529 
2828.000000	99.138575 
2827.000000	99.140668 
2826.000000	99.143901 
2825.000000	99.147266 
2824.000000	99.148793 
2823.000000	99.147834 
2822.000000	99.145865 
2821.000000	99.145110 
2820.000000	99.146560 
2819.000000	99.149385 
2818.000000	99.152210 
2817.000000	99.154575 
2816.000000	99.156771 
2815.000000	99.158605 
2814.000000	99.159211 
2813.000000	99.158262 
2812.000000	99.156601 
2811.000000	99.155262 
2810.000000	99.154480 
2809.000000	99.154078 
2808.000000	99.154254 
2807.000000	99.155450 
2806.000000	99.157780 
2805.000000	99.161000 
2804.000000	99.164720 
2803.000000	99.168350 
2802.000000	99.171279 
2801.000000	99.173423 
2800.000000	99.175122 
2799.000000	99.176204 
2798.000000	99.175754 
2797.000000	99.173325 
2796.000000	99.169871 
2795.000000	99.166933 
2794.000000	99.165235 
2793.000000	99.164474 
2792.000000	99.164029 
2791.000000	99.163440 
2790.000000	99.162702 
2789.000000	99.162632 
2788.000000	99.164439 
2787.000000	99.168273 
2786.000000	99.172594 
2785.000000	99.175634 
2784.000000	99.177102 
2783.000000	99.177760 
2782.000000	99.177824 
2781.000000	99.176841 
2780.000000	99.175030 
2779.000000	99.173666 
2778.000000	99.173852 
2777.000000	99.175519 
2776.000000	99.177706 
2775.000000	99.179175 
2774.000000	99.178727 
2773.000000	99.175856 
2772.000000	99.171629 
2771.000000	99.168380 
2770.000000	99.167978 
2769.000000	99.170531 
2768.000000	99.174870 
2767.000000	99.179752 
2766.000000	99.184200 
2765.000000	99.187236 
2764.000000	99.188129 
2763.000000	99.187053 
2762.000000	99.185171 
2761.000000	99.183982 
2760.000000	99.184601 
2759.000000	99.187242 
2758.000000	99.190878 
2757.000000	99.193683 
2756.000000	99.194626 
2755.000000	99.194756 
2754.000000	99.196120 
2753.000000	99.198994 
2752.000000	99.200918 
2751.000000	99.199284 
2750.000000	99.194420 
2749.000000	99.189246 
2748.000000	99.186004 
2747.000000	99.184343 
2746.000000	99.182713 
2745.000000	99.180607 
2744.000000	99.178875 
2743.000000	99.178512 
2742.000000	99.179771 
2741.000000	99.182129 
2740.000000	99.184684 
2739.000000	99.186921 
2738.000000	99.189320 
2737.000000	99.192767 
2736.000000	99.197057 
2735.000000	99.200606 
2734.000000	99.202047 
2733.000000	99.201516 
2732.000000	99.199911 
2731.000000	99.197647 
2730.000000	99.194925 
2729.000000	99.192606 
2728.000000	99.191778 
2727.000000	99.192649 
2726.000000	99.194608 
2725.000000	99.197113 
2724.000000	99.199861 
2723.000000	99.202450 
2722.000000	99.204658 
2721.000000	99.206776 
2720.000000	99.208904 
2719.000000	99.210250 
2718.000000	99.209899 
2717.000000	99.208018 
2716.000000	99.205620 
2715.000000	99.203599 
2714.000000	99.202770 
2713.000000	99.204049 
2712.000000	99.207299 
2711.000000	99.210545 
2710.000000	99.211925 
2709.000000	99.212149 
2708.000000	99.213348 
2707.000000	99.215514 
2706.000000	99.216028 
2705.000000	99.213291 
2704.000000	99.209150 
2703.000000	99.206747 
2702.000000	99.207235 
2701.000000	99.209450 
2700.000000	99.211682 
2699.000000	99.212633 
2698.000000	99.211437 
2697.000000	99.208071 
2696.000000	99.203810 
2695.000000	99.200763 
2694.000000	99.200793 
2693.000000	99.204392 
2692.000000	99.209696 
2691.000000	99.212915 
2690.000000	99.211420 
2689.000000	99.207042 
2688.000000	99.204853 
2687.000000	99.207682 
2686.000000	99.212911 
2685.000000	99.215750 
2684.000000	99.214611 
2683.000000	99.211964 
2682.000000	99.210722 
2681.000000	99.211522 
2680.000000	99.213305 
2679.000000	99.214827 
2678.000000	99.215149 
2677.000000	99.213831 
2676.000000	99.211450 
2675.000000	99.209502 
2674.000000	99.209321 
2673.000000	99.211123 
2672.000000	99.213944 
2671.000000	99.216055 
2670.000000	99.215540 
2669.000000	99.211361 
2668.000000	99.204528 
2667.000000	99.198022 
2666.000000	99.194963 
2665.000000	99.196408 
2664.000000	99.200836 
2663.000000	99.205716 
2662.000000	99.209395 
2661.000000	99.211406 
2660.000000	99.211425 
2659.000000	99.208872 
2658.000000	99.204063 
2657.000000	99.199210 
2656.000000	99.197341 
2655.000000	99.199866 
2654.000000	99.205217 
2653.000000	99.209832 
2652.000000	99.210647 
2651.000000	99.207395 
2650.000000	99.203000 
2649.000000	99.201118 
2648.000000	99.202671 
2647.000000	99.205233 
2646.000000	99.206253 
2645.000000	99.205936 
2644.000000	99.206022 
2643.000000	99.206892 
2642.000000	99.207593 
2641.000000	99.208180 
2640.000000	99.210011 
2639.000000	99.213631 
2638.000000	99.217954 
2637.000000	99.221536 
2636.000000	99.223018 
2635.000000	99.220570 
2634.000000	99.213377 
2633.000000	99.204294 
2632.000000	99.198621 
2631.000000	99.198756 
2630.000000	99.201708 
2629.000000	99.203080 
2628.000000	99.201929 
2627.000000	99.200325 
2626.000000	99.199810 
2625.000000	99.200410 
2624.000000	99.202260 
2623.000000	99.206020 
2622.000000	99.211481 
2621.000000	99.216930 
2620.000000	99.220161 
2619.000000	99.219911 
2618.000000	99.216818 
2617.000000	99.213272 
2616.000000	99.211512 
2615.000000	99.211446 
2614.000000	99.211178 
2613.000000	99.209803 
2612.000000	99.208362 
2611.000000	99.207791 
2610.000000	99.207712 
2609.000000	99.208049 
2608.000000	99.209934 
2607.000000	99.213715 
2606.000000	99.217586 
2605.000000	99.219581 
2604.000000	99.219603 
2603.000000	99.218262 
2602.000000	99.215387 
2601.000000	99.211475 
2600.000000	99.209162 
2599.000000	99.211070 
2598.000000	99.216729 
2597.000000	99.223088 
2596.000000	99.227198 
2595.000000	99.227211 
2594.000000	99.222384 
2593.000000	99.214423 
2592.000000	99.207882 
2591.000000	99.206731 
2590.000000	99.210591 
2589.000000	99.215905 
2588.000000	99.220067 
2587.000000	99.222390 
2586.000000	99.221867 
2585.000000	99.216939 
2584.000000	99.208227 
2583.000000	99.199543 
2582.000000	99.195179 
2581.000000	99.196836 
2580.000000	99.202924 
2579.000000	99.209595 
2578.000000	99.212722 
2577.000000	99.210671 
2576.000000	99.205779 
2575.000000	99.202267 
2574.000000	99.202450 
2573.000000	99.205348 
2572.000000	99.208241 
2571.000000	99.208452 
2570.000000	99.204442 
2569.000000	99.197117 
2568.000000	99.190121 
2567.000000	99.187194 
2566.000000	99.188792 
2565.000000	99.192273 
2564.000000	99.195325 
2563.000000	99.197863 
2562.000000	99.200579 
2561.000000	99.203356 
2560.000000	99.205772 
2559.000000	99.207755 
2558.000000	99.208675 
2557.000000	99.206844 
2556.000000	99.201512 
2555.000000	99.195380 
2554.000000	99.193732 
2553.000000	99.199870 
2552.000000	99.211450 
2551.000000	99.222176 
2550.000000	99.227399 
2549.000000	99.227238 
2548.000000	99.223958 
2547.000000	99.218186 
2546.000000	99.209797 
2545.000000	99.201409 
2544.000000	99.197644 
2543.000000	99.200139 
2542.000000	99.205793 
2541.000000	99.210888 
2540.000000	99.214346 
2539.000000	99.215517 
2538.000000	99.211777 
2537.000000	99.201486 
2536.000000	99.187970 
2535.000000	99.177596 
2534.000000	99.174248 
2533.000000	99.177543 
2532.000000	99.185323 
2531.000000	99.195229 
2530.000000	99.204315 
2529.000000	99.210124 
2528.000000	99.212893 
2527.000000	99.215054 
2526.000000	99.218377 
2525.000000	99.223148 
2524.000000	99.229647 
2523.000000	99.237880 
2522.000000	99.245323 
2521.000000	99.247397 
2520.000000	99.241859 
2519.000000	99.231751 
2518.000000	99.223008 
2517.000000	99.219632 
2516.000000	99.221316 
2515.000000	99.224589 
2514.000000	99.225565 
2513.000000	99.222364 
2512.000000	99.215766 
2511.000000	99.207695 
2510.000000	99.199586 
2509.000000	99.192867 
2508.000000	99.190118 
2507.000000	99.193545 
2506.000000	99.201486 
2505.000000	99.207962 
2504.000000	99.207414 
2503.000000	99.199894 
2502.000000	99.190858 
2501.000000	99.186140 
2500.000000	99.187857 
2499.000000	99.194817 
2498.000000	99.205175 
2497.000000	99.217198 
2496.000000	99.228082 
2495.000000	99.234324 
2494.000000	99.234488 
2493.000000	99.230458 
2492.000000	99.224428 
2491.000000	99.215735 
2490.000000	99.202872 
2489.000000	99.188157 
2488.000000	99.177372 
2487.000000	99.173836 
2486.000000	99.175414 
2485.000000	99.178790 
2484.000000	99.184144 
2483.000000	99.192980 
2482.000000	99.203086 
2481.000000	99.209186 
2480.000000	99.208835 
2479.000000	99.205059 
2478.000000	99.202322 
2477.000000	99.201621 
2476.000000	99.200620 
2475.000000	99.197641 
2474.000000	99.194351 
2473.000000	99.194507 
2472.000000	99.200401 
2471.000000	99.210619 
2470.000000	99.221183 
2469.000000	99.228343 
2468.000000	99.229859 
2467.000000	99.224688 
2466.000000	99.213859 
2465.000000	99.202184 
2464.000000	99.196420 
2463.000000	99.199275 
2462.000000	99.205997 
2461.000000	99.208865 
2460.000000	99.204905 
2459.000000	99.197945 
2458.000000	99.193705 
2457.000000	99.194467 
2456.000000	99.198212 
2455.000000	99.201089 
2454.000000	99.200302 
2453.000000	99.195823 
2452.000000	99.190072 
2451.000000	99.185685 
2450.000000	99.183615 
2449.000000	99.183400 
2448.000000	99.184398 
2447.000000	99.186156 
2446.000000	99.188478 
2445.000000	99.192031 
2444.000000	99.197941 
2443.000000	99.205679 
2442.000000	99.212242 
2441.000000	99.214804 
2440.000000	99.213572 
2439.000000	99.210886 
2438.000000	99.208453 
2437.000000	99.206860 
2436.000000	99.206482 
2435.000000	99.206591 
2434.000000	99.204316 
2433.000000	99.197225 
2432.000000	99.187130 
2431.000000	99.179004 
2430.000000	99.175716 
2429.000000	99.176025 
2428.000000	99.178294 
2427.000000	99.183413 
2426.000000	99.192052 
2425.000000	99.200642 
2424.000000	99.202810 
2423.000000	99.195285 
2422.000000	99.181511 
2421.000000	99.169291 
2420.000000	99.165106 
2419.000000	99.170092 
2418.000000	99.180342 
2417.000000	99.190510 
2416.000000	99.197233 
2415.000000	99.199745 
2414.000000	99.198560 
2413.000000	99.194823 
2412.000000	99.190618 
2411.000000	99.188224 
2410.000000	99.188223 
2409.000000	99.189127 
2408.000000	99.189629 
2407.000000	99.190569 
2406.000000	99.193706 
2405.000000	99.198845 
2404.000000	99.203290 
2403.000000	99.204400 
2402.000000	99.201961 
2401.000000	99.197677 
2400.000000	99.193112 
2399.000000	99.189010 
2398.000000	99.186176 
2397.000000	99.185592 
2396.000000	99.187049 
2395.000000	99.188627 
2394.000000	99.188533 
2393.000000	99.187137 
2392.000000	99.186569 
2391.000000	99.188709 
2390.000000	99.194148 
2389.000000	99.202174 
2388.000000	99.210491 
2387.000000	99.215623 
2386.000000	99.215552 
2385.000000	99.212253 
2384.000000	99.210217 
2383.000000	99.212151 
2382.000000	99.217286 
2381.000000	99.223668 
2380.000000	99.229862 
2379.000000	99.233723 
2378.000000	99.232188 
2377.000000	99.224956 
2376.000000	99.217050 
2375.000000	99.214572 
2374.000000	99.218079 
2373.000000	99.222796 
2372.000000	99.225802 
2371.000000	99.229979 
2370.000000	99.239153 
2369.000000	99.251380 
2368.000000	99.258976 
2367.000000	99.254678 
2366.000000	99.237762 
2365.000000	99.216201 
2364.000000	99.202771 
2363.000000	99.205224 
2362.000000	99.219891 
2361.000000	99.236279 
2360.000000	99.246407 
2359.000000	99.249632 
2358.000000	99.249204 
2357.000000	99.247829 
2356.000000	99.247559 
2355.000000	99.248516 
2354.000000	99.247961 
2353.000000	99.243581 
2352.000000	99.238191 
2351.000000	99.236964 
2350.000000	99.239561 
2349.000000	99.241777 
2348.000000	99.241731 
2347.000000	99.241290 
2346.000000	99.241676 
2345.000000	99.240409 
2344.000000	99.236606 
2343.000000	99.233010 
2342.000000	99.232836 
2341.000000	99.235857 
2340.000000	99.238861 
2339.000000	99.240085 
2338.000000	99.239660 
2337.000000	99.238423 
2336.000000	99.237298 
2335.000000	99.237324 
2334.000000	99.238643 
2333.000000	99.239977 
2332.000000	99.239630 
2331.000000	99.236748 
2330.000000	99.230827 
2329.000000	99.223607 
2328.000000	99.218634 
2327.000000	99.218192 
2326.000000	99.220531 
2325.000000	99.220458 
2324.000000	99.215863 
2323.000000	99.210053 
2322.000000	99.209446 
2321.000000	99.216608 
2320.000000	99.227443 
2319.000000	99.235465 
2318.000000	99.237245 
2317.000000	99.234308 
2316.000000	99.229656 
2315.000000	99.225342 
2314.000000	99.222222 
2313.000000	99.221183 
2312.000000	99.222878 
2311.000000	99.227252 
2310.000000	99.233764 
2309.000000	99.241119 
2308.000000	99.246323 
2307.000000	99.245192 
2306.000000	99.236297 
2305.000000	99.223241 
2304.000000	99.211675 
2303.000000	99.203878 
2302.000000	99.198471 
2301.000000	99.194212 
2300.000000	99.191124 
2299.000000	99.187945 
2298.000000	99.182388 
2297.000000	99.175481 
2296.000000	99.172305 
2295.000000	99.175579 
2294.000000	99.180998 
2293.000000	99.181874 
2292.000000	99.177481 
2291.000000	99.173278 
2290.000000	99.173696 
2289.000000	99.177490 
2288.000000	99.180678 
2287.000000	99.181080 
2286.000000	99.179082 
2285.000000	99.175778 
2284.000000	99.171742 
2283.000000	99.166666 
2282.000000	99.159522 
2281.000000	99.149913 
2280.000000	99.139902 
2279.000000	99.133749 
2278.000000	99.134758 
2277.000000	99.141972 
2276.000000	99.150104 
2275.000000	99.153497 
2274.000000	99.150630 
2273.000000	99.144416 
2272.000000	99.137530 
2271.000000	99.128889 
2270.000000	99.117089 
2269.000000	99.106535 
2268.000000	99.106308 
2267.000000	99.121124 
2266.000000	99.145334 
2265.000000	99.167105 
2264.000000	99.177185 
2263.000000	99.173901 
2262.000000	99.163413 
2261.000000	99.156452 
2260.000000	99.160512 
2259.000000	99.171840 
2258.000000	99.177961 
2257.000000	99.171222 
2256.000000	99.157195 
2255.000000	99.146660 
2254.000000	99.142831 
2253.000000	99.141250 
2252.000000	99.139343 
2251.000000	99.139688 
2250.000000	99.144292 
2249.000000	99.151183 
2248.000000	99.157519 
2247.000000	99.161784 
2246.000000	99.162009 
2245.000000	99.155686 
2244.000000	99.143136 
2243.000000	99.128750 
2242.000000	99.117807 
2241.000000	99.113128 
2240.000000	99.114023 
2239.000000	99.116389 
2238.000000	99.114524 
2237.000000	99.105617 
2236.000000	99.092577 
2235.000000	99.080615 
2234.000000	99.071953 
2233.000000	99.066211 
2232.000000	99.064729 
2231.000000	99.071043 
2230.000000	99.086788 
2229.000000	99.109123 
2228.000000	99.131986 
2227.000000	99.148270 
2226.000000	99.152310 
2225.000000	99.143529 
2224.000000	99.127416 
2223.000000	99.110750 
2222.000000	99.097020 
2221.000000	99.088216 
2220.000000	99.087898 
2219.000000	99.098097 
2218.000000	99.114669 
2217.000000	99.130236 
2216.000000	99.141590 
2215.000000	99.150435 
2214.000000	99.157293 
2213.000000	99.158931 
2212.000000	99.152536 
2211.000000	99.139637 
2210.000000	99.125820 
2209.000000	99.118339 
2208.000000	99.121950 
2207.000000	99.133722 
2206.000000	99.143307 
2205.000000	99.141933 
2204.000000	99.130603 
2203.000000	99.117028 
2202.000000	99.106866 
2201.000000	99.101041 
2200.000000	99.097989 
2199.000000	99.093533 
2198.000000	99.081527 
2197.000000	99.061211 
2196.000000	99.042746 
2195.000000	99.039242 
2194.000000	99.053351 
2193.000000	99.075809 
2192.000000	99.095512 
2191.000000	99.106078 
2190.000000	99.105194 
2189.000000	99.095489 
2188.000000	99.085639 
2187.000000	99.083136 
2186.000000	99.085811 
2185.000000	99.086822 
2184.000000	99.086816 
2183.000000	99.092780 
2182.000000	99.105004 
2181.000000	99.115033 
2180.000000	99.118501 
2179.000000	99.120093 
2178.000000	99.122579 
2177.000000	99.120206 
2176.000000	99.107697 
2175.000000	99.088943 
2174.000000	99.072230 
2173.000000	99.062198 
2172.000000	99.059612 
2171.000000	99.063309 
2170.000000	99.069148 
2169.000000	99.072319 
2168.000000	99.073638 
2167.000000	99.078328 
2166.000000	99.086420 
2165.000000	99.090881 
2164.000000	99.088363 
2163.000000	99.084630 
2162.000000	99.085320 
2161.000000	99.088541 
2160.000000	99.090963 
2159.000000	99.093587 
2158.000000	99.096186 
2157.000000	99.094942 
2156.000000	99.091459 
2155.000000	99.094030 
2154.000000	99.104061 
2153.000000	99.110276 
2152.000000	99.103266 
2151.000000	99.089617 
2150.000000	99.084999 
2149.000000	99.097486 
2148.000000	99.122429 
2147.000000	99.148609 
2146.000000	99.163609 
2145.000000	99.158701 
2144.000000	99.136827 
2143.000000	99.113185 
2142.000000	99.101874 
2141.000000	99.103643 
2140.000000	99.110720 
2139.000000	99.119603 
2138.000000	99.131885 
2137.000000	99.145054 
2136.000000	99.151766 
2135.000000	99.150120 
2134.000000	99.147853 
2133.000000	99.152676 
2132.000000	99.161953 
2131.000000	99.165087 
2130.000000	99.154719 
2129.000000	99.134391 
2128.000000	99.115821 
2127.000000	99.108510 
2126.000000	99.111547 
2125.000000	99.116294 
2124.000000	99.117270 
2123.000000	99.117869 
2122.000000	99.123419 
2121.000000	99.131722 
2120.000000	99.135024 
2119.000000	99.130638 
2118.000000	99.124746 
2117.000000	99.124275 
2116.000000	99.128634 
2115.000000	99.132151 
2114.000000	99.132478 
2113.000000	99.133114 
2112.000000	99.137540 
2111.000000	99.143466 
2110.000000	99.144776 
2109.000000	99.138750 
2108.000000	99.129661 
2107.000000	99.124035 
2106.000000	99.122984 
2105.000000	99.120856 
2104.000000	99.111984 
2103.000000	99.097554 
2102.000000	99.084853 
2101.000000	99.080446 
2100.000000	99.084878 
2099.000000	99.093320 
2098.000000	99.100279 
2097.000000	99.103778 
2096.000000	99.105650 
2095.000000	99.107492 
2094.000000	99.106547 
2093.000000	99.097639 
2092.000000	99.080556 
2091.000000	99.063799 
2090.000000	99.058245 
2089.000000	99.066310 
2088.000000	99.079018 
2087.000000	99.085181 
2086.000000	99.082444 
2085.000000	99.078151 
2084.000000	99.080129 
2083.000000	99.088511 
2082.000000	99.097360 
2081.000000	99.102516 
2080.000000	99.105475 
2079.000000	99.109471 
2078.000000	99.114593 
2077.000000	99.118810 
2076.000000	99.122113 
2075.000000	99.126349 
2074.000000	99.131048 
2073.000000	99.132685 
2072.000000	99.129136 
2071.000000	99.122598 
2070.000000	99.116779 
2069.000000	99.113083 
2068.000000	99.111029 
2067.000000	99.110681 
2066.000000	99.112351 
2065.000000	99.114356 
2064.000000	99.113422 
2063.000000	99.108115 
2062.000000	99.100956 
2061.000000	99.096734 
2060.000000	99.098715 
2059.000000	99.106081 
2058.000000	99.114514 
2057.000000	99.119131 
2056.000000	99.117214 
2055.000000	99.108892 
2054.000000	99.096601 
2053.000000	99.084804 
2052.000000	99.078770 
2051.000000	99.081451 
2050.000000	99.090666 
2049.000000	99.099577 
2048.000000	99.101043 
2047.000000	99.092448 
2046.000000	99.077003 
2045.000000	99.061279 
2044.000000	99.050651 
2043.000000	99.045531 
2042.000000	99.042300 
2041.000000	99.038906 
2040.000000	99.038563 
2039.000000	99.045963 
2038.000000	99.060621 
2037.000000	99.076290 
2036.000000	99.086733 
2035.000000	99.089719 
2034.000000	99.085352 
2033.000000	99.074235 
2032.000000	99.059082 
2031.000000	99.045190 
2030.000000	99.036771 
2029.000000	99.033223 
2028.000000	99.030132 
2027.000000	99.024303 
2026.000000	99.017810 
2025.000000	99.017019 
2024.000000	99.025873 
2023.000000	99.039315 
2022.000000	99.045585 
2021.000000	99.037793 
2020.000000	99.022674 
2019.000000	99.014619 
2018.000000	99.020696 
2017.000000	99.033278 
2016.000000	99.038045 
2015.000000	99.027898 
2014.000000	99.008416 
2013.000000	98.992687 
2012.000000	98.991450 
2011.000000	99.005410 
2010.000000	99.025985 
2009.000000	99.044097 
2008.000000	99.058006 
2007.000000	99.070921 
2006.000000	99.082171 
2005.000000	99.085549 
2004.000000	99.077414 
2003.000000	99.062679 
2002.000000	99.050914 
2001.000000	99.047896 
2000.000000	99.051465 
1999.000000	99.054126 
1998.000000	99.050332 
1997.000000	99.042829 
1996.000000	99.040878 
1995.000000	99.050657 
1994.000000	99.068405 
1993.000000	99.083851 
1992.000000	99.089334 
1991.000000	99.084473 
1990.000000	99.073646 
1989.000000	99.063277 
1988.000000	99.060471 
1987.000000	99.068260 
1986.000000	99.080793 
1985.000000	99.087590 
1984.000000	99.084445 
1983.000000	99.077112 
1982.000000	99.072717 
1981.000000	99.070354 
1980.000000	99.062691 
1979.000000	99.045398 
1978.000000	99.023767 
1977.000000	99.009262 
1976.000000	99.007997 
1975.000000	99.014325 
1974.000000	99.019512 
1973.000000	99.025601 
1972.000000	99.044133 
1971.000000	99.077756 
1970.000000	99.109197 
1969.000000	99.116022 
1968.000000	99.095268 
1967.000000	99.066589 
1966.000000	99.049635 
1965.000000	99.046172 
1964.000000	99.047306 
1963.000000	99.048668 
1962.000000	99.052047 
1961.000000	99.057519 
1960.000000	99.061273 
1959.000000	99.061076 
1958.000000	99.059508 
1957.000000	99.060458 
1956.000000	99.064482 
1955.000000	99.068593 
1954.000000	99.069890 
1953.000000	99.068673 
1952.000000	99.067472 
1951.000000	99.067780 
1950.000000	99.068602 
1949.000000	99.068549 
1948.000000	99.068252 
1947.000000	99.068426 
1946.000000	99.066217 
1945.000000	99.056623 
1944.000000	99.038935 
1943.000000	99.020526 
1942.000000	99.011909 
1941.000000	99.016675 
1940.000000	99.028028 
1939.000000	99.036460 
1938.000000	99.039781 
1937.000000	99.044928 
1936.000000	99.058586 
1935.000000	99.076644 
1934.000000	99.087467 
1933.000000	99.086881 
1932.000000	99.084619 
1931.000000	99.092422 
1930.000000	99.108860 
1929.000000	99.121649 
1928.000000	99.123473 
1927.000000	99.118131 
1926.000000	99.112107 
1925.000000	99.106625 
1924.000000	99.100889 
1923.000000	99.097960 
1922.000000	99.101519 
1921.000000	99.109224 
1920.000000	99.113484 
1919.000000	99.107812 
1918.000000	99.092091 
1917.000000	99.074007 
1916.000000	99.063671 
1915.000000	99.064932 
1914.000000	99.073365 
1913.000000	99.081940 
1912.000000	99.087230 
1911.000000	99.090042 
1910.000000	99.090670 
1909.000000	99.088523 
1908.000000	99.086806 
1907.000000	99.090852 
1906.000000	99.100871 
1905.000000	99.109746 
1904.000000	99.110828 
1903.000000	99.105381 
1902.000000	99.099205 
1901.000000	99.096338 
1900.000000	99.097865 
1899.000000	99.102578 
1898.000000	99.107192 
1897.000000	99.108242 
1896.000000	99.106016 
1895.000000	99.104458 
1894.000000	99.105075 
1893.000000	99.105093 
1892.000000	99.103109 
1891.000000	99.101693 
1890.000000	99.102057 
1889.000000	99.100758 
1888.000000	99.095656 
1887.000000	99.090190 
1886.000000	99.088498 
1885.000000	99.090830 
1884.000000	99.095521 
1883.000000	99.101913 
1882.000000	99.108045 
1881.000000	99.109773 
1880.000000	99.106721 
1879.000000	99.105084 
1878.000000	99.111199 
1877.000000	99.124004 
1876.000000	99.136300 
1875.000000	99.142317 
1874.000000	99.140862 
1873.000000	99.133325 
1872.000000	99.122974 
1871.000000	99.114471 
1870.000000	99.110060 
1869.000000	99.106153 
1868.000000	99.099346 
1867.000000	99.093399 
1866.000000	99.092957 
1865.000000	99.096054 
1864.000000	99.096946 
1863.000000	99.092760 
1862.000000	99.085632 
1861.000000	99.079742 
1860.000000	99.078961 
1859.000000	99.085812 
1858.000000	99.098729 
1857.000000	99.111147 
1856.000000	99.117114 
1855.000000	99.117504 
1854.000000	99.117412 
1853.000000	99.118904 
1852.000000	99.120467 
1851.000000	99.120833 
1850.000000	99.121347 
1849.000000	99.124538 
1848.000000	99.130913 
1847.000000	99.137811 
1846.000000	99.140757 
1845.000000	99.137138 
1844.000000	99.130230 
1843.000000	99.127639 
1842.000000	99.131677 
1841.000000	99.137346 
1840.000000	99.139987 
1839.000000	99.138525 
1838.000000	99.134394 
1837.000000	99.129568 
1836.000000	99.126153 
1835.000000	99.126029 
1834.000000	99.128631 
1833.000000	99.131182 
1832.000000	99.131356 
1831.000000	99.128155 
1830.000000	99.122408 
1829.000000	99.117835 
1828.000000	99.117964 
1827.000000	99.122100 
1826.000000	99.126582 
1825.000000	99.127794 
1824.000000	99.125089 
1823.000000	99.121080 
1822.000000	99.117158 
1821.000000	99.112532 
1820.000000	99.108072 
1819.000000	99.107858 
1818.000000	99.114773 
1817.000000	99.124317 
1816.000000	99.128913 
1815.000000	99.127900 
1814.000000	99.126734 
1813.000000	99.128751 
1812.000000	99.131696 
1811.000000	99.133851 
1810.000000	99.137778 
1809.000000	99.143720 
1808.000000	99.147275 
1807.000000	99.145540 
1806.000000	99.140284 
1805.000000	99.134948 
1804.000000	99.132045 
1803.000000	99.132646 
1802.000000	99.134510 
1801.000000	99.132817 
1800.000000	99.125889 
1799.000000	99.119639 
1798.000000	99.120970 
1797.000000	99.128648 
1796.000000	99.136251 
1795.000000	99.140083 
1794.000000	99.140702 
1793.000000	99.138997 
1792.000000	99.134654 
1791.000000	99.130465 
1790.000000	99.129681 
1789.000000	99.130495 
1788.000000	99.130685 
1787.000000	99.132105 
1786.000000	99.137665 
1785.000000	99.145022 
1784.000000	99.148434 
1783.000000	99.146303 
1782.000000	99.140917 
1781.000000	99.135079 
1780.000000	99.129753 
1779.000000	99.125661 
1778.000000	99.124624 
1777.000000	99.127169 
1776.000000	99.131757 
1775.000000	99.135144 
1774.000000	99.135111 
1773.000000	99.132757 
1772.000000	99.130185 
1771.000000	99.128635 
1770.000000	99.128570 
1769.000000	99.129264 
1768.000000	99.129566 
1767.000000	99.128668 
1766.000000	99.126974 
1765.000000	99.125788 
1764.000000	99.125366 
1763.000000	99.125080 
1762.000000	99.124917 
1761.000000	99.126599 
1760.000000	99.130085 
1759.000000	99.133488 
1758.000000	99.136884 
1757.000000	99.142603 
1756.000000	99.150832 
1755.000000	99.156998 
1754.000000	99.158166 
1753.000000	99.157803 
1752.000000	99.160802 
1751.000000	99.163947 
1750.000000	99.159905 
1749.000000	99.149429 
1748.000000	99.140920 
1747.000000	99.139510 
1746.000000	99.142968 
1745.000000	99.148074 
1744.000000	99.152658 
1743.000000	99.154164 
1742.000000	99.151479 
1741.000000	99.147008 
1740.000000	99.144704 
1739.000000	99.146569 
1738.000000	99.150618 
1737.000000	99.153657 
1736.000000	99.155759 
1735.000000	99.161169 
1734.000000	99.167058 
1733.000000	99.166779 
1732.000000	99.161487 
1731.000000	99.154131 
1730.000000	99.147120 
1729.000000	99.142495 
1728.000000	99.140892 
1727.000000	99.141890 
1726.000000	99.144772 
1725.000000	99.149544 
1724.000000	99.154467 
1723.000000	99.157559 
1722.000000	99.158751 
1721.000000	99.158889 
1720.000000	99.159409 
1719.000000	99.162949 
1718.000000	99.169178 
1717.000000	99.169717 
1716.000000	99.160351 
1715.000000	99.149942 
1714.000000	99.146438 
1713.000000	99.147198 
1712.000000	99.146101 
1711.000000	99.143089 
1710.000000	99.142308 
1709.000000	99.144390 
1708.000000	99.145816 
1707.000000	99.144612 
1706.000000	99.142860 
1705.000000	99.140780 
1704.000000	99.137087 
1703.000000	99.133502 
1702.000000	99.135530 
1701.000000	99.146410 
1700.000000	99.154271 
1699.000000	99.153883 
1698.000000	99.154167 
1697.000000	99.155597 
1696.000000	99.154354 
1695.000000	99.150952 
1694.000000	99.148484 
1693.000000	99.146628 
1692.000000	99.143680 
1691.000000	99.141674 
1690.000000	99.141910 
1689.000000	99.142761 
1688.000000	99.142749 
1687.000000	99.141440 
1686.000000	99.141217 
1685.000000	99.144067 
1684.000000	99.144624 
1683.000000	99.143193 
1682.000000	99.142561 
1681.000000	99.140756 
1680.000000	99.140307 
1679.000000	99.142210 
1678.000000	99.142692 
1677.000000	99.140059 
1676.000000	99.137776 
1675.000000	99.138389 
1674.000000	99.139647 
1673.000000	99.140357 
1672.000000	99.141396 
1671.000000	99.144605 
1670.000000	99.147698 
1669.000000	99.146538 
1668.000000	99.143943 
1667.000000	99.142981 
1666.000000	99.142654 
1665.000000	99.142316 
1664.000000	99.143026 
1663.000000	99.145339 
1662.000000	99.146160 
1661.000000	99.143976 
1660.000000	99.142418 
1659.000000	99.144545 
1658.000000	99.148686 
1657.000000	99.150728 
1656.000000	99.149571 
1655.000000	99.146581 
1654.000000	99.145701 
1653.000000	99.142364 
1652.000000	99.140069 
1651.000000	99.144461 
1650.000000	99.147426 
1649.000000	99.147578 
1648.000000	99.148119 
1647.000000	99.147766 
1646.000000	99.146858 
1645.000000	99.148914 
1644.000000	99.153761 
1643.000000	99.159045 
1642.000000	99.162623 
1641.000000	99.162888 
1640.000000	99.159947 
1639.000000	99.155391 
1638.000000	99.151460 
1637.000000	99.150800 
1636.000000	99.153442 
1635.000000	99.155392 
1634.000000	99.154982 
1633.000000	99.152126 
1632.000000	99.146911 
1631.000000	99.141470 
1630.000000	99.137058 
1629.000000	99.134002 
1628.000000	99.133517 
1627.000000	99.136010 
1626.000000	99.138489 
1625.000000	99.138293 
1624.000000	99.137198 
1623.000000	99.138508 
1622.000000	99.141904 
1621.000000	99.144826 
1620.000000	99.146395 
1619.000000	99.146893 
1618.000000	99.146581 
1617.000000	99.145027 
1616.000000	99.145547 
1615.000000	99.151009 
1614.000000	99.156991 
1613.000000	99.159708 
1612.000000	99.161530 
1611.000000	99.164907 
1610.000000	99.166859 
1609.000000	99.164321 
1608.000000	99.160288 
1607.000000	99.158816 
1606.000000	99.158505 
1605.000000	99.157466 
1604.000000	99.157848 
1603.000000	99.160883 
1602.000000	99.164103 
1601.000000	99.165828 
1600.000000	99.168178 
1599.000000	99.172671 
1598.000000	99.177113 
1597.000000	99.179132 
1596.000000	99.179118 
1595.000000	99.178031 
1594.000000	99.175093 
1593.000000	99.170656 
1592.000000	99.168264 
1591.000000	99.170512 
1590.000000	99.175084 
1589.000000	99.178370 
1588.000000	99.180554 
1587.000000	99.183747 
1586.000000	99.187304 
1585.000000	99.188988 
1584.000000	99.189851 
1583.000000	99.191287 
1582.000000	99.191100 
1581.000000	99.187567 
1580.000000	99.183076 
1579.000000	99.179785 
1578.000000	99.176802 
1577.000000	99.173441 
1576.000000	99.171122 
1575.000000	99.171639 
1574.000000	99.172525 
1573.000000	99.171356 
1572.000000	99.170302 
1571.000000	99.172718 
1570.000000	99.176254 
1569.000000	99.176936 
1568.000000	99.177475 
1567.000000	99.178986 
1566.000000	99.178913 
1565.000000	99.176620 
1564.000000	99.174683 
1563.000000	99.171842 
1562.000000	99.165851 
1561.000000	99.156023 
1560.000000	99.154509 
1559.000000	99.157868 
1558.000000	99.157468 
1557.000000	99.160652 
1556.000000	99.166566 
1555.000000	99.172885 
1554.000000	99.177696 
1553.000000	99.178727 
1552.000000	99.177117 
1551.000000	99.174944 
1550.000000	99.174548 
1549.000000	99.176300 
1548.000000	99.179239 
1547.000000	99.181524 
1546.000000	99.180252 
1545.000000	99.173329 
1544.000000	99.163108 
1543.000000	99.156548 
1542.000000	99.159131 
1541.000000	99.167758 
1540.000000	99.171334 
1539.000000	99.169827 
1538.000000	99.170551 
1537.000000	99.172669 
1536.000000	99.174597 
1535.000000	99.178410 
1534.000000	99.182023 
1533.000000	99.180164 
1532.000000	99.174161 
1531.000000	99.170187 
1530.000000	99.170464 
1529.000000	99.172107 
1528.000000	99.171485 
1527.000000	99.169232 
1526.000000	99.168604 
1525.000000	99.170261 
1524.000000	99.172430 
1523.000000	99.175676 
1522.000000	99.181521 
1521.000000	99.186114 
1520.000000	99.184838 
1519.000000	99.177662 
1518.000000	99.167790 
1517.000000	99.159714 
1516.000000	99.155775 
1515.000000	99.155182 
1514.000000	99.156286 
1513.000000	99.158913 
1512.000000	99.161896 
1511.000000	99.162481 
1510.000000	99.160857 
1509.000000	99.159135 
1508.000000	99.159927 
1507.000000	99.161043 
1506.000000	99.161393 
1505.000000	99.161521 
1504.000000	99.160180 
1503.000000	99.158034 
1502.000000	99.157293 
1501.000000	99.157584 
1500.000000	99.155609 
1499.000000	99.149416 
1498.000000	99.142743 
1497.000000	99.140310 
1496.000000	99.140759 
1495.000000	99.142855 
1494.000000	99.148280 
1493.000000	99.156890 
1492.000000	99.165594 
1491.000000	99.170163 
1490.000000	99.167894 
1489.000000	99.159931 
1488.000000	99.149856 
1487.000000	99.142952 
1486.000000	99.141488 
1485.000000	99.141469 
1484.000000	99.139967 
1483.000000	99.137899 
1482.000000	99.137876 
1481.000000	99.140127 
1480.000000	99.142320 
1479.000000	99.143477 
1478.000000	99.144346 
1477.000000	99.144432 
1476.000000	99.142574 
1475.000000	99.141558 
1474.000000	99.144618 
1473.000000	99.148794 
1472.000000	99.148348 
1471.000000	99.144896 
1470.000000	99.143494 
1469.000000	99.144104 
1468.000000	99.143899 
1467.000000	99.142142 
1466.000000	99.140808 
1465.000000	99.141603 
1464.000000	99.144410 
1463.000000	99.147493 
1462.000000	99.149451 
1461.000000	99.149399 
1460.000000	99.147309 
1459.000000	99.143385 
1458.000000	99.138089 
1457.000000	99.130122 
1456.000000	99.119900 
1455.000000	99.110349 
1454.000000	99.103587 
1453.000000	99.102204 
1452.000000	99.106206 
1451.000000	99.111457 
1450.000000	99.114731 
1449.000000	99.116159 
1448.000000	99.116498 
1447.000000	99.117014 
1446.000000	99.118931 
1445.000000	99.123155 
1444.000000	99.128723 
1443.000000	99.132392 
1442.000000	99.132615 
1441.000000	99.131234 
1440.000000	99.130915 
1439.000000	99.132122 
1438.000000	99.135485 
1437.000000	99.139926 
1436.000000	99.140787 
1435.000000	99.136041 
1434.000000	99.129223 
1433.000000	99.123844 
1432.000000	99.120703 
1431.000000	99.118052 
1430.000000	99.115116 
1429.000000	99.113388 
1428.000000	99.112280 
1427.000000	99.109700 
1426.000000	99.104816 
1425.000000	99.100293 
1424.000000	99.098080 
1423.000000	99.095106 
1422.000000	99.088727 
1421.000000	99.080853 
1420.000000	99.074561 
1419.000000	99.067676 
1418.000000	99.058287 
1417.000000	99.048251 
1416.000000	99.037046 
1415.000000	99.023144 
1414.000000	99.007446 
1413.000000	98.993117 
1412.000000	98.982452 
1411.000000	98.974023 
1410.000000	98.965673 
1409.000000	98.957273 
1408.000000	98.949412 
1407.000000	98.943402 
1406.000000	98.940977 
1405.000000	98.944059 
1404.000000	98.952629 
1403.000000	98.963557 
1402.000000	98.975055 
1401.000000	98.988509 
1400.000000	99.004391 
1399.000000	99.017196 
1398.000000	99.018367 
1397.000000	99.002721 
1396.000000	98.971540 
1395.000000	98.936814 
1394.000000	98.918947 
1393.000000	98.930050 
1392.000000	98.961487 
1391.000000	98.994286 
1390.000000	99.015496 
1389.000000	99.023310 
1388.000000	99.022075 
1387.000000	99.015946 
1386.000000	99.008082 
1385.000000	99.002030 
1384.000000	98.999834 
1383.000000	98.999650 
1382.000000	98.998406 
1381.000000	98.996136 
1380.000000	98.996250 
1379.000000	99.000923 
1378.000000	99.008255 
1377.000000	99.015200 
1376.000000	99.021223 
1375.000000	99.027803 
1374.000000	99.036097 
1373.000000	99.046649 
1372.000000	99.058714 
1371.000000	99.070021 
1370.000000	99.077998 
1369.000000	99.082605 
1368.000000	99.086293 
1367.000000	99.090324 
1366.000000	99.094216 
1365.000000	99.098510 
1364.000000	99.105106 
1363.000000	99.113768 
1362.000000	99.120916 
1361.000000	99.124134 
1360.000000	99.125431 
1359.000000	99.128323 
1358.000000	99.133883 
1357.000000	99.140675 
1356.000000	99.146707 
1355.000000	99.150695 
1354.000000	99.152897 
1353.000000	99.154964 
1352.000000	99.157810 
1351.000000	99.160501 
1350.000000	99.160961 
1349.000000	99.159543 
1348.000000	99.159265 
1347.000000	99.161341 
1346.000000	99.163578 
1345.000000	99.163851 
1344.000000	99.162754 
1343.000000	99.161746 
1342.000000	99.161176 
1341.000000	99.161439 
1340.000000	99.163842 
1339.000000	99.168354 
1338.000000	99.172616 
1337.000000	99.174995 
1336.000000	99.176223 
1335.000000	99.177027 
1334.000000	99.176699 
1333.000000	99.175218 
1332.000000	99.174560 
1331.000000	99.176034 
1330.000000	99.177941 
1329.000000	99.177989 
1328.000000	99.176451 
1327.000000	99.175042 
1326.000000	99.173880 
1325.000000	99.172195 
1324.000000	99.170520 
1323.000000	99.170087 
1322.000000	99.171276 
1321.000000	99.174001 
1320.000000	99.178524 
1319.000000	99.184265 
1318.000000	99.188764 
1317.000000	99.189418 
1316.000000	99.185966 
1315.000000	99.180431 
1314.000000	99.175294 
1313.000000	99.172164 
1312.000000	99.171277 
1311.000000	99.171588 
1310.000000	99.171807 
1309.000000	99.171651 
1308.000000	99.171516 
1307.000000	99.171249 
1306.000000	99.170145 
1305.000000	99.168691 
1304.000000	99.168553 
1303.000000	99.170212 
1302.000000	99.172042 
1301.000000	99.172391 
1300.000000	99.171484 
1299.000000	99.170696 
1298.000000	99.171121 
1297.000000	99.173177 
1296.000000	99.176454 
1295.000000	99.179330 
1294.000000	99.179965 
1293.000000	99.178190 
1292.000000	99.175356 
1291.000000	99.172300 
1290.000000	99.168951 
1289.000000	99.166006 
1288.000000	99.164954 
1287.000000	99.165590 
1286.000000	99.165453 
1285.000000	99.162887 
1284.000000	99.158955 
1283.000000	99.155230 
1282.000000	99.151418 
1281.000000	99.146575 
1280.000000	99.141369 
1279.000000	99.137278 
1278.000000	99.134544 
1277.000000	99.132465 
1276.000000	99.130826 
1275.000000	99.129458 
1274.000000	99.127219 
1273.000000	99.123167 
1272.000000	99.118152 
1271.000000	99.113646 
1270.000000	99.109384 
1269.000000	99.103754 
1268.000000	99.096256 
1267.000000	99.087984 
1266.000000	99.079928 
1265.000000	99.072146 
1264.000000	99.064492 
1263.000000	99.056947 
1262.000000	99.049212 
1261.000000	99.041189 
1260.000000	99.034043 
1259.000000	99.029420 
1258.000000	99.027383 
1257.000000	99.026208 
1256.000000	99.024460 
1255.000000	99.022378 
1254.000000	99.020867 
1253.000000	99.020011 
1252.000000	99.019311 
1251.000000	99.018910 
1250.000000	99.019757 
1249.000000	99.022608 
1248.000000	99.027340 
1247.000000	99.032938 
1246.000000	99.037199 
1245.000000	99.036305 
1244.000000	99.026622 
1243.000000	99.009457 
1242.000000	98.993513 
1241.000000	98.989170 
1240.000000	98.998541 
1239.000000	99.012835 
1238.000000	99.021161 
1237.000000	99.020558 
1236.000000	99.015677 
1235.000000	99.010962 
1234.000000	99.006743 
1233.000000	99.002095 
1232.000000	98.997305 
1231.000000	98.992446 
1230.000000	98.986713 
1229.000000	98.980824 
1228.000000	98.977753 
1227.000000	98.979310 
1226.000000	98.983451 
1225.000000	98.986546 
1224.000000	98.987191 
1223.000000	98.986607 
1222.000000	98.986527 
1221.000000	98.988057 
1220.000000	98.991665 
1219.000000	98.996850 
1218.000000	99.002093 
1217.000000	99.005905 
1216.000000	99.007628 
1215.000000	99.007197 
1214.000000	99.004990 
1213.000000	99.001895 
1212.000000	98.998381 
1211.000000	98.993733 
1210.000000	98.987750 
1209.000000	98.982939 
1208.000000	98.982711 
1207.000000	98.986846 
1206.000000	98.990896 
1205.000000	98.991121 
1204.000000	98.988005 
1203.000000	98.983818 
1202.000000	98.979000 
1201.000000	98.972863 
1200.000000	98.966240 
1199.000000	98.961096 
1198.000000	98.958065 
1197.000000	98.955922 
1196.000000	98.952997 
1195.000000	98.948083 
1194.000000	98.940738 
1193.000000	98.931918 
1192.000000	98.923622 
1191.000000	98.916781 
1190.000000	98.910163 
1189.000000	98.902274 
1188.000000	98.893610 
1187.000000	98.886054 
1186.000000	98.880773 
1185.000000	98.877467 
1184.000000	98.874820 
1183.000000	98.870933 
1182.000000	98.864502 
1181.000000	98.856539 
1180.000000	98.849767 
1179.000000	98.845186 
1178.000000	98.840499 
1177.000000	98.833211 
1176.000000	98.823898 
1175.000000	98.814687 
1174.000000	98.805644 
1173.000000	98.794917 
1172.000000	98.782129 
1171.000000	98.769584 
1170.000000	98.759750 
1169.000000	98.752690 
1168.000000	98.746180 
1167.000000	98.737805 
1166.000000	98.727360 
1165.000000	98.717839 
1164.000000	98.713388 
1163.000000	98.715588 
1162.000000	98.722384 
1161.000000	98.731050 
1160.000000	98.740628 
1159.000000	98.750237 
1158.000000	98.756684 
1157.000000	98.755934 
1156.000000	98.746609 
1155.000000	98.731105 
1154.000000	98.714145 
1153.000000	98.700864 
1152.000000	98.694391 
1151.000000	98.693176 
1150.000000	98.691688 
1149.000000	98.685827 
1148.000000	98.677008 
1147.000000	98.669227 
1146.000000	98.663138 
1145.000000	98.655316 
1144.000000	98.643004 
1143.000000	98.627396 
1142.000000	98.612294 
1141.000000	98.601328 
1140.000000	98.596326 
1139.000000	98.596161 
1138.000000	98.596586 
1137.000000	98.592972 
1136.000000	98.584125 
1135.000000	98.572772 
1134.000000	98.562038 
1133.000000	98.552152 
1132.000000	98.540835 
1131.000000	98.526556 
1130.000000	98.511298 
1129.000000	98.499712 
1128.000000	98.494364 
1127.000000	98.491752 
1126.000000	98.484973 
1125.000000	98.471436 
1124.000000	98.455977 
1123.000000	98.444735 
1122.000000	98.437832 
1121.000000	98.430398 
1120.000000	98.419298 
1119.000000	98.405882 
1118.000000	98.392768 
1117.000000	98.380794 
1116.000000	98.369277 
1115.000000	98.357067 
1114.000000	98.343157 
1113.000000	98.327962 
1112.000000	98.313716 
1111.000000	98.301679 
1110.000000	98.289356 
1109.000000	98.272999 
1108.000000	98.252788 
1107.000000	98.233266 
1106.000000	98.218007 
1105.000000	98.205735 
1104.000000	98.192567 
1103.000000	98.176681 
1102.000000	98.159960 
1101.000000	98.146085 
1100.000000	98.137019 
1099.000000	98.131564 
1098.000000	98.127065 
1097.000000	98.122727 
1096.000000	98.119733 
1095.000000	98.117029 
1094.000000	98.109353 
1093.000000	98.091654 
1092.000000	98.064100 
1091.000000	98.030616 
1090.000000	97.994208 
1089.000000	97.956591 
1088.000000	97.920968 
1087.000000	97.890980 
1086.000000	97.866500 
1085.000000	97.843770 
1084.000000	97.820354 
1083.000000	97.797196 
1082.000000	97.775448 
1081.000000	97.754257 
1080.000000	97.732631 
1079.000000	97.710987 
1078.000000	97.690076 
1077.000000	97.670604 
1076.000000	97.654606 
1075.000000	97.645064 
1074.000000	97.643420 
1073.000000	97.648647 
1072.000000	97.657475 
1071.000000	97.662524 
1070.000000	97.652014 
1069.000000	97.617729 
1068.000000	97.566227 
1067.000000	97.518724 
1066.000000	97.495611 
1065.000000	97.500731 
1064.000000	97.521344 
1063.000000	97.540247 
1062.000000	97.545605 
1061.000000	97.532840 
1060.000000	97.503595 
1059.000000	97.465645 
1058.000000	97.430898 
1057.000000	97.408972 
1056.000000	97.400908 
1055.000000	97.399636 
1054.000000	97.397226 
1053.000000	97.391542 
1052.000000	97.385497 
1051.000000	97.381033 
1050.000000	97.376124 
1049.000000	97.367843 
1048.000000	97.355849 
1047.000000	97.342286 
1046.000000	97.330587 
1045.000000	97.324567 
1044.000000	97.325772 
1043.000000	97.330820 
1042.000000	97.334054 
1041.000000	97.333971 
1040.000000	97.334391 
1039.000000	97.338609 
1038.000000	97.346041 
1037.000000	97.356189 
1036.000000	97.371568 
1035.000000	97.393572 
1034.000000	97.418522 
1033.000000	97.440544 
1032.000000	97.455216 
1031.000000	97.458529 
1030.000000	97.447968 
1029.000000	97.429713 
1028.000000	97.420220 
1027.000000	97.432929 
1026.000000	97.463649 
1025.000000	97.494545 
1024.000000	97.512053 
1023.000000	97.516277 
1022.000000	97.514669 
1021.000000	97.513167 
1020.000000	97.514497 
1019.000000	97.519315 
1018.000000	97.525833 
1017.000000	97.531074 
1016.000000	97.534405 
1015.000000	97.538140 
1014.000000	97.544268 
1013.000000	97.552627 
1012.000000	97.562234 
1011.000000	97.571964 
1010.000000	97.580061 
1009.000000	97.585650 
1008.000000	97.590837 
1007.000000	97.598800 
1006.000000	97.609687 
1005.000000	97.620747 
1004.000000	97.630465 
1003.000000	97.640166 
1002.000000	97.651471 
1001.000000	97.664315 
1000.000000	97.677444 
999.000000	 97.688865 
998.000000	 97.696335 
997.000000	 97.699882 
996.000000	 97.703630 
995.000000	 97.712544 
994.000000	 97.727010 
993.000000	 97.742590 
992.000000	 97.755102 
991.000000	 97.763928 
990.000000	 97.770565 
989.000000	 97.776290 
988.000000	 97.781799 
987.000000	 97.787607 
986.000000	 97.794338 
985.000000	 97.803233 
984.000000	 97.815523 
983.000000	 97.830180 
982.000000	 97.843527 
981.000000	 97.852924 
980.000000	 97.860018 
979.000000	 97.868964 
978.000000	 97.882504 
977.000000	 97.900926 
976.000000	 97.922765 
975.000000	 97.944437 
974.000000	 97.961530 
973.000000	 97.973582 
972.000000	 97.985992 
971.000000	 98.004079 
970.000000	 98.026478 
969.000000	 98.047420 
968.000000	 98.064208 
967.000000	 98.078928 
966.000000	 98.093803 
965.000000	 98.108769 
964.000000	 98.123599 
963.000000	 98.139022 
962.000000	 98.155252 
961.000000	 98.171867 
960.000000	 98.188978 
959.000000	 98.206116 
958.000000	 98.220595 
957.000000	 98.230006 
956.000000	 98.236156 
955.000000	 98.243687 
954.000000	 98.254747 
953.000000	 98.267545 
952.000000	 98.279911 
951.000000	 98.291199 
950.000000	 98.300532 
949.000000	 98.306335 
948.000000	 98.308565 
947.000000	 98.309177 
946.000000	 98.309583 
945.000000	 98.309424 
944.000000	 98.308411 
943.000000	 98.307854 
942.000000	 98.309901 
941.000000	 98.315955 
940.000000	 98.325167 
939.000000	 98.333533 
938.000000	 98.336284 
937.000000	 98.333416 
936.000000	 98.331263 
935.000000	 98.335772 
934.000000	 98.345387 
933.000000	 98.353816 
932.000000	 98.358833 
931.000000	 98.364375 
930.000000	 98.373739 
929.000000	 98.384369 
928.000000	 98.390560 
927.000000	 98.389086 
926.000000	 98.381697 
925.000000	 98.374158 
924.000000	 98.372966 
923.000000	 98.380573 
922.000000	 98.392961 
921.000000	 98.403245 
920.000000	 98.407631 
919.000000	 98.406765 
918.000000	 98.402780 
917.000000	 98.397645 
916.000000	 98.393492 
915.000000	 98.391426 
914.000000	 98.389820 
913.000000	 98.386205 
912.000000	 98.380945 
911.000000	 98.377088 
910.000000	 98.377176 
909.000000	 98.382311 
908.000000	 98.393110 
907.000000	 98.408311 
906.000000	 98.423034 
905.000000	 98.431999 
904.000000	 98.434933 
903.000000	 98.436644 
902.000000	 98.442147 
901.000000	 98.453484 
900.000000	 98.469532 
899.000000	 98.485629 
898.000000	 98.494689 
897.000000	 98.493027 
896.000000	 98.484946 
895.000000	 98.478487 
894.000000	 98.477446 
893.000000	 98.480923 
892.000000	 98.489199 
891.000000	 98.504595 
890.000000	 98.525983 
889.000000	 98.547174 
888.000000	 98.562233 
887.000000	 98.569567 
886.000000	 98.570934 
885.000000	 98.570163 
884.000000	 98.572703 
883.000000	 98.581709 
882.000000	 98.593355 
881.000000	 98.600200 
880.000000	 98.600608 
879.000000	 98.600997 
878.000000	 98.607565 
877.000000	 98.619822 
876.000000	 98.633688 
875.000000	 98.646376 
874.000000	 98.656109 
873.000000	 98.661306 
872.000000	 98.662776 
871.000000	 98.663763 
870.000000	 98.666059 
869.000000	 98.669197 
868.000000	 98.674658 
867.000000	 98.686395 
866.000000	 98.704538 
865.000000	 98.722678 
864.000000	 98.735056 
863.000000	 98.743540 
862.000000	 98.753540 
861.000000	 98.765243 
860.000000	 98.773647 
859.000000	 98.776618 
858.000000	 98.778053 
857.000000	 98.781958 
856.000000	 98.787447 
855.000000	 98.792129 
854.000000	 98.797431 
853.000000	 98.806710 
852.000000	 98.818965 
851.000000	 98.828436 
850.000000	 98.831756 
849.000000	 98.832499 
848.000000	 98.836258 
847.000000	 98.843310 
846.000000	 98.849137 
845.000000	 98.850972 
844.000000	 98.850300 
843.000000	 98.849265 
842.000000	 98.848421 
841.000000	 98.848478 
840.000000	 98.850302 
839.000000	 98.851916 
838.000000	 98.849283 
837.000000	 98.842076 
836.000000	 98.835397 
835.000000	 98.833459 
834.000000	 98.834537 
833.000000	 98.834541 
832.000000	 98.832280 
831.000000	 98.828130 
830.000000	 98.821127 
829.000000	 98.812070 
828.000000	 98.807233 
827.000000	 98.813386 
826.000000	 98.829088 
825.000000	 98.844961 
824.000000	 98.852337 
823.000000	 98.848796 
822.000000	 98.837579 
821.000000	 98.825666 
820.000000	 98.820549 
819.000000	 98.824841 
818.000000	 98.834627 
817.000000	 98.844852 
816.000000	 98.853529 
815.000000	 98.858435 
814.000000	 98.854322 
813.000000	 98.838681 
812.000000	 98.817423 
811.000000	 98.798831 
810.000000	 98.782825 
809.000000	 98.761530 
808.000000	 98.729880 
807.000000	 98.690578 
806.000000	 98.648935 
805.000000	 98.608238 
804.000000	 98.571115 
803.000000	 98.540440 
802.000000	 98.516798 
801.000000	 98.498126 
800.000000	 98.483061 
799.000000	 98.472421 
798.000000	 98.467390 
797.000000	 98.468483 
796.000000	 98.475347 
795.000000	 98.485250 
794.000000	 98.493532 
793.000000	 98.498537 
792.000000	 98.503993 
791.000000	 98.513130 
790.000000	 98.522824 
789.000000	 98.527446 
788.000000	 98.525691 
787.000000	 98.518843 
786.000000	 98.505013 
785.000000	 98.481203 
784.000000	 98.450384 
783.000000	 98.421492 
782.000000	 98.402333 
781.000000	 98.395324 
780.000000	 98.397710 
779.000000	 98.401721 
778.000000	 98.397937 
777.000000	 98.384874 
776.000000	 98.373219 
775.000000	 98.374479 
774.000000	 98.387306 
773.000000	 98.401302 
772.000000	 98.411992 
771.000000	 98.424173 
770.000000	 98.441520 
769.000000	 98.460697 
768.000000	 98.476242 
767.000000	 98.485160 
766.000000	 98.487202 
765.000000	 98.486760 
764.000000	 98.492995 
763.000000	 98.510301 
762.000000	 98.529003 
761.000000	 98.533860 
760.000000	 98.522897 
759.000000	 98.510468 
758.000000	 98.510266 
757.000000	 98.521825 
756.000000	 98.534561 
755.000000	 98.538003 
754.000000	 98.527289 
753.000000	 98.506482 
752.000000	 98.489092 
751.000000	 98.489102 
750.000000	 98.508183 
749.000000	 98.535300 
748.000000	 98.558952 
747.000000	 98.574791 
746.000000	 98.582573 
745.000000	 98.583665 
744.000000	 98.582912 
743.000000	 98.585979 
742.000000	 98.592805 
741.000000	 98.599245 
740.000000	 98.605423 
739.000000	 98.615680 
738.000000	 98.629572 
737.000000	 98.639892 
736.000000	 98.640897 
735.000000	 98.632920 
734.000000	 98.619623 
733.000000	 98.607839 
732.000000	 98.608610 
731.000000	 98.627966 
730.000000	 98.655347 
729.000000	 98.671638 
728.000000	 98.670990 
727.000000	 98.664918 
726.000000	 98.662987 
725.000000	 98.660552 
724.000000	 98.650245 
723.000000	 98.635385 
722.000000	 98.625448 
721.000000	 98.625932 
720.000000	 98.638185 
719.000000	 98.661336 
718.000000	 98.687962 
717.000000	 98.704600 
716.000000	 98.703374 
715.000000	 98.689540 
714.000000	 98.674246 
713.000000	 98.665190 
712.000000	 98.667203 
711.000000	 98.683316 
710.000000	 98.708180 
709.000000	 98.726906 
708.000000	 98.727962 
707.000000	 98.713724 
706.000000	 98.693858 
705.000000	 98.673376 
704.000000	 98.653409 
703.000000	 98.639109 
702.000000	 98.637479 
701.000000	 98.647165 
700.000000	 98.656172 
699.000000	 98.651074 
698.000000	 98.628605 
697.000000	 98.599245 
696.000000	 98.578160 
695.000000	 98.570524 
694.000000	 98.567484 
693.000000	 98.561005 
692.000000	 98.558592 
691.000000	 98.573438 
690.000000	 98.602771 
689.000000	 98.627992 
688.000000	 98.637364 
687.000000	 98.636427 
686.000000	 98.632200 
685.000000	 98.622147 
684.000000	 98.605209 
683.000000	 98.589229 
682.000000	 98.580635 
681.000000	 98.577639 
680.000000	 98.578122 
679.000000	 98.582873 
678.000000	 98.587778 
677.000000	 98.587705 
676.000000	 98.591997 
675.000000	 98.614857 
674.000000	 98.648328 
673.000000	 98.662272 
672.000000	 98.638299 
671.000000	 98.589668 
670.000000	 98.544774 
669.000000	 98.527267 
668.000000	 98.543391 
667.000000	 98.578842 
666.000000	 98.610781 
665.000000	 98.622506 
664.000000	 98.618761 
663.000000	 98.622869 
662.000000	 98.646041 
661.000000	 98.666393 
660.000000	 98.655112 
659.000000	 98.613901 
658.000000	 98.570503 
657.000000	 98.545863 
656.000000	 98.542341 
655.000000	 98.553244 
654.000000	 98.568252 
653.000000	 98.575379 
652.000000	 98.571011 
651.000000	 98.565265 
650.000000	 98.567184 

