4000.000000	99.879833 
3999.000000	99.878806 
3998.000000	99.878431 
3997.000000	99.879144 
3996.000000	99.880624 
3995.000000	99.881860 
3994.000000	99.882211 
3993.000000	99.881851 
3992.000000	99.881408 
3991.000000	99.881142 
3990.000000	99.880674 
3989.000000	99.879561 
3988.000000	99.877940 
3987.000000	99.876551 
3986.000000	99.876087 
3985.000000	99.876602 
3984.000000	99.877509 
3983.000000	99.878179 
3982.000000	99.878549 
3981.000000	99.879074 
3980.000000	99.880137 
3979.000000	99.881602 
3978.000000	99.882886 
3977.000000	99.883420 
3976.000000	99.883038 
3975.000000	99.881965 
3974.000000	99.880542 
3973.000000	99.878985 
3972.000000	99.877444 
3971.000000	99.876210 
3970.000000	99.875696 
3969.000000	99.876152 
3968.000000	99.877403 
3967.000000	99.878865 
3966.000000	99.879854 
3965.000000	99.879965 
3964.000000	99.879276 
3963.000000	99.878295 
3962.000000	99.877601 
3961.000000	99.877353 
3960.000000	99.877216 
3959.000000	99.876775 
3958.000000	99.876024 
3957.000000	99.875397 
3956.000000	99.875328 
3955.000000	99.875829 
3954.000000	99.876528 
3953.000000	99.877053 
3952.000000	99.877322 
3951.000000	99.877428 
3950.000000	99.877389 
3949.000000	99.877068 
3948.000000	99.876347 
3947.000000	99.875347 
3946.000000	99.874402 
3945.000000	99.873817 
3944.000000	99.873654 
3943.000000	99.873752 
3942.000000	99.873876 
3941.000000	99.873835 
3940.000000	99.873563 
3939.000000	99.873138 
3938.000000	99.872709 
3937.000000	99.872398 
3936.000000	99.872246 
3935.000000	99.872220 
3934.000000	99.872263 
3933.000000	99.872327 
3932.000000	99.872467 
3931.000000	99.872862 
3930.000000	99.873627 
3929.000000	99.874529 
3928.000000	99.874955 
3927.000000	99.874405 
3926.000000	99.873048 
3925.000000	99.871721 
3924.000000	99.871194 
3923.000000	99.871436 
3922.000000	99.871790 
3921.000000	99.871697 
3920.000000	99.871131 
3919.000000	99.870427 
3918.000000	99.869873 
3917.000000	99.869504 
3916.000000	99.869226 
3915.000000	99.868977 
3914.000000	99.868743 
3913.000000	99.868484 
3912.000000	99.868124 
3911.000000	99.867680 
3910.000000	99.867315 
3909.000000	99.867296 
3908.000000	99.867819 
3907.000000	99.868871 
3906.000000	99.870264 
3905.000000	99.871757 
3904.000000	99.873151 
3903.000000	99.874141 
3902.000000	99.874281 
3901.000000	99.873427 
3900.000000	99.871956 
3899.000000	99.870462 
3898.000000	99.869266 
3897.000000	99.868278 
3896.000000	99.867376 
3895.000000	99.866680 
3894.000000	99.866420 
3893.000000	99.866767 
3892.000000	99.867751 
3891.000000	99.869230 
3890.000000	99.870763 
3889.000000	99.871780 
3888.000000	99.871936 
3887.000000	99.871228 
3886.000000	99.870110 
3885.000000	99.869294 
3884.000000	99.869067 
3883.000000	99.869109 
3882.000000	99.868986 
3881.000000	99.868615 
3880.000000	99.868304 
3879.000000	99.868301 
3878.000000	99.868473 
3877.000000	99.868529 
3876.000000	99.868325 
3875.000000	99.868035 
3874.000000	99.868025 
3873.000000	99.868411 
3872.000000	99.868873 
3871.000000	99.868998 
3870.000000	99.868786 
3869.000000	99.868613 
3868.000000	99.868708 
3867.000000	99.868967 
3866.000000	99.869161 
3865.000000	99.869156 
3864.000000	99.869047 
3863.000000	99.869030 
3862.000000	99.869155 
3861.000000	99.869286 
3860.000000	99.869235 
3859.000000	99.868928 
3858.000000	99.868492 
3857.000000	99.868220 
3856.000000	99.868354 
3855.000000	99.868849 
3854.000000	99.869418 
3853.000000	99.869966 
3852.000000	99.870488 
3851.000000	99.870824 
3850.000000	99.870933 
3849.000000	99.870874 
3848.000000	99.870689 
3847.000000	99.870410 
3846.000000	99.870084 
3845.000000	99.869804 
3844.000000	99.869659 
3843.000000	99.869635 
3842.000000	99.869643 
3841.000000	99.869658 
3840.000000	99.869766 
3839.000000	99.870065 
3838.000000	99.870486 
3837.000000	99.870720 
3836.000000	99.870479 
3835.000000	99.869734 
3834.000000	99.868733 
3833.000000	99.867845 
3832.000000	99.867307 
3831.000000	99.867129 
3830.000000	99.867112 
3829.000000	99.866975 
3828.000000	99.866576 
3827.000000	99.866052 
3826.000000	99.865716 
3825.000000	99.865786 
3824.000000	99.866177 
3823.000000	99.866448 
3822.000000	99.866160 
3821.000000	99.865528 
3820.000000	99.865203 
3819.000000	99.865242 
3818.000000	99.865195 
3817.000000	99.864715 
3816.000000	99.863916 
3815.000000	99.863212 
3814.000000	99.862724 
3813.000000	99.862201 
3812.000000	99.861410 
3811.000000	99.860379 
3810.000000	99.859384 
3809.000000	99.858769 
3808.000000	99.858773 
3807.000000	99.859416 
3806.000000	99.860397 
3805.000000	99.861097 
3804.000000	99.860943 
3803.000000	99.859668 
3802.000000	99.857612 
3801.000000	99.855883 
3800.000000	99.855069 
3799.000000	99.854579 
3798.000000	99.853766 
3797.000000	99.852716 
3796.000000	99.852076 
3795.000000	99.852347 
3794.000000	99.853498 
3793.000000	99.855097 
3792.000000	99.856556 
3791.000000	99.857331 
3790.000000	99.857194 
3789.000000	99.856472 
3788.000000	99.855920 
3787.000000	99.856251 
3786.000000	99.857740 
3785.000000	99.860153 
3784.000000	99.862912 
3783.000000	99.865286 
3782.000000	99.866557 
3781.000000	99.866259 
3780.000000	99.864539 
3779.000000	99.862303 
3778.000000	99.860393 
3777.000000	99.858915 
3776.000000	99.857759 
3775.000000	99.857147 
3774.000000	99.857465 
3773.000000	99.858693 
3772.000000	99.860136 
3771.000000	99.860901 
3770.000000	99.860905 
3769.000000	99.860998 
3768.000000	99.861595 
3767.000000	99.862304 
3766.000000	99.862799 
3765.000000	99.863286 
3764.000000	99.864188 
3763.000000	99.865585 
3762.000000	99.867083 
3761.000000	99.868161 
3760.000000	99.868717 
3759.000000	99.869446 
3758.000000	99.871057 
3757.000000	99.873398 
3756.000000	99.875829 
3755.000000	99.877892 
3754.000000	99.879661 
3753.000000	99.881521 
3752.000000	99.883406 
3751.000000	99.884643 
3750.000000	99.884461 
3749.000000	99.882505 
3748.000000	99.879059 
3747.000000	99.874845 
3746.000000	99.870469 
3745.000000	99.866734 
3744.000000	99.865096 
3743.000000	99.865277 
3742.000000	99.865488 
3741.000000	99.865450 
3740.000000	99.865953 
3739.000000	99.867494 
3738.000000	99.869534 
3737.000000	99.870833 
3736.000000	99.870853 
3735.000000	99.869964 
3734.000000	99.868500 
3733.000000	99.866540 
3732.000000	99.864638 
3731.000000	99.863463 
3730.000000	99.862873 
3729.000000	99.862270 
3728.000000	99.861398 
3727.000000	99.860696 
3726.000000	99.860812 
3725.000000	99.861401 
3724.000000	99.860932 
3723.000000	99.858160 
3722.000000	99.853728 
3721.000000	99.849817 
3720.000000	99.848029 
3719.000000	99.848100 
3718.000000	99.848305 
3717.000000	99.846999 
3716.000000	99.843857 
3715.000000	99.839584 
3714.000000	99.835031 
3713.000000	99.830656 
3712.000000	99.826893 
3711.000000	99.824436 
3710.000000	99.823405 
3709.000000	99.822927 
3708.000000	99.821878 
3707.000000	99.819703 
3706.000000	99.816524 
3705.000000	99.812754 
3704.000000	99.808758 
3703.000000	99.804871 
3702.000000	99.801621 
3701.000000	99.799453 
3700.000000	99.798006 
3699.000000	99.796172 
3698.000000	99.793075 
3697.000000	99.788806 
3696.000000	99.784432 
3695.000000	99.781173 
3694.000000	99.779408 
3693.000000	99.778532 
3692.000000	99.777541 
3691.000000	99.775752 
3690.000000	99.773217 
3689.000000	99.770652 
3688.000000	99.768686 
3687.000000	99.767220 
3686.000000	99.765872 
3685.000000	99.764340 
3684.000000	99.762373 
3683.000000	99.759850 
3682.000000	99.756908 
3681.000000	99.753919 
3680.000000	99.751200 
3679.000000	99.748576 
3678.000000	99.745378 
3677.000000	99.741143 
3676.000000	99.737220 
3675.000000	99.736539 
3674.000000	99.739444 
3673.000000	99.743065 
3672.000000	99.744942 
3671.000000	99.744328 
3670.000000	99.742186 
3669.000000	99.740214 
3668.000000	99.738509 
3667.000000	99.735940 
3666.000000	99.732219 
3665.000000	99.728299 
3664.000000	99.725485 
3663.000000	99.724502 
3662.000000	99.725099 
3661.000000	99.726468 
3660.000000	99.727940 
3659.000000	99.729181 
3658.000000	99.730049 
3657.000000	99.730685 
3656.000000	99.731765 
3655.000000	99.733894 
3654.000000	99.736976 
3653.000000	99.740456 
3652.000000	99.743492 
3651.000000	99.744829 
3650.000000	99.743487 
3649.000000	99.739912 
3648.000000	99.735908 
3647.000000	99.733158 
3646.000000	99.732149 
3645.000000	99.732412 
3644.000000	99.733126 
3643.000000	99.733717 
3642.000000	99.733966 
3641.000000	99.734051 
3640.000000	99.734464 
3639.000000	99.735801 
3638.000000	99.738340 
3637.000000	99.741555 
3636.000000	99.744229 
3635.000000	99.745324 
3634.000000	99.744881 
3633.000000	99.743958 
3632.000000	99.743664 
3631.000000	99.744320 
3630.000000	99.745231 
3629.000000	99.745619 
3628.000000	99.745527 
3627.000000	99.745231 
3626.000000	99.745003 
3625.000000	99.745177 
3624.000000	99.745737 
3623.000000	99.746244 
3622.000000	99.746271 
3621.000000	99.745755 
3620.000000	99.745176 
3619.000000	99.745393 
3618.000000	99.746887 
3617.000000	99.749209 
3616.000000	99.751447 
3615.000000	99.752849 
3614.000000	99.753182 
3613.000000	99.752834 
3612.000000	99.752416 
3611.000000	99.752233 
3610.000000	99.752292 
3609.000000	99.752454 
3608.000000	99.752510 
3607.000000	99.752312 
3606.000000	99.751938 
3605.000000	99.751817 
3604.000000	99.752340 
3603.000000	99.753318 
3602.000000	99.754226 
3601.000000	99.754889 
3600.000000	99.755779 
3599.000000	99.757359 
3598.000000	99.759349 
3597.000000	99.760799 
3596.000000	99.760953 
3595.000000	99.759894 
3594.000000	99.758703 
3593.000000	99.758816 
3592.000000	99.761010 
3591.000000	99.764865 
3590.000000	99.768684 
3589.000000	99.770266 
3588.000000	99.768637 
3587.000000	99.765110 
3586.000000	99.761800 
3585.000000	99.759553 
3584.000000	99.758009 
3583.000000	99.756628 
3582.000000	99.755118 
3581.000000	99.753468 
3580.000000	99.751799 
3579.000000	99.750138 
3578.000000	99.748404 
3577.000000	99.746654 
3576.000000	99.745323 
3575.000000	99.744959 
3574.000000	99.745677 
3573.000000	99.747061 
3572.000000	99.748514 
3571.000000	99.749574 
3570.000000	99.749869 
3569.000000	99.749067 
3568.000000	99.747355 
3567.000000	99.745951 
3566.000000	99.746109 
3565.000000	99.747616 
3564.000000	99.749049 
3563.000000	99.749166 
3562.000000	99.747798 
3561.000000	99.745739 
3560.000000	99.743993 
3559.000000	99.742972 
3558.000000	99.742438 
3557.000000	99.742048 
3556.000000	99.741731 
3555.000000	99.741591 
3554.000000	99.741632 
3553.000000	99.741706 
3552.000000	99.741636 
3551.000000	99.741319 
3550.000000	99.740743 
3549.000000	99.740042 
3548.000000	99.739457 
3547.000000	99.739204 
3546.000000	99.739309 
3545.000000	99.739583 
3544.000000	99.739747 
3543.000000	99.739624 
3542.000000	99.739227 
3541.000000	99.738708 
3540.000000	99.738236 
3539.000000	99.737918 
3538.000000	99.737758 
3537.000000	99.737649 
3536.000000	99.737413 
3535.000000	99.736908 
3534.000000	99.736160 
3533.000000	99.735367 
3532.000000	99.734772 
3531.000000	99.734484 
3530.000000	99.734447 
3529.000000	99.734568 
3528.000000	99.734847 
3527.000000	99.735322 
3526.000000	99.735888 
3525.000000	99.736248 
3524.000000	99.736119 
3523.000000	99.735491 
3522.000000	99.734672 
3521.000000	99.733999 
3520.000000	99.733552 
3519.000000	99.733197 
3518.000000	99.732791 
3517.000000	99.732323 
3516.000000	99.731887 
3515.000000	99.731580 
3514.000000	99.731446 
3513.000000	99.731453 
3512.000000	99.731487 
3511.000000	99.731405 
3510.000000	99.731153 
3509.000000	99.730808 
3508.000000	99.730487 
3507.000000	99.730213 
3506.000000	99.729890 
3505.000000	99.729403 
3504.000000	99.728742 
3503.000000	99.728059 
3502.000000	99.727588 
3501.000000	99.727452 
3500.000000	99.727581 
3499.000000	99.727712 
3498.000000	99.727576 
3497.000000	99.727112 
3496.000000	99.726481 
3495.000000	99.725928 
3494.000000	99.725518 
3493.000000	99.725119 
3492.000000	99.724596 
3491.000000	99.723981 
3490.000000	99.723439 
3489.000000	99.723100 
3488.000000	99.722958 
3487.000000	99.722914 
3486.000000	99.722876 
3485.000000	99.722819 
3484.000000	99.722765 
3483.000000	99.722733 
3482.000000	99.722672 
3481.000000	99.722464 
3480.000000	99.722025 
3479.000000	99.721422 
3478.000000	99.720864 
3477.000000	99.720488 
3476.000000	99.720181 
3475.000000	99.719702 
3474.000000	99.719015 
3473.000000	99.718415 
3472.000000	99.718230 
3471.000000	99.718471 
3470.000000	99.718813 
3469.000000	99.718923 
3468.000000	99.718710 
3467.000000	99.718243 
3466.000000	99.717575 
3465.000000	99.716735 
3464.000000	99.715825 
3463.000000	99.714992 
3462.000000	99.714294 
3461.000000	99.713653 
3460.000000	99.712996 
3459.000000	99.712406 
3458.000000	99.712068 
3457.000000	99.712042 
3456.000000	99.712137 
3455.000000	99.712005 
3454.000000	99.711468 
3453.000000	99.710712 
3452.000000	99.710106 
3451.000000	99.709852 
3450.000000	99.709861 
3449.000000	99.709928 
3448.000000	99.709895 
3447.000000	99.709665 
3446.000000	99.709165 
3445.000000	99.708436 
3444.000000	99.707686 
3443.000000	99.707141 
3442.000000	99.706830 
3441.000000	99.706623 
3440.000000	99.706429 
3439.000000	99.706258 
3438.000000	99.706070 
3437.000000	99.705689 
3436.000000	99.704966 
3435.000000	99.703986 
3434.000000	99.703089 
3433.000000	99.702610 
3432.000000	99.702591 
3431.000000	99.702724 
3430.000000	99.702560 
3429.000000	99.701824 
3428.000000	99.700555 
3427.000000	99.699010 
3426.000000	99.697515 
3425.000000	99.696389 
3424.000000	99.695894 
3423.000000	99.696129 
3422.000000	99.696886 
3421.000000	99.697669 
3420.000000	99.697969 
3419.000000	99.697627 
3418.000000	99.696940 
3417.000000	99.696402 
3416.000000	99.696238 
3415.000000	99.696182 
3414.000000	99.695731 
3413.000000	99.694651 
3412.000000	99.693248 
3411.000000	99.692193 
3410.000000	99.692017 
3409.000000	99.692715 
3408.000000	99.693676 
3407.000000	99.694076 
3406.000000	99.693529 
3405.000000	99.692368 
3404.000000	99.691373 
3403.000000	99.691184 
3402.000000	99.692001 
3401.000000	99.693599 
3400.000000	99.695429 
3399.000000	99.696851 
3398.000000	99.697547 
3397.000000	99.697756 
3396.000000	99.697959 
3395.000000	99.698321 
3394.000000	99.698618 
3393.000000	99.698644 
3392.000000	99.698388 
3391.000000	99.697781 
3390.000000	99.696623 
3389.000000	99.694983 
3388.000000	99.693399 
3387.000000	99.692467 
3386.000000	99.692312 
3385.000000	99.692576 
3384.000000	99.692859 
3383.000000	99.693041 
3382.000000	99.693233 
3381.000000	99.693531 
3380.000000	99.693844 
3379.000000	99.693983 
3378.000000	99.693968 
3377.000000	99.694195 
3376.000000	99.695090 
3375.000000	99.696547 
3374.000000	99.697930 
3373.000000	99.698654 
3372.000000	99.698642 
3371.000000	99.698181 
3370.000000	99.697594 
3369.000000	99.697185 
3368.000000	99.697239 
3367.000000	99.697792 
3366.000000	99.698425 
3365.000000	99.698562 
3364.000000	99.698047 
3363.000000	99.697326 
3362.000000	99.697001 
3361.000000	99.697237 
3360.000000	99.697629 
3359.000000	99.697605 
3358.000000	99.697012 
3357.000000	99.696324 
3356.000000	99.696208 
3355.000000	99.696840 
3354.000000	99.697764 
3353.000000	99.698444 
3352.000000	99.698850 
3351.000000	99.699395 
3350.000000	99.700400 
3349.000000	99.701772 
3348.000000	99.703115 
3347.000000	99.704053 
3346.000000	99.704458 
3345.000000	99.704466 
3344.000000	99.704316 
3343.000000	99.704106 
3342.000000	99.703775 
3341.000000	99.703360 
3340.000000	99.703137 
3339.000000	99.703362 
3338.000000	99.703869 
3337.000000	99.704129 
3336.000000	99.703800 
3335.000000	99.703149 
3334.000000	99.702848 
3333.000000	99.703294 
3332.000000	99.704310 
3331.000000	99.705371 
3330.000000	99.706103 
3329.000000	99.706544 
3328.000000	99.706955 
3327.000000	99.707499 
3326.000000	99.708089 
3325.000000	99.708517 
3324.000000	99.708710 
3323.000000	99.708839 
3322.000000	99.709150 
3321.000000	99.709667 
3320.000000	99.710127 
3319.000000	99.710261 
3318.000000	99.710126 
3317.000000	99.710072 
3316.000000	99.710377 
3315.000000	99.710982 
3314.000000	99.711597 
3313.000000	99.712040 
3312.000000	99.712389 
3311.000000	99.712829 
3310.000000	99.713416 
3309.000000	99.714019 
3308.000000	99.714470 
3307.000000	99.714746 
3306.000000	99.714981 
3305.000000	99.715257 
3304.000000	99.715445 
3303.000000	99.715343 
3302.000000	99.714959 
3301.000000	99.714618 
3300.000000	99.714699 
3299.000000	99.715293 
3298.000000	99.716178 
3297.000000	99.717058 
3296.000000	99.717774 
3295.000000	99.718290 
3294.000000	99.718651 
3293.000000	99.719016 
3292.000000	99.719567 
3291.000000	99.720242 
3290.000000	99.720693 
3289.000000	99.720635 
3288.000000	99.720138 
3287.000000	99.719539 
3286.000000	99.719112 
3285.000000	99.718870 
3284.000000	99.718682 
3283.000000	99.718510 
3282.000000	99.718478 
3281.000000	99.718689 
3280.000000	99.719006 
3279.000000	99.719134 
3278.000000	99.718988 
3277.000000	99.718861 
3276.000000	99.719126 
3275.000000	99.719807 
3274.000000	99.720542 
3273.000000	99.720940 
3272.000000	99.720860 
3271.000000	99.720359 
3270.000000	99.719568 
3269.000000	99.718726 
3268.000000	99.718190 
3267.000000	99.718253 
3266.000000	99.718955 
3265.000000	99.720054 
3264.000000	99.721149 
3263.000000	99.721938 
3262.000000	99.722373 
3261.000000	99.722622 
3260.000000	99.722831 
3259.000000	99.722916 
3258.000000	99.722674 
3257.000000	99.722081 
3256.000000	99.721368 
3255.000000	99.720827 
3254.000000	99.720620 
3253.000000	99.720779 
3252.000000	99.721259 
3251.000000	99.721913 
3250.000000	99.722536 
3249.000000	99.722996 
3248.000000	99.723274 
3247.000000	99.723351 
3246.000000	99.723155 
3245.000000	99.722705 
3244.000000	99.722250 
3243.000000	99.722166 
3242.000000	99.722701 
3241.000000	99.723858 
3240.000000	99.725379 
3239.000000	99.726776 
3238.000000	99.727560 
3237.000000	99.727613 
3236.000000	99.727332 
3235.000000	99.727283 
3234.000000	99.727633 
3233.000000	99.728092 
3232.000000	99.728379 
3231.000000	99.728570 
3230.000000	99.728920 
3229.000000	99.729496 
3228.000000	99.730035 
3227.000000	99.730105 
3226.000000	99.729404 
3225.000000	99.728064 
3224.000000	99.726768 
3223.000000	99.726346 
3222.000000	99.727131 
3221.000000	99.728774 
3220.000000	99.730573 
3219.000000	99.731980 
3218.000000	99.732752 
3217.000000	99.732843 
3216.000000	99.732423 
3215.000000	99.731922 
3214.000000	99.731774 
3213.000000	99.732106 
3212.000000	99.732782 
3211.000000	99.733718 
3210.000000	99.734990 
3209.000000	99.736611 
3208.000000	99.738359 
3207.000000	99.739924 
3206.000000	99.741134 
3205.000000	99.741986 
3204.000000	99.742529 
3203.000000	99.742817 
3202.000000	99.742997 
3201.000000	99.743361 
3200.000000	99.744151 
3199.000000	99.745224 
3198.000000	99.745970 
3197.000000	99.745824 
3196.000000	99.744897 
3195.000000	99.743978 
3194.000000	99.743735 
3193.000000	99.744038 
3192.000000	99.744324 
3191.000000	99.744473 
3190.000000	99.745001 
3189.000000	99.746352 
3188.000000	99.748261 
3187.000000	99.749963 
3186.000000	99.750874 
3185.000000	99.750884 
3184.000000	99.750170 
3183.000000	99.749023 
3182.000000	99.747855 
3181.000000	99.747116 
3180.000000	99.747082 
3179.000000	99.747685 
3178.000000	99.748544 
3177.000000	99.749167 
3176.000000	99.749209 
3175.000000	99.748783 
3174.000000	99.748570 
3173.000000	99.749352 
3172.000000	99.751275 
3171.000000	99.753593 
3170.000000	99.755253 
3169.000000	99.755867 
3168.000000	99.755973 
3167.000000	99.756425 
3166.000000	99.757543 
3165.000000	99.758906 
3164.000000	99.759875 
3163.000000	99.760219 
3162.000000	99.760225 
3161.000000	99.760372 
3160.000000	99.760968 
3159.000000	99.762009 
3158.000000	99.763223 
3157.000000	99.764224 
3156.000000	99.764735 
3155.000000	99.764756 
3154.000000	99.764539 
3153.000000	99.764386 
3152.000000	99.764443 
3151.000000	99.764639 
3150.000000	99.764740 
3149.000000	99.764517 
3148.000000	99.764039 
3147.000000	99.763789 
3146.000000	99.764280 
3145.000000	99.765457 
3144.000000	99.766643 
3143.000000	99.767291 
3142.000000	99.767655 
3141.000000	99.768423 
3140.000000	99.769785 
3139.000000	99.771187 
3138.000000	99.772053 
3137.000000	99.772419 
3136.000000	99.772676 
3135.000000	99.772944 
3134.000000	99.773012 
3133.000000	99.772820 
3132.000000	99.772652 
3131.000000	99.772826 
3130.000000	99.773407 
3129.000000	99.774244 
3128.000000	99.775137 
3127.000000	99.775867 
3126.000000	99.776226 
3125.000000	99.776187 
3124.000000	99.775993 
3123.000000	99.775982 
3122.000000	99.776277 
3121.000000	99.776737 
3120.000000	99.777200 
3119.000000	99.777645 
3118.000000	99.778061 
3117.000000	99.778292 
3116.000000	99.778196 
3115.000000	99.777908 
3114.000000	99.777763 
3113.000000	99.777908 
3112.000000	99.778142 
3111.000000	99.778233 
3110.000000	99.778264 
3109.000000	99.778497 
3108.000000	99.778932 
3107.000000	99.779247 
3106.000000	99.779219 
3105.000000	99.779049 
3104.000000	99.779130 
3103.000000	99.779611 
3102.000000	99.780335 
3101.000000	99.781074 
3100.000000	99.781696 
3099.000000	99.782136 
3098.000000	99.782370 
3097.000000	99.782457 
3096.000000	99.782555 
3095.000000	99.782824 
3094.000000	99.783327 
3093.000000	99.783994 
3092.000000	99.784640 
3091.000000	99.785064 
3090.000000	99.785168 
3089.000000	99.785054 
3088.000000	99.785026 
3087.000000	99.785387 
3086.000000	99.786184 
3085.000000	99.787102 
3084.000000	99.787695 
3083.000000	99.787740 
3082.000000	99.787388 
3081.000000	99.787028 
3080.000000	99.786968 
3079.000000	99.787230 
3078.000000	99.787583 
3077.000000	99.787703 
3076.000000	99.787395 
3075.000000	99.786801 
3074.000000	99.786442 
3073.000000	99.786847 
3072.000000	99.788048 
3071.000000	99.789588 
3070.000000	99.791045 
3069.000000	99.792138 
3068.000000	99.792143 
3067.000000	99.789918 
3066.000000	99.785314 
3065.000000	99.780329 
3064.000000	99.777868 
3063.000000	99.779075 
3062.000000	99.782443 
3061.000000	99.785512 
3060.000000	99.787071 
3059.000000	99.787603 
3058.000000	99.788235 
3057.000000	99.789661 
3056.000000	99.791697 
3055.000000	99.793446 
3054.000000	99.794002 
3053.000000	99.793121 
3052.000000	99.791267 
3051.000000	99.789227 
3050.000000	99.787778 
3049.000000	99.787323 
3048.000000	99.787253 
3047.000000	99.785953 
3046.000000	99.782241 
3045.000000	99.776907 
3044.000000	99.772272 
3043.000000	99.769947 
3042.000000	99.769485 
3041.000000	99.769262 
3040.000000	99.768114 
3039.000000	99.766057 
3038.000000	99.764031 
3037.000000	99.763162 
3036.000000	99.763693 
3035.000000	99.764329 
3034.000000	99.763157 
3033.000000	99.759517 
3032.000000	99.754543 
3031.000000	99.749746 
3030.000000	99.745319 
3029.000000	99.740131 
3028.000000	99.733165 
3027.000000	99.724668 
3026.000000	99.716059 
3025.000000	99.708860 
3024.000000	99.703462 
3023.000000	99.698698 
3022.000000	99.692773 
3021.000000	99.684823 
3020.000000	99.675673 
3019.000000	99.667164 
3018.000000	99.660798 
3017.000000	99.656727 
3016.000000	99.653554 
3015.000000	99.649181 
3014.000000	99.642283 
3013.000000	99.633099 
3012.000000	99.622563 
3011.000000	99.610866 
3010.000000	99.597482 
3009.000000	99.582703 
3008.000000	99.568491 
3007.000000	99.557385 
3006.000000	99.550606 
3005.000000	99.547113 
3004.000000	99.543939 
3003.000000	99.537633 
3002.000000	99.526470 
3001.000000	99.512119 
3000.000000	99.498744 
2999.000000	99.489580 
2998.000000	99.484353 
2997.000000	99.480503 
2996.000000	99.476465 
2995.000000	99.472640 
2994.000000	99.468773 
2993.000000	99.461870 
2992.000000	99.448486 
2991.000000	99.429261 
2990.000000	99.409890 
2989.000000	99.396562 
2988.000000	99.391040 
2987.000000	99.390736 
2986.000000	99.392579 
2985.000000	99.395677 
2984.000000	99.400179 
2983.000000	99.405217 
2982.000000	99.409113 
2981.000000	99.410967 
2980.000000	99.411133 
2979.000000	99.410321 
2978.000000	99.408959 
2977.000000	99.407274 
2976.000000	99.405362 
2975.000000	99.403159 
2974.000000	99.400716 
2973.000000	99.398391 
2972.000000	99.396449 
2971.000000	99.394783 
2970.000000	99.393550 
2969.000000	99.393793 
2968.000000	99.396730 
2967.000000	99.402385 
2966.000000	99.409365 
2965.000000	99.416081 
2964.000000	99.421965 
2963.000000	99.427591 
2962.000000	99.433905 
2961.000000	99.441072 
2960.000000	99.447860 
2959.000000	99.452627 
2958.000000	99.455386 
2957.000000	99.458239 
2956.000000	99.462812 
2955.000000	99.467804 
2954.000000	99.470431 
2953.000000	99.470527 
2952.000000	99.471805 
2951.000000	99.478149 
2950.000000	99.489128 
2949.000000	99.499997 
2948.000000	99.506192 
2947.000000	99.507155 
2946.000000	99.505903 
2945.000000	99.505595 
2944.000000	99.506718 
2943.000000	99.507622 
2942.000000	99.507170 
2941.000000	99.505957 
2940.000000	99.504915 
2939.000000	99.503689 
2938.000000	99.501166 
2937.000000	99.497251 
2936.000000	99.493397 
2935.000000	99.491395 
2934.000000	99.491973 
2933.000000	99.494386 
2932.000000	99.496859 
2931.000000	99.497648 
2930.000000	99.496255 
2929.000000	99.493657 
2928.000000	99.491074 
2927.000000	99.488733 
2926.000000	99.486243 
2925.000000	99.483781 
2924.000000	99.482216 
2923.000000	99.482246 
2922.000000	99.483939 
2921.000000	99.486826 
2920.000000	99.489772 
2919.000000	99.491178 
2918.000000	99.490300 
2917.000000	99.488334 
2916.000000	99.487329 
2915.000000	99.488018 
2914.000000	99.489512 
2913.000000	99.491008 
2912.000000	99.492659 
2911.000000	99.494516 
2910.000000	99.495716 
2909.000000	99.495321 
2908.000000	99.493356 
2907.000000	99.490451 
2906.000000	99.486928 
2905.000000	99.482665 
2904.000000	99.477533 
2903.000000	99.471849 
2902.000000	99.466952 
2901.000000	99.465160 
2900.000000	99.468512 
2899.000000	99.476644 
2898.000000	99.486474 
2897.000000	99.494456 
2896.000000	99.499279 
2895.000000	99.502138 
2894.000000	99.504948 
2893.000000	99.508670 
2892.000000	99.512988 
2891.000000	99.516957 
2890.000000	99.519972 
2889.000000	99.522254 
2888.000000	99.524397 
2887.000000	99.526621 
2886.000000	99.528834 
2885.000000	99.531317 
2884.000000	99.534735 
2883.000000	99.539369 
2882.000000	99.544872 
2881.000000	99.550952 
2880.000000	99.557750 
2879.000000	99.565356 
2878.000000	99.573468 
2877.000000	99.581693 
2876.000000	99.589551 
2875.000000	99.595976 
2874.000000	99.599589 
2873.000000	99.600136 
2872.000000	99.599335 
2871.000000	99.599680 
2870.000000	99.602459 
2869.000000	99.607258 
2868.000000	99.613070 
2867.000000	99.619433 
2866.000000	99.626619 
2865.000000	99.635033 
2864.000000	99.644360 
2863.000000	99.653126 
2862.000000	99.659442 
2861.000000	99.662611 
2860.000000	99.663961 
2859.000000	99.665855 
2858.000000	99.669697 
2857.000000	99.675102 
2856.000000	99.680828 
2855.000000	99.686206 
2854.000000	99.691480 
2853.000000	99.696932 
2852.000000	99.702097 
2851.000000	99.706294 
2850.000000	99.709862 
2849.000000	99.714243 
2848.000000	99.720350 
2847.000000	99.727197 
2846.000000	99.732839 
2845.000000	99.736455 
2844.000000	99.738860 
2843.000000	99.741181 
2842.000000	99.743907 
2841.000000	99.747335 
2840.000000	99.751823 
2839.000000	99.756925 
2838.000000	99.761049 
2837.000000	99.762880 
2836.000000	99.762858 
2835.000000	99.762800 
2834.000000	99.764272 
2833.000000	99.767682 
2832.000000	99.772471 
2831.000000	99.777414 
2830.000000	99.781054 
2829.000000	99.782729 
2828.000000	99.783316 
2827.000000	99.784497 
2826.000000	99.787061 
2825.000000	99.790186 
2824.000000	99.792461 
2823.000000	99.793349 
2822.000000	99.793648 
2821.000000	99.794751 
2820.000000	99.797357 
2819.000000	99.800777 
2818.000000	99.803628 
2817.000000	99.805286 
2816.000000	99.806308 
2815.000000	99.807401 
2814.000000	99.808456 
2813.000000	99.808933 
2812.000000	99.808744 
2811.000000	99.808217 
2810.000000	99.807515 
2809.000000	99.806726 
2808.000000	99.806370 
2807.000000	99.807149 
2806.000000	99.809082 
2805.000000	99.811330 
2804.000000	99.813044 
2803.000000	99.814115 
2802.000000	99.815003 
2801.000000	99.816034 
2800.000000	99.817013 
2799.000000	99.817464 
2798.000000	99.817233 
2797.000000	99.816813 
2796.000000	99.816948 
2795.000000	99.817848 
2794.000000	99.818970 
2793.000000	99.819643 
2792.000000	99.819718 
2791.000000	99.819513 
2790.000000	99.819401 
2789.000000	99.819657 
2788.000000	99.820483 
2787.000000	99.821867 
2786.000000	99.823450 
2785.000000	99.824780 
2784.000000	99.825675 
2783.000000	99.826193 
2782.000000	99.826362 
2781.000000	99.826177 
2780.000000	99.825844 
2779.000000	99.825773 
2778.000000	99.826203 
2777.000000	99.826980 
2776.000000	99.827754 
2775.000000	99.828317 
2774.000000	99.828661 
2773.000000	99.828836 
2772.000000	99.828910 
2771.000000	99.829005 
2770.000000	99.829268 
2769.000000	99.829767 
2768.000000	99.830496 
2767.000000	99.831433 
2766.000000	99.832478 
2765.000000	99.833344 
2764.000000	99.833727 
2763.000000	99.833667 
2762.000000	99.833653 
2761.000000	99.834208 
2760.000000	99.835402 
2759.000000	99.836805 
2758.000000	99.837866 
2757.000000	99.838288 
2756.000000	99.838157 
2755.000000	99.837888 
2754.000000	99.837933 
2753.000000	99.838333 
2752.000000	99.838627 
2751.000000	99.838389 
2750.000000	99.837798 
2749.000000	99.837426 
2748.000000	99.837408 
2747.000000	99.837222 
2746.000000	99.836460 
2745.000000	99.835523 
2744.000000	99.835224 
2743.000000	99.835879 
2742.000000	99.837122 
2741.000000	99.838415 
2740.000000	99.839499 
2739.000000	99.840386 
2738.000000	99.841194 
2737.000000	99.842050 
2736.000000	99.842931 
2735.000000	99.843573 
2734.000000	99.843688 
2733.000000	99.843278 
2732.000000	99.842617 
2731.000000	99.841980 
2730.000000	99.841548 
2729.000000	99.841511 
2728.000000	99.842033 
2727.000000	99.843093 
2726.000000	99.844459 
2725.000000	99.845829 
2724.000000	99.846924 
2723.000000	99.847536 
2722.000000	99.847658 
2721.000000	99.847546 
2720.000000	99.847504 
2719.000000	99.847574 
2718.000000	99.847567 
2717.000000	99.847386 
2716.000000	99.847186 
2715.000000	99.847243 
2714.000000	99.847734 
2713.000000	99.848573 
2712.000000	99.849373 
2711.000000	99.849695 
2710.000000	99.849474 
2709.000000	99.849082 
2708.000000	99.848908 
2707.000000	99.848915 
2706.000000	99.848807 
2705.000000	99.848500 
2704.000000	99.848235 
2703.000000	99.848238 
2702.000000	99.848452 
2701.000000	99.848631 
2700.000000	99.848593 
2699.000000	99.848342 
2698.000000	99.848026 
2697.000000	99.847822 
2696.000000	99.847805 
2695.000000	99.847933 
2694.000000	99.848135 
2693.000000	99.848381 
2692.000000	99.848617 
2691.000000	99.848716 
2690.000000	99.848595 
2689.000000	99.848331 
2688.000000	99.848116 
2687.000000	99.848073 
2686.000000	99.848169 
2685.000000	99.848289 
2684.000000	99.848343 
2683.000000	99.848314 
2682.000000	99.848227 
2681.000000	99.848120 
2680.000000	99.848020 
2679.000000	99.847917 
2678.000000	99.847787 
2677.000000	99.847639 
2676.000000	99.847531 
2675.000000	99.847519 
2674.000000	99.847601 
2673.000000	99.847721 
2672.000000	99.847822 
2671.000000	99.847865 
2670.000000	99.847829 
2669.000000	99.847701 
2668.000000	99.847491 
2667.000000	99.847222 
2666.000000	99.846958 
2665.000000	99.846811 
2664.000000	99.846899 
2663.000000	99.847228 
2662.000000	99.847652 
2661.000000	99.847973 
2660.000000	99.848090 
2659.000000	99.848017 
2658.000000	99.847847 
2657.000000	99.847712 
2656.000000	99.847727 
2655.000000	99.847943 
2654.000000	99.848340 
2653.000000	99.848819 
2652.000000	99.849208 
2651.000000	99.849326 
2650.000000	99.849132 
2649.000000	99.848836 
2648.000000	99.848751 
2647.000000	99.848965 
2646.000000	99.849294 
2645.000000	99.849585 
2644.000000	99.849903 
2643.000000	99.850322 
2642.000000	99.850716 
2641.000000	99.850950 
2640.000000	99.851137 
2639.000000	99.851532 
2638.000000	99.852200 
2637.000000	99.852946 
2636.000000	99.853493 
2635.000000	99.853664 
2634.000000	99.853448 
2633.000000	99.853072 
2632.000000	99.852878 
2631.000000	99.852947 
2630.000000	99.853014 
2629.000000	99.852844 
2628.000000	99.852571 
2627.000000	99.852566 
2626.000000	99.853011 
2625.000000	99.853798 
2624.000000	99.854742 
2623.000000	99.855685 
2622.000000	99.856379 
2621.000000	99.856517 
2620.000000	99.856027 
2619.000000	99.855223 
2618.000000	99.854587 
2617.000000	99.854386 
2616.000000	99.854540 
2615.000000	99.854764 
2614.000000	99.854842 
2613.000000	99.854823 
2612.000000	99.854948 
2611.000000	99.855334 
2610.000000	99.855810 
2609.000000	99.856127 
2608.000000	99.856295 
2607.000000	99.856577 
2606.000000	99.857157 
2605.000000	99.857916 
2604.000000	99.858527 
2603.000000	99.858730 
2602.000000	99.858490 
2601.000000	99.858001 
2600.000000	99.857557 
2599.000000	99.857364 
2598.000000	99.857473 
2597.000000	99.857833 
2596.000000	99.858331 
2595.000000	99.858732 
2594.000000	99.858758 
2593.000000	99.858337 
2592.000000	99.857766 
2591.000000	99.857502 
2590.000000	99.857710 
2589.000000	99.858147 
2588.000000	99.858416 
2587.000000	99.858347 
2586.000000	99.858011 
2585.000000	99.857497 
2584.000000	99.856840 
2583.000000	99.856161 
2582.000000	99.855684 
2581.000000	99.855522 
2580.000000	99.855551 
2579.000000	99.855529 
2578.000000	99.855341 
2577.000000	99.855069 
2576.000000	99.854843 
2575.000000	99.854716 
2574.000000	99.854666 
2573.000000	99.854656 
2572.000000	99.854642 
2571.000000	99.854555 
2570.000000	99.854342 
2569.000000	99.854024 
2568.000000	99.853716 
2567.000000	99.853534 
2566.000000	99.853503 
2565.000000	99.853547 
2564.000000	99.853564 
2563.000000	99.853510 
2562.000000	99.853405 
2561.000000	99.853295 
2560.000000	99.853226 
2559.000000	99.853245 
2558.000000	99.853358 
2557.000000	99.853466 
2556.000000	99.853401 
2555.000000	99.853127 
2554.000000	99.852901 
2553.000000	99.853075 
2552.000000	99.853722 
2551.000000	99.854494 
2550.000000	99.854967 
2549.000000	99.855098 
2548.000000	99.855144 
2547.000000	99.855198 
2546.000000	99.855073 
2545.000000	99.854658 
2544.000000	99.854155 
2543.000000	99.853880 
2542.000000	99.854003 
2541.000000	99.854499 
2540.000000	99.855193 
2539.000000	99.855784 
2538.000000	99.855980 
2537.000000	99.855686 
2536.000000	99.854980 
2535.000000	99.853974 
2534.000000	99.852926 
2533.000000	99.852429 
2532.000000	99.853048 
2531.000000	99.854665 
2530.000000	99.856416 
2529.000000	99.857553 
2528.000000	99.858129 
2527.000000	99.858632 
2526.000000	99.859256 
2525.000000	99.859845 
2524.000000	99.860354 
2523.000000	99.860919 
2522.000000	99.861497 
2521.000000	99.861761 
2520.000000	99.861444 
2519.000000	99.860592 
2518.000000	99.859491 
2517.000000	99.858470 
2516.000000	99.857683 
2515.000000	99.857027 
2514.000000	99.856415 
2513.000000	99.856089 
2512.000000	99.856339 
2511.000000	99.856871 
2510.000000	99.856903 
2509.000000	99.856199 
2508.000000	99.855611 
2507.000000	99.856100 
2506.000000	99.857454 
2505.000000	99.858405 
2504.000000	99.858065 
2503.000000	99.856708 
2502.000000	99.855249 
2501.000000	99.854325 
2500.000000	99.854066 
2499.000000	99.854457 
2498.000000	99.855472 
2497.000000	99.856889 
2496.000000	99.858198 
2495.000000	99.858813 
2494.000000	99.858377 
2493.000000	99.856867 
2492.000000	99.854570 
2491.000000	99.852007 
2490.000000	99.849839 
2489.000000	99.848599 
2488.000000	99.848296 
2487.000000	99.848349 
2486.000000	99.848170 
2485.000000	99.847890 
2484.000000	99.848240 
2483.000000	99.849590 
2482.000000	99.851393 
2481.000000	99.852663 
2480.000000	99.852878 
2479.000000	99.852223 
2478.000000	99.851195 
2477.000000	99.850228 
2476.000000	99.849605 
2475.000000	99.849456 
2474.000000	99.849754 
2473.000000	99.850395 
2472.000000	99.851371 
2471.000000	99.852773 
2470.000000	99.854552 
2469.000000	99.856238 
2468.000000	99.856972 
2467.000000	99.856020 
2466.000000	99.853447 
2465.000000	99.850392 
2464.000000	99.848313 
2463.000000	99.847739 
2462.000000	99.847991 
2461.000000	99.848053 
2460.000000	99.847648 
2459.000000	99.847297 
2458.000000	99.847531 
2457.000000	99.848316 
2456.000000	99.849162 
2455.000000	99.849570 
2454.000000	99.849355 
2453.000000	99.848687 
2452.000000	99.847858 
2451.000000	99.847007 
2450.000000	99.846117 
2449.000000	99.845244 
2448.000000	99.844585 
2447.000000	99.844290 
2446.000000	99.844375 
2445.000000	99.844859 
2444.000000	99.845780 
2443.000000	99.846977 
2442.000000	99.848057 
2441.000000	99.848724 
2440.000000	99.849008 
2439.000000	99.849044 
2438.000000	99.848776 
2437.000000	99.848069 
2436.000000	99.846963 
2435.000000	99.845601 
2434.000000	99.844040 
2433.000000	99.842334 
2432.000000	99.840749 
2431.000000	99.839720 
2430.000000	99.839567 
2429.000000	99.840286 
2428.000000	99.841591 
2427.000000	99.843079 
2426.000000	99.844368 
2425.000000	99.845094 
2424.000000	99.844910 
2423.000000	99.843674 
2422.000000	99.841733 
2421.000000	99.839991 
2420.000000	99.839271 
2419.000000	99.839648 
2418.000000	99.840564 
2417.000000	99.841430 
2416.000000	99.842034 
2415.000000	99.842328 
2414.000000	99.842205 
2413.000000	99.841723 
2412.000000	99.841274 
2411.000000	99.841215 
2410.000000	99.841449 
2409.000000	99.841593 
2408.000000	99.841517 
2407.000000	99.841524 
2406.000000	99.841957 
2405.000000	99.842782 
2404.000000	99.843694 
2403.000000	99.844419 
2402.000000	99.844873 
2401.000000	99.845113 
2400.000000	99.845210 
2399.000000	99.845216 
2398.000000	99.845222 
2397.000000	99.845348 
2396.000000	99.845658 
2395.000000	99.846112 
2394.000000	99.846635 
2393.000000	99.847187 
2392.000000	99.847755 
2391.000000	99.848318 
2390.000000	99.848865 
2389.000000	99.849414 
2388.000000	99.849974 
2387.000000	99.850535 
2386.000000	99.851089 
2385.000000	99.851636 
2384.000000	99.852183 
2383.000000	99.852735 
2382.000000	99.853295 
2381.000000	99.853865 
2380.000000	99.854442 
2379.000000	99.855021 
2378.000000	99.855593 
2377.000000	99.856158 
2376.000000	99.856719 
2375.000000	99.857286 
2374.000000	99.857861 
2373.000000	99.858440 
2372.000000	99.859018 
2371.000000	99.859586 
2370.000000	99.860140 
2369.000000	99.860675 
2368.000000	99.861183 
2367.000000	99.861661 
2366.000000	99.862111 
2365.000000	99.862543 
2364.000000	99.862968 
2363.000000	99.863396 
2362.000000	99.863825 
2361.000000	99.864251 
2360.000000	99.864671 
2359.000000	99.865084 
2358.000000	99.865494 
2357.000000	99.865900 
2356.000000	99.866296 
2355.000000	99.866676 
2354.000000	99.867032 
2353.000000	99.867361 
2352.000000	99.867667 
2351.000000	99.867958 
2350.000000	99.868241 
2349.000000	99.868518 
2348.000000	99.868786 
2347.000000	99.869039 
2346.000000	99.869273 
2345.000000	99.869485 
2344.000000	99.869674 
2343.000000	99.869840 
2342.000000	99.869984 
2341.000000	99.870106 
2340.000000	99.870204 
2339.000000	99.870274 
2338.000000	99.870316 
2337.000000	99.870333 
2336.000000	99.870334 
2335.000000	99.870325 
2334.000000	99.870303 
2333.000000	99.870262 
2332.000000	99.870194 
2331.000000	99.870091 
2330.000000	99.869939 
2329.000000	99.869731 
2328.000000	99.869503 
2327.000000	99.869317 
2326.000000	99.869205 
2325.000000	99.869099 
2324.000000	99.868869 
2323.000000	99.868448 
2322.000000	99.867964 
2321.000000	99.867738 
2320.000000	99.868017 
2319.000000	99.868586 
2318.000000	99.868834 
2317.000000	99.868323 
2316.000000	99.867242 
2315.000000	99.866107 
2314.000000	99.865237 
2313.000000	99.864602 
2312.000000	99.864113 
2311.000000	99.863811 
2310.000000	99.863913 
2309.000000	99.864493 
2308.000000	99.865134 
2307.000000	99.864964 
2306.000000	99.863511 
2305.000000	99.861266 
2304.000000	99.859165 
2303.000000	99.857513 
2302.000000	99.855967 
2301.000000	99.854406 
2300.000000	99.853286 
2299.000000	99.852847 
2298.000000	99.852692 
2297.000000	99.852420 
2296.000000	99.852313 
2295.000000	99.852795 
2294.000000	99.853544 
2293.000000	99.853645 
2292.000000	99.852649 
2291.000000	99.850942 
2290.000000	99.849183 
2289.000000	99.847712 
2288.000000	99.846586 
2287.000000	99.845814 
2286.000000	99.845348 
2285.000000	99.845038 
2284.000000	99.844736 
2283.000000	99.844368 
2282.000000	99.843794 
2281.000000	99.842777 
2280.000000	99.841311 
2279.000000	99.840026 
2278.000000	99.839982 
2277.000000	99.841722 
2276.000000	99.844571 
2275.000000	99.846983 
2274.000000	99.847881 
2273.000000	99.847435 
2272.000000	99.846330 
2271.000000	99.844617 
2270.000000	99.841932 
2269.000000	99.838923 
2268.000000	99.837421 
2267.000000	99.838628 
2266.000000	99.841830 
2265.000000	99.845109 
2264.000000	99.847024 
2263.000000	99.847301 
2262.000000	99.846765 
2261.000000	99.847074 
2260.000000	99.849478 
2259.000000	99.853042 
2258.000000	99.854920 
2257.000000	99.853453 
2256.000000	99.850094 
2255.000000	99.847597 
2254.000000	99.846733 
2253.000000	99.846329 
2252.000000	99.845924 
2251.000000	99.846512 
2250.000000	99.848604 
2249.000000	99.851096 
2248.000000	99.852601 
2247.000000	99.852822 
2246.000000	99.852226 
2245.000000	99.851086 
2244.000000	99.849344 
2243.000000	99.846991 
2242.000000	99.844386 
2241.000000	99.842293 
2240.000000	99.841336 
2239.000000	99.841109 
2238.000000	99.840344 
2237.000000	99.838350 
2236.000000	99.835713 
2235.000000	99.833140 
2234.000000	99.830601 
2233.000000	99.828410 
2232.000000	99.828060 
2231.000000	99.830619 
2230.000000	99.835256 
2229.000000	99.840324 
2228.000000	99.845195 
2227.000000	99.849862 
2226.000000	99.853359 
2225.000000	99.854095 
2224.000000	99.851696 
2223.000000	99.847676 
2222.000000	99.844420 
2221.000000	99.843779 
2220.000000	99.846097 
2219.000000	99.849893 
2218.000000	99.852895 
2217.000000	99.854238 
2216.000000	99.855173 
2215.000000	99.857057 
2214.000000	99.859345 
2213.000000	99.860412 
2212.000000	99.859740 
2211.000000	99.858394 
2210.000000	99.857808 
2209.000000	99.858823 
2208.000000	99.861476 
2207.000000	99.864745 
2206.000000	99.866863 
2205.000000	99.866747 
2204.000000	99.864880 
2203.000000	99.862455 
2202.000000	99.860226 
2201.000000	99.858695 
2200.000000	99.858383 
2199.000000	99.858857 
2198.000000	99.858423 
2197.000000	99.856121 
2196.000000	99.853552 
2195.000000	99.853370 
2194.000000	99.856439 
2193.000000	99.861575 
2192.000000	99.867081 
2191.000000	99.871427 
2190.000000	99.873220 
2189.000000	99.872134 
2188.000000	99.869940 
2187.000000	99.869255 
2186.000000	99.870853 
2185.000000	99.873571 
2184.000000	99.876488 
2183.000000	99.879636 
2182.000000	99.882429 
2181.000000	99.883512 
2180.000000	99.882871 
2179.000000	99.882130 
2178.000000	99.882028 
2177.000000	99.881289 
2176.000000	99.878858 
2175.000000	99.875690 
2174.000000	99.873459 
2173.000000	99.872566 
2172.000000	99.872268 
2171.000000	99.871927 
2170.000000	99.871579 
2169.000000	99.871770 
2168.000000	99.873172 
2167.000000	99.875821 
2166.000000	99.878561 
2165.000000	99.879910 
2164.000000	99.879644 
2163.000000	99.878844 
2162.000000	99.878569 
2161.000000	99.879076 
2160.000000	99.880223 
2159.000000	99.881658 
2158.000000	99.882534 
2157.000000	99.882135 
2156.000000	99.880854 
2155.000000	99.879795 
2154.000000	99.879348 
2153.000000	99.878893 
2152.000000	99.877893 
2151.000000	99.876592 
2150.000000	99.875605 
2149.000000	99.875235 
2148.000000	99.875351 
2147.000000	99.875532 
2146.000000	99.875250 
2145.000000	99.874248 
2144.000000	99.872716 
2143.000000	99.871131 
2142.000000	99.869794 
2141.000000	99.868641 
2140.000000	99.867528 
2139.000000	99.866408 
2138.000000	99.865283 
2137.000000	99.864145 
2136.000000	99.862994 
2135.000000	99.861858 
2134.000000	99.860752 
2133.000000	99.859654 
2132.000000	99.858535 
2131.000000	99.857372 
2130.000000	99.856162 
2129.000000	99.854918 
2128.000000	99.853655 
2127.000000	99.852388 
2126.000000	99.851118 
2125.000000	99.849842 
2124.000000	99.848558 
2123.000000	99.847279 
2122.000000	99.846031 
2121.000000	99.844822 
2120.000000	99.843629 
2119.000000	99.842423 
2118.000000	99.841209 
2117.000000	99.840029 
2116.000000	99.838922 
2115.000000	99.837897 
2114.000000	99.836952 
2113.000000	99.836086 
2112.000000	99.835280 
2111.000000	99.834469 
2110.000000	99.833595 
2109.000000	99.832692 
2108.000000	99.831889 
2107.000000	99.831269 
2106.000000	99.830755 
2105.000000	99.830132 
2104.000000	99.829184 
2103.000000	99.827863 
2102.000000	99.826470 
2101.000000	99.825573 
2100.000000	99.825542 
2099.000000	99.826145 
2098.000000	99.826719 
2097.000000	99.826989 
2096.000000	99.827337 
2095.000000	99.827992 
2094.000000	99.828274 
2093.000000	99.827179 
2092.000000	99.824770 
2091.000000	99.822716 
2090.000000	99.822756 
2089.000000	99.825008 
2088.000000	99.827868 
2087.000000	99.829554 
2086.000000	99.829731 
2085.000000	99.829350 
2084.000000	99.829435 
2083.000000	99.830182 
2082.000000	99.831217 
2081.000000	99.832432 
2080.000000	99.834202 
2079.000000	99.836734 
2078.000000	99.839500 
2077.000000	99.841721 
2076.000000	99.843328 
2075.000000	99.845091 
2074.000000	99.847659 
2073.000000	99.850723 
2072.000000	99.853232 
2071.000000	99.854252 
2070.000000	99.853608 
2069.000000	99.852020 
2068.000000	99.850708 
2067.000000	99.850446 
2066.000000	99.850892 
2065.000000	99.851080 
2064.000000	99.850661 
2063.000000	99.850322 
2062.000000	99.850935 
2061.000000	99.852779 
2060.000000	99.855583 
2059.000000	99.858881 
2058.000000	99.862019 
2057.000000	99.864254 
2056.000000	99.865290 
2055.000000	99.865418 
2054.000000	99.865163 
2053.000000	99.865034 
2052.000000	99.865571 
2051.000000	99.867080 
2050.000000	99.869008 
2049.000000	99.870075 
2048.000000	99.869603 
2047.000000	99.868389 
2046.000000	99.867757 
2045.000000	99.867990 
2044.000000	99.868374 
2043.000000	99.868462 
2042.000000	99.868613 
2041.000000	99.869211 
2040.000000	99.870007 
2039.000000	99.870586 
2038.000000	99.871118 
2037.000000	99.872177 
2036.000000	99.873809 
2035.000000	99.875135 
2034.000000	99.875140 
2033.000000	99.873581 
2032.000000	99.870934 
2031.000000	99.867892 
2030.000000	99.865189 
2029.000000	99.863530 
2028.000000	99.863183 
2027.000000	99.863691 
2026.000000	99.864332 
2025.000000	99.864923 
2024.000000	99.865741 
2023.000000	99.866676 
2022.000000	99.867012 
2021.000000	99.866257 
2020.000000	99.864853 
2019.000000	99.863866 
2018.000000	99.863884 
2017.000000	99.864523 
2016.000000	99.864861 
2015.000000	99.864353 
2014.000000	99.863225 
2013.000000	99.862132 
2012.000000	99.861580 
2011.000000	99.861633 
2010.000000	99.862123 
2009.000000	99.863016 
2008.000000	99.864278 
2007.000000	99.865473 
2006.000000	99.865914 
2005.000000	99.865400 
2004.000000	99.864563 
2003.000000	99.864146 
2002.000000	99.864121 
2001.000000	99.863858 
2000.000000	99.862942 
1999.000000	99.861526 
1998.000000	99.860070 
1997.000000	99.859080 
1996.000000	99.858957 
1995.000000	99.859766 
1994.000000	99.861047 
1993.000000	99.862044 
1992.000000	99.862301 
1991.000000	99.861936 
1990.000000	99.861420 
1989.000000	99.861278 
1988.000000	99.861905 
1987.000000	99.863296 
1986.000000	99.864850 
1985.000000	99.865751 
1984.000000	99.865730 
1983.000000	99.865285 
1982.000000	99.865000 
1981.000000	99.864801 
1980.000000	99.864127 
1979.000000	99.862683 
1978.000000	99.860778 
1977.000000	99.858922 
1976.000000	99.857331 
1975.000000	99.856058 
1974.000000	99.855512 
1973.000000	99.856504 
1972.000000	99.859448 
1971.000000	99.863354 
1970.000000	99.865927 
1969.000000	99.865338 
1968.000000	99.861728 
1967.000000	99.857269 
1966.000000	99.854263 
1965.000000	99.853101 
1964.000000	99.852557 
1963.000000	99.851339 
1962.000000	99.849158 
1961.000000	99.846612 
1960.000000	99.844472 
1959.000000	99.843273 
1958.000000	99.843339 
1957.000000	99.844641 
1956.000000	99.846435 
1955.000000	99.847481 
1954.000000	99.846990 
1953.000000	99.845296 
1952.000000	99.843340 
1951.000000	99.841545 
1950.000000	99.839603 
1949.000000	99.837351 
1948.000000	99.835222 
1947.000000	99.833459 
1946.000000	99.831317 
1945.000000	99.827739 
1944.000000	99.822983 
1943.000000	99.819238 
1942.000000	99.818892 
1941.000000	99.822056 
1940.000000	99.826206 
1939.000000	99.828490 
1938.000000	99.828358 
1937.000000	99.827736 
1936.000000	99.828633 
1935.000000	99.830691 
1934.000000	99.831778 
1933.000000	99.830925 
1932.000000	99.829672 
1931.000000	99.830017 
1930.000000	99.831790 
1929.000000	99.833015 
1928.000000	99.832525 
1927.000000	99.830977 
1926.000000	99.829543 
1925.000000	99.828655 
1924.000000	99.828204 
1923.000000	99.828285 
1922.000000	99.828995 
1921.000000	99.829782 
1920.000000	99.829502 
1919.000000	99.827172 
1918.000000	99.822879 
1917.000000	99.818254 
1916.000000	99.815350 
1915.000000	99.814839 
1914.000000	99.815920 
1913.000000	99.817315 
1912.000000	99.818216 
1911.000000	99.818430 
1910.000000	99.818021 
1909.000000	99.817331 
1908.000000	99.817086 
1907.000000	99.817812 
1906.000000	99.819181 
1905.000000	99.820267 
1904.000000	99.820415 
1903.000000	99.819653 
1902.000000	99.818350 
1901.000000	99.816882 
1900.000000	99.815528 
1899.000000	99.814469 
1898.000000	99.813791 
1897.000000	99.813565 
1896.000000	99.813816 
1895.000000	99.814196 
1894.000000	99.814011 
1893.000000	99.812945 
1892.000000	99.811579 
1891.000000	99.810810 
1890.000000	99.810836 
1889.000000	99.811055 
1888.000000	99.810998 
1887.000000	99.810739 
1886.000000	99.810451 
1885.000000	99.810248 
1884.000000	99.810377 
1883.000000	99.810969 
1882.000000	99.811583 
1881.000000	99.811568 
1880.000000	99.811012 
1879.000000	99.810867 
1878.000000	99.812039 
1877.000000	99.814582 
1876.000000	99.817629 
1875.000000	99.819862 
1874.000000	99.820180 
1873.000000	99.818373 
1872.000000	99.815462 
1871.000000	99.812802 
1870.000000	99.810796 
1869.000000	99.808966 
1868.000000	99.807363 
1867.000000	99.806713 
1866.000000	99.806880 
1865.000000	99.806753 
1864.000000	99.805491 
1863.000000	99.803247 
1862.000000	99.800941 
1861.000000	99.799796 
1860.000000	99.800845 
1859.000000	99.804191 
1858.000000	99.808396 
1857.000000	99.811412 
1856.000000	99.812562 
1855.000000	99.812895 
1854.000000	99.813557 
1853.000000	99.814401 
1852.000000	99.814468 
1851.000000	99.813505 
1850.000000	99.812545 
1849.000000	99.813049 
1848.000000	99.815397 
1847.000000	99.818400 
1846.000000	99.820313 
1845.000000	99.820420 
1844.000000	99.819734 
1843.000000	99.819796 
1842.000000	99.820724 
1841.000000	99.821602 
1840.000000	99.821791 
1839.000000	99.821227 
1838.000000	99.820127 
1837.000000	99.818811 
1836.000000	99.817675 
1835.000000	99.817089 
1834.000000	99.817151 
1833.000000	99.817574 
1832.000000	99.817777 
1831.000000	99.817315 
1830.000000	99.816478 
1829.000000	99.816244 
1828.000000	99.817081 
1827.000000	99.818358 
1826.000000	99.819109 
1825.000000	99.819032 
1824.000000	99.818675 
1823.000000	99.818535 
1822.000000	99.818406 
1821.000000	99.818019 
1820.000000	99.817775 
1819.000000	99.818338 
1818.000000	99.819652 
1817.000000	99.820773 
1816.000000	99.820985 
1815.000000	99.820679 
1814.000000	99.820724 
1813.000000	99.821373 
1812.000000	99.822209 
1811.000000	99.822999 
1810.000000	99.823859 
1809.000000	99.824528 
1808.000000	99.824434 
1807.000000	99.823428 
1806.000000	99.821952 
1805.000000	99.820655 
1804.000000	99.819913 
1803.000000	99.819603 
1802.000000	99.819162 
1801.000000	99.818060 
1800.000000	99.816602 
1799.000000	99.815808 
1798.000000	99.816239 
1797.000000	99.817616 
1796.000000	99.819382 
1795.000000	99.821087 
1794.000000	99.822286 
1793.000000	99.822541 
1792.000000	99.822032 
1791.000000	99.821752 
1790.000000	99.822142 
1789.000000	99.822667 
1788.000000	99.822993 
1787.000000	99.823436 
1786.000000	99.824230 
1785.000000	99.824884 
1784.000000	99.824785 
1783.000000	99.823947 
1782.000000	99.822816 
1781.000000	99.821736 
1780.000000	99.820854 
1779.000000	99.820147 
1778.000000	99.819591 
1777.000000	99.819372 
1776.000000	99.819773 
1775.000000	99.820681 
1774.000000	99.821552 
1773.000000	99.822031 
1772.000000	99.822298 
1771.000000	99.822765 
1770.000000	99.823384 
1769.000000	99.823585 
1768.000000	99.822955 
1767.000000	99.821839 
1766.000000	99.820996 
1765.000000	99.820739 
1764.000000	99.820812 
1763.000000	99.820804 
1762.000000	99.820615 
1761.000000	99.820470 
1760.000000	99.820537 
1759.000000	99.820823 
1758.000000	99.821492 
1757.000000	99.822916 
1756.000000	99.825040 
1755.000000	99.827003 
1754.000000	99.828017 
1753.000000	99.828075 
1752.000000	99.827646 
1751.000000	99.826935 
1750.000000	99.825802 
1749.000000	99.824557 
1748.000000	99.823905 
1747.000000	99.824097 
1746.000000	99.824597 
1745.000000	99.824747 
1744.000000	99.824495 
1743.000000	99.824324 
1742.000000	99.824560 
1741.000000	99.824920 
1740.000000	99.825114 
1739.000000	99.825601 
1738.000000	99.826970 
1737.000000	99.828881 
1736.000000	99.830407 
1735.000000	99.830861 
1734.000000	99.830198 
1733.000000	99.829212 
1732.000000	99.828510 
1731.000000	99.827820 
1730.000000	99.826995 
1729.000000	99.826396 
1728.000000	99.826294 
1727.000000	99.826519 
1726.000000	99.826775 
1725.000000	99.827006 
1724.000000	99.827295 
1723.000000	99.827606 
1722.000000	99.827827 
1721.000000	99.827916 
1720.000000	99.827991 
1719.000000	99.828258 
1718.000000	99.828719 
1717.000000	99.828943 
1716.000000	99.828779 
1715.000000	99.828575 
1714.000000	99.828491 
1713.000000	99.828398 
1712.000000	99.828216 
1711.000000	99.827988 
1710.000000	99.827787 
1709.000000	99.827637 
1708.000000	99.827524 
1707.000000	99.827437 
1706.000000	99.827342 
1705.000000	99.827206 
1704.000000	99.827045 
1703.000000	99.826902 
1702.000000	99.826780 
1701.000000	99.826646 
1700.000000	99.826477 
1699.000000	99.826321 
1698.000000	99.826178 
1697.000000	99.825982 
1696.000000	99.825717 
1695.000000	99.825427 
1694.000000	99.825164 
1693.000000	99.824928 
1692.000000	99.824708 
1691.000000	99.824499 
1690.000000	99.824301 
1689.000000	99.824112 
1688.000000	99.823939 
1687.000000	99.823784 
1686.000000	99.823634 
1685.000000	99.823428 
1684.000000	99.823115 
1683.000000	99.822728 
1682.000000	99.822353 
1681.000000	99.822008 
1680.000000	99.821686 
1679.000000	99.821378 
1678.000000	99.821065 
1677.000000	99.820732 
1676.000000	99.820391 
1675.000000	99.820084 
1674.000000	99.819845 
1673.000000	99.819661 
1672.000000	99.819491 
1671.000000	99.819303 
1670.000000	99.819079 
1669.000000	99.818816 
1668.000000	99.818538 
1667.000000	99.818259 
1666.000000	99.817975 
1665.000000	99.817674 
1664.000000	99.817368 
1663.000000	99.817091 
1662.000000	99.816870 
1661.000000	99.816710 
1660.000000	99.816610 
1659.000000	99.816524 
1658.000000	99.816376 
1657.000000	99.816115 
1656.000000	99.815782 
1655.000000	99.815465 
1654.000000	99.815247 
1653.000000	99.815087 
1652.000000	99.815068 
1651.000000	99.815212 
1650.000000	99.815368 
1649.000000	99.815375 
1648.000000	99.815190 
1647.000000	99.814791 
1646.000000	99.814288 
1645.000000	99.813970 
1644.000000	99.814025 
1643.000000	99.814407 
1642.000000	99.814836 
1641.000000	99.814932 
1640.000000	99.814607 
1639.000000	99.814091 
1638.000000	99.813664 
1637.000000	99.813554 
1636.000000	99.814004 
1635.000000	99.814844 
1634.000000	99.815497 
1633.000000	99.815583 
1632.000000	99.815081 
1631.000000	99.814213 
1630.000000	99.813293 
1629.000000	99.812644 
1628.000000	99.812565 
1627.000000	99.813004 
1626.000000	99.813468 
1625.000000	99.813536 
1624.000000	99.813357 
1623.000000	99.813391 
1622.000000	99.813943 
1621.000000	99.815126 
1620.000000	99.816775 
1619.000000	99.818360 
1618.000000	99.819247 
1617.000000	99.819503 
1616.000000	99.820285 
1615.000000	99.821963 
1614.000000	99.823563 
1613.000000	99.824654 
1612.000000	99.825704 
1611.000000	99.826962 
1610.000000	99.827627 
1609.000000	99.827033 
1608.000000	99.825852 
1607.000000	99.825198 
1606.000000	99.825524 
1605.000000	99.826799 
1604.000000	99.828804 
1603.000000	99.830841 
1602.000000	99.832260 
1601.000000	99.833374 
1600.000000	99.834885 
1599.000000	99.836621 
1598.000000	99.837896 
1597.000000	99.838715 
1596.000000	99.839614 
1595.000000	99.840489 
1594.000000	99.840684 
1593.000000	99.840453 
1592.000000	99.841003 
1591.000000	99.842823 
1590.000000	99.845099 
1589.000000	99.847044 
1588.000000	99.848732 
1587.000000	99.850254 
1586.000000	99.851209 
1585.000000	99.851537 
1584.000000	99.851757 
1583.000000	99.851971 
1582.000000	99.851788 
1581.000000	99.851358 
1580.000000	99.851170 
1579.000000	99.851281 
1578.000000	99.851380 
1577.000000	99.851422 
1576.000000	99.851652 
1575.000000	99.852028 
1574.000000	99.852329 
1573.000000	99.852567 
1572.000000	99.852826 
1571.000000	99.853126 
1570.000000	99.853407 
1569.000000	99.853659 
1568.000000	99.853905 
1567.000000	99.854088 
1566.000000	99.854186 
1565.000000	99.854254 
1564.000000	99.854340 
1563.000000	99.854442 
1562.000000	99.854531 
1561.000000	99.854603 
1560.000000	99.854663 
1559.000000	99.854691 
1558.000000	99.854686 
1557.000000	99.854673 
1556.000000	99.854645 
1555.000000	99.854590 
1554.000000	99.854502 
1553.000000	99.854381 
1552.000000	99.854231 
1551.000000	99.854056 
1550.000000	99.853860 
1549.000000	99.853648 
1548.000000	99.853425 
1547.000000	99.853191 
1546.000000	99.852945 
1545.000000	99.852692 
1544.000000	99.852442 
1543.000000	99.852209 
1542.000000	99.852007 
1541.000000	99.851843 
1540.000000	99.851681 
1539.000000	99.851470 
1538.000000	99.851201 
1537.000000	99.850907 
1536.000000	99.850602 
1535.000000	99.850267 
1534.000000	99.849838 
1533.000000	99.849270 
1532.000000	99.848665 
1531.000000	99.848156 
1530.000000	99.847731 
1529.000000	99.847282 
1528.000000	99.846772 
1527.000000	99.846288 
1526.000000	99.845913 
1525.000000	99.845590 
1524.000000	99.845239 
1523.000000	99.844886 
1522.000000	99.844526 
1521.000000	99.843979 
1520.000000	99.843163 
1519.000000	99.842150 
1518.000000	99.840953 
1517.000000	99.839637 
1516.000000	99.838485 
1515.000000	99.837712 
1514.000000	99.837199 
1513.000000	99.836668 
1512.000000	99.835953 
1511.000000	99.835077 
1510.000000	99.834133 
1509.000000	99.833212 
1508.000000	99.832551 
1507.000000	99.832468 
1506.000000	99.832645 
1505.000000	99.832335 
1504.000000	99.831500 
1503.000000	99.830473 
1502.000000	99.829439 
1501.000000	99.828364 
1500.000000	99.827175 
1499.000000	99.825987 
1498.000000	99.824964 
1497.000000	99.823948 
1496.000000	99.822685 
1495.000000	99.821377 
1494.000000	99.820366 
1493.000000	99.819628 
1492.000000	99.818847 
1491.000000	99.817763 
1490.000000	99.816410 
1489.000000	99.814944 
1488.000000	99.813516 
1487.000000	99.812293 
1486.000000	99.811181 
1485.000000	99.809905 
1484.000000	99.808387 
1483.000000	99.806805 
1482.000000	99.805455 
1481.000000	99.804506 
1480.000000	99.803843 
1479.000000	99.803168 
1478.000000	99.802142 
1477.000000	99.800623 
1476.000000	99.799031 
1475.000000	99.798277 
1474.000000	99.798611 
1473.000000	99.798874 
1472.000000	99.797824 
1471.000000	99.796131 
1470.000000	99.794807 
1469.000000	99.793585 
1468.000000	99.791948 
1467.000000	99.790232 
1466.000000	99.789201 
1465.000000	99.788872 
1464.000000	99.788772 
1463.000000	99.788778 
1462.000000	99.788717 
1461.000000	99.787866 
1460.000000	99.785669 
1459.000000	99.782084 
1458.000000	99.777262 
1457.000000	99.771164 
1456.000000	99.765036 
1455.000000	99.761308 
1454.000000	99.760579 
1453.000000	99.761956 
1452.000000	99.764559 
1451.000000	99.767539 
1450.000000	99.769636 
1449.000000	99.769252 
1448.000000	99.766057 
1447.000000	99.762582 
1446.000000	99.761703 
1445.000000	99.763345 
1444.000000	99.765700 
1443.000000	99.767563 
1442.000000	99.768965 
1441.000000	99.770144 
1440.000000	99.770746 
1439.000000	99.770347 
1438.000000	99.769347 
1437.000000	99.768090 
1436.000000	99.766228 
1435.000000	99.764523 
1434.000000	99.763703 
1433.000000	99.762581 
1432.000000	99.759875 
1431.000000	99.755805 
1430.000000	99.752097 
1429.000000	99.750133 
1428.000000	99.749530 
1427.000000	99.749131 
1426.000000	99.748122 
1425.000000	99.746461 
1424.000000	99.744385 
1423.000000	99.741702 
1422.000000	99.737884 
1421.000000	99.732037 
1420.000000	99.723979 
1419.000000	99.716119 
1418.000000	99.712335 
1417.000000	99.712038 
1416.000000	99.710850 
1415.000000	99.706558 
1414.000000	99.700371 
1413.000000	99.694494 
1412.000000	99.689816 
1411.000000	99.685995 
1410.000000	99.682794 
1409.000000	99.680148 
1408.000000	99.677965 
1407.000000	99.676718 
1406.000000	99.677068 
1405.000000	99.678975 
1404.000000	99.681861 
1403.000000	99.685703 
1402.000000	99.690893 
1401.000000	99.696769 
1400.000000	99.701564 
1399.000000	99.703676 
1398.000000	99.702708 
1397.000000	99.698323 
1396.000000	99.690213 
1395.000000	99.681409 
1394.000000	99.678589 
1393.000000	99.685299 
1392.000000	99.698026 
1391.000000	99.710373 
1390.000000	99.718509 
1389.000000	99.722203 
1388.000000	99.722876 
1387.000000	99.722065 
1386.000000	99.721204 
1385.000000	99.721308 
1384.000000	99.722374 
1383.000000	99.723640 
1382.000000	99.724561 
1381.000000	99.725440 
1380.000000	99.727265 
1379.000000	99.730828 
1378.000000	99.735888 
1377.000000	99.741286 
1376.000000	99.745902 
1375.000000	99.749585 
1374.000000	99.753334 
1373.000000	99.758346 
1372.000000	99.764558 
1371.000000	99.770731 
1370.000000	99.775740 
1369.000000	99.779609 
1368.000000	99.783051 
1367.000000	99.786524 
1366.000000	99.790145 
1365.000000	99.794046 
1364.000000	99.798376 
1363.000000	99.802952 
1362.000000	99.807197 
1361.000000	99.810834 
1360.000000	99.814273 
1359.000000	99.818239 
1358.000000	99.823213 
1357.000000	99.828956 
1356.000000	99.834319 
1355.000000	99.838232 
1354.000000	99.841156 
1353.000000	99.844691 
1352.000000	99.849351 
1351.000000	99.853554 
1350.000000	99.855628 
1349.000000	99.856773 
1348.000000	99.858985 
1347.000000	99.861682 
1346.000000	99.862615 
1345.000000	99.861452 
1344.000000	99.860180 
1343.000000	99.860135 
1342.000000	99.860677 
1341.000000	99.861201 
1340.000000	99.862446 
1339.000000	99.864902 
1338.000000	99.867721 
1337.000000	99.870215 
1336.000000	99.872697 
1335.000000	99.875124 
1334.000000	99.876312 
1333.000000	99.875478 
1332.000000	99.873696 
1331.000000	99.872791 
1330.000000	99.873258 
1329.000000	99.874334 
1328.000000	99.875445 
1327.000000	99.876543 
1326.000000	99.877418 
1325.000000	99.877892 
1324.000000	99.878106 
1323.000000	99.878238 
1322.000000	99.878262 
1321.000000	99.878331 
1320.000000	99.879061 
1319.000000	99.880913 
1318.000000	99.883265 
1317.000000	99.884538 
1316.000000	99.883586 
1315.000000	99.880942 
1314.000000	99.878622 
1313.000000	99.878286 
1312.000000	99.879579 
1311.000000	99.880677 
1310.000000	99.880445 
1309.000000	99.879433 
1308.000000	99.878637 
1307.000000	99.878052 
1306.000000	99.877074 
1305.000000	99.876044 
1304.000000	99.876121 
1303.000000	99.877694 
1302.000000	99.879714 
1301.000000	99.880848 
1300.000000	99.880745 
1299.000000	99.880097 
1298.000000	99.879957 
1297.000000	99.881040 
1296.000000	99.883155 
1295.000000	99.885059 
1294.000000	99.885384 
1293.000000	99.883847 
1292.000000	99.881327 
1291.000000	99.878979 
1290.000000	99.877633 
1289.000000	99.877852 
1288.000000	99.879725 
1287.000000	99.882303 
1286.000000	99.883979 
1285.000000	99.883825 
1284.000000	99.882094 
1283.000000	99.879605 
1282.000000	99.877061 
1281.000000	99.874985 
1280.000000	99.873789 
1279.000000	99.873284 
1278.000000	99.872676 
1277.000000	99.871552 
1276.000000	99.870403 
1275.000000	99.869673 
1274.000000	99.868815 
1273.000000	99.866978 
1272.000000	99.864336 
1271.000000	99.862023 
1270.000000	99.860747 
1269.000000	99.860012 
1268.000000	99.858739 
1267.000000	99.856184 
1266.000000	99.852276 
1265.000000	99.847523 
1264.000000	99.842777 
1263.000000	99.838780 
1262.000000	99.835686 
1261.000000	99.833178 
1260.000000	99.831081 
1259.000000	99.829477 
1258.000000	99.828223 
1257.000000	99.826852 
1256.000000	99.825296 
1255.000000	99.824260 
1254.000000	99.824262 
1253.000000	99.824576 
1252.000000	99.823954 
1251.000000	99.822454 
1250.000000	99.821781 
1249.000000	99.823424 
1248.000000	99.826990 
1247.000000	99.830650 
1246.000000	99.832523 
1245.000000	99.831046 
1244.000000	99.825112 
1243.000000	99.815723 
1242.000000	99.807326 
1241.000000	99.805165 
1240.000000	99.810275 
1239.000000	99.817996 
1238.000000	99.822436 
1237.000000	99.821874 
1236.000000	99.818667 
1235.000000	99.815241 
1234.000000	99.811933 
1233.000000	99.808286 
1232.000000	99.804194 
1231.000000	99.799300 
1230.000000	99.793069 
1229.000000	99.786378 
1228.000000	99.781761 
1227.000000	99.780908 
1226.000000	99.782574 
1225.000000	99.783904 
1224.000000	99.783275 
1223.000000	99.780973 
1222.000000	99.777730 
1221.000000	99.773829 
1220.000000	99.769573 
1219.000000	99.765476 
1218.000000	99.761494 
1217.000000	99.756596 
1216.000000	99.749585 
1215.000000	99.740280 
1214.000000	99.729593 
1213.000000	99.718389 
1212.000000	99.706601 
1211.000000	99.693895 
1210.000000	99.681076 
1209.000000	99.670085 
1208.000000	99.662071 
1207.000000	99.655876 
1206.000000	99.649122 
1205.000000	99.640562 
1204.000000	99.630605 
1203.000000	99.619945 
1202.000000	99.608908 
1201.000000	99.598075 
1200.000000	99.588085 
1199.000000	99.578429 
1198.000000	99.567697 
1197.000000	99.555388 
1196.000000	99.542229 
1195.000000	99.528469 
1194.000000	99.513304 
1193.000000	99.496582 
1192.000000	99.479688 
1191.000000	99.463771 
1190.000000	99.448308 
1189.000000	99.432588 
1188.000000	99.417413 
1187.000000	99.403885 
1186.000000	99.391470 
1185.000000	99.378728 
1184.000000	99.365178 
1183.000000	99.351004 
1182.000000	99.335768 
1181.000000	99.319032 
1180.000000	99.301507 
1179.000000	99.283904 
1178.000000	99.265383 
1177.000000	99.245037 
1176.000000	99.224127 
1175.000000	99.204432 
1174.000000	99.184699 
1173.000000	99.161526 
1172.000000	99.134346 
1171.000000	99.107151 
1170.000000	99.084281 
1169.000000	99.066297 
1168.000000	99.050789 
1167.000000	99.035608 
1166.000000	99.020676 
1165.000000	99.008120 
1164.000000	99.001344 
1163.000000	99.002595 
1162.000000	99.010624 
1161.000000	99.021704 
1160.000000	99.032956 
1159.000000	99.042866 
1158.000000	99.048595 
1157.000000	99.045612 
1156.000000	99.031574 
1155.000000	99.009412 
1154.000000	98.985517 
1153.000000	98.965117 
1152.000000	98.949567 
1151.000000	98.936664 
1150.000000	98.922580 
1149.000000	98.904844 
1148.000000	98.884696 
1147.000000	98.865854 
1146.000000	98.850277 
1145.000000	98.836090 
1144.000000	98.820202 
1143.000000	98.801659 
1142.000000	98.781826 
1141.000000	98.762753 
1140.000000	98.746320 
1139.000000	98.733498 
1138.000000	98.722940 
1137.000000	98.711195 
1136.000000	98.695675 
1135.000000	98.676964 
1134.000000	98.657370 
1133.000000	98.637848 
1132.000000	98.617482 
1131.000000	98.595741 
1130.000000	98.574114 
1129.000000	98.554999 
1128.000000	98.538922 
1127.000000	98.523033 
1126.000000	98.503252 
1125.000000	98.478673 
1124.000000	98.453114 
1123.000000	98.431080 
1122.000000	98.412593 
1121.000000	98.393738 
1120.000000	98.371942 
1119.000000	98.348495 
1118.000000	98.325686 
1117.000000	98.303879 
1116.000000	98.282386 
1115.000000	98.261173 
1114.000000	98.240392 
1113.000000	98.219701 
1112.000000	98.199078 
1111.000000	98.178853 
1110.000000	98.158095 
1109.000000	98.134746 
1108.000000	98.108553 
1107.000000	98.082413 
1106.000000	98.059271 
1105.000000	98.038876 
1104.000000	98.018766 
1103.000000	97.997566 
1102.000000	97.976148 
1101.000000	97.956031 
1100.000000	97.937637 
1099.000000	97.920518 
1098.000000	97.904000 
1097.000000	97.887811 
1096.000000	97.871912 
1095.000000	97.855744 
1094.000000	97.837985 
1093.000000	97.817497 
1092.000000	97.794213 
1091.000000	97.768641 
1090.000000	97.741146 
1089.000000	97.712564 
1088.000000	97.684899 
1087.000000	97.659973 
1086.000000	97.637469 
1085.000000	97.615658 
1084.000000	97.593924 
1083.000000	97.573067 
1082.000000	97.553052 
1081.000000	97.532260 
1080.000000	97.509478 
1079.000000	97.485230 
1078.000000	97.460835 
1077.000000	97.437649 
1076.000000	97.417514 
1075.000000	97.402085 
1074.000000	97.390976 
1073.000000	97.381746 
1072.000000	97.371381 
1071.000000	97.355853 
1070.000000	97.329290 
1069.000000	97.287794 
1068.000000	97.235714 
1067.000000	97.185564 
1066.000000	97.148595 
1065.000000	97.126222 
1064.000000	97.111549 
1063.000000	97.096276 
1062.000000	97.074545 
1061.000000	97.043162 
1060.000000	97.002388 
1059.000000	96.957068 
1058.000000	96.914481 
1057.000000	96.879475 
1056.000000	96.851724 
1055.000000	96.827273 
1054.000000	96.802343 
1053.000000	96.776179 
1052.000000	96.750530 
1051.000000	96.726250 
1050.000000	96.701153 
1049.000000	96.672194 
1048.000000	96.638994 
1047.000000	96.604093 
1046.000000	96.570693 
1045.000000	96.540957 
1044.000000	96.514846 
1043.000000	96.489399 
1042.000000	96.461161 
1041.000000	96.431013 
1040.000000	96.404483 
1039.000000	96.385555 
1038.000000	96.372749 
1037.000000	96.363260 
1036.000000	96.357435 
1035.000000	96.355673 
1034.000000	96.354358 
1033.000000	96.349432 
1032.000000	96.341227 
1031.000000	96.331166 
1030.000000	96.317260 
1029.000000	96.299255 
1028.000000	96.285528 
1027.000000	96.286654 
1026.000000	96.301939 
1025.000000	96.318853 
1024.000000	96.326740 
1023.000000	96.325413 
1022.000000	96.320063 
1021.000000	96.314647 
1020.000000	96.311913 
1019.000000	96.313630 
1018.000000	96.317714 
1017.000000	96.319350 
1016.000000	96.317121 
1015.000000	96.314512 
1014.000000	96.314291 
1013.000000	96.315353 
1012.000000	96.315967 
1011.000000	96.315900 
1010.000000	96.314433 
1009.000000	96.310838 
1008.000000	96.308036 
1007.000000	96.311193 
1006.000000	96.320961 
1005.000000	96.332122 
1004.000000	96.340542 
1003.000000	96.347696 
1002.000000	96.356747 
1001.000000	96.367978 
1000.000000	96.379799 
999.000000	 96.390853 
998.000000	 96.399742 
997.000000	 96.406072 
996.000000	 96.413089 
995.000000	 96.425733 
994.000000	 96.444559 
993.000000	 96.464584 
992.000000	 96.481417 
991.000000	 96.495441 
990.000000	 96.508820 
989.000000	 96.521903 
988.000000	 96.534496 
987.000000	 96.547932 
986.000000	 96.564101 
985.000000	 96.584214 
984.000000	 96.608864 
983.000000	 96.636913 
982.000000	 96.664653 
981.000000	 96.689138 
980.000000	 96.712527 
979.000000	 96.740209 
978.000000	 96.774522 
977.000000	 96.813204 
976.000000	 96.853445 
975.000000	 96.893684 
974.000000	 96.931773 
973.000000	 96.966162 
972.000000	 96.999774 
971.000000	 97.038292 
970.000000	 97.083062 
969.000000	 97.129147 
968.000000	 97.171720 
967.000000	 97.210966 
966.000000	 97.249374 
965.000000	 97.287646 
964.000000	 97.325119 
963.000000	 97.361574 
962.000000	 97.396954 
961.000000	 97.431206 
960.000000	 97.465207 
959.000000	 97.499733 
958.000000	 97.533211 
957.000000	 97.563168 
956.000000	 97.590228 
955.000000	 97.617816 
954.000000	 97.647286 
953.000000	 97.676376 
952.000000	 97.703329 
951.000000	 97.729310 
950.000000	 97.755327 
949.000000	 97.779658 
948.000000	 97.800095 
947.000000	 97.816470 
946.000000	 97.829512 
945.000000	 97.839337 
944.000000	 97.846827 
943.000000	 97.855032 
942.000000	 97.867514 
941.000000	 97.885704 
940.000000	 97.908025 
939.000000	 97.930331 
938.000000	 97.947621 
937.000000	 97.957815 
936.000000	 97.964571 
935.000000	 97.974515 
934.000000	 97.990810 
933.000000	 98.011118 
932.000000	 98.032088 
931.000000	 98.053328 
930.000000	 98.075847 
929.000000	 98.098517 
928.000000	 98.117747 
927.000000	 98.130245 
926.000000	 98.135800 
925.000000	 98.138174 
924.000000	 98.143161 
923.000000	 98.154440 
922.000000	 98.170924 
921.000000	 98.188606 
920.000000	 98.204290 
919.000000	 98.216627 
918.000000	 98.225103 
917.000000	 98.230364 
916.000000	 98.234927 
915.000000	 98.241238 
914.000000	 98.249129 
913.000000	 98.257086 
912.000000	 98.265740 
911.000000	 98.277971 
910.000000	 98.295777 
909.000000	 98.318961 
908.000000	 98.346417 
907.000000	 98.376563 
906.000000	 98.406819 
905.000000	 98.434962 
904.000000	 98.460850 
903.000000	 98.485452 
902.000000	 98.509471 
901.000000	 98.534679 
900.000000	 98.564509 
899.000000	 98.599951 
898.000000	 98.635673 
897.000000	 98.664103 
896.000000	 98.683379 
895.000000	 98.698566 
894.000000	 98.715691 
893.000000	 98.737517 
892.000000	 98.764735 
891.000000	 98.797153 
890.000000	 98.832458 
889.000000	 98.866735 
888.000000	 98.897676 
887.000000	 98.925805 
886.000000	 98.952444 
885.000000	 98.978245 
884.000000	 99.003375 
883.000000	 99.026833 
882.000000	 99.045884 
881.000000	 99.058966 
880.000000	 99.069303 
879.000000	 99.082813 
878.000000	 99.102089 
877.000000	 99.125143 
876.000000	 99.149751 
875.000000	 99.175329 
874.000000	 99.200429 
873.000000	 99.222643 
872.000000	 99.242125 
871.000000	 99.261802 
870.000000	 99.283192 
869.000000	 99.305539 
868.000000	 99.329855 
867.000000	 99.359343 
866.000000	 99.393540 
865.000000	 99.425970 
864.000000	 99.451164 
863.000000	 99.471622 
862.000000	 99.494266 
861.000000	 99.520921 
860.000000	 99.546023 
859.000000	 99.564041 
858.000000	 99.575996 
857.000000	 99.587432 
856.000000	 99.602270 
855.000000	 99.620784 
854.000000	 99.642096 
853.000000	 99.665277 
852.000000	 99.687435 
851.000000	 99.704069 
850.000000	 99.714054 
849.000000	 99.722543 
848.000000	 99.735809 
847.000000	 99.753920 
846.000000	 99.771493 
845.000000	 99.785030 
844.000000	 99.795610 
843.000000	 99.804443 
842.000000	 99.810435 
841.000000	 99.813328 
840.000000	 99.814647 
839.000000	 99.813645 
838.000000	 99.806998 
837.000000	 99.795312 
836.000000	 99.785425 
835.000000	 99.782430 
834.000000	 99.783297 
833.000000	 99.782922 
832.000000	 99.782490 
831.000000	 99.785835 
830.000000	 99.790607 
829.000000	 99.790885 
828.000000	 99.788002 
827.000000	 99.790817 
826.000000	 99.803345 
825.000000	 99.818781 
824.000000	 99.828575 
823.000000	 99.831586 
822.000000	 99.831744 
821.000000	 99.832079 
820.000000	 99.833781 
819.000000	 99.837051 
818.000000	 99.840563 
817.000000	 99.842427 
816.000000	 99.842167 
815.000000	 99.839382 
814.000000	 99.830875 
813.000000	 99.812273 
812.000000	 99.782518 
811.000000	 99.743485 
810.000000	 99.694815 
809.000000	 99.632630 
808.000000	 99.554625 
807.000000	 99.463889 
806.000000	 99.366660 
805.000000	 99.268668 
804.000000	 99.174770 
803.000000	 99.089425 
802.000000	 99.015528 
801.000000	 98.954188 
800.000000	 98.906356 
799.000000	 98.873216 
798.000000	 98.855319 
797.000000	 98.852897 
796.000000	 98.865345 
795.000000	 98.888029 
794.000000	 98.912103 
793.000000	 98.931472 
792.000000	 98.948248 
791.000000	 98.967466 
790.000000	 98.988355 
789.000000	 99.004545 
788.000000	 99.010253 
787.000000	 99.001831 
786.000000	 98.976417 
785.000000	 98.935530 
784.000000	 98.888795 
783.000000	 98.847814 
782.000000	 98.816113 
781.000000	 98.789834 
780.000000	 98.767137 
779.000000	 98.750929 
778.000000	 98.742955 
777.000000	 98.741921 
776.000000	 98.748239 
775.000000	 98.764656 
774.000000	 98.791007 
773.000000	 98.823309 
772.000000	 98.858693 
771.000000	 98.896285 
770.000000	 98.932821 
769.000000	 98.962466 
768.000000	 98.981909 
767.000000	 98.992305 
766.000000	 98.997095 
765.000000	 99.001790 
764.000000	 99.013737 
763.000000	 99.035622 
762.000000	 99.059298 
761.000000	 99.072493 
760.000000	 99.072937 
759.000000	 99.071177 
758.000000	 99.078908 
757.000000	 99.098548 
756.000000	 99.123614 
755.000000	 99.144061 
754.000000	 99.151974 
753.000000	 99.148076 
752.000000	 99.143557 
751.000000	 99.150799 
750.000000	 99.171299 
749.000000	 99.196052 
748.000000	 99.216977 
747.000000	 99.233346 
746.000000	 99.247699 
745.000000	 99.261771 
744.000000	 99.277682 
743.000000	 99.297634 
742.000000	 99.320533 
741.000000	 99.343022 
740.000000	 99.364686 
739.000000	 99.388186 
738.000000	 99.413921 
737.000000	 99.438553 
736.000000	 99.458842 
735.000000	 99.473127 
734.000000	 99.480219 
733.000000	 99.482132 
732.000000	 99.487203 
731.000000	 99.503777 
730.000000	 99.529693 
729.000000	 99.554481 
728.000000	 99.572751 
727.000000	 99.588193 
726.000000	 99.603148 
725.000000	 99.612285 
724.000000	 99.610744 
723.000000	 99.602133 
722.000000	 99.594473 
721.000000	 99.593378 
720.000000	 99.602280 
719.000000	 99.623025 
718.000000	 99.651617 
717.000000	 99.678288 
716.000000	 99.695798 
715.000000	 99.704290 
714.000000	 99.707262 
713.000000	 99.707864 
712.000000	 99.711119 
711.000000	 99.723163 
710.000000	 99.743394 
709.000000	 99.762404 
708.000000	 99.771824 
707.000000	 99.771786 
706.000000	 99.766072 
705.000000	 99.755074 
704.000000	 99.738119 
703.000000	 99.718456 
702.000000	 99.700233 
701.000000	 99.682490 
700.000000	 99.660462 
699.000000	 99.631028 
698.000000	 99.595469 
697.000000	 99.559385 
696.000000	 99.531084 
695.000000	 99.517017 
694.000000	 99.516535 
693.000000	 99.524102 
692.000000	 99.536880 
691.000000	 99.555441 
690.000000	 99.578204 
689.000000	 99.601326 
688.000000	 99.624565 
687.000000	 99.650234 
686.000000	 99.674388 
685.000000	 99.687544 
684.000000	 99.686993 
683.000000	 99.681103 
682.000000	 99.679723 
681.000000	 99.686001 
680.000000	 99.697769 
679.000000	 99.709736 
678.000000	 99.714616 
677.000000	 99.711225 
676.000000	 99.711098 
675.000000	 99.726520 
674.000000	 99.753126 
673.000000	 99.772835 
672.000000	 99.775131 
671.000000	 99.766680 
670.000000	 99.760287 
669.000000	 99.764397 
668.000000	 99.779838 
667.000000	 99.798209 
666.000000	 99.812324 
665.000000	 99.821866 
664.000000	 99.829874 
663.000000	 99.843392 
662.000000	 99.864796 
661.000000	 99.883940 
660.000000	 99.888148 
659.000000	 99.876288 
658.000000	 99.858785 
657.000000	 99.846488 
656.000000	 99.842391 
655.000000	 99.844814 
654.000000	 99.851892 
653.000000	 99.861351 
652.000000	 99.870617 
651.000000	 99.879045 
650.000000	 99.887424 

