4000.000000	100.520658 
3999.000000	100.520110 
3998.000000	100.519619 
3997.000000	100.520859 
3996.000000	100.523711 
3995.000000	100.526707 
3994.000000	100.528814 
3993.000000	100.530403 
3992.000000	100.532372 
3991.000000	100.534372 
3990.000000	100.534263 
3989.000000	100.530057 
3988.000000	100.522599 
3987.000000	100.515573 
3986.000000	100.512407 
3985.000000	100.513629 
3984.000000	100.517490 
3983.000000	100.522459 
3982.000000	100.528160 
3981.000000	100.534372 
3980.000000	100.540290 
3979.000000	100.545052 
3978.000000	100.548092 
3977.000000	100.548811 
3976.000000	100.546804 
3975.000000	100.542700 
3974.000000	100.537773 
3973.000000	100.532721 
3972.000000	100.527988 
3971.000000	100.524975 
3970.000000	100.525558 
3969.000000	100.529751 
3968.000000	100.535232 
3967.000000	100.539224 
3966.000000	100.540233 
3965.000000	100.538195 
3964.000000	100.534185 
3963.000000	100.530455 
3962.000000	100.529317 
3961.000000	100.531044 
3960.000000	100.533796 
3959.000000	100.535499 
3958.000000	100.535296 
3957.000000	100.533300 
3956.000000	100.530707 
3955.000000	100.529383 
3954.000000	100.530121 
3953.000000	100.531727 
3952.000000	100.532205 
3951.000000	100.531067 
3950.000000	100.529364 
3949.000000	100.528052 
3948.000000	100.526826 
3947.000000	100.524649 
3946.000000	100.521694 
3945.000000	100.520277 
3944.000000	100.522513 
3943.000000	100.526803 
3942.000000	100.528719 
3941.000000	100.526362 
3940.000000	100.522989 
3939.000000	100.522969 
3938.000000	100.526398 
3937.000000	100.528427 
3936.000000	100.525599 
3935.000000	100.520778 
3934.000000	100.519440 
3933.000000	100.522738 
3932.000000	100.526693 
3931.000000	100.529120 
3930.000000	100.531873 
3929.000000	100.535344 
3928.000000	100.536052 
3927.000000	100.532353 
3926.000000	100.528973 
3925.000000	100.530237 
3924.000000	100.533398 
3923.000000	100.534256 
3922.000000	100.533989 
3921.000000	100.535186 
3920.000000	100.535772 
3919.000000	100.532119 
3918.000000	100.526489 
3917.000000	100.523975 
3916.000000	100.524683 
3915.000000	100.525064 
3914.000000	100.525293 
3913.000000	100.527756 
3912.000000	100.531771 
3911.000000	100.533055 
3910.000000	100.530797 
3909.000000	100.527988 
3908.000000	100.527756 
3907.000000	100.530728 
3906.000000	100.536867 
3905.000000	100.545454 
3904.000000	100.550981 
3903.000000	100.547188 
3902.000000	100.535771 
3901.000000	100.526641 
3900.000000	100.526688 
3899.000000	100.531258 
3898.000000	100.531561 
3897.000000	100.526479 
3896.000000	100.521425 
3895.000000	100.518962 
3894.000000	100.517976 
3893.000000	100.518686 
3892.000000	100.526258 
3891.000000	100.540690 
3890.000000	100.553123 
3889.000000	100.555214 
3888.000000	100.550656 
3887.000000	100.551832 
3886.000000	100.559037 
3885.000000	100.556887 
3884.000000	100.540400 
3883.000000	100.524681 
3882.000000	100.525420 
3881.000000	100.539235 
3880.000000	100.547708 
3879.000000	100.542007 
3878.000000	100.530388 
3877.000000	100.523718 
3876.000000	100.527309 
3875.000000	100.538363 
3874.000000	100.544480 
3873.000000	100.534499 
3872.000000	100.515808 
3871.000000	100.510619 
3870.000000	100.524084 
3869.000000	100.533944 
3868.000000	100.527064 
3867.000000	100.518888 
3866.000000	100.529418 
3865.000000	100.550560 
3864.000000	100.556454 
3863.000000	100.544064 
3862.000000	100.534641 
3861.000000	100.536729 
3860.000000	100.540869 
3859.000000	100.537001 
3858.000000	100.525369 
3857.000000	100.510372 
3856.000000	100.499959 
3855.000000	100.509895 
3854.000000	100.538476 
3853.000000	100.554250 
3852.000000	100.547553 
3851.000000	100.538893 
3850.000000	100.542642 
3849.000000	100.554614 
3848.000000	100.561261 
3847.000000	100.556331 
3846.000000	100.547139 
3845.000000	100.542943 
3844.000000	100.545620 
3843.000000	100.548980 
3842.000000	100.546800 
3841.000000	100.540557 
3840.000000	100.539671 
3839.000000	100.547485 
3838.000000	100.558085 
3837.000000	100.564856 
3836.000000	100.565815 
3835.000000	100.561345 
3834.000000	100.553766 
3833.000000	100.548228 
3832.000000	100.547381 
3831.000000	100.547680 
3830.000000	100.545299 
3829.000000	100.541160 
3828.000000	100.540718 
3827.000000	100.547120 
3826.000000	100.554733 
3825.000000	100.553433 
3824.000000	100.543608 
3823.000000	100.539964 
3822.000000	100.554410 
3821.000000	100.572686 
3820.000000	100.572901 
3819.000000	100.557284 
3818.000000	100.546114 
3817.000000	100.554885 
3816.000000	100.569592 
3815.000000	100.564571 
3814.000000	100.544125 
3813.000000	100.533961 
3812.000000	100.543176 
3811.000000	100.554992 
3810.000000	100.550624 
3809.000000	100.535442 
3808.000000	100.532716 
3807.000000	100.547575 
3806.000000	100.558710 
3805.000000	100.550864 
3804.000000	100.534077 
3803.000000	100.531125 
3802.000000	100.546890 
3801.000000	100.555660 
3800.000000	100.543334 
3799.000000	100.527383 
3798.000000	100.526462 
3797.000000	100.538341 
3796.000000	100.544591 
3795.000000	100.536591 
3794.000000	100.526136 
3793.000000	100.527517 
3792.000000	100.538763 
3791.000000	100.547387 
3790.000000	100.547401 
3789.000000	100.543538 
3788.000000	100.541577 
3787.000000	100.543008 
3786.000000	100.547988 
3785.000000	100.556358 
3784.000000	100.564161 
3783.000000	100.565962 
3782.000000	100.562699 
3781.000000	100.561016 
3780.000000	100.563709 
3779.000000	100.564402 
3778.000000	100.557834 
3777.000000	100.548147 
3776.000000	100.544349 
3775.000000	100.548743 
3774.000000	100.553840 
3773.000000	100.552424 
3772.000000	100.548456 
3771.000000	100.550280 
3770.000000	100.555462 
3769.000000	100.554517 
3768.000000	100.547663 
3767.000000	100.545005 
3766.000000	100.552505 
3765.000000	100.563046 
3764.000000	100.564968 
3763.000000	100.558569 
3762.000000	100.556703 
3761.000000	100.565923 
3760.000000	100.575543 
3759.000000	100.573951 
3758.000000	100.568322 
3757.000000	100.569015 
3756.000000	100.572478 
3755.000000	100.571594 
3754.000000	100.569520 
3753.000000	100.573104 
3752.000000	100.576174 
3751.000000	100.569914 
3750.000000	100.564566 
3749.000000	100.570582 
3748.000000	100.575323 
3747.000000	100.564723 
3746.000000	100.553533 
3745.000000	100.561768 
3744.000000	100.569223 
3743.000000	100.556499 
3742.000000	100.542932 
3741.000000	100.548950 
3740.000000	100.567695 
3739.000000	100.574194 
3738.000000	100.561428 
3737.000000	100.550014 
3736.000000	100.553607 
3735.000000	100.560255 
3734.000000	100.559234 
3733.000000	100.560210 
3732.000000	100.570247 
3731.000000	100.579821 
3730.000000	100.578795 
3729.000000	100.570722 
3728.000000	100.567097 
3727.000000	100.570950 
3726.000000	100.573191 
3725.000000	100.570449 
3724.000000	100.570407 
3723.000000	100.575924 
3722.000000	100.579310 
3721.000000	100.575401 
3720.000000	100.569690 
3719.000000	100.569476 
3718.000000	100.575367 
3717.000000	100.579055 
3716.000000	100.571925 
3715.000000	100.555590 
3714.000000	100.539834 
3713.000000	100.531185 
3712.000000	100.527193 
3711.000000	100.525012 
3710.000000	100.527830 
3709.000000	100.537058 
3708.000000	100.548363 
3707.000000	100.555185 
3706.000000	100.552795 
3705.000000	100.541990 
3704.000000	100.529014 
3703.000000	100.520830 
3702.000000	100.519722 
3701.000000	100.522787 
3700.000000	100.525629 
3699.000000	100.526282 
3698.000000	100.526766 
3697.000000	100.528111 
3696.000000	100.526199 
3695.000000	100.519405 
3694.000000	100.513714 
3693.000000	100.513818 
3692.000000	100.515859 
3691.000000	100.514093 
3690.000000	100.511457 
3689.000000	100.513597 
3688.000000	100.518391 
3687.000000	100.519511 
3686.000000	100.516407 
3685.000000	100.515040 
3684.000000	100.517471 
3683.000000	100.516949 
3682.000000	100.509127 
3681.000000	100.501559 
3680.000000	100.499482 
3679.000000	100.492875 
3678.000000	100.472068 
3677.000000	100.453551 
3676.000000	100.458065 
3675.000000	100.474166 
3674.000000	100.482419 
3673.000000	100.483082 
3672.000000	100.489492 
3671.000000	100.507049 
3670.000000	100.517634 
3669.000000	100.507008 
3668.000000	100.489693 
3667.000000	100.481997 
3666.000000	100.482017 
3665.000000	100.480935 
3664.000000	100.476096 
3663.000000	100.472036 
3662.000000	100.473717 
3661.000000	100.480014 
3660.000000	100.484401 
3659.000000	100.483507 
3658.000000	100.481653 
3657.000000	100.486235 
3656.000000	100.495456 
3655.000000	100.501618 
3654.000000	100.503215 
3653.000000	100.506463 
3652.000000	100.517783 
3651.000000	100.531513 
3650.000000	100.530211 
3649.000000	100.510868 
3648.000000	100.492388 
3647.000000	100.486306 
3646.000000	100.487095 
3645.000000	100.488435 
3644.000000	100.491074 
3643.000000	100.496369 
3642.000000	100.501165 
3641.000000	100.501348 
3640.000000	100.499560 
3639.000000	100.502969 
3638.000000	100.512546 
3637.000000	100.521763 
3636.000000	100.526244 
3635.000000	100.529257 
3634.000000	100.532684 
3633.000000	100.531500 
3632.000000	100.522410 
3631.000000	100.514366 
3630.000000	100.519323 
3629.000000	100.526979 
3628.000000	100.520007 
3627.000000	100.506735 
3626.000000	100.505012 
3625.000000	100.517296 
3624.000000	100.531938 
3623.000000	100.536418 
3622.000000	100.530199 
3621.000000	100.523051 
3620.000000	100.520769 
3619.000000	100.520158 
3618.000000	100.519462 
3617.000000	100.521468 
3616.000000	100.527386 
3615.000000	100.536235 
3614.000000	100.544537 
3613.000000	100.546354 
3612.000000	100.538689 
3611.000000	100.526057 
3610.000000	100.516739 
3609.000000	100.514464 
3608.000000	100.515692 
3607.000000	100.516724 
3606.000000	100.519190 
3605.000000	100.525216 
3604.000000	100.532427 
3603.000000	100.536173 
3602.000000	100.535383 
3601.000000	100.534038 
3600.000000	100.535476 
3599.000000	100.540229 
3598.000000	100.546861 
3597.000000	100.552277 
3596.000000	100.553094 
3595.000000	100.549837 
3594.000000	100.546417 
3593.000000	100.547233 
3592.000000	100.553685 
3591.000000	100.563327 
3590.000000	100.572689 
3589.000000	100.578529 
3588.000000	100.577088 
3587.000000	100.567614 
3586.000000	100.556175 
3585.000000	100.549842 
3584.000000	100.549454 
3583.000000	100.551003 
3582.000000	100.550694 
3581.000000	100.548046 
3580.000000	100.544149 
3579.000000	100.539347 
3578.000000	100.533579 
3577.000000	100.528194 
3576.000000	100.525907 
3575.000000	100.528465 
3574.000000	100.534945 
3573.000000	100.542330 
3572.000000	100.547850 
3571.000000	100.549365 
3570.000000	100.545917 
3569.000000	100.538524 
3568.000000	100.529177 
3567.000000	100.520720 
3566.000000	100.518282 
3565.000000	100.525263 
3564.000000	100.538379 
3563.000000	100.550213 
3562.000000	100.555534 
3561.000000	100.554787 
3560.000000	100.552290 
3559.000000	100.551144 
3558.000000	100.551079 
3557.000000	100.550173 
3556.000000	100.547497 
3555.000000	100.544080 
3554.000000	100.542196 
3553.000000	100.542879 
3552.000000	100.544362 
3551.000000	100.543981 
3550.000000	100.541269 
3549.000000	100.538273 
3548.000000	100.536822 
3547.000000	100.536976 
3546.000000	100.538573 
3545.000000	100.542220 
3544.000000	100.547811 
3543.000000	100.553776 
3542.000000	100.558595 
3541.000000	100.561577 
3540.000000	100.562234 
3539.000000	100.560277 
3538.000000	100.556692 
3537.000000	100.553437 
3536.000000	100.551426 
3535.000000	100.550021 
3534.000000	100.548212 
3533.000000	100.545928 
3532.000000	100.543512 
3531.000000	100.541415 
3530.000000	100.540712 
3529.000000	100.542752 
3528.000000	100.547336 
3527.000000	100.552151 
3526.000000	100.554976 
3525.000000	100.555444 
3524.000000	100.554384 
3523.000000	100.552794 
3522.000000	100.551922 
3521.000000	100.552720 
3520.000000	100.554586 
3519.000000	100.555629 
3518.000000	100.554586 
3517.000000	100.552389 
3516.000000	100.551441 
3515.000000	100.553557 
3514.000000	100.558270 
3513.000000	100.563306 
3512.000000	100.566172 
3511.000000	100.565384 
3510.000000	100.561324 
3509.000000	100.556384 
3508.000000	100.553451 
3507.000000	100.553586 
3506.000000	100.555118 
3505.000000	100.554778 
3504.000000	100.550317 
3503.000000	100.543516 
3502.000000	100.540169 
3501.000000	100.545185 
3500.000000	100.557150 
3499.000000	100.568683 
3498.000000	100.572357 
3497.000000	100.566518 
3496.000000	100.556205 
3495.000000	100.548633 
3494.000000	100.547357 
3493.000000	100.550158 
3492.000000	100.552220 
3491.000000	100.550999 
3490.000000	100.548183 
3489.000000	100.547405 
3488.000000	100.550348 
3487.000000	100.555371 
3486.000000	100.559639 
3485.000000	100.561803 
3484.000000	100.562517 
3483.000000	100.563087 
3482.000000	100.563751 
3481.000000	100.563247 
3480.000000	100.560223 
3479.000000	100.555308 
3478.000000	100.551267 
3477.000000	100.550363 
3476.000000	100.551789 
3475.000000	100.552703 
3474.000000	100.552052 
3473.000000	100.551977 
3472.000000	100.554934 
3471.000000	100.560372 
3470.000000	100.565124 
3469.000000	100.566687 
3468.000000	100.565158 
3467.000000	100.562024 
3466.000000	100.558349 
3465.000000	100.554673 
3464.000000	100.551620 
3463.000000	100.549563 
3462.000000	100.547972 
3461.000000	100.545964 
3460.000000	100.543645 
3459.000000	100.542380 
3458.000000	100.543448 
3457.000000	100.546662 
3456.000000	100.550257 
3455.000000	100.552185 
3454.000000	100.551782 
3453.000000	100.550379 
3452.000000	100.549860 
3451.000000	100.551069 
3450.000000	100.553761 
3449.000000	100.557180 
3448.000000	100.559886 
3447.000000	100.559901 
3446.000000	100.556912 
3445.000000	100.553614 
3444.000000	100.553246 
3443.000000	100.555853 
3442.000000	100.558280 
3441.000000	100.558129 
3440.000000	100.556409 
3439.000000	100.555658 
3438.000000	100.556643 
3437.000000	100.558020 
3436.000000	100.558370 
3435.000000	100.557570 
3434.000000	100.556577 
3433.000000	100.556587 
3432.000000	100.557937 
3431.000000	100.559712 
3430.000000	100.560580 
3429.000000	100.559847 
3428.000000	100.557619 
3427.000000	100.554266 
3426.000000	100.550383 
3425.000000	100.546999 
3424.000000	100.545220 
3423.000000	100.545379 
3422.000000	100.546530 
3421.000000	100.546944 
3420.000000	100.545437 
3419.000000	100.542711 
3418.000000	100.541195 
3417.000000	100.542912 
3416.000000	100.547230 
3415.000000	100.551192 
3414.000000	100.552393 
3413.000000	100.551148 
3412.000000	100.549596 
3411.000000	100.549385 
3410.000000	100.550804 
3409.000000	100.553331 
3408.000000	100.555986 
3407.000000	100.557337 
3406.000000	100.556134 
3405.000000	100.552465 
3404.000000	100.548274 
3403.000000	100.546374 
3402.000000	100.548257 
3401.000000	100.552587 
3400.000000	100.556188 
3399.000000	100.556974 
3398.000000	100.555779 
3397.000000	100.555127 
3396.000000	100.556582 
3395.000000	100.559667 
3394.000000	100.563010 
3393.000000	100.565688 
3392.000000	100.567381 
3391.000000	100.567899 
3390.000000	100.567095 
3389.000000	100.565149 
3388.000000	100.562705 
3387.000000	100.560611 
3386.000000	100.559346 
3385.000000	100.558628 
3384.000000	100.557824 
3383.000000	100.556890 
3382.000000	100.556395 
3381.000000	100.556364 
3380.000000	100.555660 
3379.000000	100.553305 
3378.000000	100.550289 
3377.000000	100.549357 
3376.000000	100.552729 
3375.000000	100.560108 
3374.000000	100.568822 
3373.000000	100.575586 
3372.000000	100.578373 
3371.000000	100.577248 
3370.000000	100.573890 
3369.000000	100.570348 
3368.000000	100.567896 
3367.000000	100.566707 
3366.000000	100.566251 
3365.000000	100.565947 
3364.000000	100.565623 
3363.000000	100.565652 
3362.000000	100.566494 
3361.000000	100.567757 
3360.000000	100.567899 
3359.000000	100.565580 
3358.000000	100.561515 
3357.000000	100.558379 
3356.000000	100.558285 
3355.000000	100.560610 
3354.000000	100.562797 
3353.000000	100.563116 
3352.000000	100.562165 
3351.000000	100.561802 
3350.000000	100.563300 
3349.000000	100.566739 
3348.000000	100.571477 
3347.000000	100.576456 
3346.000000	100.580264 
3345.000000	100.581710 
3344.000000	100.580706 
3343.000000	100.578416 
3342.000000	100.576298 
3341.000000	100.575241 
3340.000000	100.575613 
3339.000000	100.577286 
3338.000000	100.579029 
3337.000000	100.578525 
3336.000000	100.574362 
3335.000000	100.568306 
3334.000000	100.564560 
3333.000000	100.565968 
3332.000000	100.571240 
3331.000000	100.576379 
3330.000000	100.578659 
3329.000000	100.578753 
3328.000000	100.579265 
3327.000000	100.581826 
3326.000000	100.585690 
3325.000000	100.588687 
3324.000000	100.589408 
3323.000000	100.588599 
3322.000000	100.588161 
3321.000000	100.588740 
3320.000000	100.588814 
3319.000000	100.586629 
3318.000000	100.582649 
3317.000000	100.579320 
3316.000000	100.578529 
3315.000000	100.579980 
3314.000000	100.582053 
3313.000000	100.583566 
3312.000000	100.584507 
3311.000000	100.585667 
3310.000000	100.587878 
3309.000000	100.591297 
3308.000000	100.595153 
3307.000000	100.598351 
3306.000000	100.600228 
3305.000000	100.600397 
3304.000000	100.598289 
3303.000000	100.593779 
3302.000000	100.588466 
3301.000000	100.585397 
3300.000000	100.586669 
3299.000000	100.591405 
3298.000000	100.596440 
3297.000000	100.598945 
3296.000000	100.598455 
3295.000000	100.596826 
3294.000000	100.596537 
3293.000000	100.598731 
3292.000000	100.602474 
3291.000000	100.605723 
3290.000000	100.606899 
3289.000000	100.605555 
3288.000000	100.602060 
3287.000000	100.597499 
3286.000000	100.593730 
3285.000000	100.592409 
3284.000000	100.593520 
3283.000000	100.595557 
3282.000000	100.597384 
3281.000000	100.599154 
3280.000000	100.601090 
3279.000000	100.602293 
3278.000000	100.601686 
3277.000000	100.599731 
3276.000000	100.598235 
3275.000000	100.598516 
3274.000000	100.600290 
3273.000000	100.602146 
3272.000000	100.602415 
3271.000000	100.599796 
3270.000000	100.594238 
3269.000000	100.587718 
3268.000000	100.583556 
3267.000000	100.584256 
3266.000000	100.589720 
3265.000000	100.597361 
3264.000000	100.604025 
3263.000000	100.608144 
3262.000000	100.610366 
3261.000000	100.612278 
3260.000000	100.614598 
3259.000000	100.616486 
3258.000000	100.616624 
3257.000000	100.614721 
3256.000000	100.611654 
3255.000000	100.608535 
3254.000000	100.606304 
3253.000000	100.606000 
3252.000000	100.608368 
3251.000000	100.612683 
3250.000000	100.616584 
3249.000000	100.618018 
3248.000000	100.617237 
3247.000000	100.616152 
3246.000000	100.615704 
3245.000000	100.614658 
3244.000000	100.611618 
3243.000000	100.607735 
3242.000000	100.606444 
3241.000000	100.610281 
3240.000000	100.618163 
3239.000000	100.625834 
3238.000000	100.629096 
3237.000000	100.626994 
3236.000000	100.622207 
3235.000000	100.618574 
3234.000000	100.618238 
3233.000000	100.620843 
3232.000000	100.624763 
3231.000000	100.628471 
3230.000000	100.630749 
3229.000000	100.630559 
3228.000000	100.627571 
3227.000000	100.622725 
3226.000000	100.617855 
3225.000000	100.614530 
3224.000000	100.613296 
3223.000000	100.613861 
3222.000000	100.615565 
3221.000000	100.617695 
3220.000000	100.619782 
3219.000000	100.621594 
3218.000000	100.622663 
3217.000000	100.622158 
3216.000000	100.619779 
3215.000000	100.616716 
3214.000000	100.615127 
3213.000000	100.616336 
3212.000000	100.619720 
3211.000000	100.623668 
3210.000000	100.627351 
3209.000000	100.631016 
3208.000000	100.634535 
3207.000000	100.636529 
3206.000000	100.635732 
3205.000000	100.633020 
3204.000000	100.631245 
3203.000000	100.632630 
3202.000000	100.636750 
3201.000000	100.641416 
3200.000000	100.644947 
3199.000000	100.646849 
3198.000000	100.646897 
3197.000000	100.645012 
3196.000000	100.642275 
3195.000000	100.640741 
3194.000000	100.641262 
3193.000000	100.642178 
3192.000000	100.641070 
3191.000000	100.637604 
3190.000000	100.633873 
3189.000000	100.632156 
3188.000000	100.633087 
3187.000000	100.635782 
3186.000000	100.638676 
3185.000000	100.640131 
3184.000000	100.639190 
3183.000000	100.636272 
3182.000000	100.632877 
3181.000000	100.630352 
3180.000000	100.629091 
3179.000000	100.628909 
3178.000000	100.629572 
3177.000000	100.630571 
3176.000000	100.630964 
3175.000000	100.630310 
3174.000000	100.629784 
3173.000000	100.631564 
3172.000000	100.636503 
3171.000000	100.642596 
3170.000000	100.646352 
3169.000000	100.646086 
3168.000000	100.643706 
3167.000000	100.642879 
3166.000000	100.645442 
3165.000000	100.649954 
3164.000000	100.653676 
3163.000000	100.655297 
3162.000000	100.655551 
3161.000000	100.655818 
3160.000000	100.656761 
3159.000000	100.658076 
3158.000000	100.658890 
3157.000000	100.658314 
3156.000000	100.656180 
3155.000000	100.653521 
3154.000000	100.652002 
3153.000000	100.652583 
3152.000000	100.654755 
3151.000000	100.657035 
3150.000000	100.657960 
3149.000000	100.656850 
3148.000000	100.654245 
3147.000000	100.651770 
3146.000000	100.650955 
3145.000000	100.651817 
3144.000000	100.653125 
3143.000000	100.654419 
3142.000000	100.657052 
3141.000000	100.662357 
3140.000000	100.669207 
3139.000000	100.674373 
3138.000000	100.675429 
3137.000000	100.672839 
3136.000000	100.669119 
3135.000000	100.666365 
3134.000000	100.664830 
3133.000000	100.663672 
3132.000000	100.662550 
3131.000000	100.661911 
3130.000000	100.661669 
3129.000000	100.660430 
3128.000000	100.656941 
3127.000000	100.652241 
3126.000000	100.649495 
3125.000000	100.651053 
3124.000000	100.655970 
3123.000000	100.661014 
3122.000000	100.663921 
3121.000000	100.665060 
3120.000000	100.666348 
3119.000000	100.669312 
3118.000000	100.673784 
3117.000000	100.677677 
3116.000000	100.678300 
3115.000000	100.674853 
3114.000000	100.669599 
3113.000000	100.665750 
3112.000000	100.664173 
3111.000000	100.663158 
3110.000000	100.661389 
3109.000000	100.659640 
3108.000000	100.658883 
3107.000000	100.658312 
3106.000000	100.656749 
3105.000000	100.655095 
3104.000000	100.655691 
3103.000000	100.659690 
3102.000000	100.666291 
3101.000000	100.673861 
3100.000000	100.680447 
3099.000000	100.683667 
3098.000000	100.682006 
3097.000000	100.676848 
3096.000000	100.672088 
3095.000000	100.670837 
3094.000000	100.672951 
3093.000000	100.676082 
3092.000000	100.678259 
3091.000000	100.678855 
3090.000000	100.677928 
3089.000000	100.675939 
3088.000000	100.674191 
3087.000000	100.674497 
3086.000000	100.677602 
3085.000000	100.682131 
3084.000000	100.685706 
3083.000000	100.687183 
3082.000000	100.687427 
3081.000000	100.687778 
3080.000000	100.688306 
3079.000000	100.687923 
3078.000000	100.685727 
3077.000000	100.681860 
3076.000000	100.677399 
3075.000000	100.673906 
3074.000000	100.672771 
3073.000000	100.674273 
3072.000000	100.677304 
3071.000000	100.680625 
3070.000000	100.683993 
3069.000000	100.687122 
3068.000000	100.688057 
3067.000000	100.684336 
3066.000000	100.676314 
3065.000000	100.667893 
3064.000000	100.663029 
3063.000000	100.662397 
3062.000000	100.664094 
3061.000000	100.666412 
3060.000000	100.669035 
3059.000000	100.672423 
3058.000000	100.677099 
3057.000000	100.683023 
3056.000000	100.688823 
3055.000000	100.692160 
3054.000000	100.691762 
3053.000000	100.688868 
3052.000000	100.686033 
3051.000000	100.684909 
3050.000000	100.685567 
3049.000000	100.687005 
3048.000000	100.687442 
3047.000000	100.684914 
3046.000000	100.679099 
3045.000000	100.672561 
3044.000000	100.668922 
3043.000000	100.669370 
3042.000000	100.671606 
3041.000000	100.672442 
3040.000000	100.670922 
3039.000000	100.668692 
3038.000000	100.667985 
3037.000000	100.669553 
3036.000000	100.672128 
3035.000000	100.673494 
3034.000000	100.672087 
3033.000000	100.667894 
3032.000000	100.662082 
3031.000000	100.656012 
3030.000000	100.650611 
3029.000000	100.646250 
3028.000000	100.642853 
3027.000000	100.640261 
3026.000000	100.638612 
3025.000000	100.637931 
3024.000000	100.636996 
3023.000000	100.633358 
3022.000000	100.625478 
3021.000000	100.614717 
3020.000000	100.604529 
3019.000000	100.597750 
3018.000000	100.595031 
3017.000000	100.595140 
3016.000000	100.595717 
3015.000000	100.594110 
3014.000000	100.588909 
3013.000000	100.581097 
3012.000000	100.572804 
3011.000000	100.564651 
3010.000000	100.555202 
3009.000000	100.543467 
3008.000000	100.531004 
3007.000000	100.520802 
3006.000000	100.514514 
3005.000000	100.511249 
3004.000000	100.508491 
3003.000000	100.503641 
3002.000000	100.495366 
3001.000000	100.484603 
3000.000000	100.474242 
2999.000000	100.466892 
2998.000000	100.462657 
2997.000000	100.459775 
2996.000000	100.457486 
2995.000000	100.456819 
2994.000000	100.457503 
2993.000000	100.455351 
2992.000000	100.445072 
2991.000000	100.426414 
2990.000000	100.406039 
2989.000000	100.392085 
2988.000000	100.387368 
2987.000000	100.388704 
2986.000000	100.391861 
2985.000000	100.395505 
2984.000000	100.400382 
2983.000000	100.406454 
2982.000000	100.412084 
2981.000000	100.415557 
2980.000000	100.416630 
2979.000000	100.416577 
2978.000000	100.416950 
2977.000000	100.418187 
2976.000000	100.419320 
2975.000000	100.419238 
2974.000000	100.418103 
2973.000000	100.417107 
2972.000000	100.416915 
2971.000000	100.417014 
2970.000000	100.416794 
2969.000000	100.416743 
2968.000000	100.418223 
2967.000000	100.422330 
2966.000000	100.429035 
2965.000000	100.437159 
2964.000000	100.445235 
2963.000000	100.452680 
2962.000000	100.459933 
2961.000000	100.466977 
2960.000000	100.472315 
2959.000000	100.474603 
2958.000000	100.475280 
2957.000000	100.477933 
2956.000000	100.484109 
2955.000000	100.490795 
2954.000000	100.493349 
2953.000000	100.490871 
2952.000000	100.487812 
2951.000000	100.490104 
2950.000000	100.499856 
2949.000000	100.513541 
2948.000000	100.525071 
2947.000000	100.530767 
2946.000000	100.531651 
2945.000000	100.531085 
2944.000000	100.531025 
2943.000000	100.531328 
2942.000000	100.531828 
2941.000000	100.533062 
2940.000000	100.534580 
2939.000000	100.534523 
2938.000000	100.532038 
2937.000000	100.528848 
2936.000000	100.527278 
2935.000000	100.527869 
2934.000000	100.530084 
2933.000000	100.533891 
2932.000000	100.538830 
2931.000000	100.542532 
2930.000000	100.542407 
2929.000000	100.538709 
2928.000000	100.534235 
2927.000000	100.530981 
2926.000000	100.528649 
2925.000000	100.526385 
2924.000000	100.524377 
2923.000000	100.523304 
2922.000000	100.523404 
2921.000000	100.524351 
2920.000000	100.525134 
2919.000000	100.524143 
2918.000000	100.520571 
2917.000000	100.515785 
2916.000000	100.512219 
2915.000000	100.510841 
2914.000000	100.510755 
2913.000000	100.511104 
2912.000000	100.511858 
2911.000000	100.512499 
2910.000000	100.511605 
2909.000000	100.508564 
2908.000000	100.504706 
2907.000000	100.501807 
2906.000000	100.500021 
2905.000000	100.497854 
2904.000000	100.493651 
2903.000000	100.486781 
2902.000000	100.478509 
2901.000000	100.472339 
2900.000000	100.472162 
2899.000000	100.478863 
2898.000000	100.488886 
2897.000000	100.497150 
2896.000000	100.501324 
2895.000000	100.502879 
2894.000000	100.504468 
2893.000000	100.507249 
2892.000000	100.510665 
2891.000000	100.513709 
2890.000000	100.515839 
2889.000000	100.517124 
2888.000000	100.518055 
2887.000000	100.519244 
2886.000000	100.521060 
2885.000000	100.523425 
2884.000000	100.526004 
2883.000000	100.528671 
2882.000000	100.531823 
2881.000000	100.536127 
2880.000000	100.541970 
2879.000000	100.549254 
2878.000000	100.557742 
2877.000000	100.567124 
2876.000000	100.576373 
2875.000000	100.583402 
2874.000000	100.586203 
2873.000000	100.584798 
2872.000000	100.581909 
2871.000000	100.581389 
2870.000000	100.585641 
2869.000000	100.594036 
2868.000000	100.603555 
2867.000000	100.611326 
2866.000000	100.617072 
2865.000000	100.622980 
2864.000000	100.630798 
2863.000000	100.639322 
2862.000000	100.645355 
2861.000000	100.647129 
2860.000000	100.646248 
2859.000000	100.646206 
2858.000000	100.649338 
2857.000000	100.655231 
2856.000000	100.661551 
2855.000000	100.666288 
2854.000000	100.669381 
2853.000000	100.672192 
2852.000000	100.675505 
2851.000000	100.678608 
2850.000000	100.680726 
2849.000000	100.682625 
2848.000000	100.685810 
2847.000000	100.690356 
2846.000000	100.694466 
2845.000000	100.696286 
2844.000000	100.695511 
2843.000000	100.693306 
2842.000000	100.691487 
2841.000000	100.691760 
2840.000000	100.694688 
2839.000000	100.698852 
2838.000000	100.701611 
2837.000000	100.701223 
2836.000000	100.698093 
2835.000000	100.694133 
2834.000000	100.691536 
2833.000000	100.691990 
2832.000000	100.695867 
2831.000000	100.701554 
2830.000000	100.706402 
2829.000000	100.709124 
2828.000000	100.710885 
2827.000000	100.713431 
2826.000000	100.716609 
2825.000000	100.718536 
2824.000000	100.718072 
2823.000000	100.716381 
2822.000000	100.715807 
2821.000000	100.717577 
2820.000000	100.720856 
2819.000000	100.723916 
2818.000000	100.725971 
2817.000000	100.727667 
2816.000000	100.729871 
2815.000000	100.732431 
2814.000000	100.734456 
2813.000000	100.735429 
2812.000000	100.735426 
2811.000000	100.734419 
2810.000000	100.732214 
2809.000000	100.729322 
2808.000000	100.727135 
2807.000000	100.726709 
2806.000000	100.727695 
2805.000000	100.728854 
2804.000000	100.729436 
2803.000000	100.729774 
2802.000000	100.730679 
2801.000000	100.732484 
2800.000000	100.734613 
2799.000000	100.736073 
2798.000000	100.736489 
2797.000000	100.736501 
2796.000000	100.736831 
2795.000000	100.737160 
2794.000000	100.736486 
2793.000000	100.734550 
2792.000000	100.732290 
2791.000000	100.730854 
2790.000000	100.730777 
2789.000000	100.732178 
2788.000000	100.734852 
2787.000000	100.737827 
2786.000000	100.739748 
2785.000000	100.740361 
2784.000000	100.740978 
2783.000000	100.742668 
2782.000000	100.744523 
2781.000000	100.744664 
2780.000000	100.742729 
2779.000000	100.740472 
2778.000000	100.739865 
2777.000000	100.741329 
2776.000000	100.743758 
2775.000000	100.745515 
2774.000000	100.745257 
2773.000000	100.742709 
2772.000000	100.739162 
2771.000000	100.736758 
2770.000000	100.736874 
2769.000000	100.739339 
2768.000000	100.743242 
2767.000000	100.747782 
2766.000000	100.752020 
2765.000000	100.754671 
2764.000000	100.755134 
2763.000000	100.754469 
2762.000000	100.754438 
2761.000000	100.755604 
2760.000000	100.757112 
2759.000000	100.758315 
2758.000000	100.759588 
2757.000000	100.761240 
2756.000000	100.762692 
2755.000000	100.763457 
2754.000000	100.764078 
2753.000000	100.765002 
2752.000000	100.765077 
2751.000000	100.762546 
2750.000000	100.757582 
2749.000000	100.752666 
2748.000000	100.749982 
2747.000000	100.749289 
2746.000000	100.748774 
2745.000000	100.747297 
2744.000000	100.745220 
2743.000000	100.743662 
2742.000000	100.743635 
2741.000000	100.745581 
2740.000000	100.749087 
2739.000000	100.753101 
2738.000000	100.756767 
2737.000000	100.759913 
2736.000000	100.762523 
2735.000000	100.764060 
2734.000000	100.763698 
2733.000000	100.761128 
2732.000000	100.756968 
2731.000000	100.752675 
2730.000000	100.750100 
2729.000000	100.750547 
2728.000000	100.753756 
2727.000000	100.758044 
2726.000000	100.761697 
2725.000000	100.764012 
2724.000000	100.765001 
2723.000000	100.764825 
2722.000000	100.764011 
2721.000000	100.763594 
2720.000000	100.764308 
2719.000000	100.765778 
2718.000000	100.766930 
2717.000000	100.767015 
2716.000000	100.766110 
2715.000000	100.765172 
2714.000000	100.765725 
2713.000000	100.768572 
2712.000000	100.772248 
2711.000000	100.773741 
2710.000000	100.771766 
2709.000000	100.768566 
2708.000000	100.767247 
2707.000000	100.767882 
2706.000000	100.767752 
2705.000000	100.765304 
2704.000000	100.762279 
2703.000000	100.761419 
2702.000000	100.763191 
2701.000000	100.765492 
2700.000000	100.765951 
2699.000000	100.763933 
2698.000000	100.760703 
2697.000000	100.758162 
2696.000000	100.757415 
2695.000000	100.758417 
2694.000000	100.760737 
2693.000000	100.763975 
2692.000000	100.766983 
2691.000000	100.767636 
2690.000000	100.764790 
2689.000000	100.760486 
2688.000000	100.758820 
2687.000000	100.761940 
2686.000000	100.767811 
2685.000000	100.772386 
2684.000000	100.773510 
2683.000000	100.772396 
2682.000000	100.771826 
2681.000000	100.773425 
2680.000000	100.776398 
2679.000000	100.778545 
2678.000000	100.778530 
2677.000000	100.777201 
2676.000000	100.776512 
2675.000000	100.777332 
2674.000000	100.778776 
2673.000000	100.779532 
2672.000000	100.779140 
2671.000000	100.777708 
2670.000000	100.774970 
2669.000000	100.770319 
2668.000000	100.763971 
2667.000000	100.757951 
2666.000000	100.755455 
2665.000000	100.758438 
2664.000000	100.765484 
2663.000000	100.772617 
2662.000000	100.776829 
2661.000000	100.778499 
2660.000000	100.779860 
2659.000000	100.781810 
2658.000000	100.783250 
2657.000000	100.783162 
2656.000000	100.781985 
2655.000000	100.780776 
2654.000000	100.780083 
2653.000000	100.779939 
2652.000000	100.780092 
2651.000000	100.779980 
2650.000000	100.779241 
2649.000000	100.778429 
2648.000000	100.778390 
2647.000000	100.778907 
2646.000000	100.778947 
2645.000000	100.778446 
2644.000000	100.778627 
2643.000000	100.780160 
2642.000000	100.782184 
2641.000000	100.783852 
2640.000000	100.785786 
2639.000000	100.789075 
2638.000000	100.793529 
2637.000000	100.797663 
2636.000000	100.799852 
2635.000000	100.799063 
2634.000000	100.795485 
2633.000000	100.791266 
2632.000000	100.789687 
2631.000000	100.792293 
2630.000000	100.797103 
2629.000000	100.800416 
2628.000000	100.800101 
2627.000000	100.796745 
2626.000000	100.792520 
2625.000000	100.789949 
2624.000000	100.790855 
2623.000000	100.794968 
2622.000000	100.799643 
2621.000000	100.802161 
2620.000000	100.802310 
2619.000000	100.801755 
2618.000000	100.801165 
2617.000000	100.799401 
2616.000000	100.795841 
2615.000000	100.792191 
2614.000000	100.791063 
2613.000000	100.793346 
2612.000000	100.797660 
2611.000000	100.802134 
2610.000000	100.806013 
2609.000000	100.809494 
2608.000000	100.812588 
2607.000000	100.814838 
2606.000000	100.816275 
2605.000000	100.817964 
2604.000000	100.820584 
2603.000000	100.822539 
2602.000000	100.820817 
2601.000000	100.814639 
2600.000000	100.807534 
2599.000000	100.804673 
2598.000000	100.808215 
2597.000000	100.815783 
2596.000000	100.822859 
2595.000000	100.825693 
2594.000000	100.822648 
2593.000000	100.814835 
2592.000000	100.806208 
2591.000000	100.801656 
2590.000000	100.803672 
2589.000000	100.810885 
2588.000000	100.819750 
2587.000000	100.826686 
2586.000000	100.828495 
2585.000000	100.822887 
2584.000000	100.810833 
2583.000000	100.797805 
2582.000000	100.790336 
2581.000000	100.790455 
2580.000000	100.794447 
2579.000000	100.797378 
2578.000000	100.797683 
2577.000000	100.797081 
2576.000000	100.797689 
2575.000000	100.800447 
2574.000000	100.805101 
2573.000000	100.809954 
2572.000000	100.812071 
2571.000000	100.809460 
2570.000000	100.803367 
2569.000000	100.797500 
2568.000000	100.794847 
2567.000000	100.795939 
2566.000000	100.799774 
2565.000000	100.805010 
2564.000000	100.809997 
2563.000000	100.812958 
2562.000000	100.813052 
2561.000000	100.811134 
2560.000000	100.809400 
2559.000000	100.810127 
2558.000000	100.813650 
2557.000000	100.816787 
2556.000000	100.814804 
2555.000000	100.807041 
2554.000000	100.799610 
2553.000000	100.799724 
2552.000000	100.807520 
2551.000000	100.816492 
2550.000000	100.822115 
2549.000000	100.826115 
2548.000000	100.830680 
2547.000000	100.832672 
2546.000000	100.827502 
2545.000000	100.816696 
2544.000000	100.807462 
2543.000000	100.805051 
2542.000000	100.808579 
2541.000000	100.814172 
2540.000000	100.819200 
2539.000000	100.822724 
2538.000000	100.824137 
2537.000000	100.822758 
2536.000000	100.818177 
2535.000000	100.810885 
2534.000000	100.803084 
2533.000000	100.798069 
2532.000000	100.797493 
2531.000000	100.799888 
2530.000000	100.803146 
2529.000000	100.807386 
2528.000000	100.813619 
2527.000000	100.820722 
2526.000000	100.826362 
2525.000000	100.830537 
2524.000000	100.835459 
2523.000000	100.841578 
2522.000000	100.846116 
2521.000000	100.846267 
2520.000000	100.842123 
2519.000000	100.836046 
2518.000000	100.830889 
2517.000000	100.829019 
2516.000000	100.830928 
2515.000000	100.834101 
2514.000000	100.835083 
2513.000000	100.833205 
2512.000000	100.830497 
2511.000000	100.827783 
2510.000000	100.823674 
2509.000000	100.818688 
2508.000000	100.817410 
2507.000000	100.823625 
2506.000000	100.834385 
2505.000000	100.841484 
2504.000000	100.839071 
2503.000000	100.828580 
2502.000000	100.816643 
2501.000000	100.809692 
2500.000000	100.810388 
2499.000000	100.817423 
2498.000000	100.827464 
2497.000000	100.837329 
2496.000000	100.844842 
2495.000000	100.848458 
2494.000000	100.847087 
2493.000000	100.840805 
2492.000000	100.831263 
2491.000000	100.820964 
2490.000000	100.812235 
2489.000000	100.806736 
2488.000000	100.805200 
2487.000000	100.807287 
2486.000000	100.812084 
2485.000000	100.818951 
2484.000000	100.827411 
2483.000000	100.836059 
2482.000000	100.842247 
2481.000000	100.843545 
2480.000000	100.839639 
2479.000000	100.832712 
2478.000000	100.825924 
2477.000000	100.821281 
2476.000000	100.818725 
2475.000000	100.817356 
2474.000000	100.817319 
2473.000000	100.819756 
2472.000000	100.824770 
2471.000000	100.830493 
2470.000000	100.834749 
2469.000000	100.836608 
2468.000000	100.835606 
2467.000000	100.830939 
2466.000000	100.823231 
2465.000000	100.816198 
2464.000000	100.814235 
2463.000000	100.818012 
2462.000000	100.823833 
2461.000000	100.827510 
2460.000000	100.827816 
2459.000000	100.826411 
2458.000000	100.825974 
2457.000000	100.828445 
2456.000000	100.833432 
2455.000000	100.837838 
2454.000000	100.838291 
2453.000000	100.834472 
2452.000000	100.829244 
2451.000000	100.825525 
2450.000000	100.824091 
2449.000000	100.824225 
2448.000000	100.824918 
2447.000000	100.825255 
2446.000000	100.825205 
2445.000000	100.826418 
2444.000000	100.830677 
2443.000000	100.837037 
2442.000000	100.841917 
2441.000000	100.842697 
2440.000000	100.839989 
2439.000000	100.835983 
2438.000000	100.832206 
2437.000000	100.829689 
2436.000000	100.829381 
2435.000000	100.830596 
2434.000000	100.830101 
2433.000000	100.824763 
2432.000000	100.815329 
2431.000000	100.806476 
2430.000000	100.802934 
2429.000000	100.805980 
2428.000000	100.813505 
2427.000000	100.822465 
2426.000000	100.830502 
2425.000000	100.835416 
2424.000000	100.834586 
2423.000000	100.826838 
2422.000000	100.815289 
2421.000000	100.806584 
2420.000000	100.805541 
2419.000000	100.811058 
2418.000000	100.818349 
2417.000000	100.824117 
2416.000000	100.827807 
2415.000000	100.829003 
2414.000000	100.826728 
2413.000000	100.821804 
2412.000000	100.817213 
2411.000000	100.814801 
2410.000000	100.813427 
2409.000000	100.811580 
2408.000000	100.810179 
2407.000000	100.811221 
2406.000000	100.814775 
2405.000000	100.818821 
2404.000000	100.821451 
2403.000000	100.822112 
2402.000000	100.821193 
2401.000000	100.819439 
2400.000000	100.817493 
2399.000000	100.815370 
2398.000000	100.812768 
2397.000000	100.810201 
2396.000000	100.809043 
2395.000000	100.809869 
2394.000000	100.811534 
2393.000000	100.812637 
2392.000000	100.813319 
2391.000000	100.814985 
2390.000000	100.818672 
2389.000000	100.824130 
2388.000000	100.829805 
2387.000000	100.833189 
2386.000000	100.831991 
2385.000000	100.825993 
2384.000000	100.817688 
2383.000000	100.810718 
2382.000000	100.807835 
2381.000000	100.810017 
2380.000000	100.816119 
2379.000000	100.822678 
2378.000000	100.825591 
2377.000000	100.823784 
2376.000000	100.820615 
2375.000000	100.820000 
2374.000000	100.821556 
2373.000000	100.821426 
2372.000000	100.818282 
2371.000000	100.816066 
2370.000000	100.819658 
2369.000000	100.828814 
2368.000000	100.837320 
2367.000000	100.837719 
2366.000000	100.827807 
2365.000000	100.813777 
2364.000000	100.805953 
2363.000000	100.809447 
2362.000000	100.820248 
2361.000000	100.829231 
2360.000000	100.830356 
2359.000000	100.825784 
2358.000000	100.820895 
2357.000000	100.819386 
2356.000000	100.821376 
2355.000000	100.823109 
2354.000000	100.821846 
2353.000000	100.818081 
2352.000000	100.815406 
2351.000000	100.815442 
2350.000000	100.817632 
2349.000000	100.821909 
2348.000000	100.825047 
2347.000000	100.824019 
2346.000000	100.820817 
2345.000000	100.820714 
2344.000000	100.824070 
2343.000000	100.825143 
2342.000000	100.825287 
2341.000000	100.828108 
2340.000000	100.833394 
2339.000000	100.836771 
2338.000000	100.836008 
2337.000000	100.834623 
2336.000000	100.834816 
2335.000000	100.834548 
2334.000000	100.830691 
2333.000000	100.826384 
2332.000000	100.825804 
2331.000000	100.828941 
2330.000000	100.829751 
2329.000000	100.827841 
2328.000000	100.825483 
2327.000000	100.827246 
2326.000000	100.831936 
2325.000000	100.836366 
2324.000000	100.837944 
2323.000000	100.836870 
2322.000000	100.837548 
2321.000000	100.843080 
2320.000000	100.852328 
2319.000000	100.859975 
2318.000000	100.861706 
2317.000000	100.858544 
2316.000000	100.853150 
2315.000000	100.848873 
2314.000000	100.846830 
2313.000000	100.849334 
2312.000000	100.855712 
2311.000000	100.865028 
2310.000000	100.875407 
2309.000000	100.887379 
2308.000000	100.897981 
2307.000000	100.902078 
2306.000000	100.895940 
2305.000000	100.884127 
2304.000000	100.873944 
2303.000000	100.868715 
2302.000000	100.865583 
2301.000000	100.862832 
2300.000000	100.861109 
2299.000000	100.860965 
2298.000000	100.859904 
2297.000000	100.857575 
2296.000000	100.856977 
2295.000000	100.861119 
2294.000000	100.867721 
2293.000000	100.872250 
2292.000000	100.872717 
2291.000000	100.870720 
2290.000000	100.867981 
2289.000000	100.864900 
2288.000000	100.861944 
2287.000000	100.860307 
2286.000000	100.860835 
2285.000000	100.862965 
2284.000000	100.865516 
2283.000000	100.867435 
2282.000000	100.867780 
2281.000000	100.865203 
2280.000000	100.859332 
2279.000000	100.853275 
2278.000000	100.853561 
2277.000000	100.864423 
2276.000000	100.881699 
2275.000000	100.895441 
2274.000000	100.899777 
2273.000000	100.897502 
2272.000000	100.892969 
2271.000000	100.885157 
2270.000000	100.872251 
2269.000000	100.860003 
2268.000000	100.858794 
2267.000000	100.872350 
2266.000000	100.893871 
2265.000000	100.913051 
2264.000000	100.922897 
2263.000000	100.921398 
2262.000000	100.912845 
2261.000000	100.907827 
2260.000000	100.915003 
2259.000000	100.930441 
2258.000000	100.940656 
2257.000000	100.938260 
2256.000000	100.929534 
2255.000000	100.923682 
2254.000000	100.920716 
2253.000000	100.915012 
2252.000000	100.906570 
2251.000000	100.902625 
2250.000000	100.908934 
2249.000000	100.923592 
2248.000000	100.938828 
2247.000000	100.947074 
2246.000000	100.945776 
2245.000000	100.938178 
2244.000000	100.929172 
2243.000000	100.920688 
2242.000000	100.912797 
2241.000000	100.907921 
2240.000000	100.909484 
2239.000000	100.915814 
2238.000000	100.919947 
2237.000000	100.917176 
2236.000000	100.909205 
2235.000000	100.899593 
2234.000000	100.889855 
2233.000000	100.882319 
2232.000000	100.881857 
2231.000000	100.890862 
2230.000000	100.905636 
2229.000000	100.920955 
2228.000000	100.935458 
2227.000000	100.949468 
2226.000000	100.960372 
2225.000000	100.964021 
2224.000000	100.959386 
2223.000000	100.949598 
2222.000000	100.940245 
2221.000000	100.937769 
2220.000000	100.945632 
2219.000000	100.959437 
2218.000000	100.969365 
2217.000000	100.970838 
2216.000000	100.970037 
2215.000000	100.975405 
2214.000000	100.986456 
2213.000000	100.994891 
2212.000000	100.995050 
2211.000000	100.989517 
2210.000000	100.985276 
2209.000000	100.987293 
2208.000000	100.995138 
2207.000000	101.003603 
2206.000000	101.006836 
2205.000000	101.002870 
2204.000000	100.993801 
2203.000000	100.982475 
2202.000000	100.971728 
2201.000000	100.965800 
2200.000000	100.967314 
2199.000000	100.971895 
2198.000000	100.971026 
2197.000000	100.962814 
2196.000000	100.955906 
2195.000000	100.960181 
2194.000000	100.977184 
2193.000000	101.001050 
2192.000000	101.023846 
2191.000000	101.037636 
2190.000000	101.037105 
2189.000000	101.025325 
2188.000000	101.013501 
2187.000000	101.010931 
2186.000000	101.018287 
2185.000000	101.032476 
2184.000000	101.051705 
2183.000000	101.071195 
2182.000000	101.080788 
2181.000000	101.075314 
2180.000000	101.063915 
2179.000000	101.060857 
2178.000000	101.069004 
2177.000000	101.078329 
2176.000000	101.078603 
2175.000000	101.068002 
2174.000000	101.051138 
2173.000000	101.035062 
2172.000000	101.026841 
2171.000000	101.029766 
2170.000000	101.041264 
2169.000000	101.056956 
2168.000000	101.075168 
2167.000000	101.094434 
2166.000000	101.109764 
2165.000000	101.117394 
2164.000000	101.121997 
2163.000000	101.132752 
2162.000000	101.151814 
2161.000000	101.170945 
2160.000000	101.178878 
2159.000000	101.168568 
2158.000000	101.140381 
2157.000000	101.104548 
2156.000000	101.077454 
2155.000000	101.068312 
2154.000000	101.069990 
2153.000000	101.067048 
2152.000000	101.052694 
2151.000000	101.034484 
2150.000000	101.024282 
2149.000000	101.027240 
2148.000000	101.040003 
2147.000000	101.054229 
2146.000000	101.060220 
2145.000000	101.052115 
2144.000000	101.033100 
2143.000000	101.013343 
2142.000000	101.000877 
2141.000000	100.995935 
2140.000000	100.994597 
2139.000000	100.994671 
2138.000000	100.995101 
2137.000000	100.992028 
2136.000000	100.980480 
2135.000000	100.961465 
2134.000000	100.944278 
2133.000000	100.938590 
2132.000000	100.944265 
2131.000000	100.950991 
2130.000000	100.948334 
2129.000000	100.935204 
2128.000000	100.919293 
2127.000000	100.908425 
2126.000000	100.904191 
2125.000000	100.904066 
2124.000000	100.907544 
2123.000000	100.917541 
2122.000000	100.934923 
2121.000000	100.953484 
2120.000000	100.963259 
2119.000000	100.959739 
2118.000000	100.948203 
2117.000000	100.937906 
2116.000000	100.933497 
2115.000000	100.933828 
2114.000000	100.937155 
2113.000000	100.943243 
2112.000000	100.949980 
2111.000000	100.952622 
2110.000000	100.949356 
2109.000000	100.944870 
2108.000000	100.944851 
2107.000000	100.948358 
2106.000000	100.948835 
2105.000000	100.941804 
2104.000000	100.928875 
2103.000000	100.915170 
2102.000000	100.906017 
2101.000000	100.905351 
2100.000000	100.913172 
2099.000000	100.924059 
2098.000000	100.931191 
2097.000000	100.932998 
2096.000000	100.933179 
2095.000000	100.933156 
2094.000000	100.928176 
2093.000000	100.913774 
2092.000000	100.894239 
2091.000000	100.881425 
2090.000000	100.884324 
2089.000000	100.900280 
2088.000000	100.917146 
2087.000000	100.924684 
2086.000000	100.923241 
2085.000000	100.920594 
2084.000000	100.921623 
2083.000000	100.924149 
2082.000000	100.925388 
2081.000000	100.928038 
2080.000000	100.936289 
2079.000000	100.948715 
2078.000000	100.960008 
2077.000000	100.969058 
2076.000000	100.980329 
2075.000000	100.996045 
2074.000000	101.011288 
2073.000000	101.018469 
2072.000000	101.014645 
2071.000000	101.003285 
2070.000000	100.990982 
2069.000000	100.983766 
2068.000000	100.984153 
2067.000000	100.989975 
2066.000000	100.996532 
2065.000000	101.000345 
2064.000000	101.001068 
2063.000000	101.001031 
2062.000000	101.004115 
2061.000000	101.013298 
2060.000000	101.026861 
2059.000000	101.038461 
2058.000000	101.043405 
2057.000000	101.043150 
2056.000000	101.041169 
2055.000000	101.037462 
2054.000000	101.032050 
2053.000000	101.031083 
2052.000000	101.042414 
2051.000000	101.064672 
2050.000000	101.086012 
2049.000000	101.095282 
2048.000000	101.091384 
2047.000000	101.080035 
2046.000000	101.066759 
2045.000000	101.056693 
2044.000000	101.055249 
2043.000000	101.063766 
2042.000000	101.077540 
2041.000000	101.091497 
2040.000000	101.105293 
2039.000000	101.120275 
2038.000000	101.134519 
2037.000000	101.143747 
2036.000000	101.144782 
2035.000000	101.136105 
2034.000000	101.118185 
2033.000000	101.095973 
2032.000000	101.078024 
2031.000000	101.070388 
2030.000000	101.073021 
2029.000000	101.081564 
2028.000000	101.090329 
2027.000000	101.094598 
2026.000000	101.095114 
2025.000000	101.099899 
2024.000000	101.116179 
2023.000000	101.138746 
2022.000000	101.150748 
2021.000000	101.139503 
2020.000000	101.109889 
2019.000000	101.080689 
2018.000000	101.069801 
2017.000000	101.081441 
2016.000000	101.103154 
2015.000000	101.116208 
2014.000000	101.112221 
2013.000000	101.099613 
2012.000000	101.092150 
2011.000000	101.093258 
2010.000000	101.096299 
2009.000000	101.097359 
2008.000000	101.099698 
2007.000000	101.104705 
2006.000000	101.107515 
2005.000000	101.104605 
2004.000000	101.099209 
2003.000000	101.095939 
2002.000000	101.094615 
2001.000000	101.092740 
2000.000000	101.088083 
1999.000000	101.078401 
1998.000000	101.063726 
1997.000000	101.050463 
1996.000000	101.048819 
1995.000000	101.063245 
1994.000000	101.087417 
1993.000000	101.109120 
1992.000000	101.119038 
1991.000000	101.115799 
1990.000000	101.105615 
1989.000000	101.098551 
1988.000000	101.101847 
1987.000000	101.113378 
1986.000000	101.123384 
1985.000000	101.125337 
1984.000000	101.123316 
1983.000000	101.126608 
1982.000000	101.137999 
1981.000000	101.149942 
1980.000000	101.150906 
1979.000000	101.136564 
1978.000000	101.115151 
1977.000000	101.100297 
1976.000000	101.097491 
1975.000000	101.100670 
1974.000000	101.103554 
1973.000000	101.108977 
1972.000000	101.123030 
1971.000000	101.143125 
1970.000000	101.157246 
1969.000000	101.155175 
1968.000000	101.137926 
1967.000000	101.115793 
1966.000000	101.098911 
1965.000000	101.090275 
1964.000000	101.086251 
1963.000000	101.081944 
1962.000000	101.075352 
1961.000000	101.066723 
1960.000000	101.056311 
1959.000000	101.045828 
1958.000000	101.040561 
1957.000000	101.044689 
1956.000000	101.053757 
1955.000000	101.056886 
1954.000000	101.048957 
1953.000000	101.035325 
1952.000000	101.022957 
1951.000000	101.011294 
1950.000000	100.996833 
1949.000000	100.982986 
1948.000000	100.977122 
1947.000000	100.979498 
1946.000000	100.981837 
1945.000000	100.976771 
1944.000000	100.964946 
1943.000000	100.953380 
1942.000000	100.950007 
1941.000000	100.957696 
1940.000000	100.970477 
1939.000000	100.978442 
1938.000000	100.978425 
1937.000000	100.976992 
1936.000000	100.980498 
1935.000000	100.985628 
1934.000000	100.985333 
1933.000000	100.980387 
1932.000000	100.979236 
1931.000000	100.985018 
1930.000000	100.990639 
1929.000000	100.989604 
1928.000000	100.982429 
1927.000000	100.973879 
1926.000000	100.966576 
1925.000000	100.961985 
1924.000000	100.962113 
1923.000000	100.965763 
1922.000000	100.968675 
1921.000000	100.968724 
1920.000000	100.966275 
1919.000000	100.960595 
1918.000000	100.949254 
1917.000000	100.934667 
1916.000000	100.923821 
1915.000000	100.919090 
1914.000000	100.917962 
1913.000000	100.919080 
1912.000000	100.923439 
1911.000000	100.929287 
1910.000000	100.931694 
1909.000000	100.930140 
1908.000000	100.929854 
1907.000000	100.935622 
1906.000000	100.944826 
1905.000000	100.951152 
1904.000000	100.951371 
1903.000000	100.945258 
1902.000000	100.935297 
1901.000000	100.927214 
1900.000000	100.925055 
1899.000000	100.927730 
1898.000000	100.931388 
1897.000000	100.935029 
1896.000000	100.940032 
1895.000000	100.943621 
1894.000000	100.940187 
1893.000000	100.930231 
1892.000000	100.921494 
1891.000000	100.920385 
1890.000000	100.925291 
1889.000000	100.929185 
1888.000000	100.927270 
1887.000000	100.919434 
1886.000000	100.909667 
1885.000000	100.904706 
1884.000000	100.908780 
1883.000000	100.918037 
1882.000000	100.924809 
1881.000000	100.926926 
1880.000000	100.928107 
1879.000000	100.932473 
1878.000000	100.941250 
1877.000000	100.952709 
1876.000000	100.963277 
1875.000000	100.967732 
1874.000000	100.962027 
1873.000000	100.948474 
1872.000000	100.934237 
1871.000000	100.924519 
1870.000000	100.919866 
1869.000000	100.918572 
1868.000000	100.919489 
1867.000000	100.920770 
1866.000000	100.919680 
1865.000000	100.916072 
1864.000000	100.911313 
1863.000000	100.904557 
1862.000000	100.895218 
1861.000000	100.888359 
1860.000000	100.891010 
1859.000000	100.902756 
1858.000000	100.915560 
1857.000000	100.923178 
1856.000000	100.925510 
1855.000000	100.924680 
1854.000000	100.921728 
1853.000000	100.919558 
1852.000000	100.918791 
1851.000000	100.916881 
1850.000000	100.913789 
1849.000000	100.913905 
1848.000000	100.919995 
1847.000000	100.927328 
1846.000000	100.930041 
1845.000000	100.929305 
1844.000000	100.930117 
1843.000000	100.933788 
1842.000000	100.936784 
1841.000000	100.936219 
1840.000000	100.932579 
1839.000000	100.927982 
1838.000000	100.922848 
1837.000000	100.918297 
1836.000000	100.916236 
1835.000000	100.915494 
1834.000000	100.913888 
1833.000000	100.912565 
1832.000000	100.913243 
1831.000000	100.916214 
1830.000000	100.918823 
1829.000000	100.919007 
1828.000000	100.918699 
1827.000000	100.918443 
1826.000000	100.917606 
1825.000000	100.916895 
1824.000000	100.918177 
1823.000000	100.920170 
1822.000000	100.917352 
1821.000000	100.907712 
1820.000000	100.897009 
1819.000000	100.893094 
1818.000000	100.896052 
1817.000000	100.900913 
1816.000000	100.906138 
1815.000000	100.911751 
1814.000000	100.916629 
1813.000000	100.919125 
1812.000000	100.921040 
1811.000000	100.925333 
1810.000000	100.929896 
1809.000000	100.932118 
1808.000000	100.932708 
1807.000000	100.930763 
1806.000000	100.923465 
1805.000000	100.912829 
1804.000000	100.906691 
1803.000000	100.907396 
1802.000000	100.909556 
1801.000000	100.907045 
1800.000000	100.902349 
1799.000000	100.901603 
1798.000000	100.904748 
1797.000000	100.909241 
1796.000000	100.914795 
1795.000000	100.920204 
1794.000000	100.923843 
1793.000000	100.925075 
1792.000000	100.925515 
1791.000000	100.926586 
1790.000000	100.926014 
1789.000000	100.922655 
1788.000000	100.920269 
1787.000000	100.921931 
1786.000000	100.925319 
1785.000000	100.926879 
1784.000000	100.927343 
1783.000000	100.925932 
1782.000000	100.922728 
1781.000000	100.918673 
1780.000000	100.915323 
1779.000000	100.913506 
1778.000000	100.911508 
1777.000000	100.909853 
1776.000000	100.909891 
1775.000000	100.911519 
1774.000000	100.915484 
1773.000000	100.921911 
1772.000000	100.927304 
1771.000000	100.931989 
1770.000000	100.935212 
1769.000000	100.932255 
1768.000000	100.924565 
1767.000000	100.918114 
1766.000000	100.915498 
1765.000000	100.912520 
1764.000000	100.907499 
1763.000000	100.905161 
1762.000000	100.909604 
1761.000000	100.916055 
1760.000000	100.919577 
1759.000000	100.919486 
1758.000000	100.919526 
1757.000000	100.924354 
1756.000000	100.931748 
1755.000000	100.937829 
1754.000000	100.939922 
1753.000000	100.937581 
1752.000000	100.932478 
1751.000000	100.928422 
1750.000000	100.927219 
1749.000000	100.927891 
1748.000000	100.928792 
1747.000000	100.929463 
1746.000000	100.931717 
1745.000000	100.933146 
1744.000000	100.931187 
1743.000000	100.928717 
1742.000000	100.929219 
1741.000000	100.931128 
1740.000000	100.932702 
1739.000000	100.935030 
1738.000000	100.939973 
1737.000000	100.943453 
1736.000000	100.942805 
1735.000000	100.942472 
1734.000000	100.940046 
1733.000000	100.936579 
1732.000000	100.937351 
1731.000000	100.936754 
1730.000000	100.932112 
1729.000000	100.928656 
1728.000000	100.929338 
1727.000000	100.931476 
1726.000000	100.933014 
1725.000000	100.933118 
1724.000000	100.934169 
1723.000000	100.937680 
1722.000000	100.939751 
1721.000000	100.937494 
1720.000000	100.934934 
1719.000000	100.941191 
1718.000000	100.952020 
1717.000000	100.952718 
1716.000000	100.947764 
1715.000000	100.945935 
1714.000000	100.943246 
1713.000000	100.937575 
1712.000000	100.933653 
1711.000000	100.932612 
1710.000000	100.930984 
1709.000000	100.928747 
1708.000000	100.929024 
1707.000000	100.933550 
1706.000000	100.937585 
1705.000000	100.936836 
1704.000000	100.936089 
1703.000000	100.936020 
1702.000000	100.934856 
1701.000000	100.934654 
1700.000000	100.932332 
1699.000000	100.935508 
1698.000000	100.941792 
1697.000000	100.942617 
1696.000000	100.941331 
1695.000000	100.939188 
1694.000000	100.937059 
1693.000000	100.933309 
1692.000000	100.928260 
1691.000000	100.925976 
1690.000000	100.927029 
1689.000000	100.929341 
1688.000000	100.928708 
1687.000000	100.924966 
1686.000000	100.925262 
1685.000000	100.937916 
1684.000000	100.950333 
1683.000000	100.951261 
1682.000000	100.948546 
1681.000000	100.945221 
1680.000000	100.940694 
1679.000000	100.935826 
1678.000000	100.931785 
1677.000000	100.928909 
1676.000000	100.926896 
1675.000000	100.924435 
1674.000000	100.927303 
1673.000000	100.935568 
1672.000000	100.941835 
1671.000000	100.943503 
1670.000000	100.942463 
1669.000000	100.940973 
1668.000000	100.939543 
1667.000000	100.937248 
1666.000000	100.933688 
1665.000000	100.928930 
1664.000000	100.925917 
1663.000000	100.924656 
1662.000000	100.924957 
1661.000000	100.928997 
1660.000000	100.933547 
1659.000000	100.936058 
1658.000000	100.938938 
1657.000000	100.942188 
1656.000000	100.938199 
1655.000000	100.930308 
1654.000000	100.935188 
1653.000000	100.937274 
1652.000000	100.934432 
1651.000000	100.943124 
1650.000000	100.950439 
1649.000000	100.949432 
1648.000000	100.948952 
1647.000000	100.951320 
1646.000000	100.949623 
1645.000000	100.945775 
1644.000000	100.945381 
1643.000000	100.945822 
1642.000000	100.944314 
1641.000000	100.942059 
1640.000000	100.939899 
1639.000000	100.938722 
1638.000000	100.938425 
1637.000000	100.942973 
1636.000000	100.950407 
1635.000000	100.953569 
1634.000000	100.954931 
1633.000000	100.955084 
1632.000000	100.950978 
1631.000000	100.942398 
1630.000000	100.933553 
1629.000000	100.930267 
1628.000000	100.933879 
1627.000000	100.938474 
1626.000000	100.939743 
1625.000000	100.938574 
1624.000000	100.937476 
1623.000000	100.935664 
1622.000000	100.934514 
1621.000000	100.937792 
1620.000000	100.941891 
1619.000000	100.942380 
1618.000000	100.941612 
1617.000000	100.944084 
1616.000000	100.948265 
1615.000000	100.952250 
1614.000000	100.955377 
1613.000000	100.957674 
1612.000000	100.959967 
1611.000000	100.960055 
1610.000000	100.957025 
1609.000000	100.953535 
1608.000000	100.951181 
1607.000000	100.948239 
1606.000000	100.945902 
1605.000000	100.946221 
1604.000000	100.946534 
1603.000000	100.945215 
1602.000000	100.945409 
1601.000000	100.949948 
1600.000000	100.956169 
1599.000000	100.959801 
1598.000000	100.961138 
1597.000000	100.962659 
1596.000000	100.964359 
1595.000000	100.964134 
1594.000000	100.962360 
1593.000000	100.962198 
1592.000000	100.964812 
1591.000000	100.967863 
1590.000000	100.969608 
1589.000000	100.971089 
1588.000000	100.973163 
1587.000000	100.975262 
1586.000000	100.977071 
1585.000000	100.980881 
1584.000000	100.984736 
1583.000000	100.984308 
1582.000000	100.980883 
1581.000000	100.978956 
1580.000000	100.977688 
1579.000000	100.973418 
1578.000000	100.968437 
1577.000000	100.967641 
1576.000000	100.967877 
1575.000000	100.966269 
1574.000000	100.968828 
1573.000000	100.974620 
1572.000000	100.978568 
1571.000000	100.981208 
1570.000000	100.984452 
1569.000000	100.989019 
1568.000000	100.991035 
1567.000000	100.987637 
1566.000000	100.981318 
1565.000000	100.978477 
1564.000000	100.978390 
1563.000000	100.978294 
1562.000000	100.975822 
1561.000000	100.978066 
1560.000000	100.989704 
1559.000000	100.990920 
1558.000000	100.977284 
1557.000000	100.979266 
1556.000000	100.988863 
1555.000000	100.990622 
1554.000000	100.988453 
1553.000000	100.986274 
1552.000000	100.981843 
1551.000000	100.974745 
1550.000000	100.969663 
1549.000000	100.971792 
1548.000000	100.978933 
1547.000000	100.982013 
1546.000000	100.976464 
1545.000000	100.966824 
1544.000000	100.961116 
1543.000000	100.965816 
1542.000000	100.980214 
1541.000000	100.998069 
1540.000000	101.006552 
1539.000000	100.999947 
1538.000000	100.994477 
1537.000000	100.996180 
1536.000000	100.997940 
1535.000000	100.995398 
1534.000000	100.989005 
1533.000000	100.979576 
1532.000000	100.973375 
1531.000000	100.974656 
1530.000000	100.977787 
1529.000000	100.978429 
1528.000000	100.978069 
1527.000000	100.978662 
1526.000000	100.980924 
1525.000000	100.984733 
1524.000000	100.989014 
1523.000000	100.994236 
1522.000000	101.000124 
1521.000000	101.002833 
1520.000000	101.003127 
1519.000000	101.001340 
1518.000000	100.993902 
1517.000000	100.981813 
1516.000000	100.972239 
1515.000000	100.969985 
1514.000000	100.971968 
1513.000000	100.972073 
1512.000000	100.970889 
1511.000000	100.971665 
1510.000000	100.972213 
1509.000000	100.969454 
1508.000000	100.971559 
1507.000000	100.984069 
1506.000000	100.989140 
1505.000000	100.986952 
1504.000000	100.987857 
1503.000000	100.992107 
1502.000000	100.997926 
1501.000000	101.002459 
1500.000000	101.003101 
1499.000000	101.001110 
1498.000000	100.998169 
1497.000000	100.989425 
1496.000000	100.975841 
1495.000000	100.966922 
1494.000000	100.965566 
1493.000000	100.966115 
1492.000000	100.965619 
1491.000000	100.965435 
1490.000000	100.964936 
1489.000000	100.962004 
1488.000000	100.959994 
1487.000000	100.960584 
1486.000000	100.958697 
1485.000000	100.955009 
1484.000000	100.952084 
1483.000000	100.951125 
1482.000000	100.952909 
1481.000000	100.957460 
1480.000000	100.964200 
1479.000000	100.969827 
1478.000000	100.970661 
1477.000000	100.966565 
1476.000000	100.963669 
1475.000000	100.965212 
1474.000000	100.969161 
1473.000000	100.971098 
1472.000000	100.969225 
1471.000000	100.968153 
1470.000000	100.969334 
1469.000000	100.969715 
1468.000000	100.969410 
1467.000000	100.969468 
1466.000000	100.969104 
1465.000000	100.967392 
1464.000000	100.964895 
1463.000000	100.965995 
1462.000000	100.970005 
1461.000000	100.972596 
1460.000000	100.971536 
1459.000000	100.969887 
1458.000000	100.970154 
1457.000000	100.963545 
1456.000000	100.949513 
1455.000000	100.941989 
1454.000000	100.942421 
1453.000000	100.943512 
1452.000000	100.943145 
1451.000000	100.942955 
1450.000000	100.942752 
1449.000000	100.938767 
1448.000000	100.932648 
1447.000000	100.929643 
1446.000000	100.933523 
1445.000000	100.940766 
1444.000000	100.945135 
1443.000000	100.947497 
1442.000000	100.950616 
1441.000000	100.953695 
1440.000000	100.953714 
1439.000000	100.952415 
1438.000000	100.953275 
1437.000000	100.954061 
1436.000000	100.950983 
1435.000000	100.949277 
1434.000000	100.951182 
1433.000000	100.951088 
1432.000000	100.946786 
1431.000000	100.942336 
1430.000000	100.941624 
1429.000000	100.942005 
1428.000000	100.941197 
1427.000000	100.939132 
1426.000000	100.937253 
1425.000000	100.935468 
1424.000000	100.931638 
1423.000000	100.928496 
1422.000000	100.927757 
1421.000000	100.924944 
1420.000000	100.915075 
1419.000000	100.903028 
1418.000000	100.898588 
1417.000000	100.899461 
1416.000000	100.896090 
1415.000000	100.887235 
1414.000000	100.878396 
1413.000000	100.871650 
1412.000000	100.865062 
1411.000000	100.859763 
1410.000000	100.858171 
1409.000000	100.857160 
1408.000000	100.853499 
1407.000000	100.848198 
1406.000000	100.845097 
1405.000000	100.845549 
1404.000000	100.847744 
1403.000000	100.853658 
1402.000000	100.865124 
1401.000000	100.878671 
1400.000000	100.888553 
1399.000000	100.892738 
1398.000000	100.892456 
1397.000000	100.885061 
1396.000000	100.866385 
1395.000000	100.841459 
1394.000000	100.827484 
1393.000000	100.835246 
1392.000000	100.857288 
1391.000000	100.880787 
1390.000000	100.898438 
1389.000000	100.907510 
1388.000000	100.907447 
1387.000000	100.900391 
1386.000000	100.891624 
1385.000000	100.885163 
1384.000000	100.880645 
1383.000000	100.877735 
1382.000000	100.876844 
1381.000000	100.877558 
1380.000000	100.879467 
1379.000000	100.883307 
1378.000000	100.890201 
1377.000000	100.898838 
1376.000000	100.905458 
1375.000000	100.907348 
1374.000000	100.907186 
1373.000000	100.910192 
1372.000000	100.918064 
1371.000000	100.927318 
1370.000000	100.934717 
1369.000000	100.939834 
1368.000000	100.942690 
1367.000000	100.944078 
1366.000000	100.945625 
1365.000000	100.948516 
1364.000000	100.952897 
1363.000000	100.957901 
1362.000000	100.962018 
1361.000000	100.964378 
1360.000000	100.965466 
1359.000000	100.966898 
1358.000000	100.970932 
1357.000000	100.978101 
1356.000000	100.985633 
1355.000000	100.990095 
1354.000000	100.991314 
1353.000000	100.991458 
1352.000000	100.992574 
1351.000000	100.993770 
1350.000000	100.993976 
1349.000000	100.994437 
1348.000000	100.996115 
1347.000000	100.998055 
1346.000000	100.998652 
1345.000000	100.997866 
1344.000000	100.996706 
1343.000000	100.995590 
1342.000000	100.994419 
1341.000000	100.993975 
1340.000000	100.995544 
1339.000000	100.999052 
1338.000000	101.002951 
1337.000000	101.005911 
1336.000000	101.007785 
1335.000000	101.008801 
1334.000000	101.008612 
1333.000000	101.006983 
1332.000000	101.005175 
1331.000000	101.005223 
1330.000000	101.007769 
1329.000000	101.011132 
1328.000000	101.013357 
1327.000000	101.014057 
1326.000000	101.014338 
1325.000000	101.014914 
1324.000000	101.015067 
1323.000000	101.014318 
1322.000000	101.013333 
1321.000000	101.012919 
1320.000000	101.013262 
1319.000000	101.014476 
1318.000000	101.016333 
1317.000000	101.017371 
1316.000000	101.015924 
1315.000000	101.012551 
1314.000000	101.009936 
1313.000000	101.009552 
1312.000000	101.009959 
1311.000000	101.009199 
1310.000000	101.007592 
1309.000000	101.006770 
1308.000000	101.007411 
1307.000000	101.008471 
1306.000000	101.008688 
1305.000000	101.007791 
1304.000000	101.006394 
1303.000000	101.005692 
1302.000000	101.006472 
1301.000000	101.008147 
1300.000000	101.009309 
1299.000000	101.009676 
1298.000000	101.010472 
1297.000000	101.012542 
1296.000000	101.014861 
1295.000000	101.015480 
1294.000000	101.013498 
1293.000000	101.009551 
1292.000000	101.005160 
1291.000000	101.002091 
1290.000000	101.001585 
1289.000000	101.003585 
1288.000000	101.006776 
1287.000000	101.009489 
1286.000000	101.010422 
1285.000000	101.008883 
1284.000000	101.005101 
1283.000000	101.000324 
1282.000000	100.995810 
1281.000000	100.991965 
1280.000000	100.988820 
1279.000000	100.986828 
1278.000000	100.986214 
1277.000000	100.986028 
1276.000000	100.985063 
1275.000000	100.983328 
1274.000000	100.981479 
1273.000000	100.979180 
1272.000000	100.975641 
1271.000000	100.971695 
1270.000000	100.969487 
1269.000000	100.969601 
1268.000000	100.969857 
1267.000000	100.967667 
1266.000000	100.962501 
1265.000000	100.955667 
1264.000000	100.948918 
1263.000000	100.943621 
1262.000000	100.939954 
1261.000000	100.936733 
1260.000000	100.932821 
1259.000000	100.928727 
1258.000000	100.925762 
1257.000000	100.924014 
1256.000000	100.922876 
1255.000000	100.923021 
1254.000000	100.925543 
1253.000000	100.929096 
1252.000000	100.930429 
1251.000000	100.928560 
1250.000000	100.926398 
1249.000000	100.927222 
1248.000000	100.931261 
1247.000000	100.936575 
1246.000000	100.940956 
1245.000000	100.941660 
1244.000000	100.935997 
1243.000000	100.924876 
1242.000000	100.914371 
1241.000000	100.910991 
1240.000000	100.915583 
1239.000000	100.923354 
1238.000000	100.929286 
1237.000000	100.931978 
1236.000000	100.932655 
1235.000000	100.932513 
1234.000000	100.931669 
1233.000000	100.929455 
1232.000000	100.924914 
1231.000000	100.917583 
1230.000000	100.908484 
1229.000000	100.900347 
1228.000000	100.896359 
1227.000000	100.897713 
1226.000000	100.901844 
1225.000000	100.903961 
1224.000000	100.901492 
1223.000000	100.896694 
1222.000000	100.893817 
1221.000000	100.894277 
1220.000000	100.896055 
1219.000000	100.897267 
1218.000000	100.898018 
1217.000000	100.898388 
1216.000000	100.897039 
1215.000000	100.893036 
1214.000000	100.887301 
1213.000000	100.880850 
1212.000000	100.873223 
1211.000000	100.864327 
1210.000000	100.856384 
1209.000000	100.851967 
1208.000000	100.850624 
1207.000000	100.849121 
1206.000000	100.844846 
1205.000000	100.837761 
1204.000000	100.829308 
1203.000000	100.820832 
1202.000000	100.813283 
1201.000000	100.807257 
1200.000000	100.802721 
1199.000000	100.799228 
1198.000000	100.796561 
1197.000000	100.794505 
1196.000000	100.791800 
1195.000000	100.786109 
1194.000000	100.776020 
1193.000000	100.763061 
1192.000000	100.750803 
1191.000000	100.741480 
1190.000000	100.733911 
1189.000000	100.725397 
1188.000000	100.715278 
1187.000000	100.705648 
1186.000000	100.698587 
1185.000000	100.693811 
1184.000000	100.689361 
1183.000000	100.683447 
1182.000000	100.675176 
1181.000000	100.664729 
1180.000000	100.653576 
1179.000000	100.643503 
1178.000000	100.634625 
1177.000000	100.625284 
1176.000000	100.614499 
1175.000000	100.603058 
1174.000000	100.591295 
1173.000000	100.577561 
1172.000000	100.560744 
1171.000000	100.543148 
1170.000000	100.528633 
1169.000000	100.518238 
1168.000000	100.509481 
1167.000000	100.499828 
1166.000000	100.489393 
1165.000000	100.480447 
1164.000000	100.475698 
1163.000000	100.476853 
1162.000000	100.483478 
1161.000000	100.493308 
1160.000000	100.504306 
1159.000000	100.515509 
1158.000000	100.524846 
1157.000000	100.527622 
1156.000000	100.519781 
1155.000000	100.502958 
1154.000000	100.484424 
1153.000000	100.471153 
1152.000000	100.464595 
1151.000000	100.460878 
1150.000000	100.454780 
1149.000000	100.443742 
1148.000000	100.429518 
1147.000000	100.416243 
1146.000000	100.406098 
1145.000000	100.397041 
1144.000000	100.385526 
1143.000000	100.370768 
1142.000000	100.355285 
1141.000000	100.342112 
1140.000000	100.332988 
1139.000000	100.328276 
1138.000000	100.326392 
1137.000000	100.323579 
1136.000000	100.316447 
1135.000000	100.305175 
1134.000000	100.292704 
1133.000000	100.280713 
1132.000000	100.268121 
1131.000000	100.253886 
1130.000000	100.239473 
1129.000000	100.227481 
1128.000000	100.218606 
1127.000000	100.210520 
1126.000000	100.199571 
1125.000000	100.184097 
1124.000000	100.166673 
1123.000000	100.152349 
1122.000000	100.143516 
1121.000000	100.137185 
1120.000000	100.128607 
1119.000000	100.116719 
1118.000000	100.104321 
1117.000000	100.093599 
1116.000000	100.083699 
1115.000000	100.072717 
1114.000000	100.060103 
1113.000000	100.046627 
1112.000000	100.033314 
1111.000000	100.020574 
1110.000000	100.007503 
1109.000000	99.992349  
1108.000000	99.975044  
1107.000000	99.958558  
1106.000000	99.945493  
1105.000000	99.933882  
1104.000000	99.919066  
1103.000000	99.899985  
1102.000000	99.881223  
1101.000000	99.867610  
1100.000000	99.859246  
1099.000000	99.852951  
1098.000000	99.846622  
1097.000000	99.840755  
1096.000000	99.836199  
1095.000000	99.832010  
1094.000000	99.825330  
1093.000000	99.812660  
1092.000000	99.791614  
1091.000000	99.762631  
1090.000000	99.729578  
1089.000000	99.698286  
1088.000000	99.673651  
1087.000000	99.656974  
1086.000000	99.645464  
1085.000000	99.634846  
1084.000000	99.623051  
1083.000000	99.610962  
1082.000000	99.599469  
1081.000000	99.586971  
1080.000000	99.570789  
1079.000000	99.550462  
1078.000000	99.528751  
1077.000000	99.509787  
1076.000000	99.496880  
1075.000000	99.491301  
1074.000000	99.491774  
1073.000000	99.494904  
1072.000000	99.496192  
1071.000000	99.490507  
1070.000000	99.472873  
1069.000000	99.441670  
1068.000000	99.402493  
1067.000000	99.367012  
1066.000000	99.345141  
1065.000000	99.337861  
1064.000000	99.338307  
1063.000000	99.338249  
1062.000000	99.331886  
1061.000000	99.315604  
1060.000000	99.288447  
1059.000000	99.254451  
1058.000000	99.222024  
1057.000000	99.198419  
1056.000000	99.184645  
1055.000000	99.176133  
1054.000000	99.167557  
1053.000000	99.156428  
1052.000000	99.142912  
1051.000000	99.127751  
1050.000000	99.110997  
1049.000000	99.092183  
1048.000000	99.071244  
1047.000000	99.049738  
1046.000000	99.031280  
1045.000000	99.019355  
1044.000000	99.013226  
1043.000000	99.006777  
1042.000000	98.993911  
1041.000000	98.975719  
1040.000000	98.960168  
1039.000000	98.953786  
1038.000000	98.955707  
1037.000000	98.960810  
1036.000000	98.965646  
1035.000000	98.968968  
1034.000000	98.969401  
1033.000000	98.966307  
1032.000000	98.961457  
1031.000000	98.956487  
1030.000000	98.950082  
1029.000000	98.941349  
1028.000000	98.934792  
1027.000000	98.937054  
1026.000000	98.948013  
1025.000000	98.959218  
1024.000000	98.962573  
1023.000000	98.957720  
1022.000000	98.950189  
1021.000000	98.945360  
1020.000000	98.945410  
1019.000000	98.949136  
1018.000000	98.952709  
1017.000000	98.952574  
1016.000000	98.949258  
1015.000000	98.947030  
1014.000000	98.948810  
1013.000000	98.952801  
1012.000000	98.954831  
1011.000000	98.952557  
1010.000000	98.946914  
1009.000000	98.941177  
1008.000000	98.939211  
1007.000000	98.942850  
1006.000000	98.950016  
1005.000000	98.956549  
1004.000000	98.960308  
1003.000000	98.962392  
1002.000000	98.964588  
1001.000000	98.967293  
1000.000000	98.969881  
999.000000	 98.971313  
998.000000	 98.970570  
997.000000	 98.968496  
996.000000	 98.969023  
995.000000	 98.976022  
994.000000	 98.988437  
993.000000	 99.000736  
992.000000	 99.008607  
991.000000	 99.012122  
990.000000	 99.013290  
989.000000	 99.013345  
988.000000	 99.013426  
987.000000	 99.015425  
986.000000	 99.020533  
985.000000	 99.028341  
984.000000	 99.038175  
983.000000	 99.049745  
982.000000	 99.061842  
981.000000	 99.072274  
980.000000	 99.080212  
979.000000	 99.087533  
978.000000	 99.097217  
977.000000	 99.111125  
976.000000	 99.129029  
975.000000	 99.148492  
974.000000	 99.166283  
973.000000	 99.181856  
972.000000	 99.198858  
971.000000	 99.220859  
970.000000	 99.245916  
969.000000	 99.268030  
968.000000	 99.284093  
967.000000	 99.296782  
966.000000	 99.310341  
965.000000	 99.326254  
964.000000	 99.343784  
963.000000	 99.362148  
962.000000	 99.380972  
961.000000	 99.400411  
960.000000	 99.421342  
959.000000	 99.443507  
958.000000	 99.463549  
957.000000	 99.477734  
956.000000	 99.487219  
955.000000	 99.497689  
954.000000	 99.512717  
953.000000	 99.530253  
952.000000	 99.546901  
951.000000	 99.562470  
950.000000	 99.578038  
949.000000	 99.592137  
948.000000	 99.601816  
947.000000	 99.606247  
946.000000	 99.606975  
945.000000	 99.605600  
944.000000	 99.603493  
943.000000	 99.603209  
942.000000	 99.607860  
941.000000	 99.618422  
940.000000	 99.632264  
939.000000	 99.644317  
938.000000	 99.650119  
937.000000	 99.649347  
936.000000	 99.647061  
935.000000	 99.650041  
934.000000	 99.660700  
933.000000	 99.675414  
932.000000	 99.689440  
931.000000	 99.701943  
930.000000	 99.714988  
929.000000	 99.728755  
928.000000	 99.739512  
927.000000	 99.742672  
926.000000	 99.737693  
925.000000	 99.730186  
924.000000	 99.728743  
923.000000	 99.738256  
922.000000	 99.755562  
921.000000	 99.772254  
920.000000	 99.781772  
919.000000	 99.783122  
918.000000	 99.778885  
917.000000	 99.772143  
916.000000	 99.765769  
915.000000	 99.762209  
914.000000	 99.762088  
913.000000	 99.763912  
912.000000	 99.766266  
911.000000	 99.769811  
910.000000	 99.776853  
909.000000	 99.789604  
908.000000	 99.808588  
907.000000	 99.831262  
906.000000	 99.852300  
905.000000	 99.867078  
904.000000	 99.875477  
903.000000	 99.881432  
902.000000	 99.889101  
901.000000	 99.900553  
900.000000	 99.916228  
899.000000	 99.934996  
898.000000	 99.953541  
897.000000	 99.968154  
896.000000	 99.977785  
895.000000	 99.984184  
894.000000	 99.989497  
893.000000	 99.995766  
892.000000	 100.006167 
891.000000	 100.023523 
890.000000	 100.046800 
889.000000	 100.071473 
888.000000	 100.093969 
887.000000	 100.113696 
886.000000	 100.130883 
885.000000	 100.145508 
884.000000	 100.158792 
883.000000	 100.172303 
882.000000	 100.184306 
881.000000	 100.190503 
880.000000	 100.190635 
879.000000	 100.191493 
878.000000	 100.200402 
877.000000	 100.217355 
876.000000	 100.235836 
875.000000	 100.249512 
874.000000	 100.256164 
873.000000	 100.257380 
872.000000	 100.257354 
871.000000	 100.261009 
870.000000	 100.270945 
869.000000	 100.286577 
868.000000	 100.306787 
867.000000	 100.330950 
866.000000	 100.355957 
865.000000	 100.375678 
864.000000	 100.387128 
863.000000	 100.395594 
862.000000	 100.409379 
861.000000	 100.429367 
860.000000	 100.447551 
859.000000	 100.456843 
858.000000	 100.459029 
857.000000	 100.461319 
856.000000	 100.468107 
855.000000	 100.478974 
854.000000	 100.492336 
853.000000	 100.506727 
852.000000	 100.518878 
851.000000	 100.525050 
850.000000	 100.526432 
849.000000	 100.530199 
848.000000	 100.542136 
847.000000	 100.559444 
846.000000	 100.573445 
845.000000	 100.578698 
844.000000	 100.576985 
843.000000	 100.573388 
842.000000	 100.571832 
841.000000	 100.574033 
840.000000	 100.578622 
839.000000	 100.580267 
838.000000	 100.573831 
837.000000	 100.561553 
836.000000	 100.552285 
835.000000	 100.550661 
834.000000	 100.550654 
833.000000	 100.544238 
832.000000	 100.533380 
831.000000	 100.527290 
830.000000	 100.528720 
829.000000	 100.530080 
828.000000	 100.525163 
827.000000	 100.518446 
826.000000	 100.518182 
825.000000	 100.524334 
824.000000	 100.529184 
823.000000	 100.528294 
822.000000	 100.525594 
821.000000	 100.527417 
820.000000	 100.535162 
819.000000	 100.544722 
818.000000	 100.551335 
817.000000	 100.554239 
816.000000	 100.556434 
815.000000	 100.559691 
814.000000	 100.560924 
813.000000	 100.555134 
812.000000	 100.540960 
811.000000	 100.520636 
810.000000	 100.494650 
809.000000	 100.459825 
808.000000	 100.413977 
807.000000	 100.359788 
806.000000	 100.302110 
805.000000	 100.243487 
804.000000	 100.184646 
803.000000	 100.127921 
802.000000	 100.077617 
801.000000	 100.037322 
800.000000	 100.008298 
799.000000	 99.989897  
798.000000	 99.980333  
797.000000	 99.977350  
796.000000	 99.978513  
795.000000	 99.980801  
794.000000	 99.981261  
793.000000	 99.979862  
792.000000	 99.980859  
791.000000	 99.988783  
790.000000	 100.002837 
789.000000	 100.016921 
788.000000	 100.024742 
787.000000	 100.023008 
786.000000	 100.010788 
785.000000	 99.989157  
784.000000	 99.962238  
783.000000	 99.936245  
782.000000	 99.915912  
781.000000	 99.901953  
780.000000	 99.891267  
779.000000	 99.878584  
778.000000	 99.860041  
777.000000	 99.838277  
776.000000	 99.823177  
775.000000	 99.824169  
774.000000	 99.841435  
773.000000	 99.866841  
772.000000	 99.892392  
771.000000	 99.914645  
770.000000	 99.932446  
769.000000	 99.945088  
768.000000	 99.953442  
767.000000	 99.959879  
766.000000	 99.966674  
765.000000	 99.976535  
764.000000	 99.993228  
763.000000	 100.017443 
762.000000	 100.042257 
761.000000	 100.057300 
760.000000	 100.058829 
759.000000	 100.053232 
758.000000	 100.050338 
757.000000	 100.055300 
756.000000	 100.065786 
755.000000	 100.073515 
754.000000	 100.070025 
753.000000	 100.056066 
752.000000	 100.045349 
751.000000	 100.053807 
750.000000	 100.083155 
749.000000	 100.118377 
748.000000	 100.142394 
747.000000	 100.149908 
746.000000	 100.147174 
745.000000	 100.143481 
744.000000	 100.145244 
743.000000	 100.154541 
742.000000	 100.169823 
741.000000	 100.188876 
740.000000	 100.211693 
739.000000	 100.238800 
738.000000	 100.267027 
737.000000	 100.289482 
736.000000	 100.299985 
735.000000	 100.296596 
734.000000	 100.283093 
733.000000	 100.269685 
732.000000	 100.269193 
731.000000	 100.286649 
730.000000	 100.312922 
729.000000	 100.333598 
728.000000	 100.343923 
727.000000	 100.349872 
726.000000	 100.355248 
725.000000	 100.355770 
724.000000	 100.348121 
723.000000	 100.337542 
722.000000	 100.332382 
721.000000	 100.335893 
720.000000	 100.346905 
719.000000	 100.364172 
718.000000	 100.385862 
717.000000	 100.407356 
716.000000	 100.422489 
715.000000	 100.426142 
714.000000	 100.416671 
713.000000	 100.399734 
712.000000	 100.389381 
711.000000	 100.398509 
710.000000	 100.424775 
709.000000	 100.450298 
708.000000	 100.458067 
707.000000	 100.445675 
706.000000	 100.421570 
705.000000	 100.393985 
704.000000	 100.368293 
703.000000	 100.349386 
702.000000	 100.339876 
701.000000	 100.336837 
700.000000	 100.333054 
699.000000	 100.321592 
698.000000	 100.299479 
697.000000	 100.269966 
696.000000	 100.242063 
695.000000	 100.223381 
694.000000	 100.213420 
693.000000	 100.207850 
692.000000	 100.207254 
691.000000	 100.216227 
690.000000	 100.234641 
689.000000	 100.257620 
688.000000	 100.284194 
687.000000	 100.315101 
686.000000	 100.341241 
685.000000	 100.347056 
684.000000	 100.329806 
683.000000	 100.306120 
682.000000	 100.294717 
681.000000	 100.299816 
680.000000	 100.313575 
679.000000	 100.325797 
678.000000	 100.328433 
677.000000	 100.320096 
676.000000	 100.312646 
675.000000	 100.323536 
674.000000	 100.353304 
673.000000	 100.380238 
672.000000	 100.385834 
671.000000	 100.375460 
670.000000	 100.366449 
669.000000	 100.375084 
668.000000	 100.397475 
667.000000	 100.406365 
666.000000	 100.403661 
665.000000	 100.403585 
664.000000	 100.405109 
663.000000	 100.423980 
662.000000	 100.470119 
661.000000	 100.520584 
660.000000	 100.535690 
659.000000	 100.505705 
658.000000	 100.457488 
657.000000	 100.418718 
656.000000	 100.396277 
655.000000	 100.390430 
654.000000	 100.401469 
653.000000	 100.419165 
652.000000	 100.428742 
651.000000	 100.430746 
650.000000	 100.439645 

