4000.000000	99.934564  
3999.000000	99.930865  
3998.000000	99.927641  
3997.000000	99.927065  
3996.000000	99.928833  
3995.000000	99.930955  
3994.000000	99.932051  
3993.000000	99.932519  
3992.000000	99.933465  
3991.000000	99.934759  
3990.000000	99.934565  
3989.000000	99.931086  
3988.000000	99.924903  
3987.000000	99.919224  
3986.000000	99.917402  
3985.000000	99.920254  
3984.000000	99.925891  
3983.000000	99.931943  
3982.000000	99.937392  
3981.000000	99.942377  
3980.000000	99.947113  
3979.000000	99.951375  
3978.000000	99.954646  
3977.000000	99.956322  
3976.000000	99.955824  
3975.000000	99.952754  
3974.000000	99.947112  
3973.000000	99.939731  
3972.000000	99.932761  
3971.000000	99.929182  
3970.000000	99.931011  
3969.000000	99.937456  
3968.000000	99.945155  
3967.000000	99.950505  
3966.000000	99.951672  
3965.000000	99.948842  
3964.000000	99.943561  
3963.000000	99.938218  
3962.000000	99.935138  
3961.000000	99.935137  
3960.000000	99.936856  
3959.000000	99.937855  
3958.000000	99.936670  
3957.000000	99.933724  
3956.000000	99.930450  
3955.000000	99.927991  
3954.000000	99.926714  
3953.000000	99.926722  
3952.000000	99.928363  
3951.000000	99.931865  
3950.000000	99.936430  
3949.000000	99.939970  
3948.000000	99.940784  
3947.000000	99.939584  
3946.000000	99.938814  
3945.000000	99.939694  
3944.000000	99.940589  
3943.000000	99.938926  
3942.000000	99.934237  
3941.000000	99.928889  
3940.000000	99.925609  
3939.000000	99.924850  
3938.000000	99.924930  
3937.000000	99.924317  
3936.000000	99.923286  
3935.000000	99.923485  
3934.000000	99.926022  
3933.000000	99.930300  
3932.000000	99.934633  
3931.000000	99.937942  
3930.000000	99.940238  
3929.000000	99.941331  
3928.000000	99.940386  
3927.000000	99.937190  
3926.000000	99.933135  
3925.000000	99.930447  
3924.000000	99.930201  
3923.000000	99.931509  
3922.000000	99.932794  
3921.000000	99.933227  
3920.000000	99.933256  
3919.000000	99.933873  
3918.000000	99.935268  
3917.000000	99.936522  
3916.000000	99.936784  
3915.000000	99.936408  
3914.000000	99.936239  
3913.000000	99.936225  
3912.000000	99.935205  
3911.000000	99.932164  
3910.000000	99.927775  
3909.000000	99.924437  
3908.000000	99.924647  
3907.000000	99.929682  
3906.000000	99.939036  
3905.000000	99.950507  
3904.000000	99.960581  
3903.000000	99.965825  
3902.000000	99.965135  
3901.000000	99.960105  
3900.000000	99.953129  
3899.000000	99.945766  
3898.000000	99.938171  
3897.000000	99.930195  
3896.000000	99.922803  
3895.000000	99.918198  
3894.000000	99.918716  
3893.000000	99.924979  
3892.000000	99.934334  
3891.000000	99.942669  
3890.000000	99.948660  
3889.000000	99.953844  
3888.000000	99.958228  
3887.000000	99.958800  
3886.000000	99.953059  
3885.000000	99.943234  
3884.000000	99.935369  
3883.000000	99.933457  
3882.000000	99.935805  
3881.000000	99.937505  
3880.000000	99.935432  
3879.000000	99.931877  
3878.000000	99.931264  
3877.000000	99.933992  
3876.000000	99.935893  
3875.000000	99.933872  
3874.000000	99.929919  
3873.000000	99.928611  
3872.000000	99.931448  
3871.000000	99.935279  
3870.000000	99.936518  
3869.000000	99.935680  
3868.000000	99.936774  
3867.000000	99.941453  
3866.000000	99.946294  
3865.000000	99.947202  
3864.000000	99.944304  
3863.000000	99.941208  
3862.000000	99.940549  
3861.000000	99.940676  
3860.000000	99.937549  
3859.000000	99.929400  
3858.000000	99.918798  
3857.000000	99.910555  
3856.000000	99.908843  
3855.000000	99.915138  
3854.000000	99.928071  
3853.000000	99.940262  
3852.000000	99.947003  
3851.000000	99.951931  
3850.000000	99.957271  
3849.000000	99.960110  
3848.000000	99.957737  
3847.000000	99.950825  
3846.000000	99.942994  
3845.000000	99.938206  
3844.000000	99.937414  
3843.000000	99.938373  
3842.000000	99.939065  
3841.000000	99.939599  
3840.000000	99.941168  
3839.000000	99.944369  
3838.000000	99.948233  
3837.000000	99.951272  
3836.000000	99.952651  
3835.000000	99.952062  
3834.000000	99.949790  
3833.000000	99.946555  
3832.000000	99.943422  
3831.000000	99.941624  
3830.000000	99.941699  
3829.000000	99.942841  
3828.000000	99.942990  
3827.000000	99.940379  
3826.000000	99.936096  
3825.000000	99.934016  
3824.000000	99.936914  
3823.000000	99.943122  
3822.000000	99.948393  
3821.000000	99.950144  
3820.000000	99.950306  
3819.000000	99.953049  
3818.000000	99.958015  
3817.000000	99.959291  
3816.000000	99.952617  
3815.000000	99.941745  
3814.000000	99.934166  
3813.000000	99.931439  
3812.000000	99.928894  
3811.000000	99.923135  
3810.000000	99.916575  
3809.000000	99.914604  
3808.000000	99.919082  
3807.000000	99.925486  
3806.000000	99.928914  
3805.000000	99.929911  
3804.000000	99.931318  
3803.000000	99.933013  
3802.000000	99.932413  
3801.000000	99.928499  
3800.000000	99.924389  
3799.000000	99.923673  
3798.000000	99.925356  
3797.000000	99.925637  
3796.000000	99.923086  
3795.000000	99.920426  
3794.000000	99.921302  
3793.000000	99.926038  
3792.000000	99.931502  
3791.000000	99.934240  
3790.000000	99.933260  
3789.000000	99.930492  
3788.000000	99.929163  
3787.000000	99.931661  
3786.000000	99.937935  
3785.000000	99.945354  
3784.000000	99.950816  
3783.000000	99.953168  
3782.000000	99.953120  
3781.000000	99.951601  
3780.000000	99.948983  
3779.000000	99.945387  
3778.000000	99.941621  
3777.000000	99.938935  
3776.000000	99.937551  
3775.000000	99.936731  
3774.000000	99.936607  
3773.000000	99.938219  
3772.000000	99.941093  
3771.000000	99.942280  
3770.000000	99.939650  
3769.000000	99.935391  
3768.000000	99.934028  
3767.000000	99.937026  
3766.000000	99.940745  
3765.000000	99.941087  
3764.000000	99.938904  
3763.000000	99.938801  
3762.000000	99.943278  
3761.000000	99.950114  
3760.000000	99.955385  
3759.000000	99.957291  
3758.000000	99.957083  
3757.000000	99.956839  
3756.000000	99.957012  
3755.000000	99.956570  
3754.000000	99.955303  
3753.000000	99.955151  
3752.000000	99.958191  
3751.000000	99.962162  
3750.000000	99.961828  
3749.000000	99.957924  
3748.000000	99.956193  
3747.000000	99.959061  
3746.000000	99.962413  
3745.000000	99.959899  
3744.000000	99.950256  
3743.000000	99.941336  
3742.000000	99.940779  
3741.000000	99.946834  
3740.000000	99.952940  
3739.000000	99.955499  
3738.000000	99.955550  
3737.000000	99.956351  
3736.000000	99.959868  
3735.000000	99.964527  
3734.000000	99.967177  
3733.000000	99.966296  
3732.000000	99.962754  
3731.000000	99.958986  
3730.000000	99.957367  
3729.000000	99.958471  
3728.000000	99.960374  
3727.000000	99.960876  
3726.000000	99.960273  
3725.000000	99.960608  
3724.000000	99.962159  
3723.000000	99.962523  
3722.000000	99.959898  
3721.000000	99.955446  
3720.000000	99.952140  
3719.000000	99.951189  
3718.000000	99.950472  
3717.000000	99.947251  
3716.000000	99.940681  
3715.000000	99.931608  
3714.000000	99.921467  
3713.000000	99.912485  
3712.000000	99.908078  
3711.000000	99.909757  
3710.000000	99.915224  
3709.000000	99.920262  
3708.000000	99.920886  
3707.000000	99.915201  
3706.000000	99.904036  
3705.000000	99.890246  
3704.000000	99.877635  
3703.000000	99.869832  
3702.000000	99.868614  
3701.000000	99.872033  
3700.000000	99.875585  
3699.000000	99.875141  
3698.000000	99.868393  
3697.000000	99.856151  
3696.000000	99.842785  
3695.000000	99.833519  
3694.000000	99.830396  
3693.000000	99.831498  
3692.000000	99.834031  
3691.000000	99.836971  
3690.000000	99.840318  
3689.000000	99.842057  
3688.000000	99.840133  
3687.000000	99.836755  
3686.000000	99.835196  
3685.000000	99.835136  
3684.000000	99.833790  
3683.000000	99.829469  
3682.000000	99.823056  
3681.000000	99.816498  
3680.000000	99.810538  
3679.000000	99.804439  
3678.000000	99.797297  
3677.000000	99.789618  
3676.000000	99.785080  
3675.000000	99.787020  
3674.000000	99.796195  
3673.000000	99.810856  
3672.000000	99.825536  
3671.000000	99.832733  
3670.000000	99.829572  
3669.000000	99.819973  
3668.000000	99.810073  
3667.000000	99.802416  
3666.000000	99.795263  
3665.000000	99.787037  
3664.000000	99.779185  
3663.000000	99.774559  
3662.000000	99.774443  
3661.000000	99.777834  
3660.000000	99.782741  
3659.000000	99.787502  
3658.000000	99.790761  
3657.000000	99.791717  
3656.000000	99.791286  
3655.000000	99.792759  
3654.000000	99.799703  
3653.000000	99.811953  
3652.000000	99.825302  
3651.000000	99.835018  
3650.000000	99.839425  
3649.000000	99.839228  
3648.000000	99.835954  
3647.000000	99.831911  
3646.000000	99.829137  
3645.000000	99.828714  
3644.000000	99.830461  
3643.000000	99.832780  
3642.000000	99.833511  
3641.000000	99.832052  
3640.000000	99.830260  
3639.000000	99.831426  
3638.000000	99.837911  
3637.000000	99.849097  
3636.000000	99.861066  
3635.000000	99.868523  
3634.000000	99.868897  
3633.000000	99.864839  
3632.000000	99.861861  
3631.000000	99.863699  
3630.000000	99.869382  
3629.000000	99.873569  
3628.000000	99.871355  
3627.000000	99.865300  
3626.000000	99.860807  
3625.000000	99.858658  
3624.000000	99.856964  
3623.000000	99.855166  
3622.000000	99.854186  
3621.000000	99.854374  
3620.000000	99.855314  
3619.000000	99.857135  
3618.000000	99.861317  
3617.000000	99.869372  
3616.000000	99.879877  
3615.000000	99.888186  
3614.000000	99.890275  
3613.000000	99.886157  
3612.000000	99.879124  
3611.000000	99.872645  
3610.000000	99.868277  
3609.000000	99.866153  
3608.000000	99.866187  
3607.000000	99.868019  
3606.000000	99.871082  
3605.000000	99.874806  
3604.000000	99.878292  
3603.000000	99.880354  
3602.000000	99.880299  
3601.000000	99.878969  
3600.000000	99.879046  
3599.000000	99.883142  
3598.000000	99.891094  
3597.000000	99.899795  
3596.000000	99.905317  
3595.000000	99.905860  
3594.000000	99.903512  
3593.000000	99.903046  
3592.000000	99.908369  
3591.000000	99.919545  
3590.000000	99.931928  
3589.000000	99.938814  
3588.000000	99.936441  
3587.000000	99.926889  
3586.000000	99.915827  
3585.000000	99.907681  
3584.000000	99.902807  
3583.000000	99.899148  
3582.000000	99.894923  
3581.000000	99.889867  
3580.000000	99.884524  
3579.000000	99.879257  
3578.000000	99.874330  
3577.000000	99.870722  
3576.000000	99.870087  
3575.000000	99.873050  
3574.000000	99.878150  
3573.000000	99.882999  
3572.000000	99.886338  
3571.000000	99.888420  
3570.000000	99.889498  
3569.000000	99.889008  
3568.000000	99.887241  
3567.000000	99.886543  
3566.000000	99.889197  
3565.000000	99.894794  
3564.000000	99.900166  
3563.000000	99.901650  
3562.000000	99.898068  
3561.000000	99.891461  
3560.000000	99.884958  
3559.000000	99.880166  
3558.000000	99.876794  
3557.000000	99.874402  
3556.000000	99.873777  
3555.000000	99.876195  
3554.000000	99.881553  
3553.000000	99.887715  
3552.000000	99.891905  
3551.000000	99.893003  
3550.000000	99.892059  
3549.000000	99.890649  
3548.000000	99.889441  
3547.000000	99.888392  
3546.000000	99.887400  
3545.000000	99.886507  
3544.000000	99.885621  
3543.000000	99.884352  
3542.000000	99.882403  
3541.000000	99.880099  
3540.000000	99.878511  
3539.000000	99.878896  
3538.000000	99.881530  
3537.000000	99.885008  
3536.000000	99.886820  
3535.000000	99.885172  
3534.000000	99.880319  
3533.000000	99.874224  
3532.000000	99.869193  
3531.000000	99.866840  
3530.000000	99.867776  
3529.000000	99.871691  
3528.000000	99.877549  
3527.000000	99.883799  
3526.000000	99.888555  
3525.000000	99.890116  
3524.000000	99.888175  
3523.000000	99.884652  
3522.000000	99.882422  
3521.000000	99.882617  
3520.000000	99.883455  
3519.000000	99.882269  
3518.000000	99.878278  
3517.000000	99.873220  
3516.000000	99.869553  
3515.000000	99.868751  
3514.000000	99.871027  
3513.000000	99.875567  
3512.000000	99.880500  
3511.000000	99.883420  
3510.000000	99.882883  
3509.000000	99.879565  
3508.000000	99.875832  
3507.000000	99.873974  
3506.000000	99.874421  
3505.000000	99.875377  
3504.000000	99.874438  
3503.000000	99.871545  
3502.000000	99.870213  
3501.000000	99.874551  
3500.000000	99.884309  
3499.000000	99.893708  
3498.000000	99.896004  
3497.000000	99.889565  
3496.000000	99.879443  
3495.000000	99.872644  
3494.000000	99.871927  
3493.000000	99.874054  
3492.000000	99.873651  
3491.000000	99.868562  
3490.000000	99.861733  
3489.000000	99.858073  
3488.000000	99.859705  
3487.000000	99.864512  
3486.000000	99.869023  
3485.000000	99.871906  
3484.000000	99.874282  
3483.000000	99.877417  
3482.000000	99.880801  
3481.000000	99.882513  
3480.000000	99.881225  
3479.000000	99.877770  
3478.000000	99.874544  
3477.000000	99.873137  
3476.000000	99.872679  
3475.000000	99.871059  
3474.000000	99.868019  
3473.000000	99.866137  
3472.000000	99.867987  
3471.000000	99.872895  
3470.000000	99.877488  
3469.000000	99.879140  
3468.000000	99.877889  
3467.000000	99.875166  
3466.000000	99.871910  
3465.000000	99.868621  
3464.000000	99.866245  
3463.000000	99.865751  
3462.000000	99.866737  
3461.000000	99.867244  
3460.000000	99.865397  
3459.000000	99.861186  
3458.000000	99.856613  
3457.000000	99.854214  
3456.000000	99.855103  
3455.000000	99.858193  
3454.000000	99.861224  
3453.000000	99.862684  
3452.000000	99.862884  
3451.000000	99.863281  
3450.000000	99.864970  
3449.000000	99.867714  
3448.000000	99.870132  
3447.000000	99.870711  
3446.000000	99.869071  
3445.000000	99.866383  
3444.000000	99.864348  
3443.000000	99.863662  
3442.000000	99.863606  
3441.000000	99.863181  
3440.000000	99.862361  
3439.000000	99.861918  
3438.000000	99.862124  
3437.000000	99.862093  
3436.000000	99.860715  
3435.000000	99.858299  
3434.000000	99.856921  
3433.000000	99.858665  
3432.000000	99.863368  
3431.000000	99.868244  
3430.000000	99.869966  
3429.000000	99.867112  
3428.000000	99.860863  
3427.000000	99.853880  
3426.000000	99.848703  
3425.000000	99.846615  
3424.000000	99.847190  
3423.000000	99.848803  
3422.000000	99.849966  
3421.000000	99.850340  
3420.000000	99.850403  
3419.000000	99.850517  
3418.000000	99.850664  
3417.000000	99.850772  
3416.000000	99.850807  
3415.000000	99.850640  
3414.000000	99.850245  
3413.000000	99.849935  
3412.000000	99.850030  
3411.000000	99.850481  
3410.000000	99.851302  
3409.000000	99.853119  
3408.000000	99.856465  
3407.000000	99.860391  
3406.000000	99.862579  
3405.000000	99.861516  
3404.000000	99.858343  
3403.000000	99.856099  
3402.000000	99.857007  
3401.000000	99.860513  
3400.000000	99.864041  
3399.000000	99.865574  
3398.000000	99.865494  
3397.000000	99.865741  
3396.000000	99.867282  
3395.000000	99.868931  
3394.000000	99.868989  
3393.000000	99.867478  
3392.000000	99.866027  
3391.000000	99.865720  
3390.000000	99.865829  
3389.000000	99.864964  
3388.000000	99.862823  
3387.000000	99.860377  
3386.000000	99.858599  
3385.000000	99.857458  
3384.000000	99.856160  
3383.000000	99.854225  
3382.000000	99.852189  
3381.000000	99.851085  
3380.000000	99.851289  
3379.000000	99.852167  
3378.000000	99.853199  
3377.000000	99.855064  
3376.000000	99.859001  
3375.000000	99.865041  
3374.000000	99.871444  
3373.000000	99.876057  
3372.000000	99.877964  
3371.000000	99.877809  
3370.000000	99.877015  
3369.000000	99.876823  
3368.000000	99.877540  
3367.000000	99.878231  
3366.000000	99.877347  
3365.000000	99.874065  
3364.000000	99.869081  
3363.000000	99.864173  
3362.000000	99.861130  
3361.000000	99.860821  
3360.000000	99.862625  
3359.000000	99.864652  
3358.000000	99.865179  
3357.000000	99.864205  
3356.000000	99.863242  
3355.000000	99.863372  
3354.000000	99.864167  
3353.000000	99.864867  
3352.000000	99.865836  
3351.000000	99.868089  
3350.000000	99.871851  
3349.000000	99.876469  
3348.000000	99.881432  
3347.000000	99.886482  
3346.000000	99.890679  
3345.000000	99.892419  
3344.000000	99.890846  
3343.000000	99.886746  
3342.000000	99.881871  
3341.000000	99.877987  
3340.000000	99.876642  
3339.000000	99.878613  
3338.000000	99.882541  
3337.000000	99.884765  
3336.000000	99.882045  
3335.000000	99.875023  
3334.000000	99.868270  
3333.000000	99.866386  
3332.000000	99.870080  
3331.000000	99.875996  
3330.000000	99.880020  
3329.000000	99.880690  
3328.000000	99.879827  
3327.000000	99.880197  
3326.000000	99.882546  
3325.000000	99.885029  
3324.000000	99.885671  
3323.000000	99.884932  
3322.000000	99.884920  
3321.000000	99.885998  
3320.000000	99.885434  
3319.000000	99.880597  
3318.000000	99.873044  
3317.000000	99.868047  
3316.000000	99.869683  
3315.000000	99.877065  
3314.000000	99.885616  
3313.000000	99.891263  
3312.000000	99.892993  
3311.000000	99.892284  
3310.000000	99.891199  
3309.000000	99.891038  
3308.000000	99.891974  
3307.000000	99.893377  
3306.000000	99.894397  
3305.000000	99.894309  
3304.000000	99.892552  
3303.000000	99.889076  
3302.000000	99.885000  
3301.000000	99.882579  
3300.000000	99.883776  
3299.000000	99.888632  
3298.000000	99.895092  
3297.000000	99.900405  
3296.000000	99.902802  
3295.000000	99.902271  
3294.000000	99.900261  
3293.000000	99.898585  
3292.000000	99.898128  
3291.000000	99.898408  
3290.000000	99.898536  
3289.000000	99.898491  
3288.000000	99.899195  
3287.000000	99.901264  
3286.000000	99.903932  
3285.000000	99.905466  
3284.000000	99.904804  
3283.000000	99.902748  
3282.000000	99.901284  
3281.000000	99.901484  
3280.000000	99.902290  
3279.000000	99.901809  
3278.000000	99.899654  
3277.000000	99.897395  
3276.000000	99.896698  
3275.000000	99.897783  
3274.000000	99.899891  
3273.000000	99.902231  
3272.000000	99.903663  
3271.000000	99.902323  
3270.000000	99.896994  
3269.000000	99.889062  
3268.000000	99.882353  
3267.000000	99.880581  
3266.000000	99.884888  
3265.000000	99.893340  
3264.000000	99.902299  
3263.000000	99.908595  
3262.000000	99.911297  
3261.000000	99.911655  
3260.000000	99.911109  
3259.000000	99.909651  
3258.000000	99.906540  
3257.000000	99.902179  
3256.000000	99.898334  
3255.000000	99.896586  
3254.000000	99.897367  
3253.000000	99.900418  
3252.000000	99.905086  
3251.000000	99.909801  
3250.000000	99.912423  
3249.000000	99.911978  
3248.000000	99.909669  
3247.000000	99.907515  
3246.000000	99.906249  
3245.000000	99.905137  
3244.000000	99.903747  
3243.000000	99.903264  
3242.000000	99.905734  
3241.000000	99.911844  
3240.000000	99.919359  
3239.000000	99.924109  
3238.000000	99.923317  
3237.000000	99.918288  
3236.000000	99.913244  
3235.000000	99.911194  
3234.000000	99.911435  
3233.000000	99.911435  
3232.000000	99.910379  
3231.000000	99.909929  
3230.000000	99.911724  
3229.000000	99.915031  
3228.000000	99.917092  
3227.000000	99.915381  
3226.000000	99.909532  
3225.000000	99.901686  
3224.000000	99.895222  
3223.000000	99.892671  
3222.000000	99.894283  
3221.000000	99.898343  
3220.000000	99.902763  
3219.000000	99.906260  
3218.000000	99.908300  
3217.000000	99.908641  
3216.000000	99.907401  
3215.000000	99.905333  
3214.000000	99.903514  
3213.000000	99.902664  
3212.000000	99.903061  
3211.000000	99.905084  
3210.000000	99.909286  
3209.000000	99.915408  
3208.000000	99.921582  
3207.000000	99.925278  
3206.000000	99.925479  
3205.000000	99.923634  
3204.000000	99.922165  
3203.000000	99.922261  
3202.000000	99.923540  
3201.000000	99.925469  
3200.000000	99.928134  
3199.000000	99.931346  
3198.000000	99.933850  
3197.000000	99.934316  
3196.000000	99.932951  
3195.000000	99.931382  
3194.000000	99.930759  
3193.000000	99.930530  
3192.000000	99.929427  
3191.000000	99.927350  
3190.000000	99.925849  
3189.000000	99.926612  
3188.000000	99.929750  
3187.000000	99.933596  
3186.000000	99.936043  
3185.000000	99.936031  
3184.000000	99.933984  
3183.000000	99.931273  
3182.000000	99.929303  
3181.000000	99.928810  
3180.000000	99.929573  
3179.000000	99.930659  
3178.000000	99.930996  
3177.000000	99.929844  
3176.000000	99.927027  
3175.000000	99.923243  
3174.000000	99.920331  
3173.000000	99.920539  
3172.000000	99.924624  
3171.000000	99.930575  
3170.000000	99.934970  
3169.000000	99.936035  
3168.000000	99.935125  
3167.000000	99.934936  
3166.000000	99.936655  
3165.000000	99.939234  
3164.000000	99.941032  
3163.000000	99.941449  
3162.000000	99.940982  
3161.000000	99.940484  
3160.000000	99.940814  
3159.000000	99.942700  
3158.000000	99.946201  
3157.000000	99.950152  
3156.000000	99.952670  
3155.000000	99.952679  
3154.000000	99.951016  
3153.000000	99.949812  
3152.000000	99.950537  
3151.000000	99.952529  
3150.000000	99.953518  
3149.000000	99.951886  
3148.000000	99.948622  
3147.000000	99.946835  
3146.000000	99.948816  
3145.000000	99.953453  
3144.000000	99.957065  
3143.000000	99.957262  
3142.000000	99.955498  
3141.000000	99.955151  
3140.000000	99.957424  
3139.000000	99.960146  
3138.000000	99.960767  
3137.000000	99.959413  
3136.000000	99.958216  
3135.000000	99.958385  
3134.000000	99.959089  
3133.000000	99.959119  
3132.000000	99.958479  
3131.000000	99.957772  
3130.000000	99.956756  
3129.000000	99.954495  
3128.000000	99.950992  
3127.000000	99.947999  
3126.000000	99.947723  
3125.000000	99.950742  
3124.000000	99.955307  
3123.000000	99.958701  
3122.000000	99.959349  
3121.000000	99.957993  
3120.000000	99.957092  
3119.000000	99.958859  
3118.000000	99.963246  
3117.000000	99.967707  
3116.000000	99.969462  
3115.000000	99.968252  
3114.000000	99.966240  
3113.000000	99.964992  
3112.000000	99.963570  
3111.000000	99.960601  
3110.000000	99.957279  
3109.000000	99.956447  
3108.000000	99.958606  
3107.000000	99.960576  
3106.000000	99.959053  
3105.000000	99.954318  
3104.000000	99.949621  
3103.000000	99.948018  
3102.000000	99.950665  
3101.000000	99.956785  
3100.000000	99.963624  
3099.000000	99.967253  
3098.000000	99.965500  
3097.000000	99.960406  
3096.000000	99.956560  
3095.000000	99.956743  
3094.000000	99.960081  
3093.000000	99.964200  
3092.000000	99.967573  
3091.000000	99.969453  
3090.000000	99.969310  
3089.000000	99.967687  
3088.000000	99.966774  
3087.000000	99.968714  
3086.000000	99.973312  
3085.000000	99.978194  
3084.000000	99.981314  
3083.000000	99.982704  
3082.000000	99.983713  
3081.000000	99.985097  
3080.000000	99.986191  
3079.000000	99.985643  
3078.000000	99.982438  
3077.000000	99.976387  
3076.000000	99.968384  
3075.000000	99.960666  
3074.000000	99.956210  
3073.000000	99.956850  
3072.000000	99.961786  
3071.000000	99.968455  
3070.000000	99.974710  
3069.000000	99.979281  
3068.000000	99.980509  
3067.000000	99.976657  
3066.000000	99.968634  
3065.000000	99.960939  
3064.000000	99.958012  
3063.000000	99.959959  
3062.000000	99.963256  
3061.000000	99.965276  
3060.000000	99.966614  
3059.000000	99.968999  
3058.000000	99.972494  
3057.000000	99.975553  
3056.000000	99.977041  
3055.000000	99.977378  
3054.000000	99.977847  
3053.000000	99.979017  
3052.000000	99.979882  
3051.000000	99.978818  
3050.000000	99.975581  
3049.000000	99.971771  
3048.000000	99.968719  
3047.000000	99.965650  
3046.000000	99.961137  
3045.000000	99.955895  
3044.000000	99.952590  
3043.000000	99.952539  
3042.000000	99.953847  
3041.000000	99.953423  
3040.000000	99.950082  
3039.000000	99.945206  
3038.000000	99.941018  
3037.000000	99.938796  
3036.000000	99.938270  
3035.000000	99.938117  
3034.000000	99.937030  
3033.000000	99.934455  
3032.000000	99.930273  
3031.000000	99.924136  
3030.000000	99.915762  
3029.000000	99.905830  
3028.000000	99.895973  
3027.000000	99.887718  
3026.000000	99.881713  
3025.000000	99.877623  
3024.000000	99.874072  
3023.000000	99.868862  
3022.000000	99.860314  
3021.000000	99.848787  
3020.000000	99.836467  
3019.000000	99.825611  
3018.000000	99.817375  
3017.000000	99.811807  
3016.000000	99.807747  
3015.000000	99.802776  
3014.000000	99.794512  
3013.000000	99.782412  
3012.000000	99.767561  
3011.000000	99.750709  
3010.000000	99.731838  
3009.000000	99.711986  
3008.000000	99.694048  
3007.000000	99.680676  
3006.000000	99.671961  
3005.000000	99.665654  
3004.000000	99.658817  
3003.000000	99.648820  
3002.000000	99.634165  
3001.000000	99.615944  
3000.000000	99.597997  
2999.000000	99.584053  
2998.000000	99.574644  
2997.000000	99.567787  
2996.000000	99.562276  
2995.000000	99.558337  
2994.000000	99.554252  
2993.000000	99.544376  
2992.000000	99.523346  
2991.000000	99.492845  
2990.000000	99.462610  
2989.000000	99.443126  
2988.000000	99.437356  
2987.000000	99.440350  
2986.000000	99.446151  
2985.000000	99.453223  
2984.000000	99.462627  
2983.000000	99.473110  
2982.000000	99.480531  
2981.000000	99.482081  
2980.000000	99.479325  
2979.000000	99.476251  
2978.000000	99.475315  
2977.000000	99.476078  
2976.000000	99.476861  
2975.000000	99.476681  
2974.000000	99.475760  
2973.000000	99.474977  
2972.000000	99.475183  
2971.000000	99.476901  
2970.000000	99.480556  
2969.000000	99.486748  
2968.000000	99.495893  
2967.000000	99.507523  
2966.000000	99.520259  
2965.000000	99.532727  
2964.000000	99.544352  
2963.000000	99.555241  
2962.000000	99.565497  
2961.000000	99.574701  
2960.000000	99.582049  
2959.000000	99.587265  
2958.000000	99.591663  
2957.000000	99.597650  
2956.000000	99.606104  
2955.000000	99.614355  
2954.000000	99.618224  
2953.000000	99.617071  
2952.000000	99.615961  
2951.000000	99.621433  
2950.000000	99.634858  
2949.000000	99.650735  
2948.000000	99.661904  
2947.000000	99.665894  
2946.000000	99.665903  
2945.000000	99.666395  
2944.000000	99.669041  
2943.000000	99.673009  
2942.000000	99.677500  
2941.000000	99.682348  
2940.000000	99.686539  
2939.000000	99.688127  
2938.000000	99.686537  
2937.000000	99.684000  
2936.000000	99.683722  
2935.000000	99.687055  
2934.000000	99.692954  
2933.000000	99.699365  
2932.000000	99.704268  
2931.000000	99.706051  
2930.000000	99.704208  
2929.000000	99.699776  
2928.000000	99.694476  
2927.000000	99.689554  
2926.000000	99.685762  
2925.000000	99.683578  
2924.000000	99.682516  
2923.000000	99.680969  
2922.000000	99.677916  
2921.000000	99.674223  
2920.000000	99.671011  
2919.000000	99.667444  
2918.000000	99.661766  
2917.000000	99.654195  
2916.000000	99.647014  
2915.000000	99.641774  
2914.000000	99.638097  
2913.000000	99.635453  
2912.000000	99.634232  
2911.000000	99.634224  
2910.000000	99.633605  
2909.000000	99.630627  
2908.000000	99.625465  
2907.000000	99.619371  
2906.000000	99.612683  
2905.000000	99.604532  
2904.000000	99.594141  
2903.000000	99.582237  
2902.000000	99.571679  
2901.000000	99.567258  
2900.000000	99.572891  
2899.000000	99.587496  
2898.000000	99.604356  
2897.000000	99.615956  
2896.000000	99.619975  
2895.000000	99.620133  
2894.000000	99.621628  
2893.000000	99.626422  
2892.000000	99.632628  
2891.000000	99.637139  
2890.000000	99.638379  
2889.000000	99.637174  
2888.000000	99.635669  
2887.000000	99.635560  
2886.000000	99.637335  
2885.000000	99.640870  
2884.000000	99.646155  
2883.000000	99.653119  
2882.000000	99.661209  
2881.000000	99.669826  
2880.000000	99.679166  
2879.000000	99.690241  
2878.000000	99.703790  
2877.000000	99.719076  
2876.000000	99.733601  
2875.000000	99.744161  
2874.000000	99.748819  
2873.000000	99.748484  
2872.000000	99.746594  
2871.000000	99.746895  
2870.000000	99.751237  
2869.000000	99.759055  
2868.000000	99.768587  
2867.000000	99.778599  
2866.000000	99.789332  
2865.000000	99.801852  
2864.000000	99.816153  
2863.000000	99.829960  
2862.000000	99.840069  
2861.000000	99.845242  
2860.000000	99.847514  
2859.000000	99.850435  
2858.000000	99.856191  
2857.000000	99.864527  
2856.000000	99.873867  
2855.000000	99.882989  
2854.000000	99.891633  
2853.000000	99.899875  
2852.000000	99.907332  
2851.000000	99.913310  
2850.000000	99.917751  
2849.000000	99.921537  
2848.000000	99.925499  
2847.000000	99.929381  
2846.000000	99.932121  
2845.000000	99.932914  
2844.000000	99.931838  
2843.000000	99.930067  
2842.000000	99.929906  
2841.000000	99.933689  
2840.000000	99.941386  
2839.000000	99.949535  
2838.000000	99.953721  
2837.000000	99.952415  
2836.000000	99.947796  
2835.000000	99.943270  
2834.000000	99.941190  
2833.000000	99.942531  
2832.000000	99.946908  
2831.000000	99.952292  
2830.000000	99.956081  
2829.000000	99.957444  
2828.000000	99.958014  
2827.000000	99.959717  
2826.000000	99.962619  
2825.000000	99.965384  
2824.000000	99.967111  
2823.000000	99.968120  
2822.000000	99.969432  
2821.000000	99.971928  
2820.000000	99.975573  
2819.000000	99.979198  
2818.000000	99.981577  
2817.000000	99.982803  
2816.000000	99.983893  
2815.000000	99.985000  
2814.000000	99.985193  
2813.000000	99.984326  
2812.000000	99.983779  
2811.000000	99.984525  
2810.000000	99.985566  
2809.000000	99.985408  
2808.000000	99.984269  
2807.000000	99.983659  
2806.000000	99.984317  
2805.000000	99.985712  
2804.000000	99.987306  
2803.000000	99.989220  
2802.000000	99.991666  
2801.000000	99.994464  
2800.000000	99.997123  
2799.000000	99.998893  
2798.000000	99.999024  
2797.000000	99.997585  
2796.000000	99.995795  
2795.000000	99.994884  
2794.000000	99.994794  
2793.000000	99.994526  
2792.000000	99.993542  
2791.000000	99.992297  
2790.000000	99.991685  
2789.000000	99.992527  
2788.000000	99.995232  
2787.000000	99.999199  
2786.000000	100.002816 
2785.000000	100.004825 
2784.000000	100.005618 
2783.000000	100.006457 
2782.000000	100.007536 
2781.000000	100.007612 
2780.000000	100.005706 
2779.000000	100.002495 
2778.000000	99.999810  
2777.000000	99.999121  
2776.000000	100.000480 
2775.000000	100.002414 
2774.000000	100.002849 
2773.000000	100.000819 
2772.000000	99.997554  
2771.000000	99.995607  
2770.000000	99.996766  
2769.000000	100.000981 
2768.000000	100.006969 
2767.000000	100.013105 
2766.000000	100.017707 
2765.000000	100.019471 
2764.000000	100.018408 
2763.000000	100.016144 
2762.000000	100.014782 
2761.000000	100.015468 
2760.000000	100.018056 
2759.000000	100.021696 
2758.000000	100.025342 
2757.000000	100.028103 
2756.000000	100.029824 
2755.000000	100.031273 
2754.000000	100.033101 
2753.000000	100.034434 
2752.000000	100.033227 
2751.000000	100.028524 
2750.000000	100.021973 
2749.000000	100.016439 
2748.000000	100.013298 
2747.000000	100.011744 
2746.000000	100.010650 
2745.000000	100.010150 
2744.000000	100.010997 
2743.000000	100.013118 
2742.000000	100.015577 
2741.000000	100.017639 
2740.000000	100.019277 
2739.000000	100.020839 
2738.000000	100.022788 
2737.000000	100.025540 
2736.000000	100.028854 
2735.000000	100.031383 
2734.000000	100.031489 
2733.000000	100.028798 
2732.000000	100.024651 
2731.000000	100.020974 
2730.000000	100.018999 
2729.000000	100.019005 
2728.000000	100.020743 
2727.000000	100.023762 
2726.000000	100.027423 
2725.000000	100.030808 
2724.000000	100.032872 
2723.000000	100.033114 
2722.000000	100.032215 
2721.000000	100.031541 
2720.000000	100.031691 
2719.000000	100.031942 
2718.000000	100.031462 
2717.000000	100.030513 
2716.000000	100.029992 
2715.000000	100.030429 
2714.000000	100.032068 
2713.000000	100.035131 
2712.000000	100.038940 
2711.000000	100.041457 
2710.000000	100.041206 
2709.000000	100.039458 
2708.000000	100.038928 
2707.000000	100.040150 
2706.000000	100.040631 
2705.000000	100.038157 
2704.000000	100.033609 
2703.000000	100.029684 
2702.000000	100.027883 
2701.000000	100.027659 
2700.000000	100.027838 
2699.000000	100.027851 
2698.000000	100.027784 
2697.000000	100.027928 
2696.000000	100.028380 
2695.000000	100.029020 
2694.000000	100.030000 
2693.000000	100.031881 
2692.000000	100.034515 
2691.000000	100.036203 
2690.000000	100.035407 
2689.000000	100.033592 
2688.000000	100.034684 
2687.000000	100.040482 
2686.000000	100.047617 
2685.000000	100.050509 
2684.000000	100.047137 
2683.000000	100.040904 
2682.000000	100.036931 
2681.000000	100.037390 
2680.000000	100.040387 
2679.000000	100.042494 
2678.000000	100.042052 
2677.000000	100.040323 
2676.000000	100.039732 
2675.000000	100.041088 
2674.000000	100.042829 
2673.000000	100.042935 
2672.000000	100.041013 
2671.000000	100.038135 
2670.000000	100.035162 
2669.000000	100.031926 
2668.000000	100.028078 
2667.000000	100.024328 
2666.000000	100.022564 
2665.000000	100.024509 
2664.000000	100.029981 
2663.000000	100.036643 
2662.000000	100.041884 
2661.000000	100.044861 
2660.000000	100.046229 
2659.000000	100.046244 
2658.000000	100.044272 
2657.000000	100.040423 
2656.000000	100.036477 
2655.000000	100.034310 
2654.000000	100.033882 
2653.000000	100.033555 
2652.000000	100.032153 
2651.000000	100.030170 
2650.000000	100.029075 
2649.000000	100.029755 
2648.000000	100.031535 
2647.000000	100.032708 
2646.000000	100.032232 
2645.000000	100.030774 
2644.000000	100.029634 
2643.000000	100.029093 
2642.000000	100.028690 
2641.000000	100.028805 
2640.000000	100.030586 
2639.000000	100.034142 
2638.000000	100.038115 
2637.000000	100.041288 
2636.000000	100.043289 
2635.000000	100.043518 
2634.000000	100.041283 
2633.000000	100.037741 
2632.000000	100.035800 
2631.000000	100.036731 
2630.000000	100.038424 
2629.000000	100.038422 
2628.000000	100.037241 
2627.000000	100.037049 
2626.000000	100.038384 
2625.000000	100.040224 
2624.000000	100.042268 
2623.000000	100.044920 
2622.000000	100.047568 
2621.000000	100.049017 
2620.000000	100.049442 
2619.000000	100.049966 
2618.000000	100.050442 
2617.000000	100.049473 
2616.000000	100.046569 
2615.000000	100.042600 
2614.000000	100.038273 
2613.000000	100.034080 
2612.000000	100.031716 
2611.000000	100.033276 
2610.000000	100.038335 
2609.000000	100.043522 
2608.000000	100.045842 
2607.000000	100.045310 
2606.000000	100.043974 
2605.000000	100.043691 
2604.000000	100.045147 
2603.000000	100.047509 
2602.000000	100.048534 
2601.000000	100.046566 
2600.000000	100.043145 
2599.000000	100.042203 
2598.000000	100.045812 
2597.000000	100.051826 
2596.000000	100.056234 
2595.000000	100.056465 
2594.000000	100.052028 
2593.000000	100.044154 
2592.000000	100.036376 
2591.000000	100.033571 
2590.000000	100.037944 
2589.000000	100.046388 
2588.000000	100.053574 
2587.000000	100.057116 
2586.000000	100.058001 
2585.000000	100.056820 
2584.000000	100.052471 
2583.000000	100.045304 
2582.000000	100.038984 
2581.000000	100.037114 
2580.000000	100.038839 
2579.000000	100.039595 
2578.000000	100.036278 
2577.000000	100.030577 
2576.000000	100.026991 
2575.000000	100.028396 
2574.000000	100.033906 
2573.000000	100.040281 
2572.000000	100.044472 
2571.000000	100.044916 
2570.000000	100.041557 
2569.000000	100.035818 
2568.000000	100.030543 
2567.000000	100.028717 
2566.000000	100.031171 
2565.000000	100.035697 
2564.000000	100.039162 
2563.000000	100.040442 
2562.000000	100.040762 
2561.000000	100.041613 
2560.000000	100.043615 
2559.000000	100.047194 
2558.000000	100.052286 
2557.000000	100.056415 
2556.000000	100.055316 
2555.000000	100.047959 
2554.000000	100.039899 
2553.000000	100.038598 
2552.000000	100.045181 
2551.000000	100.053437 
2550.000000	100.057490 
2549.000000	100.057479 
2548.000000	100.056288 
2547.000000	100.053872 
2546.000000	100.048145 
2545.000000	100.039987 
2544.000000	100.033763 
2543.000000	100.032730 
2542.000000	100.036315 
2541.000000	100.041946 
2540.000000	100.047311 
2539.000000	100.050521 
2538.000000	100.050243 
2537.000000	100.046611 
2536.000000	100.040915 
2535.000000	100.034329 
2534.000000	100.028247 
2533.000000	100.025337 
2532.000000	100.027917 
2531.000000	100.035015 
2530.000000	100.043154 
2529.000000	100.050467 
2528.000000	100.057809 
2527.000000	100.065258 
2526.000000	100.070316 
2525.000000	100.071262 
2524.000000	100.070177 
2523.000000	100.070541 
2522.000000	100.073015 
2521.000000	100.075209 
2520.000000	100.074549 
2519.000000	100.070017 
2518.000000	100.062287 
2517.000000	100.053804 
2516.000000	100.047829 
2515.000000	100.045864 
2514.000000	100.046520 
2513.000000	100.047624 
2512.000000	100.048092 
2511.000000	100.046875 
2510.000000	100.042478 
2509.000000	100.036028 
2508.000000	100.033042 
2507.000000	100.038484 
2506.000000	100.049973 
2505.000000	100.058808 
2504.000000	100.058652 
2503.000000	100.051335 
2502.000000	100.043675 
2501.000000	100.040870 
2500.000000	100.043903 
2499.000000	100.051160 
2498.000000	100.060313 
2497.000000	100.069172 
2496.000000	100.076322 
2495.000000	100.081159 
2494.000000	100.082876 
2493.000000	100.079968 
2492.000000	100.071688 
2491.000000	100.059972 
2490.000000	100.049067 
2489.000000	100.042588 
2488.000000	100.040752 
2487.000000	100.040711 
2486.000000	100.039932 
2485.000000	100.039206 
2484.000000	100.041642 
2483.000000	100.048304 
2482.000000	100.055636 
2481.000000	100.058326 
2480.000000	100.054573 
2479.000000	100.047458 
2478.000000	100.041063 
2477.000000	100.036640 
2476.000000	100.033302 
2475.000000	100.031202 
2474.000000	100.032133 
2473.000000	100.036832 
2472.000000	100.043220 
2471.000000	100.048411 
2470.000000	100.051718 
2469.000000	100.054404 
2468.000000	100.056683 
2467.000000	100.056684 
2466.000000	100.053361 
2465.000000	100.049306 
2464.000000	100.048908 
2463.000000	100.053588 
2462.000000	100.059993 
2461.000000	100.063322 
2460.000000	100.061699 
2459.000000	100.057040 
2458.000000	100.052635 
2457.000000	100.050597 
2456.000000	100.050985 
2455.000000	100.052243 
2454.000000	100.052270 
2453.000000	100.049705 
2452.000000	100.044756 
2451.000000	100.039039 
2450.000000	100.034593 
2449.000000	100.032668 
2448.000000	100.033027 
2447.000000	100.034410 
2446.000000	100.035901 
2445.000000	100.037723 
2444.000000	100.040529 
2443.000000	100.044336 
2442.000000	100.048619 
2441.000000	100.052979 
2440.000000	100.056933 
2439.000000	100.059402 
2438.000000	100.059434 
2437.000000	100.057447 
2436.000000	100.054711 
2435.000000	100.051456 
2434.000000	100.046618 
2433.000000	100.039988 
2432.000000	100.033687 
2431.000000	100.030578 
2430.000000	100.031556 
2429.000000	100.035072 
2428.000000	100.039338 
2427.000000	100.044317 
2426.000000	100.050863 
2425.000000	100.057680 
2424.000000	100.060097 
2423.000000	100.053672 
2422.000000	100.039898 
2421.000000	100.027064 
2420.000000	100.023689 
2419.000000	100.031055 
2418.000000	100.042896 
2417.000000	100.051624 
2416.000000	100.053604 
2415.000000	100.049545 
2414.000000	100.042647 
2413.000000	100.037104 
2412.000000	100.036067 
2411.000000	100.039241 
2410.000000	100.043195 
2409.000000	100.044984 
2408.000000	100.044931 
2407.000000	100.045470 
2406.000000	100.048333 
2405.000000	100.053492 
2404.000000	100.059617 
2403.000000	100.064429 
2402.000000	100.065475 
2401.000000	100.061910 
2400.000000	100.055443 
2399.000000	100.048766 
2398.000000	100.043355 
2397.000000	100.039465 
2396.000000	100.037692 
2395.000000	100.039267 
2394.000000	100.044348 
2393.000000	100.050696 
2392.000000	100.054940 
2391.000000	100.055648 
2390.000000	100.054920 
2389.000000	100.056180 
2388.000000	100.060143 
2387.000000	100.063849 
2386.000000	100.064302 
2385.000000	100.062056 
2384.000000	100.059961 
2383.000000	100.059281 
2382.000000	100.059000 
2381.000000	100.058660 
2380.000000	100.059340 
2379.000000	100.060976 
2378.000000	100.061053 
2377.000000	100.058045 
2376.000000	100.054711 
2375.000000	100.055274 
2374.000000	100.059730 
2373.000000	100.063807 
2372.000000	100.065098 
2371.000000	100.066740 
2370.000000	100.073433 
2369.000000	100.085021 
2368.000000	100.094939 
2367.000000	100.094676 
2366.000000	100.080737 
2365.000000	100.059361 
2364.000000	100.043669 
2363.000000	100.043062 
2362.000000	100.054546 
2361.000000	100.066251 
2360.000000	100.069831 
2359.000000	100.066635 
2358.000000	100.063220 
2357.000000	100.064229 
2356.000000	100.070531 
2355.000000	100.079662 
2354.000000	100.086377 
2353.000000	100.086790 
2352.000000	100.081763 
2351.000000	100.076108 
2350.000000	100.073953 
2349.000000	100.075355 
2348.000000	100.077701 
2347.000000	100.078140 
2346.000000	100.076095 
2345.000000	100.072313 
2344.000000	100.067861 
2343.000000	100.064690 
2342.000000	100.064732 
2341.000000	100.068535 
2340.000000	100.073658 
2339.000000	100.076861 
2338.000000	100.077149 
2337.000000	100.077542 
2336.000000	100.081416 
2335.000000	100.087975 
2334.000000	100.092369 
2333.000000	100.091943 
2332.000000	100.088446 
2331.000000	100.084505 
2330.000000	100.080229 
2329.000000	100.075043 
2328.000000	100.070688 
2327.000000	100.068632 
2326.000000	100.067986 
2325.000000	100.066168 
2324.000000	100.062441 
2323.000000	100.059450 
2322.000000	100.061134 
2321.000000	100.069654 
2320.000000	100.082501 
2319.000000	100.094402 
2318.000000	100.101216 
2317.000000	100.102860 
2316.000000	100.101271 
2315.000000	100.097445 
2314.000000	100.091353 
2313.000000	100.084046 
2312.000000	100.078212 
2311.000000	100.076459 
2310.000000	100.080148 
2309.000000	100.088381 
2308.000000	100.097030 
2307.000000	100.100013 
2306.000000	100.094419 
2305.000000	100.083782 
2304.000000	100.074261 
2303.000000	100.068395 
2302.000000	100.064849 
2301.000000	100.062881 
2300.000000	100.062990 
2299.000000	100.063423 
2298.000000	100.060751 
2297.000000	100.055375 
2296.000000	100.052648 
2295.000000	100.055481 
2294.000000	100.059199 
2293.000000	100.056761 
2292.000000	100.047751 
2291.000000	100.038556 
2290.000000	100.034652 
2289.000000	100.035390 
2288.000000	100.036540 
2287.000000	100.035521 
2286.000000	100.033338 
2285.000000	100.032515 
2284.000000	100.033849 
2283.000000	100.035106 
2282.000000	100.032899 
2281.000000	100.026033 
2280.000000	100.016935 
2279.000000	100.010489 
2278.000000	100.011695 
2277.000000	100.022731 
2276.000000	100.039932 
2275.000000	100.054640 
2274.000000	100.059823 
2273.000000	100.055958 
2272.000000	100.048448 
2271.000000	100.040582 
2270.000000	100.033024 
2269.000000	100.029141 
2268.000000	100.034680 
2267.000000	100.049991 
2266.000000	100.066994 
2265.000000	100.076556 
2264.000000	100.076146 
2263.000000	100.069263 
2262.000000	100.061836 
2261.000000	100.060675 
2260.000000	100.069639 
2259.000000	100.083558 
2258.000000	100.090363 
2257.000000	100.083595 
2256.000000	100.069466 
2255.000000	100.058025 
2254.000000	100.051551 
2253.000000	100.046470 
2252.000000	100.042497 
2251.000000	100.043346 
2250.000000	100.050134 
2249.000000	100.059906 
2248.000000	100.069755 
2247.000000	100.077853 
2246.000000	100.081422 
2245.000000	100.078365 
2244.000000	100.071090 
2243.000000	100.064773 
2242.000000	100.061775 
2241.000000	100.060494 
2240.000000	100.058998 
2239.000000	100.056689 
2238.000000	100.052831 
2237.000000	100.046186 
2236.000000	100.035957 
2235.000000	100.021830 
2234.000000	100.004951 
2233.000000	99.990558  
2232.000000	99.986625  
2231.000000	99.996823  
2230.000000	100.016950 
2229.000000	100.040720 
2228.000000	100.065804 
2227.000000	100.090420 
2226.000000	100.107642 
2225.000000	100.109670 
2224.000000	100.097497 
2223.000000	100.081578 
2222.000000	100.072731 
2221.000000	100.074806 
2220.000000	100.084139 
2219.000000	100.092501 
2218.000000	100.092590 
2217.000000	100.085186 
2216.000000	100.079975 
2215.000000	100.085296 
2214.000000	100.098118 
2213.000000	100.107597 
2212.000000	100.107193 
2211.000000	100.099894 
2210.000000	100.093360 
2209.000000	100.093866 
2208.000000	100.102881 
2207.000000	100.115048 
2206.000000	100.120621 
2205.000000	100.113777 
2204.000000	100.097784 
2203.000000	100.079879 
2202.000000	100.064693 
2201.000000	100.055741 
2200.000000	100.057386 
2199.000000	100.068368 
2198.000000	100.077196 
2197.000000	100.072568 
2196.000000	100.057863 
2195.000000	100.048383 
2194.000000	100.054657 
2193.000000	100.073918 
2192.000000	100.096009 
2191.000000	100.110774 
2190.000000	100.111093 
2189.000000	100.097688 
2188.000000	100.082293 
2187.000000	100.078782 
2186.000000	100.089438 
2185.000000	100.105010 
2184.000000	100.117619 
2183.000000	100.126564 
2182.000000	100.131857 
2181.000000	100.131769 
2180.000000	100.129286 
2179.000000	100.131933 
2178.000000	100.140944 
2177.000000	100.147024 
2176.000000	100.140854 
2175.000000	100.123126 
2174.000000	100.101462 
2173.000000	100.082722 
2172.000000	100.071505 
2171.000000	100.071203 
2170.000000	100.081952 
2169.000000	100.099164 
2168.000000	100.116245 
2167.000000	100.127466 
2166.000000	100.128849 
2165.000000	100.120775 
2164.000000	100.110311 
2163.000000	100.106248 
2162.000000	100.111092 
2161.000000	100.121643 
2160.000000	100.135769 
2159.000000	100.151896 
2158.000000	100.163004 
2157.000000	100.161649 
2156.000000	100.151776 
2155.000000	100.145187 
2154.000000	100.145682 
2153.000000	100.145467 
2152.000000	100.138648 
2151.000000	100.130744 
2150.000000	100.131676 
2149.000000	100.144935 
2148.000000	100.166216 
2147.000000	100.187313 
2146.000000	100.198564 
2145.000000	100.193560 
2144.000000	100.176091 
2143.000000	100.158314 
2142.000000	100.148589 
2141.000000	100.144382 
2140.000000	100.139267 
2139.000000	100.132444 
2138.000000	100.127475 
2137.000000	100.125401 
2136.000000	100.124186 
2135.000000	100.123462 
2134.000000	100.125387 
2133.000000	100.130561 
2132.000000	100.135443 
2131.000000	100.134052 
2130.000000	100.122031 
2129.000000	100.100970 
2128.000000	100.079280 
2127.000000	100.066015 
2126.000000	100.062620 
2125.000000	100.063321 
2124.000000	100.064783 
2123.000000	100.071351 
2122.000000	100.087182 
2121.000000	100.106514 
2120.000000	100.117533 
2119.000000	100.115546 
2118.000000	100.107372 
2117.000000	100.101897 
2116.000000	100.100588 
2115.000000	100.099409 
2114.000000	100.096591 
2113.000000	100.094593 
2112.000000	100.095230 
2111.000000	100.096204 
2110.000000	100.093616 
2109.000000	100.086604 
2108.000000	100.078379 
2107.000000	100.072701 
2106.000000	100.069687 
2105.000000	100.065529 
2104.000000	100.057040 
2103.000000	100.046547 
2102.000000	100.041012 
2101.000000	100.045007 
2100.000000	100.055075 
2099.000000	100.062769 
2098.000000	100.063561 
2097.000000	100.061156 
2096.000000	100.061739 
2095.000000	100.065084 
2094.000000	100.063774 
2093.000000	100.051993 
2092.000000	100.033716 
2091.000000	100.020812 
2090.000000	100.022771 
2089.000000	100.037812 
2088.000000	100.053893 
2087.000000	100.059330 
2086.000000	100.052969 
2085.000000	100.043974 
2084.000000	100.041777 
2083.000000	100.047344 
2082.000000	100.054923 
2081.000000	100.059966 
2080.000000	100.062617 
2079.000000	100.064681 
2078.000000	100.067523 
2077.000000	100.074022 
2076.000000	100.088154 
2075.000000	100.109280 
2074.000000	100.129151 
2073.000000	100.138342 
2072.000000	100.135316 
2071.000000	100.126571 
2070.000000	100.118784 
2069.000000	100.113644 
2068.000000	100.109520 
2067.000000	100.104751 
2066.000000	100.098586 
2065.000000	100.091339 
2064.000000	100.085049 
2063.000000	100.083001 
2062.000000	100.087923 
2061.000000	100.100483 
2060.000000	100.118357 
2059.000000	100.135983 
2058.000000	100.146720 
2057.000000	100.147443 
2056.000000	100.140756 
2055.000000	100.131356 
2054.000000	100.121510 
2053.000000	100.112243 
2052.000000	100.107350 
2051.000000	100.112241 
2050.000000	100.127485 
2049.000000	100.145290 
2048.000000	100.154779 
2047.000000	100.150853 
2046.000000	100.136988 
2045.000000	100.121186 
2044.000000	100.110654 
2043.000000	100.108563 
2042.000000	100.113445 
2041.000000	100.120920 
2040.000000	100.126785 
2039.000000	100.129258 
2038.000000	100.129051 
2037.000000	100.128200 
2036.000000	100.128807 
2035.000000	100.132279 
2034.000000	100.139218 
2033.000000	100.148814 
2032.000000	100.157325 
2031.000000	100.158736 
2030.000000	100.149705 
2029.000000	100.133673 
2028.000000	100.117142 
2027.000000	100.102685 
2026.000000	100.090802 
2025.000000	100.088125 
2024.000000	100.104765 
2023.000000	100.138289 
2022.000000	100.166724 
2021.000000	100.166598 
2020.000000	100.138028 
2019.000000	100.105235 
2018.000000	100.092057 
2017.000000	100.101504 
2016.000000	100.118917 
2015.000000	100.129562 
2014.000000	100.129080 
2013.000000	100.121275 
2012.000000	100.112213 
2011.000000	100.106701 
2010.000000	100.107607 
2009.000000	100.116124 
2008.000000	100.130901 
2007.000000	100.146622 
2006.000000	100.155884 
2005.000000	100.155296 
2004.000000	100.149297 
2003.000000	100.145439 
2002.000000	100.146325 
2001.000000	100.147572 
2000.000000	100.142904 
1999.000000	100.129993 
1998.000000	100.112270 
1997.000000	100.097047 
1996.000000	100.091336 
1995.000000	100.097866 
1994.000000	100.113888 
1993.000000	100.132380 
1992.000000	100.144614 
1991.000000	100.144484 
1990.000000	100.133558 
1989.000000	100.122047 
1988.000000	100.121409 
1987.000000	100.133212 
1986.000000	100.146812 
1985.000000	100.150527 
1984.000000	100.143732 
1983.000000	100.135186 
1982.000000	100.131352 
1981.000000	100.130253 
1980.000000	100.126877 
1979.000000	100.121320 
1978.000000	100.119464 
1977.000000	100.125728 
1976.000000	100.136378 
1975.000000	100.142578 
1974.000000	100.141309 
1973.000000	100.141107 
1972.000000	100.153034 
1971.000000	100.175371 
1970.000000	100.191840 
1969.000000	100.188084 
1968.000000	100.167450 
1967.000000	100.146355 
1966.000000	100.135228 
1965.000000	100.130427 
1964.000000	100.124957 
1963.000000	100.119188 
1962.000000	100.117923 
1961.000000	100.121758 
1960.000000	100.126217 
1959.000000	100.128430 
1958.000000	100.130298 
1957.000000	100.134274 
1956.000000	100.139131 
1955.000000	100.141761 
1954.000000	100.141546 
1953.000000	100.140845 
1952.000000	100.141147 
1951.000000	100.140132 
1950.000000	100.133891 
1949.000000	100.122006 
1948.000000	100.109179 
1947.000000	100.100476 
1946.000000	100.095170 
1945.000000	100.086976 
1944.000000	100.071874 
1943.000000	100.055446 
1942.000000	100.049057 
1941.000000	100.056198 
1940.000000	100.066982 
1939.000000	100.069904 
1938.000000	100.065881 
1937.000000	100.066802 
1936.000000	100.079543 
1935.000000	100.096082 
1934.000000	100.103462 
1933.000000	100.100142 
1932.000000	100.097058 
1931.000000	100.102869 
1930.000000	100.114021 
1929.000000	100.120968 
1928.000000	100.119750 
1927.000000	100.114135 
1926.000000	100.109231 
1925.000000	100.106882 
1924.000000	100.106043 
1923.000000	100.105116 
1922.000000	100.103429 
1921.000000	100.101182 
1920.000000	100.097589 
1919.000000	100.089671 
1918.000000	100.075671 
1917.000000	100.059848 
1916.000000	100.049389 
1915.000000	100.046255 
1914.000000	100.046918 
1913.000000	100.049226 
1912.000000	100.054937 
1911.000000	100.064454 
1910.000000	100.072870 
1909.000000	100.075290 
1908.000000	100.074160 
1907.000000	100.076412 
1906.000000	100.084499 
1905.000000	100.093840 
1904.000000	100.097781 
1903.000000	100.092938 
1902.000000	100.081131 
1901.000000	100.068705 
1900.000000	100.062431 
1899.000000	100.063913 
1898.000000	100.069123 
1897.000000	100.073813 
1896.000000	100.077185 
1895.000000	100.079168 
1894.000000	100.077533 
1893.000000	100.071456 
1892.000000	100.064763 
1891.000000	100.062010 
1890.000000	100.063142 
1889.000000	100.064853 
1888.000000	100.066359 
1887.000000	100.069394 
1886.000000	100.073496 
1885.000000	100.076091 
1884.000000	100.076648 
1883.000000	100.077300 
1882.000000	100.079425 
1881.000000	100.082405 
1880.000000	100.085590 
1879.000000	100.089133 
1878.000000	100.092973 
1877.000000	100.096814 
1876.000000	100.100656 
1875.000000	100.103436 
1874.000000	100.102022 
1873.000000	100.094265 
1872.000000	100.082460 
1871.000000	100.071602 
1870.000000	100.064966 
1869.000000	100.063190 
1868.000000	100.067101 
1867.000000	100.077180 
1866.000000	100.089448 
1865.000000	100.096242 
1864.000000	100.091912 
1863.000000	100.076868 
1862.000000	100.057219 
1861.000000	100.041688 
1860.000000	100.037556 
1859.000000	100.046342 
1858.000000	100.062299 
1857.000000	100.076566 
1856.000000	100.084080 
1855.000000	100.085928 
1854.000000	100.085952 
1853.000000	100.086420 
1852.000000	100.086759 
1851.000000	100.085590 
1850.000000	100.083364 
1849.000000	100.083087 
1848.000000	100.087282 
1847.000000	100.094311 
1846.000000	100.099262 
1845.000000	100.099092 
1844.000000	100.096770 
1843.000000	100.097326 
1842.000000	100.101175 
1841.000000	100.104955 
1840.000000	100.105706 
1839.000000	100.102529 
1838.000000	100.096325 
1837.000000	100.089081 
1836.000000	100.082991 
1835.000000	100.079474 
1834.000000	100.078816 
1833.000000	100.079987 
1832.000000	100.080633 
1831.000000	100.078765 
1830.000000	100.075504 
1829.000000	100.074706 
1828.000000	100.078035 
1827.000000	100.082208 
1826.000000	100.082260 
1825.000000	100.077668 
1824.000000	100.073424 
1823.000000	100.072759 
1822.000000	100.072197 
1821.000000	100.067257 
1820.000000	100.060164 
1819.000000	100.058081 
1818.000000	100.063657 
1817.000000	100.071632 
1816.000000	100.076392 
1815.000000	100.078450 
1814.000000	100.081079 
1813.000000	100.084909 
1812.000000	100.088781 
1811.000000	100.092967 
1810.000000	100.097794 
1809.000000	100.101141 
1808.000000	100.100619 
1807.000000	100.095736 
1806.000000	100.087192 
1805.000000	100.077218 
1804.000000	100.069867 
1803.000000	100.068037 
1802.000000	100.069474 
1801.000000	100.068141 
1800.000000	100.062332 
1799.000000	100.057613 
1798.000000	100.059327 
1797.000000	100.067153 
1796.000000	100.077636 
1795.000000	100.087333 
1794.000000	100.093068 
1793.000000	100.092159 
1792.000000	100.086206 
1791.000000	100.081372 
1790.000000	100.081000 
1789.000000	100.083367 
1788.000000	100.086522 
1787.000000	100.090219 
1786.000000	100.093598 
1785.000000	100.094195 
1784.000000	100.090422 
1783.000000	100.083534 
1782.000000	100.076049 
1781.000000	100.069966 
1780.000000	100.066818 
1779.000000	100.066936 
1778.000000	100.069284 
1777.000000	100.072622 
1776.000000	100.076337 
1775.000000	100.079538 
1774.000000	100.080743 
1773.000000	100.079764 
1772.000000	100.079314 
1771.000000	100.082803 
1770.000000	100.089760 
1769.000000	100.095014 
1768.000000	100.093732 
1767.000000	100.087472 
1766.000000	100.082050 
1765.000000	100.080222 
1764.000000	100.079971 
1763.000000	100.079172 
1762.000000	100.078941 
1761.000000	100.081061 
1760.000000	100.084985 
1759.000000	100.089164 
1758.000000	100.093139 
1757.000000	100.097229 
1756.000000	100.100985 
1755.000000	100.104085 
1754.000000	100.107418 
1753.000000	100.111064 
1752.000000	100.112515 
1751.000000	100.108136 
1750.000000	100.098232 
1749.000000	100.088449 
1748.000000	100.083732 
1747.000000	100.084759 
1746.000000	100.089356 
1745.000000	100.094295 
1744.000000	100.096793 
1743.000000	100.096382 
1742.000000	100.095017 
1741.000000	100.094146 
1740.000000	100.093496 
1739.000000	100.093550 
1738.000000	100.097068 
1737.000000	100.104805 
1736.000000	100.113461 
1735.000000	100.117965 
1734.000000	100.115859 
1733.000000	100.110300 
1732.000000	100.105997 
1731.000000	100.103012 
1730.000000	100.099412 
1729.000000	100.096635 
1728.000000	100.096310 
1727.000000	100.098100 
1726.000000	100.100300 
1725.000000	100.102132 
1724.000000	100.102880 
1723.000000	100.100956 
1722.000000	100.095902 
1721.000000	100.090261 
1720.000000	100.087854 
1719.000000	100.091698 
1718.000000	100.100814 
1717.000000	100.107403 
1716.000000	100.107886 
1715.000000	100.106574 
1714.000000	100.104278 
1713.000000	100.099790 
1712.000000	100.094716 
1711.000000	100.090824 
1710.000000	100.088162 
1709.000000	100.086392 
1708.000000	100.086163 
1707.000000	100.087479 
1706.000000	100.087463 
1705.000000	100.083320 
1704.000000	100.079064 
1703.000000	100.080216 
1702.000000	100.085869 
1701.000000	100.089084 
1700.000000	100.087040 
1699.000000	100.087828 
1698.000000	100.095180 
1697.000000	100.101280 
1696.000000	100.099244 
1695.000000	100.092622 
1694.000000	100.088038 
1693.000000	100.086462 
1692.000000	100.085412 
1691.000000	100.083531 
1690.000000	100.081283 
1689.000000	100.079815 
1688.000000	100.080619 
1687.000000	100.084684 
1686.000000	100.091053 
1685.000000	100.097047 
1684.000000	100.099121 
1683.000000	100.096232 
1682.000000	100.092631 
1681.000000	100.091380 
1680.000000	100.090479 
1679.000000	100.089262 
1678.000000	100.087197 
1677.000000	100.083706 
1676.000000	100.078077 
1675.000000	100.072471 
1674.000000	100.070723 
1673.000000	100.073733 
1672.000000	100.078720 
1671.000000	100.082282 
1670.000000	100.082736 
1669.000000	100.081058 
1668.000000	100.079502 
1667.000000	100.079114 
1666.000000	100.079643 
1665.000000	100.080281 
1664.000000	100.080732 
1663.000000	100.081590 
1662.000000	100.083034 
1661.000000	100.084938 
1660.000000	100.086915 
1659.000000	100.088020 
1658.000000	100.087188 
1657.000000	100.085796 
1656.000000	100.084957 
1655.000000	100.084092 
1654.000000	100.082834 
1653.000000	100.082639 
1652.000000	100.082874 
1651.000000	100.084240 
1650.000000	100.087263 
1649.000000	100.087308 
1648.000000	100.084514 
1647.000000	100.080704 
1646.000000	100.078482 
1645.000000	100.077959 
1644.000000	100.080253 
1643.000000	100.084302 
1642.000000	100.087259 
1641.000000	100.086009 
1640.000000	100.081365 
1639.000000	100.077266 
1638.000000	100.076321 
1637.000000	100.078799 
1636.000000	100.084139 
1635.000000	100.089094 
1634.000000	100.090930 
1633.000000	100.090315 
1632.000000	100.086763 
1631.000000	100.079386 
1630.000000	100.069268 
1629.000000	100.060680 
1628.000000	100.057719 
1627.000000	100.059541 
1626.000000	100.061698 
1625.000000	100.061316 
1624.000000	100.059361 
1623.000000	100.058255 
1622.000000	100.059257 
1621.000000	100.062999 
1620.000000	100.068932 
1619.000000	100.074417 
1618.000000	100.076464 
1617.000000	100.075794 
1616.000000	100.076617 
1615.000000	100.079965 
1614.000000	100.083779 
1613.000000	100.086781 
1612.000000	100.088943 
1611.000000	100.089967 
1610.000000	100.088953 
1609.000000	100.086466 
1608.000000	100.084609 
1607.000000	100.084276 
1606.000000	100.084882 
1605.000000	100.085866 
1604.000000	100.086952 
1603.000000	100.087639 
1602.000000	100.088046 
1601.000000	100.089450 
1600.000000	100.092399 
1599.000000	100.095556 
1598.000000	100.097688 
1597.000000	100.099254 
1596.000000	100.100912 
1595.000000	100.101548 
1594.000000	100.099822 
1593.000000	100.097304 
1592.000000	100.097178 
1591.000000	100.099959 
1590.000000	100.103162 
1589.000000	100.105233 
1588.000000	100.107144 
1587.000000	100.109576 
1586.000000	100.111694 
1585.000000	100.112983 
1584.000000	100.113917 
1583.000000	100.114642 
1582.000000	100.114519 
1581.000000	100.113593 
1580.000000	100.112468 
1579.000000	100.110637 
1578.000000	100.106654 
1577.000000	100.101339 
1576.000000	100.097791 
1575.000000	100.096339 
1574.000000	100.096592 
1573.000000	100.099301 
1572.000000	100.103338 
1571.000000	100.107091 
1570.000000	100.110276 
1569.000000	100.113963 
1568.000000	100.117377 
1567.000000	100.118389 
1566.000000	100.115949 
1565.000000	100.111736 
1564.000000	100.107419 
1563.000000	100.103828 
1562.000000	100.100787 
1561.000000	100.098146 
1560.000000	100.097852 
1559.000000	100.099274 
1558.000000	100.096413 
1557.000000	100.097206 
1556.000000	100.107834 
1555.000000	100.117463 
1554.000000	100.122471 
1553.000000	100.122804 
1552.000000	100.122224 
1551.000000	100.120458 
1550.000000	100.118351 
1549.000000	100.118830 
1548.000000	100.122878 
1547.000000	100.126199 
1546.000000	100.122997 
1545.000000	100.112825 
1544.000000	100.103314 
1543.000000	100.103109 
1542.000000	100.113558 
1541.000000	100.128363 
1540.000000	100.137703 
1539.000000	100.135171 
1538.000000	100.126183 
1537.000000	100.120213 
1536.000000	100.118884 
1535.000000	100.119812 
1534.000000	100.118919 
1533.000000	100.114578 
1532.000000	100.109948 
1531.000000	100.108709 
1530.000000	100.108828 
1529.000000	100.107024 
1528.000000	100.103943 
1527.000000	100.102367 
1526.000000	100.102845 
1525.000000	100.103893 
1524.000000	100.106293 
1523.000000	100.112346 
1522.000000	100.120353 
1521.000000	100.123148 
1520.000000	100.118046 
1519.000000	100.110230 
1518.000000	100.102990 
1517.000000	100.096591 
1516.000000	100.092590 
1515.000000	100.092562 
1514.000000	100.095489 
1513.000000	100.097836 
1512.000000	100.097503 
1511.000000	100.095677 
1510.000000	100.094235 
1509.000000	100.093172 
1508.000000	100.093792 
1507.000000	100.100793 
1506.000000	100.107944 
1505.000000	100.106610 
1504.000000	100.103267 
1503.000000	100.103615 
1502.000000	100.107493 
1501.000000	100.110649 
1500.000000	100.109732 
1499.000000	100.105858 
1498.000000	100.102124 
1497.000000	100.096607 
1496.000000	100.086273 
1495.000000	100.076583 
1494.000000	100.074806 
1493.000000	100.080335 
1492.000000	100.087392 
1491.000000	100.090898 
1490.000000	100.089487 
1489.000000	100.084256 
1488.000000	100.078633 
1487.000000	100.075902 
1486.000000	100.074622 
1485.000000	100.072280 
1484.000000	100.069175 
1483.000000	100.067345 
1482.000000	100.067978 
1481.000000	100.070108 
1480.000000	100.071901 
1479.000000	100.072349 
1478.000000	100.070844 
1477.000000	100.067675 
1476.000000	100.065929 
1475.000000	100.069299 
1474.000000	100.076638 
1473.000000	100.081310 
1472.000000	100.079386 
1471.000000	100.075672 
1470.000000	100.074937 
1469.000000	100.075394 
1468.000000	100.073914 
1467.000000	100.070768 
1466.000000	100.068669 
1465.000000	100.068935 
1464.000000	100.070610 
1463.000000	100.072837 
1462.000000	100.074924 
1461.000000	100.075575 
1460.000000	100.074208 
1459.000000	100.071419 
1458.000000	100.067970 
1457.000000	100.061168 
1456.000000	100.048631 
1455.000000	100.037019 
1454.000000	100.032689 
1453.000000	100.033611 
1452.000000	100.036436 
1451.000000	100.039075 
1450.000000	100.040698 
1449.000000	100.039556 
1448.000000	100.035412 
1447.000000	100.031898 
1446.000000	100.032645 
1445.000000	100.036511 
1444.000000	100.040504 
1443.000000	100.043419 
1442.000000	100.045459 
1441.000000	100.046642 
1440.000000	100.046974 
1439.000000	100.047273 
1438.000000	100.048548 
1437.000000	100.049760 
1436.000000	100.048030 
1435.000000	100.044221 
1434.000000	100.041554 
1433.000000	100.039472 
1432.000000	100.036260 
1431.000000	100.032609 
1430.000000	100.030358 
1429.000000	100.029005 
1428.000000	100.026543 
1427.000000	100.023352 
1426.000000	100.021246 
1425.000000	100.020282 
1424.000000	100.018305 
1423.000000	100.014153 
1422.000000	100.008887 
1421.000000	100.002237 
1420.000000	99.992123  
1419.000000	99.980310  
1418.000000	99.972107  
1417.000000	99.966660  
1416.000000	99.957848  
1415.000000	99.943523  
1414.000000	99.927486  
1413.000000	99.913946  
1412.000000	99.903213  
1411.000000	99.893163  
1410.000000	99.882796  
1409.000000	99.872334  
1408.000000	99.863082  
1407.000000	99.858112  
1406.000000	99.860106  
1405.000000	99.867626  
1404.000000	99.875843  
1403.000000	99.883021  
1402.000000	99.892181  
1401.000000	99.905368  
1400.000000	99.920406  
1399.000000	99.932079  
1398.000000	99.934729  
1397.000000	99.923299  
1396.000000	99.896053  
1395.000000	99.863237  
1394.000000	99.847130  
1393.000000	99.860506  
1392.000000	99.893082  
1391.000000	99.925946  
1390.000000	99.947709  
1389.000000	99.956679  
1388.000000	99.955460  
1387.000000	99.947209  
1386.000000	99.936451  
1385.000000	99.928155  
1384.000000	99.924024  
1383.000000	99.922162  
1382.000000	99.920593  
1381.000000	99.919809  
1380.000000	99.921886  
1379.000000	99.927645  
1378.000000	99.935776  
1377.000000	99.944486  
1376.000000	99.952799  
1375.000000	99.960616  
1374.000000	99.968943  
1373.000000	99.979514  
1372.000000	99.992729  
1371.000000	100.006152 
1370.000000	100.016086 
1369.000000	100.021081 
1368.000000	100.022875 
1367.000000	100.024517 
1366.000000	100.028329 
1365.000000	100.035089 
1364.000000	100.044130 
1363.000000	100.053227 
1362.000000	100.059192 
1361.000000	100.060754 
1360.000000	100.060031 
1359.000000	100.060429 
1358.000000	100.064355 
1357.000000	100.072106 
1356.000000	100.081502 
1355.000000	100.089449 
1354.000000	100.094654 
1353.000000	100.098073 
1352.000000	100.100714 
1351.000000	100.101861 
1350.000000	100.100595 
1349.000000	100.098651 
1348.000000	100.098735 
1347.000000	100.100764 
1346.000000	100.102351 
1345.000000	100.102632 
1344.000000	100.103089 
1343.000000	100.104657 
1342.000000	100.106447 
1341.000000	100.107800 
1340.000000	100.109221 
1339.000000	100.110388 
1338.000000	100.110043 
1337.000000	100.108837 
1336.000000	100.109405 
1335.000000	100.112698 
1334.000000	100.116254 
1333.000000	100.117267 
1332.000000	100.115964 
1331.000000	100.114470 
1330.000000	100.113689 
1329.000000	100.113155 
1328.000000	100.112930 
1327.000000	100.113452 
1326.000000	100.114128 
1325.000000	100.113979 
1324.000000	100.113091 
1323.000000	100.112498 
1322.000000	100.112833 
1321.000000	100.114001 
1320.000000	100.116088 
1319.000000	100.119451 
1318.000000	100.123399 
1317.000000	100.125693 
1316.000000	100.124325 
1315.000000	100.119651 
1314.000000	100.114307 
1313.000000	100.110878 
1312.000000	100.109895 
1311.000000	100.110198 
1310.000000	100.110774 
1309.000000	100.111612 
1308.000000	100.112924 
1307.000000	100.114041 
1306.000000	100.113638 
1305.000000	100.111374 
1304.000000	100.108708 
1303.000000	100.107873 
1302.000000	100.109797 
1301.000000	100.113030 
1300.000000	100.115050 
1299.000000	100.114923 
1298.000000	100.114353 
1297.000000	100.115601 
1296.000000	100.118544 
1295.000000	100.120464 
1294.000000	100.118986 
1293.000000	100.114442 
1292.000000	100.108979 
1291.000000	100.104250 
1290.000000	100.100729 
1289.000000	100.098656 
1288.000000	100.098317 
1287.000000	100.099056 
1286.000000	100.099076 
1285.000000	100.096931 
1284.000000	100.092765 
1283.000000	100.087670 
1282.000000	100.082271 
1281.000000	100.076623 
1280.000000	100.071202 
1279.000000	100.066980 
1278.000000	100.064367 
1277.000000	100.062743 
1276.000000	100.061292 
1275.000000	100.059582 
1274.000000	100.057011 
1273.000000	100.052493 
1272.000000	100.045632 
1271.000000	100.038008 
1270.000000	100.032192 
1269.000000	100.029012 
1268.000000	100.026377 
1267.000000	100.021348 
1266.000000	100.013144 
1265.000000	100.003571 
1264.000000	99.994733  
1263.000000	99.986931  
1262.000000	99.978876  
1261.000000	99.969628  
1260.000000	99.959989  
1259.000000	99.951783  
1258.000000	99.945925  
1257.000000	99.941634  
1256.000000	99.937926  
1255.000000	99.935372  
1254.000000	99.935399  
1253.000000	99.937857  
1252.000000	99.940502  
1251.000000	99.941524  
1250.000000	99.941710  
1249.000000	99.943155  
1248.000000	99.946416  
1247.000000	99.949835  
1246.000000	99.950946  
1245.000000	99.947383  
1244.000000	99.937741  
1243.000000	99.924080  
1242.000000	99.913179  
1241.000000	99.912071  
1240.000000	99.920954  
1239.000000	99.932176  
1238.000000	99.937453  
1237.000000	99.934806  
1236.000000	99.927636  
1235.000000	99.919405  
1234.000000	99.911423  
1233.000000	99.904093  
1232.000000	99.897202  
1231.000000	99.889203  
1230.000000	99.878922  
1229.000000	99.868548  
1228.000000	99.862836  
1227.000000	99.864247  
1226.000000	99.869982  
1225.000000	99.874687  
1224.000000	99.875165  
1223.000000	99.871845  
1222.000000	99.866949  
1221.000000	99.862556  
1220.000000	99.859948  
1219.000000	99.859506  
1218.000000	99.860643  
1217.000000	99.861934  
1216.000000	99.861398  
1215.000000	99.857071  
1214.000000	99.848030  
1213.000000	99.835157  
1212.000000	99.820704  
1211.000000	99.807207  
1210.000000	99.796637  
1209.000000	99.789649  
1208.000000	99.784736  
1207.000000	99.778686  
1206.000000	99.769361  
1205.000000	99.758151  
1204.000000	99.748460  
1203.000000	99.741601  
1202.000000	99.735461  
1201.000000	99.727628  
1200.000000	99.718387  
1199.000000	99.709777  
1198.000000	99.702774  
1197.000000	99.696263  
1196.000000	99.688028  
1195.000000	99.676208  
1194.000000	99.660806  
1193.000000	99.644516  
1192.000000	99.630916  
1191.000000	99.620833  
1190.000000	99.611346  
1189.000000	99.599285  
1188.000000	99.584761  
1187.000000	99.570332  
1186.000000	99.557930  
1185.000000	99.547906  
1184.000000	99.539847  
1183.000000	99.532377  
1182.000000	99.522909  
1181.000000	99.509595  
1180.000000	99.493340  
1179.000000	99.476453  
1178.000000	99.460053  
1177.000000	99.444428  
1176.000000	99.430786  
1175.000000	99.419763  
1174.000000	99.408393  
1173.000000	99.391792  
1172.000000	99.368855  
1171.000000	99.344023  
1170.000000	99.322300  
1169.000000	99.304319  
1168.000000	99.287404  
1167.000000	99.269815  
1166.000000	99.252680  
1165.000000	99.239051  
1164.000000	99.232217  
1163.000000	99.233749  
1162.000000	99.241943  
1161.000000	99.252907  
1160.000000	99.263805  
1159.000000	99.274032  
1158.000000	99.282747  
1157.000000	99.286728  
1156.000000	99.282184  
1155.000000	99.268612  
1154.000000	99.250153  
1153.000000	99.232799  
1152.000000	99.219955  
1151.000000	99.210157  
1150.000000	99.199102  
1149.000000	99.184387  
1148.000000	99.167875  
1147.000000	99.152786  
1146.000000	99.139317  
1145.000000	99.124682  
1144.000000	99.107066  
1143.000000	99.087668  
1142.000000	99.068879  
1141.000000	99.052354  
1140.000000	99.039169  
1139.000000	99.029663  
1138.000000	99.022045  
1137.000000	99.012768  
1136.000000	98.999449  
1135.000000	98.982439  
1134.000000	98.962937  
1133.000000	98.941008  
1132.000000	98.916668  
1131.000000	98.891955  
1130.000000	98.870489  
1129.000000	98.854752  
1128.000000	98.843725  
1127.000000	98.832622  
1126.000000	98.815630  
1125.000000	98.790800  
1124.000000	98.762541  
1123.000000	98.737733  
1122.000000	98.718845  
1121.000000	98.702206  
1120.000000	98.683215  
1119.000000	98.661164  
1118.000000	98.638275  
1117.000000	98.616150  
1116.000000	98.594805  
1115.000000	98.573881  
1114.000000	98.553221  
1113.000000	98.532825  
1112.000000	98.512848  
1111.000000	98.492593  
1110.000000	98.469255  
1109.000000	98.439683  
1108.000000	98.404772  
1107.000000	98.370779  
1106.000000	98.344139  
1105.000000	98.325215  
1104.000000	98.308483  
1103.000000	98.288388  
1102.000000	98.264327  
1101.000000	98.240114  
1100.000000	98.219818  
1099.000000	98.204641  
1098.000000	98.192376  
1097.000000	98.180192  
1096.000000	98.166722  
1095.000000	98.151458  
1094.000000	98.133050  
1093.000000	98.109478  
1092.000000	98.079530  
1091.000000	98.043445  
1090.000000	98.002875  
1089.000000	97.961245  
1088.000000	97.923123  
1087.000000	97.891351  
1086.000000	97.864844  
1085.000000	97.840432  
1084.000000	97.816282  
1083.000000	97.792331  
1082.000000	97.768612  
1081.000000	97.745031  
1080.000000	97.721708  
1079.000000	97.697723  
1078.000000	97.671252  
1077.000000	97.643598  
1076.000000	97.621242  
1075.000000	97.610283  
1074.000000	97.609795  
1073.000000	97.613672  
1072.000000	97.616557  
1071.000000	97.612988  
1070.000000	97.593475  
1069.000000	97.550345  
1068.000000	97.490342  
1067.000000	97.435430  
1066.000000	97.405822  
1065.000000	97.403757  
1064.000000	97.415568  
1063.000000	97.425061  
1062.000000	97.421554  
1061.000000	97.400069  
1060.000000	97.361506  
1059.000000	97.314361  
1058.000000	97.272039  
1057.000000	97.244874  
1056.000000	97.233984  
1055.000000	97.232272  
1054.000000	97.230501  
1053.000000	97.223134  
1052.000000	97.210139  
1051.000000	97.194627  
1050.000000	97.179245  
1049.000000	97.164237  
1048.000000	97.147844  
1047.000000	97.128354  
1046.000000	97.106807  
1045.000000	97.087491  
1044.000000	97.074011  
1043.000000	97.064665  
1042.000000	97.053945  
1041.000000	97.039396  
1040.000000	97.024609  
1039.000000	97.014690  
1038.000000	97.011828  
1037.000000	97.016429  
1036.000000	97.028412  
1035.000000	97.044680  
1034.000000	97.059085  
1033.000000	97.068046  
1032.000000	97.072704  
1031.000000	97.072919  
1030.000000	97.064643  
1029.000000	97.048573  
1028.000000	97.036631  
1027.000000	97.041901  
1026.000000	97.063224  
1025.000000	97.086297  
1024.000000	97.099266  
1023.000000	97.101408  
1022.000000	97.097951  
1021.000000	97.093532  
1020.000000	97.091496  
1019.000000	97.093345  
1018.000000	97.096672  
1017.000000	97.097824  
1016.000000	97.097663  
1015.000000	97.100795  
1014.000000	97.108527  
1013.000000	97.116744  
1012.000000	97.121503  
1011.000000	97.122767  
1010.000000	97.122123  
1009.000000	97.120893  
1008.000000	97.121368  
1007.000000	97.126030  
1006.000000	97.134268  
1005.000000	97.142968  
1004.000000	97.151025  
1003.000000	97.160242  
1002.000000	97.171494  
1001.000000	97.183206  
1000.000000	97.193870  
999.000000	 97.202911  
998.000000	 97.209144  
997.000000	 97.212005  
996.000000	 97.214538  
995.000000	 97.221440  
994.000000	 97.233399  
993.000000	 97.246493  
992.000000	 97.257495  
991.000000	 97.266390  
990.000000	 97.273514  
989.000000	 97.278166  
988.000000	 97.281224  
987.000000	 97.286037  
986.000000	 97.295427  
985.000000	 97.309868  
984.000000	 97.328621  
983.000000	 97.349901  
982.000000	 97.370059  
981.000000	 97.385920  
980.000000	 97.398514  
979.000000	 97.412078  
978.000000	 97.429427  
977.000000	 97.450626  
976.000000	 97.475268  
975.000000	 97.502577  
974.000000	 97.529847  
973.000000	 97.554585  
972.000000	 97.578268  
971.000000	 97.604568  
970.000000	 97.633943  
969.000000	 97.663371  
968.000000	 97.691145  
967.000000	 97.718129  
966.000000	 97.744335  
965.000000	 97.768253  
964.000000	 97.790135  
963.000000	 97.812437  
962.000000	 97.836398  
961.000000	 97.861289  
960.000000	 97.887051  
959.000000	 97.914020  
958.000000	 97.939846  
957.000000	 97.960797  
956.000000	 97.977145  
955.000000	 97.993795  
954.000000	 98.014417  
953.000000	 98.037888  
952.000000	 98.061176  
951.000000	 98.082399  
950.000000	 98.100114  
949.000000	 98.113039  
948.000000	 98.122042  
947.000000	 98.129947  
946.000000	 98.138179  
945.000000	 98.145774  
944.000000	 98.152393  
943.000000	 98.159864  
942.000000	 98.169950  
941.000000	 98.182633  
940.000000	 98.196763  
939.000000	 98.210074  
938.000000	 98.218922  
937.000000	 98.221431  
936.000000	 98.221407  
935.000000	 98.225966  
934.000000	 98.238247  
933.000000	 98.255046  
932.000000	 98.272058  
931.000000	 98.288251  
930.000000	 98.303969  
929.000000	 98.317676  
928.000000	 98.326480  
927.000000	 98.328732  
926.000000	 98.325762  
925.000000	 98.322384  
924.000000	 98.325018  
923.000000	 98.336651  
922.000000	 98.353344  
921.000000	 98.367782  
920.000000	 98.375960  
919.000000	 98.378390  
918.000000	 98.376393  
917.000000	 98.371046  
916.000000	 98.365316  
915.000000	 98.362990  
914.000000	 98.364603  
913.000000	 98.367584  
912.000000	 98.370859  
911.000000	 98.376165  
910.000000	 98.384612  
909.000000	 98.395502  
908.000000	 98.408947  
907.000000	 98.426061  
906.000000	 98.445752  
905.000000	 98.464606  
904.000000	 98.480740  
903.000000	 98.495210  
902.000000	 98.509810  
901.000000	 98.526311  
900.000000	 98.547146  
899.000000	 98.572804  
898.000000	 98.598503  
897.000000	 98.617690  
896.000000	 98.629065  
895.000000	 98.636927  
894.000000	 98.645241  
893.000000	 98.655594  
892.000000	 98.670283  
891.000000	 98.691840  
890.000000	 98.718595  
889.000000	 98.745628  
888.000000	 98.771074  
887.000000	 98.796892  
886.000000	 98.822781  
885.000000	 98.844699  
884.000000	 98.860713  
883.000000	 98.872969  
882.000000	 98.882265  
881.000000	 98.886737  
880.000000	 98.888856  
879.000000	 98.897487  
878.000000	 98.917884  
877.000000	 98.943854  
876.000000	 98.964761  
875.000000	 98.977093  
874.000000	 98.985159  
873.000000	 98.993644  
872.000000	 99.003951  
871.000000	 99.015650  
870.000000	 99.027741  
869.000000	 99.040118  
868.000000	 99.056083  
867.000000	 99.080393  
866.000000	 99.111872  
865.000000	 99.141326  
864.000000	 99.160970  
863.000000	 99.173713  
862.000000	 99.188728  
861.000000	 99.209308  
860.000000	 99.230000  
859.000000	 99.245309  
858.000000	 99.255956  
857.000000	 99.265156  
856.000000	 99.273517  
855.000000	 99.280961  
854.000000	 99.290387  
853.000000	 99.304839  
852.000000	 99.321935  
851.000000	 99.335424  
850.000000	 99.343160  
849.000000	 99.349954  
848.000000	 99.360508  
847.000000	 99.372753  
846.000000	 99.381419  
845.000000	 99.385917  
844.000000	 99.390249  
843.000000	 99.396155  
842.000000	 99.401432  
841.000000	 99.405203  
840.000000	 99.409203  
839.000000	 99.412141  
838.000000	 99.408589  
837.000000	 99.397080  
836.000000	 99.384438  
835.000000	 99.377435  
834.000000	 99.374226  
833.000000	 99.369619  
832.000000	 99.365148  
831.000000	 99.366277  
830.000000	 99.371000  
829.000000	 99.369981  
828.000000	 99.360072  
827.000000	 99.350397  
826.000000	 99.350833  
825.000000	 99.359618  
824.000000	 99.366975  
823.000000	 99.367388  
822.000000	 99.364075  
821.000000	 99.363659  
820.000000	 99.369689  
819.000000	 99.380062  
818.000000	 99.388983  
817.000000	 99.392144  
816.000000	 99.389718  
815.000000	 99.383160  
814.000000	 99.370927  
813.000000	 99.350443  
812.000000	 99.322837  
811.000000	 99.291326  
810.000000	 99.254865  
809.000000	 99.207675  
808.000000	 99.146037  
807.000000	 99.072419  
806.000000	 98.992471  
805.000000	 98.911544  
804.000000	 98.834923  
803.000000	 98.767344  
802.000000	 98.710215  
801.000000	 98.661953  
800.000000	 98.622024  
799.000000	 98.591876  
798.000000	 98.571849  
797.000000	 98.560658  
796.000000	 98.557935  
795.000000	 98.563674  
794.000000	 98.575122  
793.000000	 98.587783  
792.000000	 98.599358  
791.000000	 98.609732  
790.000000	 98.618441  
789.000000	 98.625581  
788.000000	 98.632722  
787.000000	 98.637954  
786.000000	 98.632177  
785.000000	 98.606686  
784.000000	 98.564085  
783.000000	 98.516563  
782.000000	 98.474283  
781.000000	 98.440557  
780.000000	 98.416411  
779.000000	 98.402152  
778.000000	 98.394594  
777.000000	 98.390643  
776.000000	 98.394684  
775.000000	 98.415024  
774.000000	 98.451441  
773.000000	 98.493132  
772.000000	 98.530541  
771.000000	 98.562636  
770.000000	 98.591372  
769.000000	 98.616105  
768.000000	 98.636102  
767.000000	 98.652749  
766.000000	 98.666825  
765.000000	 98.678598  
764.000000	 98.691842  
763.000000	 98.711475  
762.000000	 98.734830  
761.000000	 98.751377  
760.000000	 98.754584  
759.000000	 98.749758  
758.000000	 98.747598  
757.000000	 98.753514  
756.000000	 98.764501  
755.000000	 98.772274  
754.000000	 98.768877  
753.000000	 98.754561  
752.000000	 98.741398  
751.000000	 98.744080  
750.000000	 98.765293  
749.000000	 98.794059  
748.000000	 98.818813  
747.000000	 98.836925  
746.000000	 98.851461  
745.000000	 98.865289  
744.000000	 98.880443  
743.000000	 98.897879  
742.000000	 98.915895  
741.000000	 98.933011  
740.000000	 98.952300  
739.000000	 98.977413  
738.000000	 99.004580  
737.000000	 99.024797  
736.000000	 99.033836  
735.000000	 99.033912  
734.000000	 99.026890  
733.000000	 99.014694  
732.000000	 99.006504  
731.000000	 99.014738  
730.000000	 99.040114  
729.000000	 99.069224  
728.000000	 99.089977  
727.000000	 99.101687  
726.000000	 99.107717  
725.000000	 99.107217  
724.000000	 99.099305  
723.000000	 99.088362  
722.000000	 99.080172  
721.000000	 99.078186  
720.000000	 99.086289  
719.000000	 99.107770  
718.000000	 99.137634  
717.000000	 99.163123  
716.000000	 99.175916  
715.000000	 99.178097  
714.000000	 99.174516  
713.000000	 99.167799  
712.000000	 99.164241  
711.000000	 99.174002  
710.000000	 99.197273  
709.000000	 99.217800  
708.000000	 99.218507  
707.000000	 99.199010  
706.000000	 99.171901  
705.000000	 99.146658  
704.000000	 99.124834  
703.000000	 99.107123  
702.000000	 99.095443  
701.000000	 99.087975  
700.000000	 99.077839  
699.000000	 99.056900  
698.000000	 99.021282  
697.000000	 98.976212  
696.000000	 98.935642  
695.000000	 98.912128  
694.000000	 98.904856  
693.000000	 98.904094  
692.000000	 98.907854  
691.000000	 98.924469  
690.000000	 98.957551  
689.000000	 98.998184  
688.000000	 99.035976  
687.000000	 99.067639  
686.000000	 99.088597  
685.000000	 99.089552  
684.000000	 99.070956  
683.000000	 99.050117  
682.000000	 99.045457  
681.000000	 99.060179  
680.000000	 99.084969  
679.000000	 99.106846  
678.000000	 99.112607  
677.000000	 99.098333  
676.000000	 99.080407  
675.000000	 99.082557  
674.000000	 99.106647  
673.000000	 99.127741  
672.000000	 99.123980  
671.000000	 99.100469  
670.000000	 99.078086  
669.000000	 99.077836  
668.000000	 99.108148  
667.000000	 99.144164  
666.000000	 99.160411  
665.000000	 99.163362  
664.000000	 99.165719  
663.000000	 99.183396  
662.000000	 99.218487  
661.000000	 99.246506  
660.000000	 99.239482  
659.000000	 99.198294  
658.000000	 99.148792  
657.000000	 99.111157  
656.000000	 99.087037  
655.000000	 99.074199  
654.000000	 99.075786  
653.000000	 99.090633  
652.000000	 99.109119  
651.000000	 99.124041  
650.000000	 99.135716  

