4000.000000	100.917697 
3999.000000	100.916513 
3998.000000	100.915533 
3997.000000	100.915619 
3996.000000	100.916784 
3995.000000	100.918084 
3994.000000	100.918584 
3993.000000	100.918285 
3992.000000	100.917927 
3991.000000	100.917929 
3990.000000	100.917688 
3989.000000	100.916243 
3988.000000	100.913522 
3987.000000	100.910683 
3986.000000	100.908988 
3985.000000	100.908717 
3984.000000	100.909332 
3983.000000	100.910419 
3982.000000	100.912139 
3981.000000	100.914614 
3980.000000	100.917377 
3979.000000	100.919636 
3978.000000	100.920796 
3977.000000	100.920690 
3976.000000	100.919572 
3975.000000	100.918010 
3974.000000	100.916425 
3973.000000	100.914755 
3972.000000	100.912891 
3971.000000	100.911225 
3970.000000	100.910451 
3969.000000	100.910766 
3968.000000	100.911701 
3967.000000	100.912580 
3966.000000	100.912980 
3965.000000	100.912794 
3964.000000	100.912174 
3963.000000	100.911491 
3962.000000	100.911073 
3961.000000	100.910865 
3960.000000	100.910586 
3959.000000	100.910111 
3958.000000	100.909591 
3957.000000	100.909194 
3956.000000	100.908965 
3955.000000	100.908815 
3954.000000	100.908581 
3953.000000	100.908169 
3952.000000	100.907653 
3951.000000	100.907236 
3950.000000	100.907030 
3949.000000	100.906959 
3948.000000	100.906870 
3947.000000	100.906696 
3946.000000	100.906505 
3945.000000	100.906390 
3944.000000	100.906346 
3943.000000	100.906291 
3942.000000	100.906165 
3941.000000	100.905990 
3940.000000	100.905821 
3939.000000	100.905692 
3938.000000	100.905593 
3937.000000	100.905498 
3936.000000	100.905384 
3935.000000	100.905253 
3934.000000	100.905138 
3933.000000	100.905071 
3932.000000	100.905044 
3931.000000	100.905040 
3930.000000	100.905074 
3929.000000	100.905120 
3928.000000	100.905089 
3927.000000	100.904941 
3926.000000	100.904806 
3925.000000	100.904790 
3924.000000	100.904827 
3923.000000	100.904835 
3922.000000	100.904847 
3921.000000	100.904894 
3920.000000	100.904942 
3919.000000	100.904964 
3918.000000	100.904990 
3917.000000	100.905046 
3916.000000	100.905127 
3915.000000	100.905219 
3914.000000	100.905317 
3913.000000	100.905420 
3912.000000	100.905535 
3911.000000	100.905668 
3910.000000	100.905815 
3909.000000	100.905970 
3908.000000	100.906131 
3907.000000	100.906299 
3906.000000	100.906475 
3905.000000	100.906645 
3904.000000	100.906791 
3903.000000	100.906900 
3902.000000	100.906972 
3901.000000	100.907021 
3900.000000	100.907057 
3899.000000	100.907083 
3898.000000	100.907091 
3897.000000	100.907085 
3896.000000	100.907081 
3895.000000	100.907097 
3894.000000	100.907139 
3893.000000	100.907202 
3892.000000	100.907281 
3891.000000	100.907365 
3890.000000	100.907439 
3889.000000	100.907492 
3888.000000	100.907522 
3887.000000	100.907539 
3886.000000	100.907549 
3885.000000	100.907547 
3884.000000	100.907533 
3883.000000	100.907519 
3882.000000	100.907522 
3881.000000	100.907547 
3880.000000	100.907581 
3879.000000	100.907617 
3878.000000	100.907658 
3877.000000	100.907716 
3876.000000	100.907795 
3875.000000	100.907887 
3874.000000	100.907975 
3873.000000	100.908043 
3872.000000	100.908095 
3871.000000	100.908144 
3870.000000	100.908189 
3869.000000	100.908216 
3868.000000	100.908223 
3867.000000	100.908222 
3866.000000	100.908227 
3865.000000	100.908229 
3864.000000	100.908217 
3863.000000	100.908200 
3862.000000	100.908203 
3861.000000	100.908238 
3860.000000	100.908297 
3859.000000	100.908374 
3858.000000	100.908468 
3857.000000	100.908581 
3856.000000	100.908714 
3855.000000	100.908870 
3854.000000	100.909040 
3853.000000	100.909196 
3852.000000	100.909321 
3851.000000	100.909416 
3850.000000	100.909496 
3849.000000	100.909571 
3848.000000	100.909650 
3847.000000	100.909734 
3846.000000	100.909825 
3845.000000	100.909926 
3844.000000	100.910039 
3843.000000	100.910162 
3842.000000	100.910285 
3841.000000	100.910388 
3840.000000	100.910460 
3839.000000	100.910496 
3838.000000	100.910495 
3837.000000	100.910455 
3836.000000	100.910368 
3835.000000	100.910231 
3834.000000	100.910048 
3833.000000	100.909831 
3832.000000	100.909592 
3831.000000	100.909340 
3830.000000	100.909080 
3829.000000	100.908810 
3828.000000	100.908535 
3827.000000	100.908261 
3826.000000	100.907993 
3825.000000	100.907725 
3824.000000	100.907446 
3823.000000	100.907160 
3822.000000	100.906875 
3821.000000	100.906581 
3820.000000	100.906250 
3819.000000	100.905867 
3818.000000	100.905443 
3817.000000	100.904999 
3816.000000	100.904534 
3815.000000	100.904035 
3814.000000	100.903502 
3813.000000	100.902956 
3812.000000	100.902410 
3811.000000	100.901867 
3810.000000	100.901326 
3809.000000	100.900790 
3808.000000	100.900268 
3807.000000	100.899757 
3806.000000	100.899236 
3805.000000	100.898689 
3804.000000	100.898120 
3803.000000	100.897550 
3802.000000	100.896985 
3801.000000	100.896417 
3800.000000	100.895845 
3799.000000	100.895294 
3798.000000	100.894792 
3797.000000	100.894346 
3796.000000	100.893945 
3795.000000	100.893587 
3794.000000	100.893291 
3793.000000	100.893073 
3792.000000	100.892932 
3791.000000	100.892857 
3790.000000	100.892834 
3789.000000	100.892850 
3788.000000	100.892900 
3787.000000	100.892983 
3786.000000	100.893101 
3785.000000	100.893240 
3784.000000	100.893380 
3783.000000	100.893514 
3782.000000	100.893649 
3781.000000	100.893794 
3780.000000	100.893946 
3779.000000	100.894102 
3778.000000	100.894272 
3777.000000	100.894476 
3776.000000	100.894722 
3775.000000	100.895004 
3774.000000	100.895311 
3773.000000	100.895645 
3772.000000	100.896012 
3771.000000	100.896407 
3770.000000	100.896815 
3769.000000	100.897225 
3768.000000	100.897642 
3767.000000	100.898077 
3766.000000	100.898530 
3765.000000	100.898989 
3764.000000	100.899450 
3763.000000	100.899919 
3762.000000	100.900406 
3761.000000	100.900907 
3760.000000	100.901407 
3759.000000	100.901895 
3758.000000	100.902374 
3757.000000	100.902838 
3756.000000	100.903263 
3755.000000	100.903629 
3754.000000	100.903932 
3753.000000	100.904180 
3752.000000	100.904365 
3751.000000	100.904473 
3750.000000	100.904498 
3749.000000	100.904443 
3748.000000	100.904308 
3747.000000	100.904091 
3746.000000	100.903806 
3745.000000	100.903466 
3744.000000	100.903061 
3743.000000	100.902588 
3742.000000	100.902069 
3741.000000	100.901528 
3740.000000	100.900966 
3739.000000	100.900362 
3738.000000	100.899705 
3737.000000	100.899003 
3736.000000	100.898262 
3735.000000	100.897476 
3734.000000	100.896637 
3733.000000	100.895749 
3732.000000	100.894817 
3731.000000	100.893839 
3730.000000	100.892807 
3729.000000	100.891717 
3728.000000	100.890567 
3727.000000	100.889357 
3726.000000	100.888082 
3725.000000	100.886738 
3724.000000	100.885324 
3723.000000	100.883839 
3722.000000	100.882287 
3721.000000	100.880673 
3720.000000	100.878995 
3719.000000	100.877251 
3718.000000	100.875444 
3717.000000	100.873577 
3716.000000	100.871653 
3715.000000	100.869675 
3714.000000	100.867657 
3713.000000	100.865625 
3712.000000	100.863596 
3711.000000	100.861571 
3710.000000	100.859542 
3709.000000	100.857504 
3708.000000	100.855455 
3707.000000	100.853392 
3706.000000	100.851314 
3705.000000	100.849227 
3704.000000	100.847135 
3703.000000	100.845023 
3702.000000	100.842924 
3701.000000	100.840860 
3700.000000	100.838795 
3699.000000	100.836684 
3698.000000	100.834601 
3697.000000	100.832626 
3696.000000	100.830650 
3695.000000	100.828566 
3694.000000	100.826569 
3693.000000	100.824908 
3692.000000	100.823491 
3691.000000	100.822013 
3690.000000	100.820432 
3689.000000	100.818813 
3688.000000	100.817027 
3687.000000	100.814959 
3686.000000	100.812815 
3685.000000	100.811015 
3684.000000	100.809649 
3683.000000	100.808273 
3682.000000	100.806590 
3681.000000	100.805070 
3680.000000	100.804083 
3679.000000	100.803052 
3678.000000	100.801289 
3677.000000	100.799638 
3676.000000	100.799218 
3675.000000	100.799379 
3674.000000	100.799026 
3673.000000	100.798303 
3672.000000	100.798129 
3671.000000	100.798925 
3670.000000	100.799470 
3669.000000	100.798559 
3668.000000	100.796912 
3667.000000	100.795869 
3666.000000	100.795632 
3665.000000	100.795651 
3664.000000	100.795561 
3663.000000	100.795571 
3662.000000	100.796096 
3661.000000	100.797147 
3660.000000	100.798234 
3659.000000	100.799012 
3658.000000	100.799730 
3657.000000	100.800902 
3656.000000	100.802410 
3655.000000	100.803789 
3654.000000	100.805014 
3653.000000	100.806476 
3652.000000	100.808478 
3651.000000	100.810535 
3650.000000	100.811546 
3649.000000	100.811346 
3648.000000	100.811000 
3647.000000	100.811322 
3646.000000	100.812129 
3645.000000	100.813093 
3644.000000	100.814188 
3643.000000	100.815438 
3642.000000	100.816687 
3641.000000	100.817771 
3640.000000	100.818842 
3639.000000	100.820196 
3638.000000	100.821819 
3637.000000	100.823410 
3636.000000	100.824802 
3635.000000	100.826124 
3634.000000	100.827427 
3633.000000	100.828513 
3632.000000	100.829294 
3631.000000	100.830056 
3630.000000	100.831142 
3629.000000	100.832270 
3628.000000	100.833034 
3627.000000	100.833637 
3626.000000	100.834462 
3625.000000	100.835502 
3624.000000	100.836523 
3623.000000	100.837345 
3622.000000	100.837994 
3621.000000	100.838610 
3620.000000	100.839276 
3619.000000	100.839943 
3618.000000	100.840550 
3617.000000	100.841103 
3616.000000	100.841645 
3615.000000	100.842233 
3614.000000	100.842876 
3613.000000	100.843417 
3612.000000	100.843635 
3611.000000	100.843499 
3610.000000	100.843256 
3609.000000	100.843113 
3608.000000	100.842969 
3607.000000	100.842736 
3606.000000	100.842721 
3605.000000	100.843234 
3604.000000	100.844118 
3603.000000	100.844800 
3602.000000	100.844973 
3601.000000	100.844882 
3600.000000	100.844845 
3599.000000	100.845083 
3598.000000	100.845732 
3597.000000	100.846633 
3596.000000	100.847289 
3595.000000	100.847498 
3594.000000	100.847533 
3593.000000	100.847972 
3592.000000	100.849136 
3591.000000	100.850743 
3590.000000	100.852327 
3589.000000	100.853455 
3588.000000	100.853237 
3587.000000	100.851015 
3586.000000	100.848002 
3585.000000	100.846148 
3584.000000	100.845801 
3583.000000	100.845711 
3582.000000	100.844625 
3581.000000	100.842517 
3580.000000	100.840147 
3579.000000	100.838115 
3578.000000	100.836441 
3577.000000	100.834987 
3576.000000	100.833889 
3575.000000	100.833535 
3574.000000	100.834214 
3573.000000	100.835773 
3572.000000	100.837677 
3571.000000	100.839068 
3570.000000	100.839331 
3569.000000	100.838545 
3568.000000	100.837068 
3567.000000	100.835297 
3566.000000	100.834192 
3565.000000	100.834553 
3564.000000	100.835922 
3563.000000	100.837045 
3562.000000	100.837121 
3561.000000	100.836339 
3560.000000	100.835422 
3559.000000	100.834838 
3558.000000	100.834590 
3557.000000	100.834456 
3556.000000	100.834256 
3555.000000	100.834003 
3554.000000	100.833916 
3553.000000	100.834097 
3552.000000	100.834262 
3551.000000	100.834045 
3550.000000	100.833447 
3549.000000	100.832830 
3548.000000	100.832483 
3547.000000	100.832385 
3546.000000	100.832384 
3545.000000	100.832406 
3544.000000	100.832448 
3543.000000	100.832499 
3542.000000	100.832533 
3541.000000	100.832529 
3540.000000	100.832492 
3539.000000	100.832463 
3538.000000	100.832483 
3537.000000	100.832540 
3536.000000	100.832569 
3535.000000	100.832535 
3534.000000	100.832456 
3533.000000	100.832375 
3532.000000	100.832314 
3531.000000	100.832275 
3530.000000	100.832261 
3529.000000	100.832276 
3528.000000	100.832315 
3527.000000	100.832339 
3526.000000	100.832312 
3525.000000	100.832229 
3524.000000	100.832108 
3523.000000	100.831968 
3522.000000	100.831827 
3521.000000	100.831698 
3520.000000	100.831578 
3519.000000	100.831456 
3518.000000	100.831328 
3517.000000	100.831202 
3516.000000	100.831083 
3515.000000	100.830971 
3514.000000	100.830863 
3513.000000	100.830756 
3512.000000	100.830646 
3511.000000	100.830530 
3510.000000	100.830406 
3509.000000	100.830277 
3508.000000	100.830146 
3507.000000	100.830012 
3506.000000	100.829872 
3505.000000	100.829719 
3504.000000	100.829553 
3503.000000	100.829378 
3502.000000	100.829202 
3501.000000	100.829027 
3500.000000	100.828852 
3499.000000	100.828668 
3498.000000	100.828468 
3497.000000	100.828252 
3496.000000	100.828024 
3495.000000	100.827796 
3494.000000	100.827574 
3493.000000	100.827361 
3492.000000	100.827154 
3491.000000	100.826948 
3490.000000	100.826741 
3489.000000	100.826533 
3488.000000	100.826327 
3487.000000	100.826122 
3486.000000	100.825905 
3485.000000	100.825668 
3484.000000	100.825424 
3483.000000	100.825209 
3482.000000	100.825048 
3481.000000	100.824915 
3480.000000	100.824738 
3479.000000	100.824470 
3478.000000	100.824167 
3477.000000	100.823952 
3476.000000	100.823844 
3475.000000	100.823697 
3474.000000	100.823372 
3473.000000	100.822943 
3472.000000	100.822656 
3471.000000	100.822661 
3470.000000	100.822855 
3469.000000	100.823015 
3468.000000	100.823010 
3467.000000	100.822828 
3466.000000	100.822457 
3465.000000	100.821862 
3464.000000	100.821080 
3463.000000	100.820222 
3462.000000	100.819353 
3461.000000	100.818420 
3460.000000	100.817380 
3459.000000	100.816380 
3458.000000	100.815733 
3457.000000	100.815619 
3456.000000	100.815876 
3455.000000	100.816102 
3454.000000	100.816054 
3453.000000	100.815902 
3452.000000	100.815933 
3451.000000	100.816175 
3450.000000	100.816445 
3449.000000	100.816604 
3448.000000	100.816556 
3447.000000	100.816152 
3446.000000	100.815392 
3445.000000	100.814629 
3444.000000	100.814312 
3443.000000	100.814523 
3442.000000	100.814932 
3441.000000	100.815194 
3440.000000	100.815289 
3439.000000	100.815357 
3438.000000	100.815364 
3437.000000	100.815104 
3436.000000	100.814497 
3435.000000	100.813715 
3434.000000	100.813084 
3433.000000	100.812833 
3432.000000	100.812945 
3431.000000	100.813221 
3430.000000	100.813418 
3429.000000	100.813405 
3428.000000	100.813190 
3427.000000	100.812852 
3426.000000	100.812494 
3425.000000	100.812220 
3424.000000	100.812095 
3423.000000	100.812141 
3422.000000	100.812318 
3421.000000	100.812519 
3420.000000	100.812603 
3419.000000	100.812508 
3418.000000	100.812334 
3417.000000	100.812274 
3416.000000	100.812398 
3415.000000	100.812557 
3414.000000	100.812538 
3413.000000	100.812299 
3412.000000	100.811992 
3411.000000	100.811785 
3410.000000	100.811749 
3409.000000	100.811903 
3408.000000	100.812235 
3407.000000	100.812618 
3406.000000	100.812819 
3405.000000	100.812706 
3404.000000	100.812461 
3403.000000	100.812498 
3402.000000	100.813080 
3401.000000	100.814006 
3400.000000	100.814730 
3399.000000	100.814937 
3398.000000	100.814880 
3397.000000	100.815104 
3396.000000	100.815821 
3395.000000	100.816692 
3394.000000	100.817214 
3393.000000	100.817208 
3392.000000	100.816922 
3391.000000	100.816701 
3390.000000	100.816600 
3389.000000	100.816285 
3388.000000	100.815368 
3387.000000	100.813902 
3386.000000	100.812461 
3385.000000	100.811577 
3384.000000	100.811224 
3383.000000	100.811057 
3382.000000	100.810924 
3381.000000	100.810838 
3380.000000	100.810577 
3379.000000	100.809806 
3378.000000	100.808719 
3377.000000	100.808190 
3376.000000	100.809046 
3375.000000	100.811326 
3374.000000	100.814319 
3373.000000	100.817096 
3372.000000	100.818958 
3371.000000	100.819547 
3370.000000	100.818897 
3369.000000	100.817496 
3368.000000	100.816047 
3367.000000	100.814939 
3366.000000	100.813989 
3365.000000	100.812791 
3364.000000	100.811298 
3363.000000	100.810006 
3362.000000	100.809501 
3361.000000	100.809797 
3360.000000	100.810206 
3359.000000	100.809984 
3358.000000	100.809175 
3357.000000	100.808635 
3356.000000	100.809121 
3355.000000	100.810452 
3354.000000	100.811694 
3353.000000	100.812146 
3352.000000	100.811999 
3351.000000	100.812032 
3350.000000	100.812882 
3349.000000	100.814651 
3348.000000	100.816956 
3347.000000	100.819095 
3346.000000	100.820307 
3345.000000	100.820180 
3344.000000	100.818935 
3343.000000	100.817312 
3342.000000	100.815998 
3341.000000	100.815160 
3340.000000	100.814621 
3339.000000	100.814262 
3338.000000	100.814066 
3337.000000	100.813923 
3336.000000	100.813654 
3335.000000	100.813309 
3334.000000	100.813238 
3333.000000	100.813721 
3332.000000	100.814581 
3331.000000	100.815294 
3330.000000	100.815498 
3329.000000	100.815319 
3328.000000	100.815181 
3327.000000	100.815347 
3326.000000	100.815705 
3325.000000	100.815953 
3324.000000	100.815970 
3323.000000	100.815947 
3322.000000	100.816110 
3321.000000	100.816399 
3320.000000	100.816500 
3319.000000	100.816212 
3318.000000	100.815687 
3317.000000	100.815332 
3316.000000	100.815427 
3315.000000	100.815931 
3314.000000	100.816555 
3313.000000	100.816992 
3312.000000	100.817157 
3311.000000	100.817190 
3310.000000	100.817306 
3309.000000	100.817601 
3308.000000	100.818002 
3307.000000	100.818364 
3306.000000	100.818588 
3305.000000	100.818653 
3304.000000	100.818580 
3303.000000	100.818410 
3302.000000	100.818238 
3301.000000	100.818192 
3300.000000	100.818359 
3299.000000	100.818729 
3298.000000	100.819199 
3297.000000	100.819646 
3296.000000	100.819988 
3295.000000	100.820204 
3294.000000	100.820339 
3293.000000	100.820453 
3292.000000	100.820546 
3291.000000	100.820558 
3290.000000	100.820467 
3289.000000	100.820340 
3288.000000	100.820283 
3287.000000	100.820342 
3286.000000	100.820481 
3285.000000	100.820617 
3284.000000	100.820672 
3283.000000	100.820626 
3282.000000	100.820526 
3281.000000	100.820441 
3280.000000	100.820393 
3279.000000	100.820354 
3278.000000	100.820306 
3277.000000	100.820282 
3276.000000	100.820336 
3275.000000	100.820474 
3274.000000	100.820637 
3273.000000	100.820724 
3272.000000	100.820653 
3271.000000	100.820411 
3270.000000	100.820055 
3269.000000	100.819711 
3268.000000	100.819501 
3267.000000	100.819468 
3266.000000	100.819572 
3265.000000	100.819710 
3264.000000	100.819797 
3263.000000	100.819806 
3262.000000	100.819757 
3261.000000	100.819682 
3260.000000	100.819603 
3259.000000	100.819514 
3258.000000	100.819401 
3257.000000	100.819257 
3256.000000	100.819090 
3255.000000	100.818908 
3254.000000	100.818722 
3253.000000	100.818554 
3252.000000	100.818423 
3251.000000	100.818337 
3250.000000	100.818281 
3249.000000	100.818214 
3248.000000	100.818101 
3247.000000	100.817935 
3246.000000	100.817740 
3245.000000	100.817550 
3244.000000	100.817379 
3243.000000	100.817234 
3242.000000	100.817141 
3241.000000	100.817134 
3240.000000	100.817212 
3239.000000	100.817300 
3238.000000	100.817297 
3237.000000	100.817159 
3236.000000	100.816951 
3235.000000	100.816781 
3234.000000	100.816686 
3233.000000	100.816626 
3232.000000	100.816581 
3231.000000	100.816609 
3230.000000	100.816774 
3229.000000	100.817024 
3228.000000	100.817174 
3227.000000	100.817041 
3226.000000	100.816586 
3225.000000	100.815962 
3224.000000	100.815442 
3223.000000	100.815215 
3222.000000	100.815257 
3221.000000	100.815348 
3220.000000	100.815301 
3219.000000	100.815134 
3218.000000	100.814949 
3217.000000	100.814723 
3216.000000	100.814334 
3215.000000	100.813824 
3214.000000	100.813446 
3213.000000	100.813405 
3212.000000	100.813625 
3211.000000	100.813917 
3210.000000	100.814329 
3209.000000	100.815112 
3208.000000	100.816307 
3207.000000	100.817534 
3206.000000	100.818309 
3205.000000	100.818490 
3204.000000	100.818382 
3203.000000	100.818383 
3202.000000	100.818668 
3201.000000	100.819205 
3200.000000	100.819879 
3199.000000	100.820424 
3198.000000	100.820410 
3197.000000	100.819640 
3196.000000	100.818534 
3195.000000	100.817860 
3194.000000	100.817846 
3193.000000	100.817838 
3192.000000	100.817122 
3191.000000	100.815901 
3190.000000	100.815130 
3189.000000	100.815403 
3188.000000	100.816369 
3187.000000	100.817224 
3186.000000	100.817505 
3185.000000	100.817261 
3184.000000	100.816746 
3183.000000	100.816215 
3182.000000	100.815882 
3181.000000	100.815836 
3180.000000	100.815929 
3179.000000	100.815956 
3178.000000	100.815942 
3177.000000	100.816050 
3176.000000	100.816259 
3175.000000	100.816381 
3174.000000	100.816470 
3173.000000	100.816908 
3172.000000	100.817910 
3171.000000	100.819115 
3170.000000	100.819864 
3169.000000	100.819919 
3168.000000	100.819695 
3167.000000	100.819802 
3166.000000	100.820428 
3165.000000	100.821248 
3164.000000	100.821833 
3163.000000	100.822040 
3162.000000	100.822006 
3161.000000	100.821945 
3160.000000	100.822005 
3159.000000	100.822240 
3158.000000	100.822611 
3157.000000	100.822994 
3156.000000	100.823263 
3155.000000	100.823392 
3154.000000	100.823479 
3153.000000	100.823643 
3152.000000	100.823902 
3151.000000	100.824153 
3150.000000	100.824246 
3149.000000	100.824123 
3148.000000	100.823895 
3147.000000	100.823780 
3146.000000	100.823905 
3145.000000	100.824200 
3144.000000	100.824473 
3143.000000	100.824632 
3142.000000	100.824793 
3141.000000	100.825107 
3140.000000	100.825518 
3139.000000	100.825775 
3138.000000	100.825713 
3137.000000	100.825418 
3136.000000	100.825146 
3135.000000	100.825070 
3134.000000	100.825152 
3133.000000	100.825225 
3132.000000	100.825162 
3131.000000	100.824964 
3130.000000	100.824703 
3129.000000	100.824441 
3128.000000	100.824196 
3127.000000	100.824003 
3126.000000	100.823925 
3125.000000	100.823993 
3124.000000	100.824149 
3123.000000	100.824269 
3122.000000	100.824276 
3121.000000	100.824197 
3120.000000	100.824146 
3119.000000	100.824251 
3118.000000	100.824557 
3117.000000	100.824927 
3116.000000	100.825082 
3115.000000	100.824846 
3114.000000	100.824314 
3113.000000	100.823753 
3112.000000	100.823333 
3111.000000	100.823052 
3110.000000	100.822907 
3109.000000	100.822974 
3108.000000	100.823215 
3107.000000	100.823358 
3106.000000	100.823114 
3105.000000	100.822507 
3104.000000	100.821894 
3103.000000	100.821655 
3102.000000	100.821922 
3101.000000	100.822545 
3100.000000	100.823166 
3099.000000	100.823424 
3098.000000	100.823217 
3097.000000	100.822820 
3096.000000	100.822687 
3095.000000	100.823065 
3094.000000	100.823821 
3093.000000	100.824614 
3092.000000	100.825141 
3091.000000	100.825239 
3090.000000	100.824876 
3089.000000	100.824244 
3088.000000	100.823818 
3087.000000	100.824100 
3086.000000	100.825188 
3085.000000	100.826583 
3084.000000	100.827551 
3083.000000	100.827733 
3082.000000	100.827401 
3081.000000	100.827140 
3080.000000	100.827303 
3079.000000	100.827756 
3078.000000	100.827999 
3077.000000	100.827483 
3076.000000	100.825982 
3075.000000	100.823901 
3074.000000	100.822181 
3073.000000	100.821614 
3072.000000	100.822204 
3071.000000	100.823394 
3070.000000	100.824786 
3069.000000	100.826028 
3068.000000	100.826090 
3067.000000	100.823614 
3066.000000	100.818608 
3065.000000	100.813148 
3064.000000	100.809601 
3063.000000	100.808564 
3062.000000	100.809115 
3061.000000	100.810464 
3060.000000	100.812547 
3059.000000	100.815313 
3058.000000	100.818306 
3057.000000	100.820947 
3056.000000	100.822709 
3055.000000	100.823250 
3054.000000	100.822862 
3053.000000	100.822465 
3052.000000	100.822531 
3051.000000	100.822337 
3050.000000	100.820914 
3049.000000	100.818373 
3048.000000	100.815532 
3047.000000	100.812478 
3046.000000	100.808513 
3045.000000	100.803587 
3044.000000	100.798893 
3043.000000	100.795666 
3042.000000	100.793890 
3041.000000	100.792519 
3040.000000	100.790666 
3039.000000	100.788401 
3038.000000	100.786678 
3037.000000	100.786464 
3036.000000	100.787575 
3035.000000	100.788396 
3034.000000	100.787138 
3033.000000	100.783429 
3032.000000	100.778357 
3031.000000	100.773187 
3030.000000	100.768308 
3029.000000	100.763268 
3028.000000	100.757442 
3027.000000	100.750663 
3026.000000	100.743565 
3025.000000	100.737267 
3024.000000	100.732206 
3023.000000	100.727264 
3022.000000	100.720660 
3021.000000	100.711828 
3020.000000	100.702046 
3019.000000	100.693226 
3018.000000	100.686499 
3017.000000	100.681864 
3016.000000	100.678418 
3015.000000	100.674579 
3014.000000	100.668669 
3013.000000	100.659836 
3012.000000	100.648425 
3011.000000	100.635385 
3010.000000	100.621652 
3009.000000	100.608213 
3008.000000	100.596267 
3007.000000	100.586772 
3006.000000	100.579782 
3005.000000	100.574329 
3004.000000	100.568744 
3003.000000	100.561219 
3002.000000	100.550808 
3001.000000	100.538505 
3000.000000	100.527015 
2999.000000	100.518613 
2998.000000	100.513091 
2997.000000	100.508416 
2996.000000	100.503468 
2995.000000	100.499036 
2994.000000	100.495254 
2993.000000	100.489053 
2992.000000	100.476199 
2991.000000	100.456603 
2990.000000	100.436374 
2989.000000	100.423021 
2988.000000	100.419030 
2987.000000	100.421025 
2986.000000	100.424423 
2985.000000	100.427849 
2984.000000	100.432500 
2983.000000	100.438575 
2982.000000	100.443933 
2981.000000	100.446184 
2980.000000	100.445179 
2979.000000	100.442990 
2978.000000	100.441777 
2977.000000	100.442002 
2976.000000	100.442502 
2975.000000	100.441973 
2974.000000	100.440152 
2973.000000	100.437664 
2972.000000	100.435204 
2971.000000	100.433310 
2970.000000	100.432675 
2969.000000	100.434015 
2968.000000	100.437488 
2967.000000	100.442690 
2966.000000	100.449317 
2965.000000	100.457330 
2964.000000	100.466307 
2963.000000	100.475185 
2962.000000	100.483020 
2961.000000	100.489606 
2960.000000	100.495040 
2959.000000	100.499222 
2958.000000	100.502375 
2957.000000	100.505512 
2956.000000	100.509442 
2955.000000	100.513381 
2954.000000	100.515562 
2953.000000	100.515802 
2952.000000	100.516825 
2951.000000	100.522118 
2950.000000	100.532187 
2949.000000	100.543370 
2948.000000	100.550894 
2947.000000	100.553067 
2946.000000	100.552199 
2945.000000	100.551807 
2944.000000	100.553342 
2943.000000	100.555925 
2942.000000	100.558443 
2941.000000	100.560605 
2940.000000	100.562030 
2939.000000	100.561730 
2938.000000	100.559256 
2937.000000	100.555726 
2936.000000	100.553105 
2935.000000	100.552768 
2934.000000	100.554936 
2933.000000	100.558800 
2932.000000	100.562596 
2931.000000	100.564154 
2930.000000	100.562313 
2929.000000	100.557879 
2928.000000	100.552936 
2927.000000	100.549279 
2926.000000	100.547579 
2925.000000	100.547366 
2924.000000	100.547263 
2923.000000	100.545834 
2922.000000	100.543014 
2921.000000	100.540435 
2920.000000	100.539580 
2919.000000	100.539890 
2918.000000	100.539394 
2917.000000	100.536985 
2916.000000	100.533319 
2915.000000	100.529666 
2914.000000	100.526781 
2913.000000	100.524940 
2912.000000	100.524107 
2911.000000	100.523678 
2910.000000	100.522675 
2909.000000	100.520591 
2908.000000	100.517800 
2907.000000	100.514929 
2906.000000	100.512024 
2905.000000	100.508405 
2904.000000	100.503170 
2903.000000	100.496061 
2902.000000	100.488634 
2901.000000	100.484375 
2900.000000	100.486402 
2899.000000	100.494625 
2898.000000	100.505150 
2897.000000	100.513177 
2896.000000	100.516815 
2895.000000	100.517879 
2894.000000	100.519360 
2893.000000	100.522592 
2892.000000	100.526693 
2891.000000	100.530105 
2890.000000	100.532238 
2889.000000	100.533620 
2888.000000	100.534856 
2887.000000	100.535956 
2886.000000	100.536826 
2885.000000	100.537994 
2884.000000	100.540362 
2883.000000	100.544363 
2882.000000	100.549746 
2881.000000	100.556098 
2880.000000	100.563236 
2879.000000	100.571112 
2878.000000	100.579693 
2877.000000	100.588794 
2876.000000	100.597592 
2875.000000	100.604384 
2874.000000	100.607577 
2873.000000	100.607382 
2872.000000	100.606274 
2871.000000	100.607300 
2870.000000	100.611805 
2869.000000	100.618804 
2868.000000	100.626327 
2867.000000	100.633260 
2866.000000	100.640041 
2865.000000	100.647738 
2864.000000	100.656491 
2863.000000	100.664912 
2862.000000	100.671167 
2861.000000	100.674670 
2860.000000	100.676673 
2859.000000	100.679246 
2858.000000	100.683621 
2857.000000	100.689371 
2856.000000	100.694978 
2855.000000	100.699274 
2854.000000	100.702438 
2853.000000	100.705622 
2852.000000	100.709554 
2851.000000	100.713792 
2850.000000	100.717571 
2849.000000	100.720871 
2848.000000	100.724145 
2847.000000	100.727299 
2846.000000	100.729603 
2845.000000	100.730669 
2844.000000	100.731041 
2843.000000	100.731775 
2842.000000	100.733727 
2841.000000	100.737141 
2840.000000	100.741405 
2839.000000	100.745118 
2838.000000	100.746928 
2837.000000	100.746582 
2836.000000	100.745047 
2835.000000	100.743667 
2834.000000	100.743483 
2833.000000	100.745159 
2832.000000	100.748773 
2831.000000	100.753340 
2830.000000	100.757185 
2829.000000	100.759392 
2828.000000	100.760670 
2827.000000	100.762426 
2826.000000	100.765129 
2825.000000	100.767882 
2824.000000	100.769540 
2823.000000	100.769948 
2822.000000	100.770091 
2821.000000	100.771158 
2820.000000	100.773389 
2819.000000	100.775841 
2818.000000	100.777368 
2817.000000	100.777728 
2816.000000	100.777540 
2815.000000	100.777377 
2814.000000	100.777309 
2813.000000	100.777316 
2812.000000	100.777547 
2811.000000	100.777914 
2810.000000	100.777906 
2809.000000	100.777256 
2808.000000	100.776516 
2807.000000	100.776521 
2806.000000	100.777410 
2805.000000	100.778527 
2804.000000	100.779273 
2803.000000	100.779703 
2802.000000	100.780242 
2801.000000	100.781020 
2800.000000	100.781662 
2799.000000	100.781701 
2798.000000	100.781104 
2797.000000	100.780351 
2796.000000	100.780030 
2795.000000	100.780373 
2794.000000	100.781173 
2793.000000	100.782026 
2792.000000	100.782611 
2791.000000	100.782797 
2790.000000	100.782636 
2789.000000	100.782374 
2788.000000	100.782335 
2787.000000	100.782690 
2786.000000	100.783334 
2785.000000	100.784028 
2784.000000	100.784632 
2783.000000	100.785134 
2782.000000	100.785503 
2781.000000	100.785653 
2780.000000	100.785578 
2779.000000	100.785452 
2778.000000	100.785537 
2777.000000	100.785967 
2776.000000	100.786653 
2775.000000	100.787320 
2774.000000	100.787651 
2773.000000	100.787470 
2772.000000	100.786868 
2771.000000	100.786197 
2770.000000	100.785872 
2769.000000	100.786124 
2768.000000	100.786949 
2767.000000	100.788146 
2766.000000	100.789336 
2765.000000	100.790062 
2764.000000	100.790077 
2763.000000	100.789611 
2762.000000	100.789269 
2761.000000	100.789519 
2760.000000	100.790370 
2759.000000	100.791517 
2758.000000	100.792640 
2757.000000	100.793528 
2756.000000	100.794135 
2755.000000	100.794673 
2754.000000	100.795401 
2753.000000	100.796102 
2752.000000	100.796048 
2751.000000	100.794807 
2750.000000	100.792921 
2749.000000	100.791472 
2748.000000	100.790871 
2747.000000	100.790488 
2746.000000	100.789559 
2745.000000	100.788136 
2744.000000	100.786979 
2743.000000	100.786730 
2742.000000	100.787460 
2741.000000	100.788790 
2740.000000	100.790193 
2739.000000	100.791299 
2738.000000	100.792057 
2737.000000	100.792624 
2736.000000	100.793069 
2735.000000	100.793269 
2734.000000	100.793114 
2733.000000	100.792654 
2732.000000	100.791998 
2731.000000	100.791254 
2730.000000	100.790629 
2729.000000	100.790376 
2728.000000	100.790524 
2727.000000	100.790855 
2726.000000	100.791182 
2725.000000	100.791539 
2724.000000	100.792013 
2723.000000	100.792593 
2722.000000	100.793266 
2721.000000	100.794062 
2720.000000	100.794881 
2719.000000	100.795456 
2718.000000	100.795592 
2717.000000	100.795359 
2716.000000	100.794988 
2715.000000	100.794736 
2714.000000	100.794856 
2713.000000	100.795452 
2712.000000	100.796239 
2711.000000	100.796675 
2710.000000	100.796510 
2709.000000	100.796032 
2708.000000	100.795702 
2707.000000	100.795600 
2706.000000	100.795419 
2705.000000	100.794964 
2704.000000	100.794430 
2703.000000	100.794161 
2702.000000	100.794254 
2701.000000	100.794499 
2700.000000	100.794627 
2699.000000	100.794550 
2698.000000	100.794383 
2697.000000	100.794267 
2696.000000	100.794226 
2695.000000	100.794221 
2694.000000	100.794265 
2693.000000	100.794397 
2692.000000	100.794553 
2691.000000	100.794589 
2690.000000	100.794458 
2689.000000	100.794295 
2688.000000	100.794292 
2687.000000	100.794493 
2686.000000	100.794778 
2685.000000	100.794984 
2684.000000	100.795051 
2683.000000	100.795027 
2682.000000	100.795007 
2681.000000	100.795047 
2680.000000	100.795124 
2679.000000	100.795167 
2678.000000	100.795130 
2677.000000	100.795047 
2676.000000	100.795001 
2675.000000	100.795048 
2674.000000	100.795182 
2673.000000	100.795368 
2672.000000	100.795567 
2671.000000	100.795730 
2670.000000	100.795807 
2669.000000	100.795768 
2668.000000	100.795625 
2667.000000	100.795441 
2666.000000	100.795349 
2665.000000	100.795508 
2664.000000	100.795987 
2663.000000	100.796702 
2662.000000	100.797463 
2661.000000	100.798097 
2660.000000	100.798511 
2659.000000	100.798683 
2658.000000	100.798671 
2657.000000	100.798615 
2656.000000	100.798675 
2655.000000	100.798933 
2654.000000	100.799333 
2653.000000	100.799705 
2652.000000	100.799871 
2651.000000	100.799770 
2650.000000	100.799535 
2649.000000	100.799416 
2648.000000	100.799556 
2647.000000	100.799860 
2646.000000	100.800119 
2645.000000	100.800288 
2644.000000	100.800512 
2643.000000	100.800880 
2642.000000	100.801287 
2641.000000	100.801607 
2640.000000	100.801917 
2639.000000	100.802393 
2638.000000	100.803061 
2637.000000	100.803753 
2636.000000	100.804241 
2635.000000	100.804344 
2634.000000	100.804020 
2633.000000	100.803514 
2632.000000	100.803265 
2631.000000	100.803469 
2630.000000	100.803905 
2629.000000	100.804243 
2628.000000	100.804442 
2627.000000	100.804690 
2626.000000	100.805066 
2625.000000	100.805492 
2624.000000	100.805944 
2623.000000	100.806435 
2622.000000	100.806812 
2621.000000	100.806852 
2620.000000	100.806597 
2619.000000	100.806336 
2618.000000	100.806187 
2617.000000	100.805941 
2616.000000	100.805445 
2615.000000	100.804933 
2614.000000	100.804804 
2613.000000	100.805174 
2612.000000	100.805814 
2611.000000	100.806452 
2610.000000	100.806981 
2609.000000	100.807428 
2608.000000	100.807882 
2607.000000	100.808460 
2606.000000	100.809236 
2605.000000	100.810138 
2604.000000	100.810926 
2603.000000	100.811254 
2602.000000	100.810856 
2601.000000	100.809822 
2600.000000	100.808688 
2599.000000	100.808122 
2598.000000	100.808397 
2597.000000	100.809176 
2596.000000	100.809776 
2595.000000	100.809661 
2594.000000	100.808752 
2593.000000	100.807356 
2592.000000	100.806041 
2591.000000	100.805337 
2590.000000	100.805396 
2589.000000	100.805921 
2588.000000	100.806408 
2587.000000	100.806517 
2586.000000	100.806158 
2585.000000	100.805325 
2584.000000	100.804080 
2583.000000	100.802700 
2582.000000	100.801635 
2581.000000	100.801131 
2580.000000	100.801014 
2579.000000	100.800888 
2578.000000	100.800520 
2577.000000	100.799994 
2576.000000	100.799523 
2575.000000	100.799253 
2574.000000	100.799186 
2573.000000	100.799198 
2572.000000	100.799102 
2571.000000	100.798784 
2570.000000	100.798281 
2569.000000	100.797742 
2568.000000	100.797316 
2567.000000	100.797068 
2566.000000	100.796980 
2565.000000	100.796962 
2564.000000	100.796883 
2563.000000	100.796664 
2562.000000	100.796331 
2561.000000	100.795980 
2560.000000	100.795698 
2559.000000	100.795514 
2558.000000	100.795400 
2557.000000	100.795282 
2556.000000	100.795072 
2555.000000	100.794761 
2554.000000	100.794482 
2553.000000	100.794397 
2552.000000	100.794544 
2551.000000	100.794782 
2550.000000	100.794898 
2549.000000	100.794831 
2548.000000	100.794667 
2547.000000	100.794452 
2546.000000	100.794124 
2545.000000	100.793696 
2544.000000	100.793337 
2543.000000	100.793220 
2542.000000	100.793361 
2541.000000	100.793628 
2540.000000	100.793842 
2539.000000	100.793859 
2538.000000	100.793622 
2537.000000	100.793155 
2536.000000	100.792476 
2535.000000	100.791577 
2534.000000	100.790590 
2533.000000	100.789903 
2532.000000	100.789857 
2531.000000	100.790342 
2530.000000	100.790911 
2529.000000	100.791367 
2528.000000	100.791864 
2527.000000	100.792428 
2526.000000	100.792784 
2525.000000	100.792813 
2524.000000	100.792819 
2523.000000	100.793097 
2522.000000	100.793497 
2521.000000	100.793654 
2520.000000	100.793460 
2519.000000	100.793092 
2518.000000	100.792707 
2517.000000	100.792330 
2516.000000	100.791939 
2515.000000	100.791525 
2514.000000	100.791101 
2513.000000	100.790698 
2512.000000	100.790252 
2511.000000	100.789561 
2510.000000	100.788615 
2509.000000	100.787915 
2508.000000	100.788102 
2507.000000	100.789231 
2506.000000	100.790502 
2505.000000	100.790998 
2504.000000	100.790513 
2503.000000	100.789571 
2502.000000	100.788901 
2501.000000	100.788923 
2500.000000	100.789648 
2499.000000	100.790837 
2498.000000	100.792188 
2497.000000	100.793411 
2496.000000	100.794234 
2495.000000	100.794494 
2494.000000	100.794211 
2493.000000	100.793588 
2492.000000	100.792884 
2491.000000	100.792303 
2490.000000	100.791972 
2489.000000	100.791903 
2488.000000	100.791956 
2487.000000	100.791932 
2486.000000	100.791761 
2485.000000	100.791570 
2484.000000	100.791506 
2483.000000	100.791558 
2482.000000	100.791608 
2481.000000	100.791559 
2480.000000	100.791420 
2479.000000	100.791249 
2478.000000	100.791098 
2477.000000	100.790975 
2476.000000	100.790863 
2475.000000	100.790749 
2474.000000	100.790625 
2473.000000	100.790488 
2472.000000	100.790337 
2471.000000	100.790174 
2470.000000	100.789999 
2469.000000	100.789808 
2468.000000	100.789597 
2467.000000	100.789363 
2466.000000	100.789113 
2465.000000	100.788853 
2464.000000	100.788590 
2463.000000	100.788323 
2462.000000	100.788044 
2461.000000	100.787747 
2460.000000	100.787425 
2459.000000	100.787080 
2458.000000	100.786715 
2457.000000	100.786335 
2456.000000	100.785940 
2455.000000	100.785528 
2454.000000	100.785099 
2453.000000	100.784661 
2452.000000	100.784226 
2451.000000	100.783805 
2450.000000	100.783397 
2449.000000	100.782996 
2448.000000	100.782595 
2447.000000	100.782188 
2446.000000	100.781777 
2445.000000	100.781369 
2444.000000	100.780967 
2443.000000	100.780577 
2442.000000	100.780201 
2441.000000	100.779820 
2440.000000	100.779402 
2439.000000	100.778927 
2438.000000	100.778402 
2437.000000	100.777855 
2436.000000	100.777318 
2435.000000	100.776790 
2434.000000	100.776213 
2433.000000	100.775529 
2432.000000	100.774775 
2431.000000	100.774108 
2430.000000	100.773659 
2429.000000	100.773419 
2428.000000	100.773250 
2427.000000	100.773043 
2426.000000	100.772812 
2425.000000	100.772570 
2424.000000	100.772197 
2423.000000	100.771523 
2422.000000	100.770562 
2421.000000	100.769595 
2420.000000	100.768904 
2419.000000	100.768504 
2418.000000	100.768247 
2417.000000	100.768057 
2416.000000	100.767943 
2415.000000	100.767803 
2414.000000	100.767430 
2413.000000	100.766766 
2412.000000	100.766027 
2411.000000	100.765470 
2410.000000	100.765135 
2409.000000	100.764888 
2408.000000	100.764634 
2407.000000	100.764419 
2406.000000	100.764340 
2405.000000	100.764420 
2404.000000	100.764552 
2403.000000	100.764548 
2402.000000	100.764296 
2401.000000	100.763873 
2400.000000	100.763455 
2399.000000	100.763130 
2398.000000	100.762879 
2397.000000	100.762694 
2396.000000	100.762625 
2395.000000	100.762710 
2394.000000	100.762914 
2393.000000	100.763158 
2392.000000	100.763375 
2391.000000	100.763548 
2390.000000	100.763705 
2389.000000	100.763881 
2388.000000	100.764077 
2387.000000	100.764257 
2386.000000	100.764401 
2385.000000	100.764533 
2384.000000	100.764691 
2383.000000	100.764896 
2382.000000	100.765146 
2381.000000	100.765433 
2380.000000	100.765750 
2379.000000	100.766083 
2378.000000	100.766420 
2377.000000	100.766758 
2376.000000	100.767111 
2375.000000	100.767498 
2374.000000	100.767923 
2373.000000	100.768376 
2372.000000	100.768845 
2371.000000	100.769320 
2370.000000	100.769793 
2369.000000	100.770255 
2368.000000	100.770698 
2367.000000	100.771119 
2366.000000	100.771525 
2365.000000	100.771931 
2364.000000	100.772354 
2363.000000	100.772805 
2362.000000	100.773287 
2361.000000	100.773790 
2360.000000	100.774305 
2359.000000	100.774823 
2358.000000	100.775340 
2357.000000	100.775856 
2356.000000	100.776369 
2355.000000	100.776879 
2354.000000	100.777384 
2353.000000	100.777882 
2352.000000	100.778371 
2351.000000	100.778851 
2350.000000	100.779327 
2349.000000	100.779802 
2348.000000	100.780277 
2347.000000	100.780760 
2346.000000	100.781261 
2345.000000	100.781775 
2344.000000	100.782276 
2343.000000	100.782761 
2342.000000	100.783242 
2341.000000	100.783734 
2340.000000	100.784227 
2339.000000	100.784644 
2338.000000	100.784911 
2337.000000	100.785026 
2336.000000	100.785110 
2335.000000	100.785252 
2334.000000	100.785491 
2333.000000	100.785785 
2332.000000	100.786100 
2331.000000	100.786194 
2330.000000	100.785975 
2329.000000	100.785487 
2328.000000	100.785198 
2327.000000	100.785433 
2326.000000	100.786196 
2325.000000	100.787149 
2324.000000	100.787794 
2323.000000	100.788009 
2322.000000	100.788080 
2321.000000	100.788443 
2320.000000	100.789144 
2319.000000	100.789707 
2318.000000	100.789864 
2317.000000	100.789631 
2316.000000	100.789367 
2315.000000	100.789043 
2314.000000	100.788682 
2313.000000	100.788246 
2312.000000	100.787963 
2311.000000	100.787856 
2310.000000	100.788099 
2309.000000	100.788688 
2308.000000	100.789397 
2307.000000	100.789567 
2306.000000	100.788918 
2305.000000	100.787748 
2304.000000	100.786677 
2303.000000	100.785923 
2302.000000	100.785423 
2301.000000	100.785087 
2300.000000	100.784986 
2299.000000	100.785012 
2298.000000	100.785021 
2297.000000	100.785030 
2296.000000	100.785237 
2295.000000	100.785659 
2294.000000	100.786074 
2293.000000	100.786257 
2292.000000	100.786220 
2291.000000	100.786142 
2290.000000	100.786177 
2289.000000	100.786363 
2288.000000	100.786660 
2287.000000	100.787000 
2286.000000	100.787322 
2285.000000	100.787613 
2284.000000	100.787902 
2283.000000	100.788208 
2282.000000	100.788482 
2281.000000	100.788645 
2280.000000	100.788684 
2279.000000	100.788740 
2278.000000	100.789033 
2277.000000	100.789646 
2276.000000	100.790466 
2275.000000	100.791281 
2274.000000	100.791947 
2273.000000	100.792422 
2272.000000	100.792686 
2271.000000	100.792677 
2270.000000	100.792422 
2269.000000	100.792283 
2268.000000	100.792777 
2267.000000	100.794084 
2266.000000	100.795830 
2265.000000	100.797424 
2264.000000	100.798495 
2263.000000	100.798959 
2262.000000	100.799135 
2261.000000	100.799788 
2260.000000	100.801561 
2259.000000	100.804088 
2258.000000	100.805990 
2257.000000	100.806272 
2256.000000	100.805307 
2255.000000	100.804316 
2254.000000	100.804040 
2253.000000	100.804338 
2252.000000	100.804865 
2251.000000	100.805595 
2250.000000	100.806778 
2249.000000	100.808729 
2248.000000	100.811534 
2247.000000	100.814741 
2246.000000	100.817487 
2245.000000	100.819057 
2244.000000	100.819240 
2243.000000	100.818273 
2242.000000	100.816867 
2241.000000	100.816164 
2240.000000	100.816948 
2239.000000	100.818719 
2238.000000	100.820029 
2237.000000	100.819812 
2236.000000	100.817885 
2235.000000	100.814461 
2234.000000	100.810349 
2233.000000	100.807526 
2232.000000	100.808003 
2231.000000	100.811762 
2230.000000	100.816750 
2229.000000	100.821343 
2228.000000	100.825678 
2227.000000	100.830108 
2226.000000	100.833805 
2225.000000	100.835663 
2224.000000	100.835715 
2223.000000	100.835068 
2222.000000	100.835117 
2221.000000	100.836978 
2220.000000	100.840745 
2219.000000	100.844970 
2218.000000	100.847835 
2217.000000	100.849308 
2216.000000	100.851281 
2215.000000	100.855129 
2214.000000	100.859887 
2213.000000	100.863221 
2212.000000	100.863661 
2211.000000	100.861774 
2210.000000	100.860066 
2209.000000	100.861507 
2208.000000	100.867103 
2207.000000	100.874487 
2206.000000	100.879618 
2205.000000	100.880412 
2204.000000	100.877753 
2203.000000	100.873540 
2202.000000	100.869155 
2201.000000	100.865948 
2200.000000	100.865118 
2199.000000	100.866087 
2198.000000	100.866517 
2197.000000	100.865384 
2196.000000	100.864799 
2195.000000	100.867274 
2194.000000	100.872590 
2193.000000	100.878537 
2192.000000	100.883395 
2191.000000	100.886439 
2190.000000	100.887344 
2189.000000	100.886796 
2188.000000	100.886744 
2187.000000	100.888461 
2186.000000	100.891198 
2185.000000	100.893821 
2184.000000	100.896533 
2183.000000	100.899620 
2182.000000	100.901995 
2181.000000	100.902956 
2180.000000	100.903983 
2179.000000	100.906504 
2178.000000	100.908931 
2177.000000	100.908257 
2176.000000	100.903978 
2175.000000	100.898579 
2174.000000	100.894580 
2173.000000	100.892815 
2172.000000	100.893229 
2171.000000	100.895450 
2170.000000	100.898737 
2169.000000	100.902648 
2168.000000	100.907490 
2167.000000	100.912906 
2166.000000	100.916753 
2165.000000	100.917307 
2164.000000	100.916170 
2163.000000	100.916876 
2162.000000	100.920638 
2161.000000	100.924882 
2160.000000	100.925801 
2159.000000	100.921069 
2158.000000	100.910961 
2157.000000	100.899008 
2156.000000	100.890500 
2155.000000	100.887996 
2154.000000	100.888764 
2153.000000	100.887584 
2152.000000	100.882291 
2151.000000	100.875725 
2150.000000	100.872290 
2149.000000	100.873633 
2148.000000	100.877650 
2147.000000	100.880353 
2146.000000	100.878521 
2145.000000	100.871631 
2144.000000	100.862315 
2143.000000	100.854542 
2142.000000	100.850352 
2141.000000	100.848554 
2140.000000	100.846726 
2139.000000	100.843946 
2138.000000	100.840815 
2137.000000	100.837175 
2136.000000	100.831421 
2135.000000	100.822999 
2134.000000	100.814627 
2133.000000	100.810193 
2132.000000	100.810251 
2131.000000	100.810956 
2130.000000	100.808031 
2129.000000	100.801223 
2128.000000	100.794026 
2127.000000	100.789520 
2126.000000	100.787610 
2125.000000	100.786402 
2124.000000	100.785188 
2123.000000	100.785163 
2122.000000	100.787281 
2121.000000	100.790317 
2120.000000	100.791699 
2119.000000	100.790227 
2118.000000	100.787384 
2117.000000	100.785604 
2116.000000	100.785627 
2115.000000	100.786212 
2114.000000	100.786384 
2113.000000	100.786782 
2112.000000	100.788136 
2111.000000	100.789390 
2110.000000	100.788567 
2109.000000	100.785186 
2108.000000	100.780831 
2107.000000	100.777360 
2106.000000	100.775296 
2105.000000	100.773804 
2104.000000	100.771663 
2103.000000	100.768488 
2102.000000	100.765610 
2101.000000	100.765327 
2100.000000	100.768530 
2099.000000	100.773383 
2098.000000	100.777171 
2097.000000	100.779230 
2096.000000	100.780790 
2095.000000	100.782165 
2094.000000	100.781659 
2093.000000	100.777859 
2092.000000	100.772172 
2091.000000	100.768351 
2090.000000	100.769299 
2089.000000	100.774463 
2088.000000	100.780134 
2087.000000	100.782886 
2086.000000	100.782967 
2085.000000	100.783456 
2084.000000	100.786144 
2083.000000	100.789514 
2082.000000	100.791366 
2081.000000	100.792168 
2080.000000	100.794287 
2079.000000	100.798707 
2078.000000	100.804249 
2077.000000	100.809782 
2076.000000	100.815480 
2075.000000	100.821369 
2074.000000	100.826227 
2073.000000	100.828831 
2072.000000	100.829444 
2071.000000	100.829250 
2070.000000	100.828903 
2069.000000	100.828302 
2068.000000	100.827433 
2067.000000	100.826896 
2066.000000	100.827671 
2065.000000	100.830366 
2064.000000	100.834630 
2063.000000	100.839327 
2062.000000	100.843717 
2061.000000	100.848047 
2060.000000	100.852687 
2059.000000	100.857411 
2058.000000	100.861808 
2057.000000	100.865590 
2056.000000	100.868217 
2055.000000	100.869126 
2054.000000	100.869064 
2053.000000	100.870268 
2052.000000	100.874232 
2051.000000	100.879906 
2050.000000	100.884694 
2049.000000	100.887112 
2048.000000	100.887658 
2047.000000	100.887614 
2046.000000	100.887884 
2045.000000	100.888938 
2044.000000	100.890890 
2043.000000	100.893337 
2042.000000	100.895831 
2041.000000	100.898397 
2040.000000	100.901135 
2039.000000	100.903640 
2038.000000	100.905486 
2037.000000	100.906915 
2036.000000	100.908289 
2035.000000	100.909213 
2034.000000	100.909096 
2033.000000	100.908223 
2032.000000	100.907480 
2031.000000	100.907333 
2030.000000	100.907750 
2029.000000	100.908673 
2028.000000	100.909976 
2027.000000	100.911257 
2026.000000	100.912184 
2025.000000	100.912892 
2024.000000	100.913691 
2023.000000	100.914542 
2022.000000	100.915118 
2021.000000	100.915301 
2020.000000	100.915266 
2019.000000	100.915276 
2018.000000	100.915470 
2017.000000	100.915816 
2016.000000	100.916192 
2015.000000	100.916468 
2014.000000	100.916622 
2013.000000	100.916727 
2012.000000	100.916862 
2011.000000	100.917035 
2010.000000	100.917220 
2009.000000	100.917420 
2008.000000	100.917651 
2007.000000	100.917883 
2006.000000	100.918036 
2005.000000	100.918071 
2004.000000	100.918016 
2003.000000	100.917951 
2002.000000	100.917920 
2001.000000	100.917918 
2000.000000	100.917892 
1999.000000	100.917783 
1998.000000	100.917563 
1997.000000	100.917275 
1996.000000	100.917032 
1995.000000	100.916919 
1994.000000	100.916940 
1993.000000	100.917035 
1992.000000	100.917118 
1991.000000	100.917101 
1990.000000	100.916912 
1989.000000	100.916563 
1988.000000	100.916169 
1987.000000	100.915798 
1986.000000	100.915357 
1985.000000	100.914690 
1984.000000	100.913797 
1983.000000	100.912895 
1982.000000	100.912270 
1981.000000	100.912038 
1980.000000	100.911934 
1979.000000	100.911406 
1978.000000	100.910134 
1977.000000	100.908429 
1976.000000	100.906794 
1975.000000	100.905152 
1974.000000	100.903170 
1973.000000	100.901143 
1972.000000	100.899916 
1971.000000	100.899798 
1970.000000	100.899875 
1969.000000	100.898826 
1968.000000	100.896289 
1967.000000	100.893098 
1966.000000	100.890336 
1965.000000	100.888237 
1964.000000	100.886324 
1963.000000	100.884156 
1962.000000	100.881722 
1961.000000	100.879229 
1960.000000	100.876718 
1959.000000	100.874138 
1958.000000	100.871686 
1957.000000	100.869653 
1956.000000	100.867869 
1955.000000	100.865721 
1954.000000	100.862991 
1953.000000	100.860150 
1952.000000	100.857570 
1951.000000	100.854866 
1950.000000	100.851582 
1949.000000	100.848274 
1948.000000	100.845948 
1947.000000	100.844488 
1946.000000	100.842521 
1945.000000	100.839005 
1944.000000	100.834458 
1943.000000	100.830570 
1942.000000	100.828663 
1941.000000	100.828566 
1940.000000	100.828725 
1939.000000	100.827673 
1938.000000	100.825601 
1937.000000	100.823978 
1936.000000	100.823564 
1935.000000	100.823345 
1934.000000	100.821979 
1933.000000	100.819622 
1932.000000	100.817748 
1931.000000	100.817188 
1930.000000	100.817109 
1929.000000	100.816270 
1928.000000	100.814286 
1927.000000	100.811586 
1926.000000	100.808687 
1925.000000	100.806139 
1924.000000	100.804482 
1923.000000	100.803671 
1922.000000	100.803108 
1921.000000	100.802370 
1920.000000	100.801295 
1919.000000	100.799585 
1918.000000	100.796917 
1917.000000	100.793831 
1916.000000	100.791494 
1915.000000	100.790162 
1914.000000	100.789296 
1913.000000	100.788750 
1912.000000	100.788866 
1911.000000	100.789343 
1910.000000	100.789150 
1909.000000	100.788082 
1908.000000	100.787047 
1907.000000	100.786854 
1906.000000	100.787265 
1905.000000	100.787678 
1904.000000	100.787860 
1903.000000	100.787351 
1902.000000	100.785741 
1901.000000	100.783818 
1900.000000	100.782804 
1899.000000	100.782798 
1898.000000	100.782835 
1897.000000	100.782599 
1896.000000	100.782808 
1895.000000	100.783269 
1894.000000	100.782461 
1893.000000	100.779844 
1892.000000	100.776934 
1891.000000	100.775503 
1890.000000	100.775672 
1889.000000	100.776373 
1888.000000	100.776941 
1887.000000	100.777315 
1886.000000	100.777819 
1885.000000	100.779208 
1884.000000	100.781891 
1883.000000	100.784833 
1882.000000	100.786419 
1881.000000	100.786527 
1880.000000	100.786346 
1879.000000	100.786696 
1878.000000	100.787543 
1877.000000	100.788773 
1876.000000	100.790469 
1875.000000	100.791986 
1874.000000	100.791936 
1873.000000	100.789833 
1872.000000	100.786722 
1871.000000	100.784034 
1870.000000	100.782485 
1869.000000	100.782058 
1868.000000	100.782470 
1867.000000	100.783223 
1866.000000	100.783762 
1865.000000	100.784012 
1864.000000	100.784052 
1863.000000	100.783482 
1862.000000	100.782028 
1861.000000	100.780635 
1860.000000	100.780717 
1859.000000	100.782330 
1858.000000	100.784040 
1857.000000	100.784697 
1856.000000	100.784541 
1855.000000	100.784353 
1854.000000	100.784386 
1853.000000	100.784600 
1852.000000	100.784714 
1851.000000	100.784375 
1850.000000	100.783793 
1849.000000	100.783702 
1848.000000	100.784518 
1847.000000	100.785638 
1846.000000	100.786198 
1845.000000	100.786214 
1844.000000	100.786324 
1843.000000	100.786731 
1842.000000	100.786955 
1841.000000	100.786577 
1840.000000	100.785602 
1839.000000	100.784323 
1838.000000	100.783004 
1837.000000	100.782026 
1836.000000	100.781773 
1835.000000	100.782002 
1834.000000	100.782110 
1833.000000	100.781887 
1832.000000	100.781359 
1831.000000	100.780672 
1830.000000	100.780098 
1829.000000	100.780106 
1828.000000	100.781145 
1827.000000	100.782618 
1826.000000	100.783343 
1825.000000	100.782807 
1824.000000	100.781645 
1823.000000	100.780553 
1822.000000	100.779136 
1821.000000	100.777111 
1820.000000	100.775495 
1819.000000	100.775517 
1818.000000	100.776557 
1817.000000	100.776968 
1816.000000	100.776679 
1815.000000	100.776693 
1814.000000	100.777467 
1813.000000	100.778704 
1812.000000	100.780547 
1811.000000	100.783404 
1810.000000	100.786271 
1809.000000	100.787863 
1808.000000	100.788252 
1807.000000	100.787764 
1806.000000	100.786139 
1805.000000	100.783664 
1804.000000	100.781780 
1803.000000	100.781005 
1802.000000	100.780445 
1801.000000	100.779210 
1800.000000	100.778052 
1799.000000	100.778247 
1798.000000	100.779599 
1797.000000	100.781495 
1796.000000	100.783837 
1795.000000	100.786011 
1794.000000	100.787090 
1793.000000	100.786948 
1792.000000	100.786754 
1791.000000	100.787595 
1790.000000	100.788757 
1789.000000	100.789166 
1788.000000	100.789036 
1787.000000	100.789073 
1786.000000	100.789341 
1785.000000	100.789647 
1784.000000	100.790220 
1783.000000	100.790645 
1782.000000	100.790522 
1781.000000	100.790033 
1780.000000	100.789669 
1779.000000	100.789742 
1778.000000	100.789989 
1777.000000	100.790421 
1776.000000	100.791145 
1775.000000	100.791891 
1774.000000	100.792458 
1773.000000	100.792991 
1772.000000	100.793578 
1771.000000	100.794414 
1770.000000	100.795291 
1769.000000	100.795630 
1768.000000	100.795471 
1767.000000	100.795362 
1766.000000	100.795612 
1765.000000	100.795951 
1764.000000	100.796139 
1763.000000	100.796306 
1762.000000	100.796699 
1761.000000	100.797241 
1760.000000	100.797815 
1759.000000	100.798366 
1758.000000	100.798900 
1757.000000	100.799505 
1756.000000	100.800130 
1755.000000	100.800709 
1754.000000	100.801155 
1753.000000	100.801398 
1752.000000	100.801480 
1751.000000	100.801606 
1750.000000	100.801899 
1749.000000	100.802295 
1748.000000	100.802713 
1747.000000	100.803152 
1746.000000	100.803676 
1745.000000	100.804195 
1744.000000	100.804588 
1743.000000	100.804923 
1742.000000	100.805318 
1741.000000	100.805733 
1740.000000	100.806107 
1739.000000	100.806477 
1738.000000	100.806894 
1737.000000	100.807276 
1736.000000	100.807564 
1735.000000	100.807810 
1734.000000	100.808045 
1733.000000	100.808287 
1732.000000	100.808534 
1731.000000	100.808764 
1730.000000	100.808981 
1729.000000	100.809194 
1728.000000	100.809408 
1727.000000	100.809629 
1726.000000	100.809859 
1725.000000	100.810096 
1724.000000	100.810336 
1723.000000	100.810577 
1722.000000	100.810819 
1721.000000	100.811063 
1720.000000	100.811311 
1719.000000	100.811566 
1718.000000	100.811821 
1717.000000	100.812061 
1716.000000	100.812280 
1715.000000	100.812480 
1714.000000	100.812664 
1713.000000	100.812834 
1712.000000	100.812995 
1711.000000	100.813152 
1710.000000	100.813304 
1709.000000	100.813452 
1708.000000	100.813595 
1707.000000	100.813730 
1706.000000	100.813857 
1705.000000	100.813974 
1704.000000	100.814089 
1703.000000	100.814206 
1702.000000	100.814329 
1701.000000	100.814464 
1700.000000	100.814618 
1699.000000	100.814795 
1698.000000	100.814981 
1697.000000	100.815156 
1696.000000	100.815314 
1695.000000	100.815462 
1694.000000	100.815608 
1693.000000	100.815762 
1692.000000	100.815931 
1691.000000	100.816121 
1690.000000	100.816331 
1689.000000	100.816561 
1688.000000	100.816808 
1687.000000	100.817064 
1686.000000	100.817325 
1685.000000	100.817589 
1684.000000	100.817852 
1683.000000	100.818110 
1682.000000	100.818365 
1681.000000	100.818616 
1680.000000	100.818862 
1679.000000	100.819100 
1678.000000	100.819333 
1677.000000	100.819561 
1676.000000	100.819789 
1675.000000	100.820026 
1674.000000	100.820285 
1673.000000	100.820567 
1672.000000	100.820862 
1671.000000	100.821164 
1670.000000	100.821468 
1669.000000	100.821775 
1668.000000	100.822086 
1667.000000	100.822402 
1666.000000	100.822720 
1665.000000	100.823042 
1664.000000	100.823369 
1663.000000	100.823704 
1662.000000	100.824046 
1661.000000	100.824390 
1660.000000	100.824727 
1659.000000	100.825051 
1658.000000	100.825362 
1657.000000	100.825661 
1656.000000	100.825951 
1655.000000	100.826243 
1654.000000	100.826552 
1653.000000	100.826875 
1652.000000	100.827206 
1651.000000	100.827547 
1650.000000	100.827886 
1649.000000	100.828215 
1648.000000	100.828528 
1647.000000	100.828826 
1646.000000	100.829109 
1645.000000	100.829381 
1644.000000	100.829646 
1643.000000	100.829903 
1642.000000	100.830153 
1641.000000	100.830398 
1640.000000	100.830641 
1639.000000	100.830888 
1638.000000	100.831142 
1637.000000	100.831409 
1636.000000	100.831686 
1635.000000	100.831969 
1634.000000	100.832251 
1633.000000	100.832529 
1632.000000	100.832795 
1631.000000	100.833050 
1630.000000	100.833302 
1629.000000	100.833565 
1628.000000	100.833851 
1627.000000	100.834162 
1626.000000	100.834494 
1625.000000	100.834842 
1624.000000	100.835205 
1623.000000	100.835582 
1622.000000	100.835974 
1621.000000	100.836380 
1620.000000	100.836804 
1619.000000	100.837229 
1618.000000	100.837637 
1617.000000	100.838070 
1616.000000	100.838582 
1615.000000	100.839170 
1614.000000	100.839783 
1613.000000	100.840367 
1612.000000	100.840900 
1611.000000	100.841324 
1610.000000	100.841636 
1609.000000	100.841958 
1608.000000	100.842343 
1607.000000	100.842653 
1606.000000	100.842942 
1605.000000	100.843433 
1604.000000	100.844017 
1603.000000	100.844468 
1602.000000	100.844901 
1601.000000	100.845614 
1600.000000	100.846529 
1599.000000	100.847286 
1598.000000	100.847839 
1597.000000	100.848403 
1596.000000	100.849026 
1595.000000	100.849538 
1594.000000	100.849907 
1593.000000	100.850344 
1592.000000	100.850967 
1591.000000	100.851661 
1590.000000	100.852364 
1589.000000	100.853197 
1588.000000	100.854154 
1587.000000	100.855059 
1586.000000	100.855775 
1585.000000	100.856384 
1584.000000	100.856884 
1583.000000	100.857217 
1582.000000	100.857511 
1581.000000	100.857902 
1580.000000	100.858329 
1579.000000	100.858756 
1578.000000	100.859201 
1577.000000	100.859650 
1576.000000	100.860096 
1575.000000	100.860537 
1574.000000	100.860973 
1573.000000	100.861406 
1572.000000	100.861834 
1571.000000	100.862259 
1570.000000	100.862682 
1569.000000	100.863103 
1568.000000	100.863519 
1567.000000	100.863922 
1566.000000	100.864315 
1565.000000	100.864706 
1564.000000	100.865102 
1563.000000	100.865504 
1562.000000	100.865908 
1561.000000	100.866316 
1560.000000	100.866730 
1559.000000	100.867137 
1558.000000	100.867528 
1557.000000	100.867911 
1556.000000	100.868284 
1555.000000	100.868636 
1554.000000	100.868964 
1553.000000	100.869270 
1552.000000	100.869560 
1551.000000	100.869833 
1550.000000	100.870095 
1549.000000	100.870351 
1548.000000	100.870602 
1547.000000	100.870844 
1546.000000	100.871076 
1545.000000	100.871308 
1544.000000	100.871558 
1543.000000	100.871835 
1542.000000	100.872136 
1541.000000	100.872448 
1540.000000	100.872750 
1539.000000	100.873030 
1538.000000	100.873290 
1537.000000	100.873532 
1536.000000	100.873754 
1535.000000	100.873953 
1534.000000	100.874127 
1533.000000	100.874278 
1532.000000	100.874407 
1531.000000	100.874513 
1530.000000	100.874595 
1529.000000	100.874652 
1528.000000	100.874690 
1527.000000	100.874707 
1526.000000	100.874705 
1525.000000	100.874704 
1524.000000	100.874733 
1523.000000	100.874810 
1522.000000	100.874887 
1521.000000	100.874825 
1520.000000	100.874596 
1519.000000	100.874275 
1518.000000	100.873796 
1517.000000	100.873144 
1516.000000	100.872563 
1515.000000	100.872309 
1514.000000	100.872268 
1513.000000	100.872073 
1512.000000	100.871714 
1511.000000	100.871518 
1510.000000	100.871437 
1509.000000	100.871137 
1508.000000	100.871002 
1507.000000	100.871667 
1506.000000	100.871809 
1505.000000	100.871314 
1504.000000	100.871132 
1503.000000	100.871318 
1502.000000	100.871594 
1501.000000	100.871592 
1500.000000	100.871179 
1499.000000	100.870816 
1498.000000	100.870654 
1497.000000	100.869328 
1496.000000	100.866565 
1495.000000	100.864200 
1494.000000	100.863219 
1493.000000	100.862890 
1492.000000	100.862498 
1491.000000	100.861969 
1490.000000	100.861112 
1489.000000	100.859664 
1488.000000	100.858425 
1487.000000	100.857977 
1486.000000	100.857499 
1485.000000	100.856766 
1484.000000	100.856063 
1483.000000	100.855479 
1482.000000	100.855062 
1481.000000	100.854842 
1480.000000	100.854877 
1479.000000	100.854798 
1478.000000	100.854073 
1477.000000	100.852740 
1476.000000	100.851833 
1475.000000	100.851957 
1474.000000	100.852603 
1473.000000	100.852777 
1472.000000	100.852152 
1471.000000	100.851761 
1470.000000	100.851940 
1469.000000	100.851831 
1468.000000	100.851121 
1467.000000	100.850210 
1466.000000	100.849531 
1465.000000	100.849325 
1464.000000	100.849467 
1463.000000	100.850209 
1462.000000	100.851066 
1461.000000	100.851128 
1460.000000	100.850215 
1459.000000	100.849187 
1458.000000	100.848295 
1457.000000	100.844848 
1456.000000	100.839059 
1455.000000	100.835897 
1454.000000	100.836045 
1453.000000	100.836499 
1452.000000	100.835613 
1451.000000	100.833981 
1450.000000	100.832367 
1449.000000	100.829995 
1448.000000	100.827490 
1447.000000	100.826705 
1446.000000	100.828510 
1445.000000	100.831019 
1444.000000	100.831732 
1443.000000	100.831694 
1442.000000	100.832732 
1441.000000	100.834228 
1440.000000	100.834130 
1439.000000	100.832863 
1438.000000	100.832429 
1437.000000	100.832188 
1436.000000	100.830099 
1435.000000	100.828777 
1434.000000	100.829553 
1433.000000	100.829000 
1432.000000	100.825353 
1431.000000	100.820996 
1430.000000	100.818826 
1429.000000	100.817887 
1428.000000	100.816640 
1427.000000	100.814932 
1426.000000	100.813414 
1425.000000	100.812079 
1424.000000	100.809777 
1423.000000	100.807451 
1422.000000	100.805752 
1421.000000	100.802288 
1420.000000	100.794520 
1419.000000	100.784948 
1418.000000	100.778842 
1417.000000	100.775864 
1416.000000	100.771855 
1415.000000	100.766055 
1414.000000	100.760708 
1413.000000	100.756601 
1412.000000	100.752691 
1411.000000	100.749332 
1410.000000	100.747620 
1409.000000	100.746141 
1408.000000	100.743336 
1407.000000	100.740069 
1406.000000	100.738515 
1405.000000	100.739200 
1404.000000	100.740712 
1403.000000	100.743317 
1402.000000	100.747880 
1401.000000	100.753272 
1400.000000	100.757335 
1399.000000	100.759107 
1398.000000	100.758673 
1397.000000	100.754766 
1396.000000	100.746091 
1395.000000	100.735786 
1394.000000	100.731511 
1393.000000	100.736937 
1392.000000	100.748100 
1391.000000	100.758963 
1390.000000	100.766491 
1389.000000	100.770354 
1388.000000	100.771185 
1387.000000	100.770138 
1386.000000	100.768981 
1385.000000	100.768796 
1384.000000	100.768929 
1383.000000	100.768676 
1382.000000	100.768282 
1381.000000	100.768442 
1380.000000	100.769755 
1379.000000	100.772428 
1378.000000	100.776359 
1377.000000	100.781032 
1376.000000	100.785715 
1375.000000	100.789929 
1374.000000	100.794170 
1373.000000	100.799317 
1372.000000	100.805415 
1371.000000	100.811277 
1370.000000	100.815949 
1369.000000	100.819600 
1368.000000	100.822586 
1367.000000	100.825235 
1366.000000	100.827915 
1365.000000	100.830926 
1364.000000	100.834548 
1363.000000	100.838746 
1362.000000	100.842803 
1361.000000	100.845944 
1360.000000	100.848183 
1359.000000	100.850423 
1358.000000	100.854067 
1357.000000	100.859746 
1356.000000	100.866286 
1355.000000	100.871709 
1354.000000	100.875429 
1353.000000	100.878385 
1352.000000	100.881847 
1351.000000	100.885133 
1350.000000	100.886849 
1349.000000	100.887657 
1348.000000	100.888730 
1347.000000	100.890235 
1346.000000	100.891565 
1345.000000	100.892525 
1344.000000	100.893370 
1343.000000	100.894036 
1342.000000	100.894261 
1341.000000	100.894419 
1340.000000	100.895301 
1339.000000	100.897045 
1338.000000	100.899145 
1337.000000	100.901220 
1336.000000	100.903240 
1335.000000	100.905038 
1334.000000	100.905971 
1333.000000	100.905565 
1332.000000	100.904466 
1331.000000	100.904017 
1330.000000	100.904869 
1329.000000	100.906279 
1328.000000	100.907146 
1327.000000	100.907101 
1326.000000	100.906750 
1325.000000	100.906891 
1324.000000	100.907626 
1323.000000	100.908813 
1322.000000	100.910551 
1321.000000	100.912892 
1320.000000	100.915552 
1319.000000	100.918125 
1318.000000	100.920072 
1317.000000	100.920548 
1316.000000	100.918981 
1315.000000	100.916074 
1314.000000	100.913582 
1313.000000	100.912549 
1312.000000	100.912494 
1311.000000	100.912583 
1310.000000	100.912847 
1309.000000	100.913595 
1308.000000	100.914540 
1307.000000	100.914854 
1306.000000	100.914152 
1305.000000	100.912964 
1304.000000	100.912204 
1303.000000	100.912623 
1302.000000	100.914251 
1301.000000	100.916163 
1300.000000	100.917176 
1299.000000	100.917121 
1298.000000	100.917000 
1297.000000	100.917723 
1296.000000	100.919102 
1295.000000	100.920226 
1294.000000	100.920375 
1293.000000	100.919238 
1292.000000	100.916828 
1291.000000	100.913655 
1290.000000	100.910613 
1289.000000	100.908422 
1288.000000	100.907363 
1287.000000	100.907407 
1286.000000	100.908097 
1285.000000	100.908399 
1284.000000	100.907299 
1283.000000	100.904816 
1282.000000	100.901865 
1281.000000	100.899189 
1280.000000	100.897083 
1279.000000	100.895818 
1278.000000	100.895375 
1277.000000	100.894838 
1276.000000	100.893019 
1275.000000	100.889785 
1274.000000	100.886124 
1273.000000	100.882841 
1272.000000	100.879929 
1271.000000	100.877330 
1270.000000	100.875340 
1269.000000	100.873882 
1268.000000	100.872050 
1267.000000	100.868951 
1266.000000	100.864584 
1265.000000	100.859622 
1264.000000	100.854847 
1263.000000	100.850931 
1262.000000	100.848142 
1261.000000	100.846141 
1260.000000	100.844410 
1259.000000	100.842878 
1258.000000	100.841680 
1257.000000	100.840483 
1256.000000	100.838963 
1255.000000	100.837783 
1254.000000	100.838011 
1253.000000	100.839471 
1252.000000	100.840716 
1251.000000	100.840912 
1250.000000	100.840813 
1249.000000	100.841462 
1248.000000	100.842839 
1247.000000	100.844316 
1246.000000	100.845435 
1245.000000	100.845481 
1244.000000	100.843308 
1243.000000	100.838820 
1242.000000	100.834281 
1241.000000	100.832750 
1240.000000	100.835048 
1239.000000	100.838975 
1238.000000	100.841462 
1237.000000	100.841345 
1236.000000	100.839575 
1235.000000	100.837541 
1234.000000	100.835742 
1233.000000	100.833814 
1232.000000	100.831260 
1231.000000	100.828030 
1230.000000	100.824725 
1229.000000	100.822404 
1228.000000	100.822004 
1227.000000	100.823534 
1226.000000	100.825699 
1225.000000	100.826741 
1224.000000	100.826115 
1223.000000	100.825134 
1222.000000	100.825525 
1221.000000	100.827534 
1220.000000	100.830034 
1219.000000	100.832301 
1218.000000	100.834671 
1217.000000	100.837126 
1216.000000	100.838358 
1215.000000	100.837164 
1214.000000	100.834049 
1213.000000	100.830444 
1212.000000	100.826870 
1211.000000	100.823082 
1210.000000	100.819685 
1209.000000	100.818121 
1208.000000	100.818697 
1207.000000	100.819761 
1206.000000	100.819472 
1205.000000	100.817633 
1204.000000	100.815091 
1203.000000	100.812078 
1202.000000	100.808268 
1201.000000	100.804200 
1200.000000	100.801374 
1199.000000	100.800421 
1198.000000	100.800005 
1197.000000	100.798201 
1196.000000	100.794410 
1195.000000	100.789334 
1194.000000	100.783775 
1193.000000	100.778058 
1192.000000	100.772497 
1191.000000	100.767614 
1190.000000	100.763413 
1189.000000	100.759075 
1188.000000	100.753893 
1187.000000	100.748288 
1186.000000	100.743520 
1185.000000	100.740449 
1184.000000	100.738713 
1183.000000	100.736937 
1182.000000	100.733737 
1181.000000	100.728849 
1180.000000	100.723333 
1179.000000	100.718457 
1178.000000	100.714474 
1177.000000	100.710801 
1176.000000	100.707076 
1175.000000	100.703200 
1174.000000	100.698404 
1173.000000	100.691470 
1172.000000	100.682421 
1171.000000	100.673168 
1170.000000	100.665709 
1169.000000	100.660196 
1168.000000	100.655399 
1167.000000	100.650472 
1166.000000	100.645569 
1165.000000	100.641204 
1164.000000	100.637966 
1163.000000	100.636656 
1162.000000	100.637753 
1161.000000	100.640748 
1160.000000	100.644497 
1159.000000	100.648040 
1158.000000	100.650444 
1157.000000	100.650077 
1156.000000	100.645110 
1155.000000	100.635398 
1154.000000	100.623712 
1153.000000	100.614459 
1152.000000	100.610402 
1151.000000	100.610354 
1150.000000	100.610052 
1149.000000	100.605933 
1148.000000	100.598198 
1147.000000	100.589918 
1146.000000	100.583172 
1145.000000	100.576946 
1144.000000	100.569185 
1143.000000	100.559680 
1142.000000	100.550110 
1141.000000	100.542078 
1140.000000	100.536136 
1139.000000	100.532154 
1138.000000	100.529393 
1137.000000	100.526438 
1136.000000	100.522111 
1135.000000	100.516472 
1134.000000	100.510143 
1133.000000	100.502815 
1132.000000	100.493483 
1131.000000	100.482333 
1130.000000	100.471489 
1129.000000	100.463240 
1128.000000	100.457775 
1127.000000	100.452863 
1126.000000	100.445727 
1125.000000	100.435518 
1124.000000	100.424216 
1123.000000	100.414755 
1122.000000	100.407890 
1121.000000	100.401441 
1120.000000	100.393034 
1119.000000	100.382744 
1118.000000	100.372332 
1117.000000	100.362616 
1116.000000	100.352827 
1115.000000	100.342263 
1114.000000	100.331365 
1113.000000	100.321061 
1112.000000	100.311856 
1111.000000	100.303313 
1110.000000	100.293741 
1109.000000	100.280835 
1108.000000	100.264109 
1107.000000	100.246548 
1106.000000	100.232303 
1105.000000	100.222632 
1104.000000	100.214879 
1103.000000	100.205460 
1102.000000	100.193326 
1101.000000	100.180003 
1100.000000	100.167555 
1099.000000	100.157091 
1098.000000	100.148530 
1097.000000	100.141134 
1096.000000	100.133912 
1095.000000	100.125895 
1094.000000	100.116224 
1093.000000	100.104136 
1092.000000	100.089051 
1091.000000	100.070921 
1090.000000	100.050652 
1089.000000	100.030109 
1088.000000	100.011323 
1087.000000	99.995291  
1086.000000	99.981505  
1085.000000	99.968816  
1084.000000	99.956599  
1083.000000	99.944651  
1082.000000	99.932248  
1081.000000	99.918189  
1080.000000	99.901969  
1079.000000	99.884288  
1078.000000	99.866351  
1077.000000	99.849492  
1076.000000	99.835539  
1075.000000	99.826323  
1074.000000	99.822113  
1073.000000	99.821143  
1072.000000	99.820683  
1071.000000	99.817512  
1070.000000	99.807668  
1069.000000	99.788399  
1068.000000	99.762150  
1067.000000	99.737377  
1066.000000	99.722711  
1065.000000	99.720204  
1064.000000	99.724985  
1063.000000	99.729961  
1062.000000	99.729675  
1061.000000	99.720932  
1060.000000	99.703237  
1059.000000	99.680387  
1058.000000	99.659634  
1057.000000	99.646725  
1056.000000	99.641681  
1055.000000	99.639742  
1054.000000	99.636001  
1053.000000	99.628879  
1052.000000	99.619820  
1051.000000	99.610912  
1050.000000	99.603242  
1049.000000	99.596775  
1048.000000	99.591033  
1047.000000	99.585973  
1046.000000	99.582593  
1045.000000	99.582293  
1044.000000	99.584846  
1043.000000	99.587319  
1042.000000	99.586367  
1041.000000	99.582084  
1040.000000	99.578333  
1039.000000	99.578716  
1038.000000	99.583536  
1037.000000	99.591338  
1036.000000	99.601589  
1035.000000	99.614090  
1034.000000	99.627115  
1033.000000	99.638150  
1032.000000	99.645668  
1031.000000	99.648639  
1030.000000	99.645972  
1029.000000	99.639231  
1028.000000	99.634933  
1027.000000	99.640245  
1026.000000	99.655484  
1025.000000	99.673244  
1024.000000	99.685798  
1023.000000	99.691358  
1022.000000	99.692826  
1021.000000	99.693470  
1020.000000	99.695304  
1019.000000	99.699403  
1018.000000	99.705465  
1017.000000	99.712006  
1016.000000	99.718286  
1015.000000	99.724989  
1014.000000	99.732250  
1013.000000	99.738539  
1012.000000	99.742593  
1011.000000	99.745143  
1010.000000	99.747763  
1009.000000	99.751220  
1008.000000	99.755906  
1007.000000	99.762489  
1006.000000	99.770846  
1005.000000	99.779379  
1004.000000	99.786697  
1003.000000	99.793311  
1002.000000	99.800652  
1001.000000	99.808930  
1000.000000	99.816918  
999.000000	 99.823472  
998.000000	 99.828575  
997.000000	 99.833164  
996.000000	 99.838572  
995.000000	 99.845821  
994.000000	 99.854756  
993.000000	 99.863954  
992.000000	 99.871923  
991.000000	 99.878233  
990.000000	 99.883172  
989.000000	 99.886949  
988.000000	 99.889986  
987.000000	 99.893458  
986.000000	 99.898490  
985.000000	 99.905114  
984.000000	 99.912710  
983.000000	 99.921021  
982.000000	 99.930151  
981.000000	 99.939731  
980.000000	 99.948775  
979.000000	 99.956733  
978.000000	 99.964334  
977.000000	 99.973267  
976.000000	 99.984818  
975.000000	 99.998211  
974.000000	 100.010442 
973.000000	 100.019012 
972.000000	 100.025210 
971.000000	 100.033524 
970.000000	 100.047020 
969.000000	 100.064130 
968.000000	 100.080590 
967.000000	 100.093750 
966.000000	 100.104071 
965.000000	 100.113239 
964.000000	 100.122182 
963.000000	 100.130979 
962.000000	 100.139825 
961.000000	 100.149545 
960.000000	 100.161003 
959.000000	 100.173687 
958.000000	 100.185119 
957.000000	 100.192772 
956.000000	 100.197028 
955.000000	 100.201433 
954.000000	 100.209234 
953.000000	 100.220225 
952.000000	 100.231776 
951.000000	 100.242013 
950.000000	 100.250775 
949.000000	 100.258082 
948.000000	 100.263307 
947.000000	 100.266182 
946.000000	 100.267515 
945.000000	 100.268410 
944.000000	 100.269569 
943.000000	 100.271803 
942.000000	 100.276469 
941.000000	 100.284426 
940.000000	 100.294535 
939.000000	 100.303761 
938.000000	 100.309359 
937.000000	 100.311092 
936.000000	 100.311305 
935.000000	 100.312956 
934.000000	 100.317554 
933.000000	 100.324850 
932.000000	 100.333813 
931.000000	 100.343315 
930.000000	 100.352073 
929.000000	 100.358638 
928.000000	 100.361838 
927.000000	 100.361379 
926.000000	 100.358361 
925.000000	 100.355430 
924.000000	 100.355853 
923.000000	 100.361403 
922.000000	 100.370701 
921.000000	 100.379852 
920.000000	 100.385348 
919.000000	 100.386499 
918.000000	 100.385376 
917.000000	 100.384825 
916.000000	 100.386254 
915.000000	 100.388843 
914.000000	 100.390693 
913.000000	 100.390983 
912.000000	 100.390976 
911.000000	 100.392648 
910.000000	 100.396708 
909.000000	 100.402561 
908.000000	 100.409673 
907.000000	 100.417803 
906.000000	 100.425913 
905.000000	 100.432254 
904.000000	 100.436164 
903.000000	 100.439027 
902.000000	 100.442909 
901.000000	 100.448675 
900.000000	 100.455761 
899.000000	 100.463079 
898.000000	 100.469607 
897.000000	 100.474705 
896.000000	 100.478410 
895.000000	 100.481344 
894.000000	 100.484241 
893.000000	 100.487861 
892.000000	 100.493294 
891.000000	 100.501592 
890.000000	 100.512685 
889.000000	 100.525174 
888.000000	 100.537383 
887.000000	 100.548241 
886.000000	 100.557387 
885.000000	 100.565196 
884.000000	 100.572663 
883.000000	 100.580331 
882.000000	 100.587233 
881.000000	 100.591885 
880.000000	 100.594551 
879.000000	 100.597470 
878.000000	 100.602538 
877.000000	 100.609770 
876.000000	 100.618076 
875.000000	 100.626123 
874.000000	 100.632206 
873.000000	 100.635077 
872.000000	 100.635825 
871.000000	 100.637540 
870.000000	 100.642229 
869.000000	 100.649435 
868.000000	 100.658486 
867.000000	 100.670030 
866.000000	 100.683820 
865.000000	 100.696842 
864.000000	 100.706295 
863.000000	 100.713672 
862.000000	 100.723231 
861.000000	 100.736148 
860.000000	 100.748578 
859.000000	 100.756397 
858.000000	 100.759758 
857.000000	 100.761921 
856.000000	 100.765546 
855.000000	 100.771956 
854.000000	 100.782264 
853.000000	 100.796014 
852.000000	 100.808955 
851.000000	 100.815575 
850.000000	 100.815261 
849.000000	 100.813744 
848.000000	 100.816648 
847.000000	 100.823155 
846.000000	 100.828250 
845.000000	 100.829631 
844.000000	 100.829594 
843.000000	 100.830934 
842.000000	 100.834053 
841.000000	 100.838187 
840.000000	 100.842290 
839.000000	 100.844004 
838.000000	 100.841152 
837.000000	 100.835915 
836.000000	 100.834341 
835.000000	 100.838855 
834.000000	 100.843773 
833.000000	 100.842163 
832.000000	 100.835546 
831.000000	 100.832286 
830.000000	 100.836190 
829.000000	 100.841489 
828.000000	 100.841453 
827.000000	 100.838000 
826.000000	 100.838642 
825.000000	 100.845498 
824.000000	 100.851957 
823.000000	 100.851183 
822.000000	 100.844512 
821.000000	 100.839421 
820.000000	 100.840885 
819.000000	 100.847041 
818.000000	 100.853176 
817.000000	 100.857668 
816.000000	 100.861946 
815.000000	 100.865226 
814.000000	 100.862836 
813.000000	 100.851910 
812.000000	 100.836221 
811.000000	 100.821829 
810.000000	 100.808690 
809.000000	 100.790661 
808.000000	 100.764186 
807.000000	 100.733114 
806.000000	 100.703503 
805.000000	 100.676973 
804.000000	 100.651933 
803.000000	 100.628755 
802.000000	 100.609955 
801.000000	 100.595892 
800.000000	 100.583522 
799.000000	 100.570350 
798.000000	 100.558231 
797.000000	 100.551965 
796.000000	 100.553936 
795.000000	 100.560778 
794.000000	 100.566149 
793.000000	 100.566982 
792.000000	 100.566153 
791.000000	 100.568483 
790.000000	 100.575368 
789.000000	 100.584173 
788.000000	 100.591119 
787.000000	 100.592712 
786.000000	 100.585852 
785.000000	 100.569865 
784.000000	 100.548901 
783.000000	 100.530182 
782.000000	 100.518710 
781.000000	 100.514406 
780.000000	 100.513934 
779.000000	 100.513542 
778.000000	 100.510720 
777.000000	 100.505673 
776.000000	 100.501983 
775.000000	 100.504147 
774.000000	 100.513356 
773.000000	 100.526389 
772.000000	 100.539121 
771.000000	 100.550162 
770.000000	 100.560723 
769.000000	 100.571755 
768.000000	 100.581807 
767.000000	 100.588083 
766.000000	 100.590154 
765.000000	 100.592049 
764.000000	 100.598872 
763.000000	 100.610816 
762.000000	 100.622115 
761.000000	 100.627010 
760.000000	 100.625477 
759.000000	 100.622417 
758.000000	 100.622929 
757.000000	 100.629027 
756.000000	 100.638905 
755.000000	 100.647611 
754.000000	 100.650339 
753.000000	 100.647201 
752.000000	 100.644011 
751.000000	 100.646717 
750.000000	 100.655676 
749.000000	 100.666433 
748.000000	 100.674835 
747.000000	 100.680131 
746.000000	 100.683714 
745.000000	 100.687050 
744.000000	 100.691007 
743.000000	 100.695769 
742.000000	 100.700996 
741.000000	 100.706616 
740.000000	 100.713177 
739.000000	 100.720782 
738.000000	 100.728222 
737.000000	 100.733936 
736.000000	 100.737440 
735.000000	 100.739266 
734.000000	 100.740209 
733.000000	 100.741382 
732.000000	 100.744558 
731.000000	 100.751091 
730.000000	 100.760006 
729.000000	 100.768191 
728.000000	 100.773623 
727.000000	 100.777127 
726.000000	 100.780266 
725.000000	 100.782803 
724.000000	 100.783697 
723.000000	 100.783185 
722.000000	 100.782382 
721.000000	 100.781936 
720.000000	 100.782381 
719.000000	 100.784786 
718.000000	 100.789691 
717.000000	 100.795996 
716.000000	 100.801806 
715.000000	 100.805591 
714.000000	 100.806510 
713.000000	 100.805119 
712.000000	 100.804339 
711.000000	 100.807872 
710.000000	 100.816220 
709.000000	 100.825595 
708.000000	 100.831610 
707.000000	 100.832787 
706.000000	 100.829769 
705.000000	 100.823368 
704.000000	 100.815240 
703.000000	 100.808693 
702.000000	 100.806600 
701.000000	 100.808633 
700.000000	 100.811517 
699.000000	 100.811702 
698.000000	 100.807935 
697.000000	 100.802055 
696.000000	 100.797661 
695.000000	 100.797115 
694.000000	 100.799751 
693.000000	 100.803574 
692.000000	 100.808042 
691.000000	 100.813665 
690.000000	 100.819723 
689.000000	 100.824525 
688.000000	 100.827796 
687.000000	 100.830602 
686.000000	 100.832933 
685.000000	 100.833786 
684.000000	 100.833566 
683.000000	 100.834153 
682.000000	 100.836445 
681.000000	 100.839530 
680.000000	 100.842210 
679.000000	 100.844048 
678.000000	 100.845006 
677.000000	 100.845674 
676.000000	 100.847465 
675.000000	 100.851029 
674.000000	 100.855324 
673.000000	 100.858645 
672.000000	 100.860617 
671.000000	 100.862172 
670.000000	 100.864267 
669.000000	 100.867220 
668.000000	 100.870475 
667.000000	 100.873224 
666.000000	 100.875696 
665.000000	 100.878231 
664.000000	 100.880863 
663.000000	 100.883815 
662.000000	 100.887233 
661.000000	 100.890846 
660.000000	 100.894029 
659.000000	 100.896577 
658.000000	 100.898788 
657.000000	 100.901049 
656.000000	 100.903444 
655.000000	 100.906057 
654.000000	 100.908942 
653.000000	 100.911919 
652.000000	 100.914807 
651.000000	 100.917606 
650.000000	 100.920385 

