4000.000000	99.131113 
3999.000000	99.128953 
3998.000000	99.128357 
3997.000000	99.130926 
3996.000000	99.135416 
3995.000000	99.139154 
3994.000000	99.140820 
3993.000000	99.141250 
3992.000000	99.141672 
3991.000000	99.141873 
3990.000000	99.140508 
3989.000000	99.136803 
3988.000000	99.131643 
3987.000000	99.127128 
3986.000000	99.125157 
3985.000000	99.126168 
3984.000000	99.129015 
3983.000000	99.132331 
3982.000000	99.135962 
3981.000000	99.140753 
3980.000000	99.146891 
3979.000000	99.152945 
3978.000000	99.156928 
3977.000000	99.158010 
3976.000000	99.156712 
3975.000000	99.153740 
3974.000000	99.149271 
3973.000000	99.143633 
3972.000000	99.138117 
3971.000000	99.134751 
3970.000000	99.135303 
3969.000000	99.139993 
3968.000000	99.147033 
3967.000000	99.153408 
3966.000000	99.156644 
3965.000000	99.156108 
3964.000000	99.153036 
3963.000000	99.149673 
3962.000000	99.148013 
3961.000000	99.148471 
3960.000000	99.149210 
3959.000000	99.147542 
3958.000000	99.143088 
3957.000000	99.138623 
3956.000000	99.137377 
3955.000000	99.139546 
3954.000000	99.142493 
3953.000000	99.143779 
3952.000000	99.143014 
3951.000000	99.141285 
3950.000000	99.139300 
3949.000000	99.136850 
3948.000000	99.134014 
3947.000000	99.132196 
3946.000000	99.132795 
3945.000000	99.135255 
3944.000000	99.137288 
3943.000000	99.137228 
3942.000000	99.135796 
3941.000000	99.134997 
3940.000000	99.135083 
3939.000000	99.134353 
3938.000000	99.132449 
3937.000000	99.131030 
3936.000000	99.131485 
3935.000000	99.132984 
3934.000000	99.134137 
3933.000000	99.135330 
3932.000000	99.137597 
3931.000000	99.140635 
3930.000000	99.142866 
3929.000000	99.143445 
3928.000000	99.142940 
3927.000000	99.141260 
3926.000000	99.137317 
3925.000000	99.131850 
3924.000000	99.128692 
3923.000000	99.130139 
3922.000000	99.132823 
3921.000000	99.132240 
3920.000000	99.129146 
3919.000000	99.127539 
3918.000000	99.128513 
3917.000000	99.129885 
3916.000000	99.131020 
3915.000000	99.133481 
3914.000000	99.137008 
3913.000000	99.139107 
3912.000000	99.138872 
3911.000000	99.137226 
3910.000000	99.135863 
3909.000000	99.135520 
3908.000000	99.136938 
3907.000000	99.140183 
3906.000000	99.143822 
3905.000000	99.145250 
3904.000000	99.143635 
3903.000000	99.141900 
3902.000000	99.142261 
3901.000000	99.141490 
3900.000000	99.135597 
3899.000000	99.126655 
3898.000000	99.120021 
3897.000000	99.116938 
3896.000000	99.114454 
3895.000000	99.112293 
3894.000000	99.115069 
3893.000000	99.124218 
3892.000000	99.133373 
3891.000000	99.136107 
3890.000000	99.138148 
3889.000000	99.145938 
3888.000000	99.154781 
3887.000000	99.156800 
3886.000000	99.150851 
3885.000000	99.143571 
3884.000000	99.143486 
3883.000000	99.148024 
3882.000000	99.147785 
3881.000000	99.140848 
3880.000000	99.133198 
3879.000000	99.131959 
3878.000000	99.138269 
3877.000000	99.144808 
3876.000000	99.145394 
3875.000000	99.140102 
3874.000000	99.133862 
3873.000000	99.132632 
3872.000000	99.134133 
3871.000000	99.128397 
3870.000000	99.113298 
3869.000000	99.103398 
3868.000000	99.112356 
3867.000000	99.129547 
3866.000000	99.136699 
3865.000000	99.133626 
3864.000000	99.131030 
3863.000000	99.132131 
3862.000000	99.132544 
3861.000000	99.129366 
3860.000000	99.124921 
3859.000000	99.118794 
3858.000000	99.108420 
3857.000000	99.095159 
3856.000000	99.088675 
3855.000000	99.098429 
3854.000000	99.113484 
3853.000000	99.111949 
3852.000000	99.107238 
3851.000000	99.118269 
3850.000000	99.130858 
3849.000000	99.134408 
3848.000000	99.134931 
3847.000000	99.137936 
3846.000000	99.141503 
3845.000000	99.142112 
3844.000000	99.139898 
3843.000000	99.137934 
3842.000000	99.139247 
3841.000000	99.142501 
3840.000000	99.144726 
3839.000000	99.144751 
3838.000000	99.143637 
3837.000000	99.142107 
3836.000000	99.140844 
3835.000000	99.139371 
3834.000000	99.136698 
3833.000000	99.133170 
3832.000000	99.131038 
3831.000000	99.132943 
3830.000000	99.139397 
3829.000000	99.146691 
3828.000000	99.149164 
3827.000000	99.144186 
3826.000000	99.136829 
3825.000000	99.135698 
3824.000000	99.143381 
3823.000000	99.153885 
3822.000000	99.158018 
3821.000000	99.149699 
3820.000000	99.140100 
3819.000000	99.141796 
3818.000000	99.144351 
3817.000000	99.136255 
3816.000000	99.122475 
3815.000000	99.116901 
3814.000000	99.124874 
3813.000000	99.133810 
3812.000000	99.132181 
3811.000000	99.126104 
3810.000000	99.126812 
3809.000000	99.135270 
3808.000000	99.141933 
3807.000000	99.139919 
3806.000000	99.136564 
3805.000000	99.141799 
3804.000000	99.149578 
3803.000000	99.148110 
3802.000000	99.135438 
3801.000000	99.118961 
3800.000000	99.113168 
3799.000000	99.118876 
3798.000000	99.121024 
3797.000000	99.115378 
3796.000000	99.110389 
3795.000000	99.112839 
3794.000000	99.119980 
3793.000000	99.125445 
3792.000000	99.128101 
3791.000000	99.130949 
3790.000000	99.134069 
3789.000000	99.135664 
3788.000000	99.136928 
3787.000000	99.141361 
3786.000000	99.149010 
3785.000000	99.156057 
3784.000000	99.160618 
3783.000000	99.164285 
3782.000000	99.167055 
3781.000000	99.165841 
3780.000000	99.158789 
3779.000000	99.148377 
3778.000000	99.140571 
3777.000000	99.137476 
3776.000000	99.135336 
3775.000000	99.131730 
3774.000000	99.130156 
3773.000000	99.133890 
3772.000000	99.140025 
3771.000000	99.142044 
3770.000000	99.138085 
3769.000000	99.133538 
3768.000000	99.133498 
3767.000000	99.134851 
3766.000000	99.132581 
3765.000000	99.128811 
3764.000000	99.130395 
3763.000000	99.138747 
3762.000000	99.147243 
3761.000000	99.151222 
3760.000000	99.153201 
3759.000000	99.154739 
3758.000000	99.153549 
3757.000000	99.148670 
3756.000000	99.143254 
3755.000000	99.139475 
3754.000000	99.137105 
3753.000000	99.137989 
3752.000000	99.144364 
3751.000000	99.149192 
3750.000000	99.142292 
3749.000000	99.129385 
3748.000000	99.123267 
3747.000000	99.123646 
3746.000000	99.122893 
3745.000000	99.116667 
3744.000000	99.106758 
3743.000000	99.109229 
3742.000000	99.125639 
3741.000000	99.132730 
3740.000000	99.125813 
3739.000000	99.120801 
3738.000000	99.126617 
3737.000000	99.135502 
3736.000000	99.137762 
3735.000000	99.134961 
3734.000000	99.132205 
3733.000000	99.127687 
3732.000000	99.120553 
3731.000000	99.118418 
3730.000000	99.125651 
3729.000000	99.135181 
3728.000000	99.138789 
3727.000000	99.138461 
3726.000000	99.141851 
3725.000000	99.150744 
3724.000000	99.157210 
3723.000000	99.154359 
3722.000000	99.144714 
3721.000000	99.136077 
3720.000000	99.133692 
3719.000000	99.136445 
3718.000000	99.140422 
3717.000000	99.142970 
3716.000000	99.143287 
3715.000000	99.140061 
3714.000000	99.132903 
3713.000000	99.124308 
3712.000000	99.115942 
3711.000000	99.107478 
3710.000000	99.101577 
3709.000000	99.100617 
3708.000000	99.102124 
3707.000000	99.102209 
3706.000000	99.099428 
3705.000000	99.094583 
3704.000000	99.089305 
3703.000000	99.085469 
3702.000000	99.083868 
3701.000000	99.084431 
3700.000000	99.087396 
3699.000000	99.089844 
3698.000000	99.086042 
3697.000000	99.075345 
3696.000000	99.064541 
3695.000000	99.060112 
3694.000000	99.061147 
3693.000000	99.062775 
3692.000000	99.062828 
3691.000000	99.060952 
3690.000000	99.054765 
3689.000000	99.042328 
3688.000000	99.030487 
3687.000000	99.029424 
3686.000000	99.037423 
3685.000000	99.044205 
3684.000000	99.046581 
3683.000000	99.049478 
3682.000000	99.054473 
3681.000000	99.054742 
3680.000000	99.044259 
3679.000000	99.028372 
3678.000000	99.016448 
3677.000000	99.010741 
3676.000000	99.004153 
3675.000000	98.995240 
3674.000000	98.999460 
3673.000000	99.017543 
3672.000000	99.029213 
3671.000000	99.028679 
3670.000000	99.024037 
3669.000000	99.021339 
3668.000000	99.022851 
3667.000000	99.023437 
3666.000000	99.018899 
3665.000000	99.013186 
3664.000000	99.011633 
3663.000000	99.014830 
3662.000000	99.019925 
3661.000000	99.024625 
3660.000000	99.029135 
3659.000000	99.034805 
3658.000000	99.040866 
3657.000000	99.044607 
3656.000000	99.044871 
3655.000000	99.047387 
3654.000000	99.055459 
3653.000000	99.063582 
3652.000000	99.068868 
3651.000000	99.075365 
3650.000000	99.080614 
3649.000000	99.073650 
3648.000000	99.055247 
3647.000000	99.040325 
3646.000000	99.038927 
3645.000000	99.048398 
3644.000000	99.060972 
3643.000000	99.071620 
3642.000000	99.079932 
3641.000000	99.086736 
3640.000000	99.092158 
3639.000000	99.096728 
3638.000000	99.103259 
3637.000000	99.114324 
3636.000000	99.126472 
3635.000000	99.131772 
3634.000000	99.126875 
3633.000000	99.117696 
3632.000000	99.111858 
3631.000000	99.111991 
3630.000000	99.116012 
3629.000000	99.116051 
3628.000000	99.110304 
3627.000000	99.109921 
3626.000000	99.114408 
3625.000000	99.115670 
3624.000000	99.115614 
3623.000000	99.118507 
3622.000000	99.122202 
3621.000000	99.121797 
3620.000000	99.116943 
3619.000000	99.112082 
3618.000000	99.112866 
3617.000000	99.120913 
3616.000000	99.130635 
3615.000000	99.135030 
3614.000000	99.131859 
3613.000000	99.123994 
3612.000000	99.116297 
3611.000000	99.111544 
3610.000000	99.109653 
3609.000000	99.110607 
3608.000000	99.114447 
3607.000000	99.119924 
3606.000000	99.124720 
3605.000000	99.127058 
3604.000000	99.127853 
3603.000000	99.129282 
3602.000000	99.131152 
3601.000000	99.131898 
3600.000000	99.132409 
3599.000000	99.135099 
3598.000000	99.139266 
3597.000000	99.141818 
3596.000000	99.139985 
3595.000000	99.133776 
3594.000000	99.126237 
3593.000000	99.122648 
3592.000000	99.126438 
3591.000000	99.136947 
3590.000000	99.150008 
3589.000000	99.159612 
3588.000000	99.159620 
3587.000000	99.149778 
3586.000000	99.138580 
3585.000000	99.133268 
3584.000000	99.133256 
3583.000000	99.135744 
3582.000000	99.139095 
3581.000000	99.141637 
3580.000000	99.141169 
3579.000000	99.136899 
3578.000000	99.130208 
3577.000000	99.124320 
3576.000000	99.122199 
3575.000000	99.124330 
3574.000000	99.128426 
3573.000000	99.131468 
3572.000000	99.132351 
3571.000000	99.132097 
3570.000000	99.131923 
3569.000000	99.131185 
3568.000000	99.127747 
3567.000000	99.121355 
3566.000000	99.116931 
3565.000000	99.119524 
3564.000000	99.126902 
3563.000000	99.133237 
3562.000000	99.135635 
3561.000000	99.134661 
3560.000000	99.131972 
3559.000000	99.128872 
3558.000000	99.126139 
3557.000000	99.124368 
3556.000000	99.124492 
3555.000000	99.127009 
3554.000000	99.130987 
3553.000000	99.134252 
3552.000000	99.135227 
3551.000000	99.133977 
3550.000000	99.131249 
3549.000000	99.128004 
3548.000000	99.126356 
3547.000000	99.128306 
3546.000000	99.132860 
3545.000000	99.136646 
3544.000000	99.137654 
3543.000000	99.136696 
3542.000000	99.135761 
3541.000000	99.136136 
3540.000000	99.138369 
3539.000000	99.142380 
3538.000000	99.147196 
3537.000000	99.150954 
3536.000000	99.151892 
3535.000000	99.149492 
3534.000000	99.144270 
3533.000000	99.137636 
3532.000000	99.131662 
3531.000000	99.128408 
3530.000000	99.128097 
3529.000000	99.129110 
3528.000000	99.130141 
3527.000000	99.131711 
3526.000000	99.134514 
3525.000000	99.137398 
3524.000000	99.138355 
3523.000000	99.136901 
3522.000000	99.134410 
3521.000000	99.132122 
3520.000000	99.130102 
3519.000000	99.128296 
3518.000000	99.127498 
3517.000000	99.128547 
3516.000000	99.131117 
3515.000000	99.134433 
3514.000000	99.138604 
3513.000000	99.144155 
3512.000000	99.149992 
3511.000000	99.153473 
3510.000000	99.153032 
3509.000000	99.150245 
3508.000000	99.148220 
3507.000000	99.148089 
3506.000000	99.147664 
3505.000000	99.143751 
3504.000000	99.135238 
3503.000000	99.124736 
3502.000000	99.117795 
3501.000000	99.119552 
3500.000000	99.130685 
3499.000000	99.146027 
3498.000000	99.157427 
3497.000000	99.159289 
3496.000000	99.152667 
3495.000000	99.143914 
3494.000000	99.139157 
3493.000000	99.139787 
3492.000000	99.142616 
3491.000000	99.143678 
3490.000000	99.141802 
3489.000000	99.139138 
3488.000000	99.138706 
3487.000000	99.141543 
3486.000000	99.145898 
3485.000000	99.149025 
3484.000000	99.149622 
3483.000000	99.148619 
3482.000000	99.147495 
3481.000000	99.146229 
3480.000000	99.143458 
3479.000000	99.138933 
3478.000000	99.134986 
3477.000000	99.134390 
3476.000000	99.136793 
3475.000000	99.138433 
3474.000000	99.136426 
3473.000000	99.132360 
3472.000000	99.130512 
3471.000000	99.133044 
3470.000000	99.138032 
3469.000000	99.141832 
3468.000000	99.142285 
3467.000000	99.139773 
3466.000000	99.136311 
3465.000000	99.133947 
3464.000000	99.133473 
3463.000000	99.134072 
3462.000000	99.134229 
3461.000000	99.133107 
3460.000000	99.130960 
3459.000000	99.128591 
3458.000000	99.126855 
3457.000000	99.126409 
3456.000000	99.127261 
3455.000000	99.128663 
3454.000000	99.129749 
3453.000000	99.130567 
3452.000000	99.132028 
3451.000000	99.134791 
3450.000000	99.138262 
3449.000000	99.141073 
3448.000000	99.142318 
3447.000000	99.142187 
3446.000000	99.141576 
3445.000000	99.141243 
3444.000000	99.141310 
3443.000000	99.141431 
3442.000000	99.141230 
3441.000000	99.140802 
3440.000000	99.140926 
3439.000000	99.142345 
3438.000000	99.144597 
3437.000000	99.145815 
3436.000000	99.144312 
3435.000000	99.140656 
3434.000000	99.137655 
3433.000000	99.138005 
3432.000000	99.141614 
3431.000000	99.145377 
3430.000000	99.145596 
3429.000000	99.141110 
3428.000000	99.134244 
3427.000000	99.128657 
3426.000000	99.126388 
3425.000000	99.127010 
3424.000000	99.129128 
3423.000000	99.131923 
3422.000000	99.135059 
3421.000000	99.137709 
3420.000000	99.138508 
3419.000000	99.136913 
3418.000000	99.134301 
3417.000000	99.133101 
3416.000000	99.134461 
3415.000000	99.137020 
3414.000000	99.138385 
3413.000000	99.137669 
3412.000000	99.136067 
3411.000000	99.135159 
3410.000000	99.135515 
3409.000000	99.136932 
3408.000000	99.138915 
3407.000000	99.140387 
3406.000000	99.139953 
3405.000000	99.137360 
3404.000000	99.134338 
3403.000000	99.133376 
3402.000000	99.135732 
3401.000000	99.140662 
3400.000000	99.146022 
3399.000000	99.149683 
3398.000000	99.151242 
3397.000000	99.152489 
3396.000000	99.155273 
3395.000000	99.158815 
3394.000000	99.160270 
3393.000000	99.158186 
3392.000000	99.154117 
3391.000000	99.150250 
3390.000000	99.146891 
3389.000000	99.143418 
3388.000000	99.140424 
3387.000000	99.139251 
3386.000000	99.139882 
3385.000000	99.140727 
3384.000000	99.140422 
3383.000000	99.138911 
3382.000000	99.136854 
3381.000000	99.134955 
3380.000000	99.133762 
3379.000000	99.133498 
3378.000000	99.134053 
3377.000000	99.135542 
3376.000000	99.138503 
3375.000000	99.143061 
3374.000000	99.148325 
3373.000000	99.153131 
3372.000000	99.157081 
3371.000000	99.160288 
3370.000000	99.162513 
3369.000000	99.163204 
3368.000000	99.162197 
3367.000000	99.159724 
3366.000000	99.155912 
3365.000000	99.150960 
3364.000000	99.145767 
3363.000000	99.141792 
3362.000000	99.140087 
3361.000000	99.140641 
3360.000000	99.142496 
3359.000000	99.144284 
3358.000000	99.145030 
3357.000000	99.144943 
3356.000000	99.145204 
3355.000000	99.146520 
3354.000000	99.148167 
3353.000000	99.148949 
3352.000000	99.148815 
3351.000000	99.148967 
3350.000000	99.150569 
3349.000000	99.153809 
3348.000000	99.157919 
3347.000000	99.161512 
3346.000000	99.163147 
3345.000000	99.162391 
3344.000000	99.160294 
3343.000000	99.158251 
3342.000000	99.156504 
3341.000000	99.154457 
3340.000000	99.152210 
3339.000000	99.150734 
3338.000000	99.150273 
3337.000000	99.149575 
3336.000000	99.147414 
3335.000000	99.144425 
3334.000000	99.142688 
3333.000000	99.143645 
3332.000000	99.146758 
3331.000000	99.150095 
3330.000000	99.151999 
3329.000000	99.152417 
3328.000000	99.152866 
3327.000000	99.154870 
3326.000000	99.158188 
3325.000000	99.160833 
3324.000000	99.161142 
3323.000000	99.159664 
3322.000000	99.158515 
3321.000000	99.158852 
3320.000000	99.159383 
3319.000000	99.157828 
3318.000000	99.153802 
3317.000000	99.149775 
3316.000000	99.148812 
3315.000000	99.151455 
3314.000000	99.155124 
3313.000000	99.156706 
3312.000000	99.155535 
3311.000000	99.153801 
3310.000000	99.154275 
3309.000000	99.157815 
3308.000000	99.162932 
3307.000000	99.167262 
3306.000000	99.169170 
3305.000000	99.168145 
3304.000000	99.164461 
3303.000000	99.159209 
3302.000000	99.154582 
3301.000000	99.153131 
3300.000000	99.155836 
3299.000000	99.160983 
3298.000000	99.165359 
3297.000000	99.166657 
3296.000000	99.164721 
3295.000000	99.161103 
3294.000000	99.158167 
3293.000000	99.158185 
3292.000000	99.161968 
3291.000000	99.167840 
3290.000000	99.172530 
3289.000000	99.173596 
3288.000000	99.170992 
3287.000000	99.166558 
3286.000000	99.162622 
3285.000000	99.160983 
3284.000000	99.162190 
3283.000000	99.165159 
3282.000000	99.167984 
3281.000000	99.169432 
3280.000000	99.169327 
3279.000000	99.167629 
3278.000000	99.164163 
3277.000000	99.159621 
3276.000000	99.155928 
3275.000000	99.154837 
3274.000000	99.156376 
3273.000000	99.158943 
3272.000000	99.160401 
3271.000000	99.158995 
3270.000000	99.154279 
3269.000000	99.148082 
3268.000000	99.144031 
3267.000000	99.145041 
3266.000000	99.151075 
3265.000000	99.159496 
3264.000000	99.167218 
3263.000000	99.172353 
3262.000000	99.174693 
3261.000000	99.175306 
3260.000000	99.175328 
3259.000000	99.174657 
3258.000000	99.172242 
3257.000000	99.167910 
3256.000000	99.163301 
3255.000000	99.160429 
3254.000000	99.159844 
3253.000000	99.160847 
3252.000000	99.162730 
3251.000000	99.164875 
3250.000000	99.166170 
3249.000000	99.165659 
3248.000000	99.163760 
3247.000000	99.161842 
3246.000000	99.160391 
3245.000000	99.158532 
3244.000000	99.155840 
3243.000000	99.153954 
3242.000000	99.155606 
3241.000000	99.161838 
3240.000000	99.170268 
3239.000000	99.176383 
3238.000000	99.177041 
3237.000000	99.172947 
3236.000000	99.167608 
3235.000000	99.163959 
3234.000000	99.162504 
3233.000000	99.162662 
3232.000000	99.164715 
3231.000000	99.169365 
3230.000000	99.175714 
3229.000000	99.180758 
3228.000000	99.181245 
3227.000000	99.175914 
3226.000000	99.166354 
3225.000000	99.156344 
3224.000000	99.149974 
3223.000000	99.149215 
3222.000000	99.152742 
3221.000000	99.157392 
3220.000000	99.160885 
3219.000000	99.162919 
3218.000000	99.163929 
3217.000000	99.163696 
3216.000000	99.161736 
3215.000000	99.158562 
3214.000000	99.155824 
3213.000000	99.154992 
3212.000000	99.156231 
3211.000000	99.158666 
3210.000000	99.161485 
3209.000000	99.164557 
3208.000000	99.168019 
3207.000000	99.171569 
3206.000000	99.174539 
3205.000000	99.176698 
3204.000000	99.178654 
3203.000000	99.181167 
3202.000000	99.184229 
3201.000000	99.187004 
3200.000000	99.188488 
3199.000000	99.188042 
3198.000000	99.185630 
3197.000000	99.182067 
3196.000000	99.178916 
3195.000000	99.177378 
3194.000000	99.176904 
3193.000000	99.175390 
3192.000000	99.171361 
3191.000000	99.165956 
3190.000000	99.162289 
3189.000000	99.162719 
3188.000000	99.166882 
3187.000000	99.172290 
3186.000000	99.176437 
3185.000000	99.178186 
3184.000000	99.177776 
3183.000000	99.176169 
3182.000000	99.174312 
3181.000000	99.172422 
3180.000000	99.170029 
3179.000000	99.167071 
3178.000000	99.164743 
3177.000000	99.164396 
3176.000000	99.165499 
3175.000000	99.165825 
3174.000000	99.164447 
3173.000000	99.163680 
3172.000000	99.166697 
3171.000000	99.173338 
3170.000000	99.179681 
3169.000000	99.182251 
3168.000000	99.181584 
3167.000000	99.180949 
3166.000000	99.182379 
3165.000000	99.184973 
3164.000000	99.186723 
3163.000000	99.186848 
3162.000000	99.186091 
3161.000000	99.185532 
3160.000000	99.185697 
3159.000000	99.186486 
3158.000000	99.187438 
3157.000000	99.188034 
3156.000000	99.187997 
3155.000000	99.187466 
3154.000000	99.187040 
3153.000000	99.187666 
3152.000000	99.189965 
3151.000000	99.193112 
3150.000000	99.194673 
3149.000000	99.192674 
3148.000000	99.188238 
3147.000000	99.185263 
3146.000000	99.186550 
3145.000000	99.190702 
3144.000000	99.193872 
3143.000000	99.194396 
3142.000000	99.194341 
3141.000000	99.196101 
3140.000000	99.198779 
3139.000000	99.199290 
3138.000000	99.196572 
3137.000000	99.193170 
3136.000000	99.192225 
3135.000000	99.194006 
3134.000000	99.196176 
3133.000000	99.196832 
3132.000000	99.196276 
3131.000000	99.195864 
3130.000000	99.195953 
3129.000000	99.195557 
3128.000000	99.193858 
3127.000000	99.191540 
3126.000000	99.190194 
3125.000000	99.190523 
3124.000000	99.191639 
3123.000000	99.192248 
3122.000000	99.192118 
3121.000000	99.192216 
3120.000000	99.193698 
3119.000000	99.196957 
3118.000000	99.201139 
3117.000000	99.204187 
3116.000000	99.203933 
3115.000000	99.200042 
3114.000000	99.194656 
3113.000000	99.190376 
3112.000000	99.187853 
3111.000000	99.186182 
3110.000000	99.185119 
3109.000000	99.185352 
3108.000000	99.186428 
3107.000000	99.186143 
3106.000000	99.183065 
3105.000000	99.178834 
3104.000000	99.176945 
3103.000000	99.179615 
3102.000000	99.186447 
3101.000000	99.195315 
3100.000000	99.203290 
3099.000000	99.207228 
3098.000000	99.205438 
3097.000000	99.199604 
3096.000000	99.194063 
3095.000000	99.192363 
3094.000000	99.194843 
3093.000000	99.199603 
3092.000000	99.204597 
3091.000000	99.208086 
3090.000000	99.208300 
3089.000000	99.204596 
3088.000000	99.199173 
3087.000000	99.196232 
3086.000000	99.198294 
3085.000000	99.203645 
3084.000000	99.208074 
3083.000000	99.209017 
3082.000000	99.207501 
3081.000000	99.206232 
3080.000000	99.206533 
3079.000000	99.207405 
3078.000000	99.206829 
3077.000000	99.203321 
3076.000000	99.196841 
3075.000000	99.189240 
3074.000000	99.183641 
3073.000000	99.182419 
3072.000000	99.185504 
3071.000000	99.191092 
3070.000000	99.197554 
3069.000000	99.203551 
3068.000000	99.206697 
3067.000000	99.204324 
3066.000000	99.196823 
3065.000000	99.188784 
3064.000000	99.185099 
3063.000000	99.186381 
3062.000000	99.189460 
3061.000000	99.191687 
3060.000000	99.193259 
3059.000000	99.195663 
3058.000000	99.199492 
3057.000000	99.204042 
3056.000000	99.207895 
3055.000000	99.209735 
3054.000000	99.209458 
3053.000000	99.208485 
3052.000000	99.208113 
3051.000000	99.207740 
3050.000000	99.205811 
3049.000000	99.202173 
3048.000000	99.197943 
3047.000000	99.193214 
3046.000000	99.187039 
3045.000000	99.180301 
3044.000000	99.176472 
3043.000000	99.177899 
3042.000000	99.182530 
3041.000000	99.185779 
3040.000000	99.185123 
3039.000000	99.181695 
3038.000000	99.177961 
3037.000000	99.175225 
3036.000000	99.173305 
3035.000000	99.171450 
3034.000000	99.169157 
3033.000000	99.166468 
3032.000000	99.163565 
3031.000000	99.159999 
3030.000000	99.154661 
3029.000000	99.146824 
3028.000000	99.137048 
3027.000000	99.126865 
3026.000000	99.117756 
3025.000000	99.110421 
3024.000000	99.104506 
3023.000000	99.098698 
3022.000000	99.091511 
3021.000000	99.082496 
3020.000000	99.072695 
3019.000000	99.063771 
3018.000000	99.056843 
3017.000000	99.051955 
3016.000000	99.048042 
3015.000000	99.043333 
3014.000000	99.036444 
3013.000000	99.027298 
3012.000000	99.016370 
3011.000000	99.003105 
3010.000000	98.986371 
3009.000000	98.967062 
3008.000000	98.949131 
3007.000000	98.936789 
3006.000000	98.930766 
3005.000000	98.927809 
3004.000000	98.923397 
3003.000000	98.914540 
3002.000000	98.900837 
3001.000000	98.884329 
3000.000000	98.868410 
2999.000000	98.855708 
2998.000000	98.846519 
2997.000000	98.839610 
2996.000000	98.834279 
2995.000000	98.830455 
2994.000000	98.826352 
2993.000000	98.817441 
2992.000000	98.799735 
2991.000000	98.774627 
2990.000000	98.749485 
2989.000000	98.732291 
2988.000000	98.725520 
2987.000000	98.725703 
2986.000000	98.728481 
2985.000000	98.732760 
2984.000000	98.739490 
2983.000000	98.747953 
2982.000000	98.755115 
2981.000000	98.758564 
2980.000000	98.758838 
2979.000000	98.758425 
2978.000000	98.759240 
2977.000000	98.761337 
2976.000000	98.763210 
2975.000000	98.762875 
2974.000000	98.759308 
2973.000000	98.753526 
2972.000000	98.748067 
2971.000000	98.745132 
2970.000000	98.745389 
2969.000000	98.748487 
2968.000000	98.753971 
2967.000000	98.761360 
2966.000000	98.769980 
2965.000000	98.779317 
2964.000000	98.789289 
2963.000000	98.799820 
2962.000000	98.810376 
2961.000000	98.820199 
2960.000000	98.828840 
2959.000000	98.836464 
2958.000000	98.843907 
2957.000000	98.852144 
2956.000000	98.860833 
2955.000000	98.867396 
2954.000000	98.868946 
2953.000000	98.866220 
2952.000000	98.864764 
2951.000000	98.870644 
2950.000000	98.884512 
2949.000000	98.900544 
2948.000000	98.911547 
2947.000000	98.914800 
2946.000000	98.913091 
2945.000000	98.910973 
2944.000000	98.910851 
2943.000000	98.912371 
2942.000000	98.914289 
2941.000000	98.915888 
2940.000000	98.916762 
2939.000000	98.916392 
2938.000000	98.914624 
2937.000000	98.912219 
2936.000000	98.910359 
2935.000000	98.909739 
2934.000000	98.910412 
2933.000000	98.912112 
2932.000000	98.914207 
2931.000000	98.915638 
2930.000000	98.915571 
2929.000000	98.914038 
2928.000000	98.911607 
2927.000000	98.908813 
2926.000000	98.906379 
2925.000000	98.905307 
2924.000000	98.905824 
2923.000000	98.906692 
2922.000000	98.906657 
2921.000000	98.906202 
2920.000000	98.906631 
2919.000000	98.907660 
2918.000000	98.907374 
2917.000000	98.904721 
2916.000000	98.900692 
2915.000000	98.896750 
2914.000000	98.893389 
2913.000000	98.890728 
2912.000000	98.889097 
2911.000000	98.888128 
2910.000000	98.886313 
2909.000000	98.882591 
2908.000000	98.877727 
2907.000000	98.873153 
2906.000000	98.868897 
2905.000000	98.863414 
2904.000000	98.855314 
2903.000000	98.844944 
2902.000000	98.835051 
2901.000000	98.830143 
2900.000000	98.834039 
2899.000000	98.846477 
2898.000000	98.862034 
2897.000000	98.874049 
2896.000000	98.879907 
2895.000000	98.882285 
2894.000000	98.885302 
2893.000000	98.890179 
2892.000000	98.894746 
2891.000000	98.896377 
2890.000000	98.894851 
2889.000000	98.892549 
2888.000000	98.892266 
2887.000000	98.894939 
2886.000000	98.899477 
2885.000000	98.904436 
2884.000000	98.909328 
2883.000000	98.914310 
2882.000000	98.919399 
2881.000000	98.924671 
2880.000000	98.930952 
2879.000000	98.939527 
2878.000000	98.950857 
2877.000000	98.963718 
2876.000000	98.975603 
2875.000000	98.984033 
2874.000000	98.987955 
2873.000000	98.988480 
2872.000000	98.988344 
2871.000000	98.990216 
2870.000000	98.995114 
2869.000000	99.002119 
2868.000000	99.009527 
2867.000000	99.016511 
2866.000000	99.024010 
2865.000000	99.033874 
2864.000000	99.046607 
2863.000000	99.059876 
2862.000000	99.069856 
2861.000000	99.074507 
2860.000000	99.075494 
2859.000000	99.076740 
2858.000000	99.081245 
2857.000000	99.089212 
2856.000000	99.098649 
2855.000000	99.107354 
2854.000000	99.114373 
2853.000000	99.119875 
2852.000000	99.124089 
2851.000000	99.127025 
2850.000000	99.129437 
2849.000000	99.133179 
2848.000000	99.139586 
2847.000000	99.147633 
2846.000000	99.154591 
2845.000000	99.158594 
2844.000000	99.160033 
2843.000000	99.160639 
2842.000000	99.162130 
2841.000000	99.165618 
2840.000000	99.171032 
2839.000000	99.176531 
2838.000000	99.179400 
2837.000000	99.178328 
2836.000000	99.174551 
2835.000000	99.170653 
2834.000000	99.168806 
2833.000000	99.170125 
2832.000000	99.174522 
2831.000000	99.180539 
2830.000000	99.186135 
2829.000000	99.190413 
2828.000000	99.194134 
2827.000000	99.198001 
2826.000000	99.201080 
2825.000000	99.201614 
2824.000000	99.199058 
2823.000000	99.194911 
2822.000000	99.191864 
2821.000000	99.192257 
2820.000000	99.196526 
2819.000000	99.202566 
2818.000000	99.207270 
2817.000000	99.209283 
2816.000000	99.209848 
2815.000000	99.210717 
2814.000000	99.212159 
2813.000000	99.213554 
2812.000000	99.214780 
2811.000000	99.215887 
2810.000000	99.216161 
2809.000000	99.214927 
2808.000000	99.213081 
2807.000000	99.212583 
2806.000000	99.214300 
2805.000000	99.217085 
2804.000000	99.219065 
2803.000000	99.219281 
2802.000000	99.218221 
2801.000000	99.217302 
2800.000000	99.217655 
2799.000000	99.218877 
2798.000000	99.219288 
2797.000000	99.217940 
2796.000000	99.215934 
2795.000000	99.215043 
2794.000000	99.215504 
2793.000000	99.216138 
2792.000000	99.216270 
2791.000000	99.216417 
2790.000000	99.217154 
2789.000000	99.218429 
2788.000000	99.220173 
2787.000000	99.222610 
2786.000000	99.225632 
2785.000000	99.228591 
2784.000000	99.230913 
2783.000000	99.232213 
2782.000000	99.231811 
2781.000000	99.229149 
2780.000000	99.225123 
2779.000000	99.222107 
2778.000000	99.222015 
2777.000000	99.224714 
2776.000000	99.228514 
2775.000000	99.231475 
2774.000000	99.231952 
2773.000000	99.228993 
2772.000000	99.223379 
2771.000000	99.217905 
2770.000000	99.215650 
2769.000000	99.217698 
2768.000000	99.222804 
2767.000000	99.228832 
2766.000000	99.233934 
2765.000000	99.236840 
2764.000000	99.237266 
2763.000000	99.236445 
2762.000000	99.236439 
2761.000000	99.238281 
2760.000000	99.241002 
2759.000000	99.242815 
2758.000000	99.243048 
2757.000000	99.242647 
2756.000000	99.243080 
2755.000000	99.244996 
2754.000000	99.247678 
2753.000000	99.249462 
2752.000000	99.248974 
2751.000000	99.246450 
2750.000000	99.243701 
2749.000000	99.242303 
2748.000000	99.241873 
2747.000000	99.240740 
2746.000000	99.238320 
2745.000000	99.236095 
2744.000000	99.235846 
2743.000000	99.237546 
2742.000000	99.239580 
2741.000000	99.240675 
2740.000000	99.240926 
2739.000000	99.241084 
2738.000000	99.241544 
2737.000000	99.242212 
2736.000000	99.242899 
2735.000000	99.243596 
2734.000000	99.244518 
2733.000000	99.245854 
2732.000000	99.247287 
2731.000000	99.247924 
2730.000000	99.247134 
2729.000000	99.245571 
2728.000000	99.245021 
2727.000000	99.246973 
2726.000000	99.251227 
2725.000000	99.255762 
2724.000000	99.257981 
2723.000000	99.256610 
2722.000000	99.252896 
2721.000000	99.249829 
2720.000000	99.249669 
2719.000000	99.252086 
2718.000000	99.254829 
2717.000000	99.255984 
2716.000000	99.255466 
2715.000000	99.254794 
2714.000000	99.255849 
2713.000000	99.259297 
2712.000000	99.263423 
2711.000000	99.264936 
2710.000000	99.262081 
2709.000000	99.257061 
2708.000000	99.254317 
2707.000000	99.255987 
2706.000000	99.259735 
2705.000000	99.261468 
2704.000000	99.259548 
2703.000000	99.255879 
2702.000000	99.253492 
2701.000000	99.253751 
2700.000000	99.255670 
2699.000000	99.257209 
2698.000000	99.257022 
2697.000000	99.255251 
2696.000000	99.253108 
2695.000000	99.251966 
2694.000000	99.252657 
2693.000000	99.254850 
2692.000000	99.256676 
2691.000000	99.255790 
2690.000000	99.251899 
2689.000000	99.248054 
2688.000000	99.248138 
2687.000000	99.252636 
2686.000000	99.257688 
2685.000000	99.258853 
2684.000000	99.255482 
2683.000000	99.251125 
2682.000000	99.250030 
2681.000000	99.253378 
2680.000000	99.258474 
2679.000000	99.261374 
2678.000000	99.260677 
2677.000000	99.258747 
2676.000000	99.258920 
2675.000000	99.261752 
2674.000000	99.264791 
2673.000000	99.265847 
2672.000000	99.265343 
2671.000000	99.265024 
2670.000000	99.265265 
2669.000000	99.264497 
2668.000000	99.261074 
2667.000000	99.255431 
2666.000000	99.250517 
2665.000000	99.249877 
2664.000000	99.254487 
2663.000000	99.261398 
2662.000000	99.266231 
2661.000000	99.267288 
2660.000000	99.266552 
2659.000000	99.266669 
2658.000000	99.268024 
2657.000000	99.269107 
2656.000000	99.268569 
2655.000000	99.266113 
2654.000000	99.262252 
2653.000000	99.258105 
2652.000000	99.254884 
2651.000000	99.252807 
2650.000000	99.250949 
2649.000000	99.248789 
2648.000000	99.247338 
2647.000000	99.248010 
2646.000000	99.250797 
2645.000000	99.254148 
2644.000000	99.256289 
2643.000000	99.256300 
2642.000000	99.254665 
2641.000000	99.253544 
2640.000000	99.255811 
2639.000000	99.262693 
2638.000000	99.272145 
2637.000000	99.279887 
2636.000000	99.282103 
2635.000000	99.277741 
2634.000000	99.269483 
2633.000000	99.262657 
2632.000000	99.261429 
2631.000000	99.264891 
2630.000000	99.267970 
2629.000000	99.267225 
2628.000000	99.264592 
2627.000000	99.264087 
2626.000000	99.266129 
2625.000000	99.267232 
2624.000000	99.264795 
2623.000000	99.260136 
2622.000000	99.256590 
2621.000000	99.256116 
2620.000000	99.258024 
2619.000000	99.259733 
2618.000000	99.258591 
2617.000000	99.254144 
2616.000000	99.249050 
2615.000000	99.246890 
2614.000000	99.248815 
2613.000000	99.252881 
2612.000000	99.256555 
2611.000000	99.259048 
2610.000000	99.261237 
2609.000000	99.264173 
2608.000000	99.267896 
2607.000000	99.271300 
2606.000000	99.273287 
2605.000000	99.274264 
2604.000000	99.275753 
2603.000000	99.277921 
2602.000000	99.278577 
2601.000000	99.275834 
2600.000000	99.270940 
2599.000000	99.267010 
2598.000000	99.265624 
2597.000000	99.266209 
2596.000000	99.267881 
2595.000000	99.269616 
2594.000000	99.269077 
2593.000000	99.264329 
2592.000000	99.257625 
2591.000000	99.254925 
2590.000000	99.259833 
2589.000000	99.269285 
2588.000000	99.276572 
2587.000000	99.277472 
2586.000000	99.272334 
2585.000000	99.263785 
2584.000000	99.254637 
2583.000000	99.247540 
2582.000000	99.244325 
2581.000000	99.244768 
2580.000000	99.246814 
2579.000000	99.248545 
2578.000000	99.249531 
2577.000000	99.250343 
2576.000000	99.251497 
2575.000000	99.253195 
2574.000000	99.255505 
2573.000000	99.258190 
2572.000000	99.260324 
2571.000000	99.260396 
2570.000000	99.257176 
2569.000000	99.250943 
2568.000000	99.244070 
2567.000000	99.239988 
2566.000000	99.240897 
2565.000000	99.245981 
2564.000000	99.251712 
2563.000000	99.254084 
2562.000000	99.251190 
2561.000000	99.244702 
2560.000000	99.239327 
2559.000000	99.239855 
2558.000000	99.247052 
2557.000000	99.255898 
2556.000000	99.259217 
2555.000000	99.254511 
2554.000000	99.246894 
2553.000000	99.243966 
2552.000000	99.247835 
2551.000000	99.253676 
2550.000000	99.256317 
2549.000000	99.255998 
2548.000000	99.256039 
2547.000000	99.256653 
2546.000000	99.254196 
2545.000000	99.246777 
2544.000000	99.238059 
2543.000000	99.234100 
2542.000000	99.237481 
2541.000000	99.245311 
2540.000000	99.251984 
2539.000000	99.253138 
2538.000000	99.248048 
2537.000000	99.239571 
2536.000000	99.231754 
2535.000000	99.226923 
2534.000000	99.224992 
2533.000000	99.225185 
2532.000000	99.227404 
2531.000000	99.231717 
2530.000000	99.237544 
2529.000000	99.243883 
2528.000000	99.249687 
2527.000000	99.253920 
2526.000000	99.256403 
2525.000000	99.258943 
2524.000000	99.264101 
2523.000000	99.271735 
2522.000000	99.277847 
2521.000000	99.278214 
2520.000000	99.272722 
2519.000000	99.265135 
2518.000000	99.259099 
2517.000000	99.255332 
2516.000000	99.252392 
2515.000000	99.249191 
2514.000000	99.246580 
2513.000000	99.246505 
2512.000000	99.249114 
2511.000000	99.250915 
2510.000000	99.247439 
2509.000000	99.238784 
2508.000000	99.231139 
2507.000000	99.230938 
2506.000000	99.237788 
2505.000000	99.244551 
2504.000000	99.244471 
2503.000000	99.237233 
2502.000000	99.228302 
2501.000000	99.223960 
2500.000000	99.227433 
2499.000000	99.238168 
2498.000000	99.252797 
2497.000000	99.266365 
2496.000000	99.274134 
2495.000000	99.274203 
2494.000000	99.269005 
2493.000000	99.263101 
2492.000000	99.258500 
2491.000000	99.253042 
2490.000000	99.244647 
2489.000000	99.235937 
2488.000000	99.232100 
2487.000000	99.234360 
2486.000000	99.238517 
2485.000000	99.240875 
2484.000000	99.242804 
2483.000000	99.247449 
2482.000000	99.254169 
2481.000000	99.258909 
2480.000000	99.258832 
2479.000000	99.253941 
2478.000000	99.244991 
2477.000000	99.233018 
2476.000000	99.221379 
2475.000000	99.215408 
2474.000000	99.218179 
2473.000000	99.227307 
2472.000000	99.236940 
2471.000000	99.242692 
2470.000000	99.244447 
2469.000000	99.244958 
2468.000000	99.246142 
2467.000000	99.246831 
2466.000000	99.244461 
2465.000000	99.238971 
2464.000000	99.233931 
2463.000000	99.232819 
2462.000000	99.234965 
2461.000000	99.236469 
2460.000000	99.234882 
2459.000000	99.231792 
2458.000000	99.230916 
2457.000000	99.234719 
2456.000000	99.242610 
2455.000000	99.251036 
2454.000000	99.255128 
2453.000000	99.251800 
2452.000000	99.242355 
2451.000000	99.231773 
2450.000000	99.224887 
2449.000000	99.223133 
2448.000000	99.224507 
2447.000000	99.226078 
2446.000000	99.226717 
2445.000000	99.228052 
2444.000000	99.232703 
2443.000000	99.241003 
2442.000000	99.249643 
2441.000000	99.254214 
2440.000000	99.253002 
2439.000000	99.247899 
2438.000000	99.242195 
2437.000000	99.238394 
2436.000000	99.237412 
2435.000000	99.238135 
2434.000000	99.237622 
2433.000000	99.233460 
2432.000000	99.226807 
2431.000000	99.221997 
2430.000000	99.222288 
2429.000000	99.226865 
2428.000000	99.232898 
2427.000000	99.239353 
2426.000000	99.246831 
2425.000000	99.253753 
2424.000000	99.255157 
2423.000000	99.247281 
2422.000000	99.232927 
2421.000000	99.220429 
2420.000000	99.216367 
2419.000000	99.219928 
2418.000000	99.224948 
2417.000000	99.226652 
2416.000000	99.225289 
2415.000000	99.223747 
2414.000000	99.223479 
2413.000000	99.223629 
2412.000000	99.223093 
2411.000000	99.222125 
2410.000000	99.221883 
2409.000000	99.223105 
2408.000000	99.225578 
2407.000000	99.228824 
2406.000000	99.232988 
2405.000000	99.238510 
2404.000000	99.244673 
2403.000000	99.249147 
2402.000000	99.249834 
2401.000000	99.246875 
2400.000000	99.241985 
2399.000000	99.236241 
2398.000000	99.229974 
2397.000000	99.224847 
2396.000000	99.224046 
2395.000000	99.229121 
2394.000000	99.237550 
2393.000000	99.244532 
2392.000000	99.246923 
2391.000000	99.245133 
2390.000000	99.242191 
2389.000000	99.241747 
2388.000000	99.245816 
2387.000000	99.252975 
2386.000000	99.259002 
2385.000000	99.260373 
2384.000000	99.257277 
2383.000000	99.252750 
2382.000000	99.249486 
2381.000000	99.248301 
2380.000000	99.248872 
2379.000000	99.250264 
2378.000000	99.250615 
2377.000000	99.248186 
2376.000000	99.243788 
2375.000000	99.240996 
2374.000000	99.242629 
2373.000000	99.247650 
2372.000000	99.253006 
2371.000000	99.257931 
2370.000000	99.264107 
2369.000000	99.271157 
2368.000000	99.274194 
2367.000000	99.267878 
2366.000000	99.252701 
2365.000000	99.236417 
2364.000000	99.228649 
2363.000000	99.232832 
2362.000000	99.244078 
2361.000000	99.254487 
2360.000000	99.258801 
2359.000000	99.257605 
2358.000000	99.255515 
2357.000000	99.256759 
2356.000000	99.262400 
2355.000000	99.268568 
2354.000000	99.269619 
2353.000000	99.263991 
2352.000000	99.256805 
2351.000000	99.254378 
2350.000000	99.256551 
2349.000000	99.259525 
2348.000000	99.260910 
2347.000000	99.260890 
2346.000000	99.260082 
2345.000000	99.257978 
2344.000000	99.255679 
2343.000000	99.254744 
2342.000000	99.256562 
2341.000000	99.260995 
2340.000000	99.265247 
2339.000000	99.266448 
2338.000000	99.263951 
2337.000000	99.260686 
2336.000000	99.260303 
2335.000000	99.263297 
2334.000000	99.266631 
2333.000000	99.267484 
2332.000000	99.265672 
2331.000000	99.262235 
2330.000000	99.256814 
2329.000000	99.251053 
2328.000000	99.248859 
2327.000000	99.252359 
2326.000000	99.258687 
2325.000000	99.261924 
2324.000000	99.260519 
2323.000000	99.257782 
2322.000000	99.258829 
2321.000000	99.265011 
2320.000000	99.273000 
2319.000000	99.278352 
2318.000000	99.279312 
2317.000000	99.278320 
2316.000000	99.277918 
2315.000000	99.277349 
2314.000000	99.273202 
2313.000000	99.264823 
2312.000000	99.256546 
2311.000000	99.254100 
2310.000000	99.259333 
2309.000000	99.268773 
2308.000000	99.276285 
2307.000000	99.276652 
2306.000000	99.269204 
2305.000000	99.258321 
2304.000000	99.249658 
2303.000000	99.244653 
2302.000000	99.240704 
2301.000000	99.236355 
2300.000000	99.233445 
2299.000000	99.232949 
2298.000000	99.232074 
2297.000000	99.228288 
2296.000000	99.223854 
2295.000000	99.222765 
2294.000000	99.224538 
2293.000000	99.224409 
2292.000000	99.219841 
2291.000000	99.213350 
2290.000000	99.208926 
2289.000000	99.208056 
2288.000000	99.210122 
2287.000000	99.213834 
2286.000000	99.217176 
2285.000000	99.217612 
2284.000000	99.213952 
2283.000000	99.207109 
2282.000000	99.198379 
2281.000000	99.188019 
2280.000000	99.176449 
2279.000000	99.166160 
2278.000000	99.161189 
2277.000000	99.164219 
2276.000000	99.173993 
2275.000000	99.185765 
2274.000000	99.194191 
2273.000000	99.195611 
2272.000000	99.188004 
2271.000000	99.171218 
2270.000000	99.150001 
2269.000000	99.135143 
2268.000000	99.136559 
2267.000000	99.153406 
2266.000000	99.174133 
2265.000000	99.187978 
2264.000000	99.193548 
2263.000000	99.195175 
2262.000000	99.195962 
2261.000000	99.197691 
2260.000000	99.202593 
2259.000000	99.209436 
2258.000000	99.210889 
2257.000000	99.201086 
2256.000000	99.184681 
2255.000000	99.172690 
2254.000000	99.169678 
2253.000000	99.170732 
2252.000000	99.171273 
2251.000000	99.173854 
2250.000000	99.182917 
2249.000000	99.196944 
2248.000000	99.208569 
2247.000000	99.210475 
2246.000000	99.200273 
2245.000000	99.182072 
2244.000000	99.164185 
2243.000000	99.153384 
2242.000000	99.150559 
2241.000000	99.152465 
2240.000000	99.156252 
2239.000000	99.160122 
2238.000000	99.161217 
2237.000000	99.156731 
2236.000000	99.147014 
2235.000000	99.134640 
2234.000000	99.121097 
2233.000000	99.107800 
2232.000000	99.099449 
2231.000000	99.101875 
2230.000000	99.115694 
2229.000000	99.135269 
2228.000000	99.154395 
2227.000000	99.169804 
2226.000000	99.179043 
2225.000000	99.179579 
2224.000000	99.171986 
2223.000000	99.161019 
2222.000000	99.151810 
2221.000000	99.146573 
2220.000000	99.145006 
2219.000000	99.145502 
2218.000000	99.146142 
2217.000000	99.147399 
2216.000000	99.153505 
2215.000000	99.167277 
2214.000000	99.182999 
2213.000000	99.188531 
2212.000000	99.177032 
2211.000000	99.154823 
2210.000000	99.136407 
2209.000000	99.132728 
2208.000000	99.143435 
2207.000000	99.158102 
2206.000000	99.164568 
2205.000000	99.157994 
2204.000000	99.142702 
2203.000000	99.125624 
2202.000000	99.110801 
2201.000000	99.101118 
2200.000000	99.099873 
2199.000000	99.105587 
2198.000000	99.108988 
2197.000000	99.102181 
2196.000000	99.089879 
2195.000000	99.085095 
2194.000000	99.093835 
2193.000000	99.109676 
2192.000000	99.122893 
2191.000000	99.128312 
2190.000000	99.123706 
2189.000000	99.108515 
2188.000000	99.087845 
2187.000000	99.072317 
2186.000000	99.070098 
2185.000000	99.081120 
2184.000000	99.099441 
2183.000000	99.117303 
2182.000000	99.126848 
2181.000000	99.124408 
2180.000000	99.115593 
2179.000000	99.110821 
2178.000000	99.113600 
2177.000000	99.117288 
2176.000000	99.114527 
2175.000000	99.105288 
2174.000000	99.094057 
2173.000000	99.084009 
2172.000000	99.076339 
2171.000000	99.071479 
2170.000000	99.069116 
2169.000000	99.069939 
2168.000000	99.077393 
2167.000000	99.093277 
2166.000000	99.111297 
2165.000000	99.120422 
2164.000000	99.116127 
2163.000000	99.103436 
2162.000000	99.089106 
2161.000000	99.077691 
2160.000000	99.074411 
2159.000000	99.081793 
2158.000000	99.092001 
2157.000000	99.094070 
2156.000000	99.090355 
2155.000000	99.093148 
2154.000000	99.104206 
2153.000000	99.110343 
2152.000000	99.102749 
2151.000000	99.090148 
2150.000000	99.087230 
2149.000000	99.098568 
2148.000000	99.119397 
2147.000000	99.143550 
2146.000000	99.162848 
2145.000000	99.166588 
2144.000000	99.152249 
2143.000000	99.132649 
2142.000000	99.123986 
2141.000000	99.129095 
2140.000000	99.138663 
2139.000000	99.145315 
2138.000000	99.148311 
2137.000000	99.146713 
2136.000000	99.137912 
2135.000000	99.124785 
2134.000000	99.116984 
2133.000000	99.121157 
2132.000000	99.133273 
2131.000000	99.142890 
2130.000000	99.142815 
2129.000000	99.134083 
2128.000000	99.123878 
2127.000000	99.119065 
2126.000000	99.120559 
2125.000000	99.124200 
2124.000000	99.127719 
2123.000000	99.134507 
2122.000000	99.147822 
2121.000000	99.163311 
2120.000000	99.171701 
2119.000000	99.169000 
2118.000000	99.160485 
2117.000000	99.154060 
2116.000000	99.152758 
2115.000000	99.154646 
2114.000000	99.156900 
2113.000000	99.157670 
2112.000000	99.155800 
2111.000000	99.151248 
2110.000000	99.145648 
2109.000000	99.141229 
2108.000000	99.139011 
2107.000000	99.138167 
2106.000000	99.136560 
2105.000000	99.131845 
2104.000000	99.123203 
2103.000000	99.112711 
2102.000000	99.104276 
2101.000000	99.100416 
2100.000000	99.100191 
2099.000000	99.100757 
2098.000000	99.100839 
2097.000000	99.102125 
2096.000000	99.106731 
2095.000000	99.113193 
2094.000000	99.115916 
2093.000000	99.110360 
2092.000000	99.098997 
2091.000000	99.090304 
2090.000000	99.090550 
2089.000000	99.097295 
2088.000000	99.102409 
2087.000000	99.101273 
2086.000000	99.097384 
2085.000000	99.097676 
2084.000000	99.104465 
2083.000000	99.112751 
2082.000000	99.115295 
2081.000000	99.110041 
2080.000000	99.102349 
2079.000000	99.099623 
2078.000000	99.104368 
2077.000000	99.113415 
2076.000000	99.123213 
2075.000000	99.133258 
2074.000000	99.143418 
2073.000000	99.150908 
2072.000000	99.152448 
2071.000000	99.147958 
2070.000000	99.139684 
2069.000000	99.128978 
2068.000000	99.116864 
2067.000000	99.106997 
2066.000000	99.104267 
2065.000000	99.108967 
2064.000000	99.115133 
2063.000000	99.116985 
2062.000000	99.115073 
2061.000000	99.114144 
2060.000000	99.116501 
2059.000000	99.119956 
2058.000000	99.121750 
2057.000000	99.121733 
2056.000000	99.120792 
2055.000000	99.118260 
2054.000000	99.112944 
2053.000000	99.106205 
2052.000000	99.102000 
2051.000000	99.103291 
2050.000000	99.109022 
2049.000000	99.114203 
2048.000000	99.112665 
2047.000000	99.100977 
2046.000000	99.081392 
2045.000000	99.061406 
2044.000000	99.048767 
2043.000000	99.045613 
2042.000000	99.048055 
2041.000000	99.051508 
2040.000000	99.055111 
2039.000000	99.060243 
2038.000000	99.066535 
2037.000000	99.071543 
2036.000000	99.073717 
2035.000000	99.073675 
2034.000000	99.072195 
2033.000000	99.068258 
2032.000000	99.059776 
2031.000000	99.046119 
2030.000000	99.030326 
2029.000000	99.018414 
2028.000000	99.014518 
2027.000000	99.016754 
2026.000000	99.020150 
2025.000000	99.023639 
2024.000000	99.030317 
2023.000000	99.039527 
2022.000000	99.043377 
2021.000000	99.035437 
2020.000000	99.020722 
2019.000000	99.012157 
2018.000000	99.017444 
2017.000000	99.031873 
2016.000000	99.043681 
2015.000000	99.044446 
2014.000000	99.034884 
2013.000000	99.024270 
2012.000000	99.023858 
2011.000000	99.037137 
2010.000000	99.056527 
2009.000000	99.071700 
2008.000000	99.079898 
2007.000000	99.084699 
2006.000000	99.086655 
2005.000000	99.081781 
2004.000000	99.069382 
2003.000000	99.055516 
2002.000000	99.047237 
2001.000000	99.046748 
2000.000000	99.051678 
1999.000000	99.057465 
1998.000000	99.059740 
1997.000000	99.058283 
1996.000000	99.058628 
1995.000000	99.066211 
1994.000000	99.078737 
1993.000000	99.087378 
1992.000000	99.086306 
1991.000000	99.078356 
1990.000000	99.070347 
1989.000000	99.066929 
1988.000000	99.069200 
1987.000000	99.074131 
1986.000000	99.074819 
1985.000000	99.066781 
1984.000000	99.055331 
1983.000000	99.051533 
1982.000000	99.058502 
1981.000000	99.066120 
1980.000000	99.062505 
1979.000000	99.046793 
1978.000000	99.028025 
1977.000000	99.014688 
1976.000000	99.008356 
1975.000000	99.005997 
1974.000000	99.005625 
1973.000000	99.010182 
1972.000000	99.025859 
1971.000000	99.053696 
1970.000000	99.082999 
1969.000000	99.097836 
1968.000000	99.092415 
1967.000000	99.076422 
1966.000000	99.062517 
1965.000000	99.053555 
1964.000000	99.045846 
1963.000000	99.038968 
1962.000000	99.036421 
1961.000000	99.039560 
1960.000000	99.046066 
1959.000000	99.053526 
1958.000000	99.060511 
1957.000000	99.064863 
1956.000000	99.065103 
1955.000000	99.063726 
1954.000000	99.065926 
1953.000000	99.073633 
1952.000000	99.081973 
1951.000000	99.083473 
1950.000000	99.075436 
1949.000000	99.062814 
1948.000000	99.053873 
1947.000000	99.052047 
1946.000000	99.052516 
1945.000000	99.048275 
1944.000000	99.039283 
1943.000000	99.033571 
1942.000000	99.038056 
1941.000000	99.050315 
1940.000000	99.061797 
1939.000000	99.066858 
1938.000000	99.067081 
1937.000000	99.069059 
1936.000000	99.078225 
1935.000000	99.093078 
1934.000000	99.105963 
1933.000000	99.111047 
1932.000000	99.110586 
1931.000000	99.111452 
1930.000000	99.115703 
1929.000000	99.119130 
1928.000000	99.119694 
1927.000000	99.121053 
1926.000000	99.126176 
1925.000000	99.131337 
1924.000000	99.130941 
1923.000000	99.126195 
1922.000000	99.123601 
1921.000000	99.125911 
1920.000000	99.128752 
1919.000000	99.125479 
1918.000000	99.113044 
1917.000000	99.095397 
1916.000000	99.081787 
1915.000000	99.079481 
1914.000000	99.088382 
1913.000000	99.102247 
1912.000000	99.114544 
1911.000000	99.123232 
1910.000000	99.128412 
1909.000000	99.129239 
1908.000000	99.126448 
1907.000000	99.123879 
1906.000000	99.124761 
1905.000000	99.127304 
1904.000000	99.127421 
1903.000000	99.124581 
1902.000000	99.120911 
1901.000000	99.117436 
1900.000000	99.114331 
1899.000000	99.112757 
1898.000000	99.114127 
1897.000000	99.117623 
1896.000000	99.120836 
1895.000000	99.122585 
1894.000000	99.122687 
1893.000000	99.120869 
1892.000000	99.118135 
1891.000000	99.117432 
1890.000000	99.120334 
1889.000000	99.124297 
1888.000000	99.126361 
1887.000000	99.127305 
1886.000000	99.129413 
1885.000000	99.132953 
1884.000000	99.136761 
1883.000000	99.140615 
1882.000000	99.144332 
1881.000000	99.146659 
1880.000000	99.147519 
1879.000000	99.148843 
1878.000000	99.152185 
1877.000000	99.156912 
1876.000000	99.161485 
1875.000000	99.165261 
1874.000000	99.167169 
1873.000000	99.164854 
1872.000000	99.157927 
1871.000000	99.149714 
1870.000000	99.143313 
1869.000000	99.137715 
1868.000000	99.132613 
1867.000000	99.132972 
1866.000000	99.141285 
1865.000000	99.151100 
1864.000000	99.153177 
1863.000000	99.145291 
1862.000000	99.133694 
1861.000000	99.125900 
1860.000000	99.125154 
1859.000000	99.131027 
1858.000000	99.140722 
1857.000000	99.149476 
1856.000000	99.153717 
1855.000000	99.154714 
1854.000000	99.155996 
1853.000000	99.157849 
1852.000000	99.158178 
1851.000000	99.156545 
1850.000000	99.155843 
1849.000000	99.159571 
1848.000000	99.167718 
1847.000000	99.176143 
1846.000000	99.179310 
1845.000000	99.174919 
1844.000000	99.167792 
1843.000000	99.166603 
1842.000000	99.172660 
1841.000000	99.178325 
1840.000000	99.176923 
1839.000000	99.168677 
1838.000000	99.159318 
1837.000000	99.153773 
1836.000000	99.152808 
1835.000000	99.155214 
1834.000000	99.159326 
1833.000000	99.163038 
1832.000000	99.164296 
1831.000000	99.162111 
1830.000000	99.158300 
1829.000000	99.156677 
1828.000000	99.158462 
1827.000000	99.161301 
1826.000000	99.163717 
1825.000000	99.166480 
1824.000000	99.169458 
1823.000000	99.170420 
1822.000000	99.166989 
1821.000000	99.159923 
1820.000000	99.154006 
1819.000000	99.154447 
1818.000000	99.161569 
1817.000000	99.168488 
1816.000000	99.168577 
1815.000000	99.164161 
1814.000000	99.162730 
1813.000000	99.167372 
1812.000000	99.173679 
1811.000000	99.177505 
1810.000000	99.180628 
1809.000000	99.184616 
1808.000000	99.186899 
1807.000000	99.185259 
1806.000000	99.180943 
1805.000000	99.176128 
1804.000000	99.171885 
1803.000000	99.168791 
1802.000000	99.166261 
1801.000000	99.162398 
1800.000000	99.156456 
1799.000000	99.152388 
1798.000000	99.155489 
1797.000000	99.165481 
1796.000000	99.177591 
1795.000000	99.187761 
1794.000000	99.194106 
1793.000000	99.194816 
1792.000000	99.188608 
1791.000000	99.179984 
1790.000000	99.175315 
1789.000000	99.174616 
1788.000000	99.174983 
1787.000000	99.176480 
1786.000000	99.181133 
1785.000000	99.187024 
1784.000000	99.188795 
1783.000000	99.184612 
1782.000000	99.177449 
1781.000000	99.172186 
1780.000000	99.170277 
1779.000000	99.169652 
1778.000000	99.169300 
1777.000000	99.170279 
1776.000000	99.173562 
1775.000000	99.176844 
1774.000000	99.176727 
1773.000000	99.173769 
1772.000000	99.171160 
1771.000000	99.170257 
1770.000000	99.170456 
1769.000000	99.170879 
1768.000000	99.171363 
1767.000000	99.171930 
1766.000000	99.172645 
1765.000000	99.173967 
1764.000000	99.175703 
1763.000000	99.176795 
1762.000000	99.176292 
1761.000000	99.175158 
1760.000000	99.174103 
1759.000000	99.172962 
1758.000000	99.173119 
1757.000000	99.177709 
1756.000000	99.186532 
1755.000000	99.193061 
1754.000000	99.192498 
1753.000000	99.188218 
1752.000000	99.187286 
1751.000000	99.189537 
1750.000000	99.188357 
1749.000000	99.182402 
1748.000000	99.177862 
1747.000000	99.178430 
1746.000000	99.181162 
1745.000000	99.183570 
1744.000000	99.185826 
1743.000000	99.187465 
1742.000000	99.186670 
1741.000000	99.182997 
1740.000000	99.179296 
1739.000000	99.179999 
1738.000000	99.185500 
1737.000000	99.191734 
1736.000000	99.196069 
1735.000000	99.201139 
1734.000000	99.205871 
1733.000000	99.205690 
1732.000000	99.201619 
1731.000000	99.195984 
1730.000000	99.190795 
1729.000000	99.187886 
1728.000000	99.187478 
1727.000000	99.188384 
1726.000000	99.189366 
1725.000000	99.190522 
1724.000000	99.191062 
1723.000000	99.190834 
1722.000000	99.191245 
1721.000000	99.192580 
1720.000000	99.193711 
1719.000000	99.194776 
1718.000000	99.196603 
1717.000000	99.195506 
1716.000000	99.189167 
1715.000000	99.183358 
1714.000000	99.182837 
1713.000000	99.184666 
1712.000000	99.184170 
1711.000000	99.182261 
1710.000000	99.183017 
1709.000000	99.186896 
1708.000000	99.190479 
1707.000000	99.192002 
1706.000000	99.193620 
1705.000000	99.194863 
1704.000000	99.192779 
1703.000000	99.187625 
1702.000000	99.184013 
1701.000000	99.186873 
1700.000000	99.189543 
1699.000000	99.187913 
1698.000000	99.188323 
1697.000000	99.191106 
1696.000000	99.192815 
1695.000000	99.191593 
1694.000000	99.188472 
1693.000000	99.184806 
1692.000000	99.181258 
1691.000000	99.180530 
1690.000000	99.183017 
1689.000000	99.186099 
1688.000000	99.188306 
1687.000000	99.189446 
1686.000000	99.191466 
1685.000000	99.196109 
1684.000000	99.197910 
1683.000000	99.194947 
1682.000000	99.190396 
1681.000000	99.185056 
1680.000000	99.182590 
1679.000000	99.184228 
1678.000000	99.185451 
1677.000000	99.183368 
1676.000000	99.181002 
1675.000000	99.181433 
1674.000000	99.182917 
1673.000000	99.184509 
1672.000000	99.187118 
1671.000000	99.192246 
1670.000000	99.197348 
1669.000000	99.198095 
1668.000000	99.196947 
1667.000000	99.196527 
1666.000000	99.195165 
1665.000000	99.191947 
1664.000000	99.189228 
1663.000000	99.190045 
1662.000000	99.192360 
1661.000000	99.193461 
1660.000000	99.195401 
1659.000000	99.199861 
1658.000000	99.204299 
1657.000000	99.204733 
1656.000000	99.201140 
1655.000000	99.196280 
1654.000000	99.196659 
1653.000000	99.198163 
1652.000000	99.197831 
1651.000000	99.200982 
1650.000000	99.203215 
1649.000000	99.202761 
1648.000000	99.202772 
1647.000000	99.202507 
1646.000000	99.201162 
1645.000000	99.200720 
1644.000000	99.201865 
1643.000000	99.203478 
1642.000000	99.204333 
1641.000000	99.204147 
1640.000000	99.203734 
1639.000000	99.203457 
1638.000000	99.203127 
1637.000000	99.203985 
1636.000000	99.207931 
1635.000000	99.213135 
1634.000000	99.216800 
1633.000000	99.216814 
1632.000000	99.212381 
1631.000000	99.205793 
1630.000000	99.199226 
1629.000000	99.193888 
1628.000000	99.191474 
1627.000000	99.192705 
1626.000000	99.194889 
1625.000000	99.195308 
1624.000000	99.195168 
1623.000000	99.197067 
1622.000000	99.200245 
1621.000000	99.202449 
1620.000000	99.203259 
1619.000000	99.203068 
1618.000000	99.202439 
1617.000000	99.201490 
1616.000000	99.202585 
1615.000000	99.207125 
1614.000000	99.211233 
1613.000000	99.212318 
1612.000000	99.213405 
1611.000000	99.217251 
1610.000000	99.220679 
1609.000000	99.220014 
1608.000000	99.217757 
1607.000000	99.217864 
1606.000000	99.218808 
1605.000000	99.218215 
1604.000000	99.217729 
1603.000000	99.218801 
1602.000000	99.219822 
1601.000000	99.219556 
1600.000000	99.219817 
1599.000000	99.221860 
1598.000000	99.223746 
1597.000000	99.223355 
1596.000000	99.221017 
1595.000000	99.217940 
1594.000000	99.214276 
1593.000000	99.210993 
1592.000000	99.210829 
1591.000000	99.214608 
1590.000000	99.219013 
1589.000000	99.221281 
1588.000000	99.223432 
1587.000000	99.228512 
1586.000000	99.234802 
1585.000000	99.237894 
1584.000000	99.237733 
1583.000000	99.236809 
1582.000000	99.235218 
1581.000000	99.232352 
1580.000000	99.229344 
1579.000000	99.226185 
1578.000000	99.221077 
1577.000000	99.214867 
1576.000000	99.212019 
1575.000000	99.215050 
1574.000000	99.219710 
1573.000000	99.221782 
1572.000000	99.221986 
1571.000000	99.223196 
1570.000000	99.224588 
1569.000000	99.224057 
1568.000000	99.224221 
1567.000000	99.225239 
1566.000000	99.224208 
1565.000000	99.221186 
1564.000000	99.219816 
1563.000000	99.219159 
1562.000000	99.215766 
1561.000000	99.207593 
1560.000000	99.205512 
1559.000000	99.208709 
1558.000000	99.208382 
1557.000000	99.211273 
1556.000000	99.218098 
1555.000000	99.224683 
1554.000000	99.227718 
1553.000000	99.225971 
1552.000000	99.222107 
1551.000000	99.218712 
1550.000000	99.217895 
1549.000000	99.219454 
1548.000000	99.221807 
1547.000000	99.222797 
1546.000000	99.220217 
1545.000000	99.213975 
1544.000000	99.207448 
1543.000000	99.205459 
1542.000000	99.210248 
1541.000000	99.218330 
1540.000000	99.222007 
1539.000000	99.221734 
1538.000000	99.222680 
1537.000000	99.223712 
1536.000000	99.223395 
1535.000000	99.224123 
1534.000000	99.225288 
1533.000000	99.222808 
1532.000000	99.217112 
1531.000000	99.213138 
1530.000000	99.212750 
1529.000000	99.213559 
1528.000000	99.213449 
1527.000000	99.213930 
1526.000000	99.216734 
1525.000000	99.219889 
1524.000000	99.220841 
1523.000000	99.221711 
1522.000000	99.226541 
1521.000000	99.232004 
1520.000000	99.231355 
1519.000000	99.223657 
1518.000000	99.213029 
1517.000000	99.205199 
1516.000000	99.202858 
1515.000000	99.203977 
1514.000000	99.205401 
1513.000000	99.206325 
1512.000000	99.206497 
1511.000000	99.204910 
1510.000000	99.202257 
1509.000000	99.200368 
1508.000000	99.202517 
1507.000000	99.207875 
1506.000000	99.211680 
1505.000000	99.211825 
1504.000000	99.210299 
1503.000000	99.209702 
1502.000000	99.211600 
1501.000000	99.213961 
1500.000000	99.211962 
1499.000000	99.203682 
1498.000000	99.194259 
1497.000000	99.189518 
1496.000000	99.188182 
1495.000000	99.189098 
1494.000000	99.194326 
1493.000000	99.203568 
1492.000000	99.213296 
1491.000000	99.219562 
1490.000000	99.220076 
1489.000000	99.214799 
1488.000000	99.205421 
1487.000000	99.196695 
1486.000000	99.191869 
1485.000000	99.188722 
1484.000000	99.185683 
1483.000000	99.183845 
1482.000000	99.185092 
1481.000000	99.188370 
1480.000000	99.190409 
1479.000000	99.190564 
1478.000000	99.190941 
1477.000000	99.191945 
1476.000000	99.191236 
1475.000000	99.189101 
1474.000000	99.188255 
1473.000000	99.189179 
1472.000000	99.189391 
1471.000000	99.188878 
1470.000000	99.189361 
1469.000000	99.189778 
1468.000000	99.188291 
1467.000000	99.185598 
1466.000000	99.183987 
1465.000000	99.184321 
1464.000000	99.185823 
1463.000000	99.187655 
1462.000000	99.189878 
1461.000000	99.191593 
1460.000000	99.191225 
1459.000000	99.187189 
1458.000000	99.179978 
1457.000000	99.170902 
1456.000000	99.161764 
1455.000000	99.154264 
1454.000000	99.148992 
1453.000000	99.148226 
1452.000000	99.153103 
1451.000000	99.160368 
1450.000000	99.165927 
1449.000000	99.168151 
1448.000000	99.167182 
1447.000000	99.165118 
1446.000000	99.164033 
1445.000000	99.165157 
1444.000000	99.167892 
1443.000000	99.170108 
1442.000000	99.171373 
1441.000000	99.173017 
1440.000000	99.175467 
1439.000000	99.177279 
1438.000000	99.179419 
1437.000000	99.183446 
1436.000000	99.186261 
1435.000000	99.184077 
1434.000000	99.178502 
1433.000000	99.173063 
1432.000000	99.169635 
1431.000000	99.167473 
1430.000000	99.166033 
1429.000000	99.166478 
1428.000000	99.167831 
1427.000000	99.167256 
1426.000000	99.163011 
1425.000000	99.157971 
1424.000000	99.155481 
1423.000000	99.153141 
1422.000000	99.146878 
1421.000000	99.136459 
1420.000000	99.124819 
1419.000000	99.113182 
1418.000000	99.102971 
1417.000000	99.095673 
1416.000000	99.088666 
1415.000000	99.078791 
1414.000000	99.066285 
1413.000000	99.054483 
1412.000000	99.046004 
1411.000000	99.039388 
1410.000000	99.032175 
1409.000000	99.024325 
1408.000000	99.017122 
1407.000000	99.012180 
1406.000000	99.010355 
1405.000000	99.012711 
1404.000000	99.020166 
1403.000000	99.031514 
1402.000000	99.044965 
1401.000000	99.059468 
1400.000000	99.073331 
1399.000000	99.081931 
1398.000000	99.080090 
1397.000000	99.065100 
1396.000000	99.038157 
1395.000000	99.008872 
1394.000000	98.994048 
1393.000000	99.003726 
1392.000000	99.030337 
1391.000000	99.057480 
1390.000000	99.074162 
1389.000000	99.079150 
1388.000000	99.076514 
1387.000000	99.070069 
1386.000000	99.062539 
1385.000000	99.056795 
1384.000000	99.054389 
1383.000000	99.053652 
1382.000000	99.051995 
1381.000000	99.049494 
1380.000000	99.049429 
1379.000000	99.054364 
1378.000000	99.062906 
1377.000000	99.071661 
1376.000000	99.079002 
1375.000000	99.085549 
1374.000000	99.092374 
1373.000000	99.100628 
1372.000000	99.110582 
1371.000000	99.120611 
1370.000000	99.127646 
1369.000000	99.130397 
1368.000000	99.130850 
1367.000000	99.131563 
1366.000000	99.133607 
1365.000000	99.137300 
1364.000000	99.143111 
1363.000000	99.150357 
1362.000000	99.156450 
1361.000000	99.159479 
1360.000000	99.160701 
1359.000000	99.163331 
1358.000000	99.169565 
1357.000000	99.178927 
1356.000000	99.188485 
1355.000000	99.194784 
1354.000000	99.196820 
1353.000000	99.196707 
1352.000000	99.196758 
1351.000000	99.197405 
1350.000000	99.197268 
1349.000000	99.196258 
1348.000000	99.196199 
1347.000000	99.197913 
1346.000000	99.200312 
1345.000000	99.202369 
1344.000000	99.204037 
1343.000000	99.204949 
1342.000000	99.204476 
1341.000000	99.203707 
1340.000000	99.205283 
1339.000000	99.209867 
1338.000000	99.214960 
1337.000000	99.218373 
1336.000000	99.220184 
1335.000000	99.220709 
1334.000000	99.219309 
1333.000000	99.216202 
1332.000000	99.213391 
1331.000000	99.212326 
1330.000000	99.212078 
1329.000000	99.211327 
1328.000000	99.210499 
1327.000000	99.210456 
1326.000000	99.210387 
1325.000000	99.209338 
1324.000000	99.208240 
1323.000000	99.208678 
1322.000000	99.210987 
1321.000000	99.214642 
1320.000000	99.219319 
1319.000000	99.224174 
1318.000000	99.227166 
1317.000000	99.226535 
1316.000000	99.222604 
1315.000000	99.217373 
1314.000000	99.212927 
1313.000000	99.210543 
1312.000000	99.210471 
1311.000000	99.211940 
1310.000000	99.213748 
1309.000000	99.215129 
1308.000000	99.215678 
1307.000000	99.214921 
1306.000000	99.212706 
1305.000000	99.210395 
1304.000000	99.210051 
1303.000000	99.211933 
1302.000000	99.214044 
1301.000000	99.214650 
1300.000000	99.214277 
1299.000000	99.214581 
1298.000000	99.216188 
1297.000000	99.218175 
1296.000000	99.219175 
1295.000000	99.218455 
1294.000000	99.216401 
1293.000000	99.214214 
1292.000000	99.212768 
1291.000000	99.212021 
1290.000000	99.211940 
1289.000000	99.213202 
1288.000000	99.215796 
1287.000000	99.217601 
1286.000000	99.216214 
1285.000000	99.212046 
1284.000000	99.207676 
1283.000000	99.204128 
1282.000000	99.199835 
1281.000000	99.193836 
1280.000000	99.188037 
1279.000000	99.184902 
1278.000000	99.184368 
1277.000000	99.184398 
1276.000000	99.183478 
1275.000000	99.181188 
1274.000000	99.177314 
1273.000000	99.171968 
1272.000000	99.166119 
1271.000000	99.160754 
1270.000000	99.155688 
1269.000000	99.150189 
1268.000000	99.144432 
1267.000000	99.139345 
1266.000000	99.135285 
1265.000000	99.131643 
1264.000000	99.127524 
1263.000000	99.122261 
1262.000000	99.115513 
1261.000000	99.107568 
1260.000000	99.099636 
1259.000000	99.093153 
1258.000000	99.088668 
1257.000000	99.085638 
1256.000000	99.083304 
1255.000000	99.081634 
1254.000000	99.081299 
1253.000000	99.082596 
1252.000000	99.084554 
1251.000000	99.085748 
1250.000000	99.086368 
1249.000000	99.088728 
1248.000000	99.094693 
1247.000000	99.102661 
1246.000000	99.107853 
1245.000000	99.105740 
1244.000000	99.095425 
1243.000000	99.081112 
1242.000000	99.070736 
1241.000000	99.071083 
1240.000000	99.082082 
1239.000000	99.096182 
1238.000000	99.104904 
1237.000000	99.105845 
1236.000000	99.102318 
1235.000000	99.097787 
1234.000000	99.093158 
1233.000000	99.088573 
1232.000000	99.084438 
1231.000000	99.080026 
1230.000000	99.073895 
1229.000000	99.066900 
1228.000000	99.062693 
1227.000000	99.063788 
1226.000000	99.068542 
1225.000000	99.073347 
1224.000000	99.076752 
1223.000000	99.080255 
1222.000000	99.085889 
1221.000000	99.094096 
1220.000000	99.103481 
1219.000000	99.111973 
1218.000000	99.118574 
1217.000000	99.123988 
1216.000000	99.128931 
1215.000000	99.132275 
1214.000000	99.132131 
1213.000000	99.128536 
1212.000000	99.123666 
1211.000000	99.119660 
1210.000000	99.117775 
1209.000000	99.119299 
1208.000000	99.125031 
1207.000000	99.133353 
1206.000000	99.140751 
1205.000000	99.145078 
1204.000000	99.146926 
1203.000000	99.147558 
1202.000000	99.147332 
1201.000000	99.146649 
1200.000000	99.146550 
1199.000000	99.147425 
1198.000000	99.148499 
1197.000000	99.149109 
1196.000000	99.148943 
1195.000000	99.146853 
1194.000000	99.141590 
1193.000000	99.134540 
1192.000000	99.129498 
1191.000000	99.128339 
1190.000000	99.128607 
1189.000000	99.126824 
1188.000000	99.122704 
1187.000000	99.118724 
1186.000000	99.116940 
1185.000000	99.117656 
1184.000000	99.119993 
1183.000000	99.122234 
1182.000000	99.122629 
1181.000000	99.121336 
1180.000000	99.120740 
1179.000000	99.122510 
1178.000000	99.125170 
1177.000000	99.125863 
1176.000000	99.123622 
1175.000000	99.119511 
1174.000000	99.114394 
1173.000000	99.108317 
1172.000000	99.101962 
1171.000000	99.097244 
1170.000000	99.095890 
1169.000000	99.097659 
1168.000000	99.099904 
1167.000000	99.099154 
1166.000000	99.094314 
1165.000000	99.088653 
1164.000000	99.087290 
1163.000000	99.091932 
1162.000000	99.099069 
1161.000000	99.104057 
1160.000000	99.105719 
1159.000000	99.105899 
1158.000000	99.105724 
1157.000000	99.103930 
1156.000000	99.098677 
1155.000000	99.090306 
1154.000000	99.082511 
1153.000000	99.080478 
1152.000000	99.086247 
1151.000000	99.095325 
1150.000000	99.099650 
1149.000000	99.095353 
1148.000000	99.086472 
1147.000000	99.080026 
1146.000000	99.078716 
1145.000000	99.079599 
1144.000000	99.078411 
1143.000000	99.073244 
1142.000000	99.065011 
1141.000000	99.056613 
1140.000000	99.051674 
1139.000000	99.052246 
1138.000000	99.056867 
1137.000000	99.061450 
1136.000000	99.062365 
1135.000000	99.058684 
1134.000000	99.052070 
1133.000000	99.044984 
1132.000000	99.038788 
1131.000000	99.033496 
1130.000000	99.029507 
1129.000000	99.028492 
1128.000000	99.030705 
1127.000000	99.031878 
1126.000000	99.025917 
1125.000000	99.012184 
1124.000000	98.997703 
1123.000000	98.989960 
1122.000000	98.988945 
1121.000000	98.988401 
1120.000000	98.983692 
1119.000000	98.975862 
1118.000000	98.968538 
1117.000000	98.963563 
1116.000000	98.960272 
1115.000000	98.957216 
1114.000000	98.953581 
1113.000000	98.949512 
1112.000000	98.945286 
1111.000000	98.939847 
1110.000000	98.930616 
1109.000000	98.915857 
1108.000000	98.897184 
1107.000000	98.879202 
1106.000000	98.866328 
1105.000000	98.859588 
1104.000000	98.855974 
1103.000000	98.850908 
1102.000000	98.842261 
1101.000000	98.832528 
1100.000000	98.826010 
1099.000000	98.824380 
1098.000000	98.825614 
1097.000000	98.827088 
1096.000000	98.827625 
1095.000000	98.825671 
1094.000000	98.817933 
1093.000000	98.801518 
1092.000000	98.776401 
1091.000000	98.745075 
1090.000000	98.711318 
1089.000000	98.679881 
1088.000000	98.654956 
1087.000000	98.636873 
1086.000000	98.621595 
1085.000000	98.605173 
1084.000000	98.587268 
1083.000000	98.568938 
1082.000000	98.549222 
1081.000000	98.526558 
1080.000000	98.502048 
1079.000000	98.478666 
1078.000000	98.458329 
1077.000000	98.442216 
1076.000000	98.432652 
1075.000000	98.431573 
1074.000000	98.437723 
1073.000000	98.447713 
1072.000000	98.458228 
1071.000000	98.464134 
1070.000000	98.457002 
1069.000000	98.431691 
1068.000000	98.395680 
1067.000000	98.367513 
1066.000000	98.362788 
1065.000000	98.382581 
1064.000000	98.415519 
1063.000000	98.447129 
1062.000000	98.465630 
1061.000000	98.463816 
1060.000000	98.441764 
1059.000000	98.409005 
1058.000000	98.380379 
1057.000000	98.366232 
1056.000000	98.366031 
1055.000000	98.371610 
1054.000000	98.375875 
1053.000000	98.377924 
1052.000000	98.380674 
1051.000000	98.385709 
1050.000000	98.391722 
1049.000000	98.396633 
1048.000000	98.399245 
1047.000000	98.399788 
1046.000000	98.400871 
1045.000000	98.406703 
1044.000000	98.418635 
1043.000000	98.432055 
1042.000000	98.440784 
1041.000000	98.444750 
1040.000000	98.450307 
1039.000000	98.462666 
1038.000000	98.481405 
1037.000000	98.503986 
1036.000000	98.529476 
1035.000000	98.556750 
1034.000000	98.582612 
1033.000000	98.604098 
1032.000000	98.619821 
1031.000000	98.627578 
1030.000000	98.625004 
1029.000000	98.615917 
1028.000000	98.612168 
1027.000000	98.624014 
1026.000000	98.649542 
1025.000000	98.677127 
1024.000000	98.697045 
1023.000000	98.707518 
1022.000000	98.711637 
1021.000000	98.713213 
1020.000000	98.715661 
1019.000000	98.720916 
1018.000000	98.727971 
1017.000000	98.734331 
1016.000000	98.739402 
1015.000000	98.745033 
1014.000000	98.752900 
1013.000000	98.762669 
1012.000000	98.772306 
1011.000000	98.779117 
1010.000000	98.781606 
1009.000000	98.781800 
1008.000000	98.784615 
1007.000000	98.793277 
1006.000000	98.806217 
1005.000000	98.819592 
1004.000000	98.831167 
1003.000000	98.840356 
1002.000000	98.846923 
1001.000000	98.852131 
1000.000000	98.859079 
999.000000	 98.868802 
998.000000	 98.877608 
997.000000	 98.881657 
996.000000	 98.883117 
995.000000	 98.888160 
994.000000	 98.899143 
993.000000	 98.912044 
992.000000	 98.921672 
991.000000	 98.926263 
990.000000	 98.926689 
989.000000	 98.924350 
988.000000	 98.921205 
987.000000	 98.919810 
986.000000	 98.921779 
985.000000	 98.926890 
984.000000	 98.933953 
983.000000	 98.941594 
982.000000	 98.948358 
981.000000	 98.953206 
980.000000	 98.955983 
979.000000	 98.956890 
978.000000	 98.956365 
977.000000	 98.956097 
976.000000	 98.958468 
975.000000	 98.963429 
974.000000	 98.967595 
973.000000	 98.968698 
972.000000	 98.969524 
971.000000	 98.974779 
970.000000	 98.984863 
969.000000	 98.995442 
968.000000	 99.002720 
967.000000	 99.006563 
966.000000	 99.008749 
965.000000	 99.010669 
964.000000	 99.012894 
963.000000	 99.015065 
962.000000	 99.016259 
961.000000	 99.016985 
960.000000	 99.019935 
959.000000	 99.026642 
958.000000	 99.034277 
957.000000	 99.038359 
956.000000	 99.038088 
955.000000	 99.036558 
954.000000	 99.036456 
953.000000	 99.038406 
952.000000	 99.042899 
951.000000	 99.050153 
950.000000	 99.057657 
949.000000	 99.061195 
948.000000	 99.059317 
947.000000	 99.054305 
946.000000	 99.048205 
945.000000	 99.040797 
944.000000	 99.032675 
943.000000	 99.027640 
942.000000	 99.029845 
941.000000	 99.039392 
940.000000	 99.051536 
939.000000	 99.059483 
938.000000	 99.058563 
937.000000	 99.049923 
936.000000	 99.040572 
935.000000	 99.037930 
934.000000	 99.043501 
933.000000	 99.052791 
932.000000	 99.061039 
931.000000	 99.067076 
930.000000	 99.071806 
929.000000	 99.075277 
928.000000	 99.075960 
927.000000	 99.071703 
926.000000	 99.061656 
925.000000	 99.048816 
924.000000	 99.039936 
923.000000	 99.040318 
922.000000	 99.048443 
921.000000	 99.057682 
920.000000	 99.062873 
919.000000	 99.062852 
918.000000	 99.057729 
917.000000	 99.047908 
916.000000	 99.036378 
915.000000	 99.027888 
914.000000	 99.023761 
913.000000	 99.020321 
912.000000	 99.014359 
911.000000	 99.007664 
910.000000	 99.004273 
909.000000	 99.005522 
908.000000	 99.009924 
907.000000	 99.015861 
906.000000	 99.021881 
905.000000	 99.025781 
904.000000	 99.026029 
903.000000	 99.023861 
902.000000	 99.022333 
901.000000	 99.023294 
900.000000	 99.026073 
899.000000	 99.028678 
898.000000	 99.029211 
897.000000	 99.026390 
896.000000	 99.019428 
895.000000	 99.008227 
894.000000	 98.994690 
893.000000	 98.983806 
892.000000	 98.981367 
891.000000	 98.988637 
890.000000	 99.000438 
889.000000	 99.010726 
888.000000	 99.018810 
887.000000	 99.027471 
886.000000	 99.036535 
885.000000	 99.042495 
884.000000	 99.044139 
883.000000	 99.043860 
882.000000	 99.042532 
881.000000	 99.037856 
880.000000	 99.030130 
879.000000	 99.025370 
878.000000	 99.028914 
877.000000	 99.038562 
876.000000	 99.047462 
875.000000	 99.051558 
874.000000	 99.051081 
873.000000	 99.047055 
872.000000	 99.040447 
871.000000	 99.034046 
870.000000	 99.031709 
869.000000	 99.035418 
868.000000	 99.044658 
867.000000	 99.057463 
866.000000	 99.070071 
865.000000	 99.077456 
864.000000	 99.077933 
863.000000	 99.076976 
862.000000	 99.082796 
861.000000	 99.096914 
860.000000	 99.111858 
859.000000	 99.119474 
858.000000	 99.119088 
857.000000	 99.115757 
856.000000	 99.113288 
855.000000	 99.112387 
854.000000	 99.113826 
853.000000	 99.118644 
852.000000	 99.124688 
851.000000	 99.127269 
850.000000	 99.125527 
849.000000	 99.124943 
848.000000	 99.130447 
847.000000	 99.139384 
846.000000	 99.144802 
845.000000	 99.144194 
844.000000	 99.141001 
843.000000	 99.138577 
842.000000	 99.137376 
841.000000	 99.138006 
840.000000	 99.141609 
839.000000	 99.145534 
838.000000	 99.143789 
837.000000	 99.135134 
836.000000	 99.126652 
835.000000	 99.125088 
834.000000	 99.127798 
833.000000	 99.127424 
832.000000	 99.123714 
831.000000	 99.124424 
830.000000	 99.133479 
829.000000	 99.143597 
828.000000	 99.144166 
827.000000	 99.133906 
826.000000	 99.122170 
825.000000	 99.118144 
824.000000	 99.121748 
823.000000	 99.126094 
822.000000	 99.126584 
821.000000	 99.124961 
820.000000	 99.124890 
819.000000	 99.127176 
818.000000	 99.131290 
817.000000	 99.139012 
816.000000	 99.152362 
815.000000	 99.167681 
814.000000	 99.176142 
813.000000	 99.172764 
812.000000	 99.162241 
811.000000	 99.152989 
810.000000	 99.147322 
809.000000	 99.140561 
808.000000	 99.128571 
807.000000	 99.112844 
806.000000	 99.098102 
805.000000	 99.087540 
804.000000	 99.081439 
803.000000	 99.078950 
802.000000	 99.079927 
801.000000	 99.084417 
800.000000	 99.090170 
799.000000	 99.092236 
798.000000	 99.087618 
797.000000	 99.079819 
796.000000	 99.075342 
795.000000	 99.075489 
794.000000	 99.075486 
793.000000	 99.072563 
792.000000	 99.070235 
791.000000	 99.072346 
790.000000	 99.077410 
789.000000	 99.082003 
788.000000	 99.085340 
787.000000	 99.086472 
786.000000	 99.081215 
785.000000	 99.067356 
784.000000	 99.050465 
783.000000	 99.039294 
782.000000	 99.036555 
781.000000	 99.038088 
780.000000	 99.039020 
779.000000	 99.036404 
778.000000	 99.028272 
777.000000	 99.015839 
776.000000	 99.005765 
775.000000	 99.004923 
774.000000	 99.012710 
773.000000	 99.022479 
772.000000	 99.030018 
771.000000	 99.036586 
770.000000	 99.044507 
769.000000	 99.054018 
768.000000	 99.063939 
767.000000	 99.071944 
766.000000	 99.075510 
765.000000	 99.076623 
764.000000	 99.083343 
763.000000	 99.100707 
762.000000	 99.120579 
761.000000	 99.126943 
760.000000	 99.113050 
759.000000	 99.089276 
758.000000	 99.072775 
757.000000	 99.072156 
756.000000	 99.081871 
755.000000	 99.087502 
754.000000	 99.076904 
753.000000	 99.051179 
752.000000	 99.025925 
751.000000	 99.018470 
750.000000	 99.032576 
749.000000	 99.057044 
748.000000	 99.077793 
747.000000	 99.088060 
746.000000	 99.089135 
745.000000	 99.086775 
744.000000	 99.087249 
743.000000	 99.092716 
742.000000	 99.099840 
741.000000	 99.105578 
740.000000	 99.112633 
739.000000	 99.125121 
738.000000	 99.140445 
737.000000	 99.149965 
736.000000	 99.146554 
735.000000	 99.128097 
734.000000	 99.097318 
733.000000	 99.064344 
732.000000	 99.045848 
731.000000	 99.052020 
730.000000	 99.073975 
729.000000	 99.092601 
728.000000	 99.100355 
727.000000	 99.105737 
726.000000	 99.115668 
725.000000	 99.123392 
724.000000	 99.118279 
723.000000	 99.100353 
722.000000	 99.080060 
721.000000	 99.068553 
720.000000	 99.071779 
719.000000	 99.088946 
718.000000	 99.112299 
717.000000	 99.130871 
716.000000	 99.136966 
715.000000	 99.128483 
714.000000	 99.107432 
713.000000	 99.081194 
712.000000	 99.063522 
711.000000	 99.065567 
710.000000	 99.082916 
709.000000	 99.098273 
708.000000	 99.099963 
707.000000	 99.091636 
706.000000	 99.081694 
705.000000	 99.071079 
704.000000	 99.057364 
703.000000	 99.045048 
702.000000	 99.043339 
701.000000	 99.054766 
700.000000	 99.071353 
699.000000	 99.081574 
698.000000	 99.079774 
697.000000	 99.070337 
696.000000	 99.063228 
695.000000	 99.064032 
694.000000	 99.068179 
693.000000	 99.067901 
692.000000	 99.063577 
691.000000	 99.062406 
690.000000	 99.067641 
689.000000	 99.076166 
688.000000	 99.086094 
687.000000	 99.097881 
686.000000	 99.106069 
685.000000	 99.101002 
684.000000	 99.083298 
683.000000	 99.067124 
682.000000	 99.064941 
681.000000	 99.075547 
680.000000	 99.088775 
679.000000	 99.094174 
678.000000	 99.084262 
677.000000	 99.061151 
676.000000	 99.043017 
675.000000	 99.048910 
674.000000	 99.074064 
673.000000	 99.091211 
672.000000	 99.081141 
671.000000	 99.052333 
670.000000	 99.027917 
669.000000	 99.026276 
668.000000	 99.049026 
667.000000	 99.073975 
666.000000	 99.075130 
665.000000	 99.052104 
664.000000	 99.024374 
663.000000	 99.016994 
662.000000	 99.038484 
661.000000	 99.065887 
660.000000	 99.067774 
659.000000	 99.037382 
658.000000	 98.994388 
657.000000	 98.961667 
656.000000	 98.950772 
655.000000	 98.962548 
654.000000	 98.988892 
653.000000	 99.016109 
652.000000	 99.035589 
651.000000	 99.049920 
650.000000	 99.062990 

