4000.000000	99.478372 
3999.000000	99.479086 
3998.000000	99.479871 
3997.000000	99.480098 
3996.000000	99.479481 
3995.000000	99.478294 
3994.000000	99.477195 
3993.000000	99.476701 
3992.000000	99.476873 
3991.000000	99.477424 
3990.000000	99.478026 
3989.000000	99.478566 
3988.000000	99.479153 
3987.000000	99.479899 
3986.000000	99.480683 
3985.000000	99.481138 
3984.000000	99.480905 
3983.000000	99.479887 
3982.000000	99.478305 
3981.000000	99.476627 
3980.000000	99.475371 
3979.000000	99.474840 
3978.000000	99.475022 
3977.000000	99.475744 
3976.000000	99.476887 
3975.000000	99.478421 
3974.000000	99.480160 
3973.000000	99.481552 
3972.000000	99.481942 
3971.000000	99.481071 
3970.000000	99.479231 
3969.000000	99.477094 
3968.000000	99.475339 
3967.000000	99.474236 
3966.000000	99.473642 
3965.000000	99.473307 
3964.000000	99.473079 
3963.000000	99.472820 
3962.000000	99.472328 
3961.000000	99.471493 
3960.000000	99.470479 
3959.000000	99.469633 
3958.000000	99.469155 
3957.000000	99.468864 
3956.000000	99.468421 
3955.000000	99.467708 
3954.000000	99.466930 
3953.000000	99.466379 
3952.000000	99.466153 
3951.000000	99.466166 
3950.000000	99.466294 
3949.000000	99.466437 
3948.000000	99.466511 
3947.000000	99.466457 
3946.000000	99.466325 
3945.000000	99.466273 
3944.000000	99.466431 
3943.000000	99.466677 
3942.000000	99.466677 
3941.000000	99.466248 
3940.000000	99.465511 
3939.000000	99.464620 
3938.000000	99.463566 
3937.000000	99.462314 
3936.000000	99.461142 
3935.000000	99.460632 
3934.000000	99.461214 
3933.000000	99.462784 
3932.000000	99.464618 
3931.000000	99.465792 
3930.000000	99.465792 
3929.000000	99.464769 
3928.000000	99.463494 
3927.000000	99.462875 
3926.000000	99.463325 
3925.000000	99.464445 
3924.000000	99.465273 
3923.000000	99.465170 
3922.000000	99.464306 
3921.000000	99.463380 
3920.000000	99.463043 
3919.000000	99.463556 
3918.000000	99.464779 
3917.000000	99.466271 
3916.000000	99.467478 
3915.000000	99.468077 
3914.000000	99.468180 
3913.000000	99.468126 
3912.000000	99.468111 
3911.000000	99.468027 
3910.000000	99.467696 
3909.000000	99.467067 
3908.000000	99.466214 
3907.000000	99.465194 
3906.000000	99.463923 
3905.000000	99.462248 
3904.000000	99.460095 
3903.000000	99.457799 
3902.000000	99.456231 
3901.000000	99.456143 
3900.000000	99.457529 
3899.000000	99.459549 
3898.000000	99.461087 
3897.000000	99.461591 
3896.000000	99.461155 
3895.000000	99.460179 
3894.000000	99.459212 
3893.000000	99.458729 
3892.000000	99.458800 
3891.000000	99.458910 
3890.000000	99.458518 
3889.000000	99.457661 
3888.000000	99.456834 
3887.000000	99.456539 
3886.000000	99.456751 
3885.000000	99.456797 
3884.000000	99.456134 
3883.000000	99.455071 
3882.000000	99.454448 
3881.000000	99.454690 
3880.000000	99.455343 
3879.000000	99.455629 
3878.000000	99.455484 
3877.000000	99.455528 
3876.000000	99.456298 
3875.000000	99.457633 
3874.000000	99.458683 
3873.000000	99.458802 
3872.000000	99.458201 
3871.000000	99.457652 
3870.000000	99.457574 
3869.000000	99.457633 
3868.000000	99.457444 
3867.000000	99.457072 
3866.000000	99.456825 
3865.000000	99.456875 
3864.000000	99.457009 
3863.000000	99.456915 
3862.000000	99.456631 
3861.000000	99.456461 
3860.000000	99.456639 
3859.000000	99.457161 
3858.000000	99.457817 
3857.000000	99.458355 
3856.000000	99.458666 
3855.000000	99.459048 
3854.000000	99.459893 
3853.000000	99.460807 
3852.000000	99.461194 
3851.000000	99.461238 
3850.000000	99.461301 
3849.000000	99.461443 
3848.000000	99.461515 
3847.000000	99.461392 
3846.000000	99.461135 
3845.000000	99.460946 
3844.000000	99.460975 
3843.000000	99.461265 
3842.000000	99.461746 
3841.000000	99.462247 
3840.000000	99.462643 
3839.000000	99.462915 
3838.000000	99.463094 
3837.000000	99.463223 
3836.000000	99.463345 
3835.000000	99.463515 
3834.000000	99.463767 
3833.000000	99.464083 
3832.000000	99.464406 
3831.000000	99.464683 
3830.000000	99.464907 
3829.000000	99.465108 
3828.000000	99.465310 
3827.000000	99.465512 
3826.000000	99.465707 
3825.000000	99.465896 
3824.000000	99.466081 
3823.000000	99.466263 
3822.000000	99.466447 
3821.000000	99.466638 
3820.000000	99.466832 
3819.000000	99.467030 
3818.000000	99.467232 
3817.000000	99.467437 
3816.000000	99.467638 
3815.000000	99.467825 
3814.000000	99.467994 
3813.000000	99.468147 
3812.000000	99.468291 
3811.000000	99.468427 
3810.000000	99.468556 
3809.000000	99.468674 
3808.000000	99.468779 
3807.000000	99.468866 
3806.000000	99.468933 
3805.000000	99.468984 
3804.000000	99.469025 
3803.000000	99.469063 
3802.000000	99.469102 
3801.000000	99.469133 
3800.000000	99.469151 
3799.000000	99.469158 
3798.000000	99.469159 
3797.000000	99.469161 
3796.000000	99.469158 
3795.000000	99.469146 
3794.000000	99.469111 
3793.000000	99.469044 
3792.000000	99.468948 
3791.000000	99.468841 
3790.000000	99.468742 
3789.000000	99.468628 
3788.000000	99.468434 
3787.000000	99.468112 
3786.000000	99.467690 
3785.000000	99.467237 
3784.000000	99.466778 
3783.000000	99.466302 
3782.000000	99.465872 
3781.000000	99.465688 
3780.000000	99.465925 
3779.000000	99.466432 
3778.000000	99.466785 
3777.000000	99.466745 
3776.000000	99.466333 
3775.000000	99.465682 
3774.000000	99.464912 
3773.000000	99.464125 
3772.000000	99.463415 
3771.000000	99.462779 
3770.000000	99.462011 
3769.000000	99.460909 
3768.000000	99.459755 
3767.000000	99.459148 
3766.000000	99.459273 
3765.000000	99.459631 
3764.000000	99.459531 
3763.000000	99.458822 
3762.000000	99.457980 
3761.000000	99.457568 
3760.000000	99.457750 
3759.000000	99.458192 
3758.000000	99.458566 
3757.000000	99.458878 
3756.000000	99.459082 
3755.000000	99.458844 
3754.000000	99.457657 
3753.000000	99.455255 
3752.000000	99.452083 
3751.000000	99.449132 
3750.000000	99.447174 
3749.000000	99.446331 
3748.000000	99.446388 
3747.000000	99.447258 
3746.000000	99.449079 
3745.000000	99.451804 
3744.000000	99.454211 
3743.000000	99.454994 
3742.000000	99.454398 
3741.000000	99.453140 
3740.000000	99.451258 
3739.000000	99.448261 
3738.000000	99.444371 
3737.000000	99.441414 
3736.000000	99.441276 
3735.000000	99.443769 
3734.000000	99.446524 
3733.000000	99.447602 
3732.000000	99.447022 
3731.000000	99.445728 
3730.000000	99.444465 
3729.000000	99.443564 
3728.000000	99.443295 
3727.000000	99.443735 
3726.000000	99.444207 
3725.000000	99.443693 
3724.000000	99.441990 
3723.000000	99.440056 
3722.000000	99.438808 
3721.000000	99.438211 
3720.000000	99.437605 
3719.000000	99.436108 
3718.000000	99.433129 
3717.000000	99.428708 
3716.000000	99.423489 
3715.000000	99.418363 
3714.000000	99.414020 
3713.000000	99.411039 
3712.000000	99.409747 
3711.000000	99.409830 
3710.000000	99.410344 
3709.000000	99.410248 
3708.000000	99.408853 
3707.000000	99.405980 
3706.000000	99.402079 
3705.000000	99.398150 
3704.000000	99.395290 
3703.000000	99.393831 
3702.000000	99.392676 
3701.000000	99.390038 
3700.000000	99.385315 
3699.000000	99.379630 
3698.000000	99.374520 
3697.000000	99.370674 
3696.000000	99.367714 
3695.000000	99.364830 
3694.000000	99.361734 
3693.000000	99.358890 
3692.000000	99.356854 
3691.000000	99.355682 
3690.000000	99.354590 
3689.000000	99.352245 
3688.000000	99.347912 
3687.000000	99.342278 
3686.000000	99.336708 
3685.000000	99.332215 
3684.000000	99.329069 
3683.000000	99.326805 
3682.000000	99.324586 
3681.000000	99.321454 
3680.000000	99.316377 
3679.000000	99.308697 
3678.000000	99.298991 
3677.000000	99.289951 
3676.000000	99.284585 
3675.000000	99.281472 
3674.000000	99.276523 
3673.000000	99.268974 
3672.000000	99.261296 
3671.000000	99.256843 
3670.000000	99.256816 
3669.000000	99.258605 
3668.000000	99.259432 
3667.000000	99.259440 
3666.000000	99.259624 
3665.000000	99.259655 
3664.000000	99.258142 
3663.000000	99.253892 
3662.000000	99.246758 
3661.000000	99.237290 
3660.000000	99.226047 
3659.000000	99.213999 
3658.000000	99.203105 
3657.000000	99.195413 
3656.000000	99.190643 
3655.000000	99.186255 
3654.000000	99.180514 
3653.000000	99.173543 
3652.000000	99.165781 
3651.000000	99.157412 
3650.000000	99.149131 
3649.000000	99.142775 
3648.000000	99.139941 
3647.000000	99.140050 
3646.000000	99.141085 
3645.000000	99.141807 
3644.000000	99.142375 
3643.000000	99.142943 
3642.000000	99.143248 
3641.000000	99.142820 
3640.000000	99.141433 
3639.000000	99.139014 
3638.000000	99.135302 
3637.000000	99.130390 
3636.000000	99.125054 
3635.000000	99.120117 
3634.000000	99.115391 
3633.000000	99.109807 
3632.000000	99.102772 
3631.000000	99.094798 
3630.000000	99.087248 
3629.000000	99.080068 
3628.000000	99.071422 
3627.000000	99.062733 
3626.000000	99.058533 
3625.000000	99.061108 
3624.000000	99.069189 
3623.000000	99.080017 
3622.000000	99.091392 
3621.000000	99.102390 
3620.000000	99.111736 
3619.000000	99.116471 
3618.000000	99.114824 
3617.000000	99.109764 
3616.000000	99.106491 
3615.000000	99.107894 
3614.000000	99.112319 
3613.000000	99.115264 
3612.000000	99.114272 
3611.000000	99.111630 
3610.000000	99.111473 
3609.000000	99.115897 
3608.000000	99.123529 
3607.000000	99.131657 
3606.000000	99.139653 
3605.000000	99.148557 
3604.000000	99.158702 
3603.000000	99.169029 
3602.000000	99.178002 
3601.000000	99.184845 
3600.000000	99.189220 
3599.000000	99.190667 
3598.000000	99.189121 
3597.000000	99.186072 
3596.000000	99.183986 
3595.000000	99.184925 
3594.000000	99.188783 
3593.000000	99.193513 
3592.000000	99.197164 
3591.000000	99.199130 
3590.000000	99.200231 
3589.000000	99.202253 
3588.000000	99.206113 
3587.000000	99.209794 
3586.000000	99.210815 
3585.000000	99.209522 
3584.000000	99.208383 
3583.000000	99.209103 
3582.000000	99.211513 
3581.000000	99.214113 
3580.000000	99.215291 
3579.000000	99.214284 
3578.000000	99.211235 
3577.000000	99.207143 
3576.000000	99.203523 
3575.000000	99.201673 
3574.000000	99.201750 
3573.000000	99.202585 
3572.000000	99.202878 
3571.000000	99.202470 
3570.000000	99.202116 
3569.000000	99.202579 
3568.000000	99.203999 
3567.000000	99.205504 
3566.000000	99.206064 
3565.000000	99.205859 
3564.000000	99.205844 
3563.000000	99.206561 
3562.000000	99.207861 
3561.000000	99.209026 
3560.000000	99.209304 
3559.000000	99.208540 
3558.000000	99.207501 
3557.000000	99.207239 
3556.000000	99.208164 
3555.000000	99.209636 
3554.000000	99.210513 
3553.000000	99.209934 
3552.000000	99.207850 
3551.000000	99.205080 
3550.000000	99.202664 
3549.000000	99.201081 
3548.000000	99.200211 
3547.000000	99.199700 
3546.000000	99.199225 
3545.000000	99.198376 
3544.000000	99.196846 
3543.000000	99.195002 
3542.000000	99.194009 
3541.000000	99.194882 
3540.000000	99.197553 
3539.000000	99.200739 
3538.000000	99.202980 
3537.000000	99.203838 
3536.000000	99.203813 
3535.000000	99.203550 
3534.000000	99.203155 
3533.000000	99.202429 
3532.000000	99.201402 
3531.000000	99.200429 
3530.000000	99.199749 
3529.000000	99.199194 
3528.000000	99.198509 
3527.000000	99.197844 
3526.000000	99.197663 
3525.000000	99.198152 
3524.000000	99.198907 
3523.000000	99.199309 
3522.000000	99.199176 
3521.000000	99.198846 
3520.000000	99.198715 
3519.000000	99.198853 
3518.000000	99.199059 
3517.000000	99.199125 
3516.000000	99.198931 
3515.000000	99.198444 
3514.000000	99.197711 
3513.000000	99.196895 
3512.000000	99.196212 
3511.000000	99.195818 
3510.000000	99.195721 
3509.000000	99.195814 
3508.000000	99.195980 
3507.000000	99.196179 
3506.000000	99.196422 
3505.000000	99.196659 
3504.000000	99.196718 
3503.000000	99.196433 
3502.000000	99.195860 
3501.000000	99.195297 
3500.000000	99.195016 
3499.000000	99.194988 
3498.000000	99.194861 
3497.000000	99.194268 
3496.000000	99.193196 
3495.000000	99.192098 
3494.000000	99.191514 
3493.000000	99.191603 
3492.000000	99.192127 
3491.000000	99.192684 
3490.000000	99.193025 
3489.000000	99.193154 
3488.000000	99.193164 
3487.000000	99.193024 
3486.000000	99.192564 
3485.000000	99.191706 
3484.000000	99.190617 
3483.000000	99.189590 
3482.000000	99.188768 
3481.000000	99.188082 
3480.000000	99.187495 
3479.000000	99.187136 
3478.000000	99.187087 
3477.000000	99.187160 
3476.000000	99.187084 
3475.000000	99.186911 
3474.000000	99.187038 
3473.000000	99.187608 
3472.000000	99.188060 
3471.000000	99.187602 
3470.000000	99.186141 
3469.000000	99.184418 
3468.000000	99.183161 
3467.000000	99.182356 
3466.000000	99.181672 
3465.000000	99.181327 
3464.000000	99.181982 
3463.000000	99.183752 
3462.000000	99.185709 
3461.000000	99.186699 
3460.000000	99.186403 
3459.000000	99.185362 
3458.000000	99.184166 
3457.000000	99.182835 
3456.000000	99.180991 
3455.000000	99.178430 
3454.000000	99.175464 
3453.000000	99.172852 
3452.000000	99.171246 
3451.000000	99.170752 
3450.000000	99.170936 
3449.000000	99.171210 
3448.000000	99.171128 
3447.000000	99.170416 
3446.000000	99.169071 
3445.000000	99.167539 
3444.000000	99.166531 
3443.000000	99.166376 
3442.000000	99.166556 
3441.000000	99.166064 
3440.000000	99.164298 
3439.000000	99.161522 
3438.000000	99.158479 
3437.000000	99.155694 
3436.000000	99.153271 
3435.000000	99.151338 
3434.000000	99.150348 
3433.000000	99.150784 
3432.000000	99.152550 
3431.000000	99.154807 
3430.000000	99.156527 
3429.000000	99.157217 
3428.000000	99.157042 
3427.000000	99.156340 
3426.000000	99.155140 
3425.000000	99.153237 
3424.000000	99.150670 
3423.000000	99.147969 
3422.000000	99.145834 
3421.000000	99.144633 
3420.000000	99.144322 
3419.000000	99.144755 
3418.000000	99.145853 
3417.000000	99.147374 
3416.000000	99.148706 
3415.000000	99.149147 
3414.000000	99.148437 
3413.000000	99.146984 
3412.000000	99.145547 
3411.000000	99.144674 
3410.000000	99.144315 
3409.000000	99.143868 
3408.000000	99.142599 
3407.000000	99.140219 
3406.000000	99.137238 
3405.000000	99.134734 
3404.000000	99.133589 
3403.000000	99.133904 
3402.000000	99.135138 
3401.000000	99.136764 
3400.000000	99.138667 
3399.000000	99.140904 
3398.000000	99.143218 
3397.000000	99.144949 
3396.000000	99.145445 
3395.000000	99.144460 
3394.000000	99.142218 
3393.000000	99.139251 
3392.000000	99.136222 
3391.000000	99.133808 
3390.000000	99.132572 
3389.000000	99.132820 
3388.000000	99.134451 
3387.000000	99.136925 
3386.000000	99.139503 
3385.000000	99.141674 
3384.000000	99.143310 
3383.000000	99.144368 
3382.000000	99.144589 
3381.000000	99.143704 
3380.000000	99.141953 
3379.000000	99.140234 
3378.000000	99.139488 
3377.000000	99.139886 
3376.000000	99.140767 
3375.000000	99.141329 
3374.000000	99.141397 
3373.000000	99.141440 
3372.000000	99.141909 
3371.000000	99.142737 
3370.000000	99.143489 
3369.000000	99.143864 
3368.000000	99.143943 
3367.000000	99.144024 
3366.000000	99.144339 
3365.000000	99.144908 
3364.000000	99.145575 
3363.000000	99.146137 
3362.000000	99.146495 
3361.000000	99.146698 
3360.000000	99.146853 
3359.000000	99.147022 
3358.000000	99.147225 
3357.000000	99.147501 
3356.000000	99.147898 
3355.000000	99.148393 
3354.000000	99.148882 
3353.000000	99.149277 
3352.000000	99.149591 
3351.000000	99.149905 
3350.000000	99.150291 
3349.000000	99.150753 
3348.000000	99.151248 
3347.000000	99.151737 
3346.000000	99.152207 
3345.000000	99.152657 
3344.000000	99.153090 
3343.000000	99.153517 
3342.000000	99.153973 
3341.000000	99.154471 
3340.000000	99.154965 
3339.000000	99.155382 
3338.000000	99.155738 
3337.000000	99.156176 
3336.000000	99.156814 
3335.000000	99.157562 
3334.000000	99.158198 
3333.000000	99.158672 
3332.000000	99.159176 
3331.000000	99.159859 
3330.000000	99.160534 
3329.000000	99.160851 
3328.000000	99.160714 
3327.000000	99.160426 
3326.000000	99.160372 
3325.000000	99.160601 
3324.000000	99.160841 
3323.000000	99.160935 
3322.000000	99.161133 
3321.000000	99.161836 
3320.000000	99.163133 
3319.000000	99.164699 
3318.000000	99.166110 
3317.000000	99.167203 
3316.000000	99.168000 
3315.000000	99.168471 
3314.000000	99.168584 
3313.000000	99.168560 
3312.000000	99.168826 
3311.000000	99.169580 
3310.000000	99.170541 
3309.000000	99.171258 
3308.000000	99.171592 
3307.000000	99.171760 
3306.000000	99.172053 
3305.000000	99.172635 
3304.000000	99.173536 
3303.000000	99.174628 
3302.000000	99.175555 
3301.000000	99.175899 
3300.000000	99.175504 
3299.000000	99.174622 
3298.000000	99.173783 
3297.000000	99.173452 
3296.000000	99.173745 
3295.000000	99.174389 
3294.000000	99.174962 
3293.000000	99.175302 
3292.000000	99.175648 
3291.000000	99.176298 
3290.000000	99.177200 
3289.000000	99.178012 
3288.000000	99.178515 
3287.000000	99.178826 
3286.000000	99.179169 
3285.000000	99.179550 
3284.000000	99.179770 
3283.000000	99.179715 
3282.000000	99.179519 
3281.000000	99.179463 
3280.000000	99.179745 
3279.000000	99.180354 
3278.000000	99.181099 
3277.000000	99.181745 
3276.000000	99.182155 
3275.000000	99.182350 
3274.000000	99.182461 
3273.000000	99.182659 
3272.000000	99.183093 
3271.000000	99.183812 
3270.000000	99.184684 
3269.000000	99.185409 
3268.000000	99.185706 
3267.000000	99.185506 
3266.000000	99.184992 
3265.000000	99.184529 
3264.000000	99.184484 
3263.000000	99.185071 
3262.000000	99.186272 
3261.000000	99.187821 
3260.000000	99.189344 
3259.000000	99.190567 
3258.000000	99.191427 
3257.000000	99.192061 
3256.000000	99.192665 
3255.000000	99.193262 
3254.000000	99.193672 
3253.000000	99.193784 
3252.000000	99.193788 
3251.000000	99.194021 
3250.000000	99.194591 
3249.000000	99.195268 
3248.000000	99.195796 
3247.000000	99.196198 
3246.000000	99.196695 
3245.000000	99.197409 
3244.000000	99.198276 
3243.000000	99.199190 
3242.000000	99.200097 
3241.000000	99.200955 
3240.000000	99.201736 
3239.000000	99.202498 
3238.000000	99.203401 
3237.000000	99.204583 
3236.000000	99.205997 
3235.000000	99.207381 
3234.000000	99.208384 
3233.000000	99.208831 
3232.000000	99.208878 
3231.000000	99.208929 
3230.000000	99.209323 
3229.000000	99.210126 
3228.000000	99.211149 
3227.000000	99.212088 
3226.000000	99.212700 
3225.000000	99.212941 
3224.000000	99.213019 
3223.000000	99.213248 
3222.000000	99.213775 
3221.000000	99.214465 
3220.000000	99.215064 
3219.000000	99.215444 
3218.000000	99.215713 
3217.000000	99.216097 
3216.000000	99.216761 
3215.000000	99.217712 
3214.000000	99.218842 
3213.000000	99.219983 
3212.000000	99.220964 
3211.000000	99.221688 
3210.000000	99.222176 
3209.000000	99.222571 
3208.000000	99.223041 
3207.000000	99.223677 
3206.000000	99.224457 
3205.000000	99.225286 
3204.000000	99.226067 
3203.000000	99.226765 
3202.000000	99.227404 
3201.000000	99.228029 
3200.000000	99.228660 
3199.000000	99.229297 
3198.000000	99.229935 
3197.000000	99.230579 
3196.000000	99.231245 
3195.000000	99.231959 
3194.000000	99.232738 
3193.000000	99.233567 
3192.000000	99.234375 
3191.000000	99.235048 
3190.000000	99.235495 
3189.000000	99.235715 
3188.000000	99.235843 
3187.000000	99.236087 
3186.000000	99.236604 
3185.000000	99.237424 
3184.000000	99.238441 
3183.000000	99.239447 
3182.000000	99.240261 
3181.000000	99.240885 
3180.000000	99.241547 
3179.000000	99.242513 
3178.000000	99.243782 
3177.000000	99.245009 
3176.000000	99.245821 
3175.000000	99.246237 
3174.000000	99.246676 
3173.000000	99.247461 
3172.000000	99.248363 
3171.000000	99.248808 
3170.000000	99.248580 
3169.000000	99.248171 
3168.000000	99.248325 
3167.000000	99.249257 
3166.000000	99.250506 
3165.000000	99.251485 
3164.000000	99.252052 
3163.000000	99.252472 
3162.000000	99.252995 
3161.000000	99.253683 
3160.000000	99.254533 
3159.000000	99.255545 
3158.000000	99.256580 
3157.000000	99.257289 
3156.000000	99.257335 
3155.000000	99.256674 
3154.000000	99.255598 
3153.000000	99.254520 
3152.000000	99.253726 
3151.000000	99.253357 
3150.000000	99.253557 
3149.000000	99.254522 
3148.000000	99.256326 
3147.000000	99.258698 
3146.000000	99.261090 
3145.000000	99.263017 
3144.000000	99.264302 
3143.000000	99.265033 
3142.000000	99.265362 
3141.000000	99.265408 
3140.000000	99.265297 
3139.000000	99.265208 
3138.000000	99.265321 
3137.000000	99.265746 
3136.000000	99.266540 
3135.000000	99.267727 
3134.000000	99.269231 
3133.000000	99.270771 
3132.000000	99.271923 
3131.000000	99.272435 
3130.000000	99.272481 
3129.000000	99.272592 
3128.000000	99.273251 
3127.000000	99.274586 
3126.000000	99.276377 
3125.000000	99.278169 
3124.000000	99.279374 
3123.000000	99.279518 
3122.000000	99.278601 
3121.000000	99.277308 
3120.000000	99.276576 
3119.000000	99.276812 
3118.000000	99.277711 
3117.000000	99.278750 
3116.000000	99.279756 
3115.000000	99.280914 
3114.000000	99.282361 
3113.000000	99.283915 
3112.000000	99.285173 
3111.000000	99.285833 
3110.000000	99.285973 
3109.000000	99.286032 
3108.000000	99.286405 
3107.000000	99.287056 
3106.000000	99.287623 
3105.000000	99.287915 
3104.000000	99.288137 
3103.000000	99.288600 
3102.000000	99.289443 
3101.000000	99.290744 
3100.000000	99.292611 
3099.000000	99.294955 
3098.000000	99.297298 
3097.000000	99.299050 
3096.000000	99.299950 
3095.000000	99.300158 
3094.000000	99.300029 
3093.000000	99.299870 
3092.000000	99.299778 
3091.000000	99.299624 
3090.000000	99.299277 
3089.000000	99.298903 
3088.000000	99.298837 
3087.000000	99.299081 
3086.000000	99.299170 
3085.000000	99.298729 
3084.000000	99.297947 
3083.000000	99.297233 
3082.000000	99.296662 
3081.000000	99.296156 
3080.000000	99.296032 
3079.000000	99.296875 
3078.000000	99.298859 
3077.000000	99.301453 
3076.000000	99.303844 
3075.000000	99.305461 
3074.000000	99.306030 
3073.000000	99.305512 
3072.000000	99.304222 
3071.000000	99.302746 
3070.000000	99.301481 
3069.000000	99.300351 
3068.000000	99.299213 
3067.000000	99.298425 
3066.000000	99.298765 
3065.000000	99.300710 
3064.000000	99.303855 
3063.000000	99.306966 
3062.000000	99.308710 
3061.000000	99.308484 
3060.000000	99.306715 
3059.000000	99.304474 
3058.000000	99.302757 
3057.000000	99.302131 
3056.000000	99.302828 
3055.000000	99.304703 
3054.000000	99.306983 
3053.000000	99.308476 
3052.000000	99.308432 
3051.000000	99.307154 
3050.000000	99.305706 
3049.000000	99.305082 
3048.000000	99.305609 
3047.000000	99.306748 
3046.000000	99.307248 
3045.000000	99.305867 
3044.000000	99.302494 
3043.000000	99.298587 
3042.000000	99.296133 
3041.000000	99.295979 
3040.000000	99.297324 
3039.000000	99.298686 
3038.000000	99.299041 
3037.000000	99.298077 
3036.000000	99.295875 
3035.000000	99.292808 
3034.000000	99.289596 
3033.000000	99.286955 
3032.000000	99.284922 
3031.000000	99.282672 
3030.000000	99.279300 
3029.000000	99.274891 
3028.000000	99.270731 
3027.000000	99.268330 
3026.000000	99.268141 
3025.000000	99.269106 
3024.000000	99.269389 
3023.000000	99.267694 
3022.000000	99.264101 
3021.000000	99.259757 
3020.000000	99.255602 
3019.000000	99.251408 
3018.000000	99.246400 
3017.000000	99.240663 
3016.000000	99.235288 
3015.000000	99.230880 
3014.000000	99.226751 
3013.000000	99.222227 
3012.000000	99.218081 
3011.000000	99.215557 
3010.000000	99.214266 
3009.000000	99.212327 
3008.000000	99.208804 
3007.000000	99.204843 
3006.000000	99.201871 
3005.000000	99.199569 
3004.000000	99.196427 
3003.000000	99.191795 
3002.000000	99.186578 
3001.000000	99.182131 
3000.000000	99.179033 
2999.000000	99.176839 
2998.000000	99.174581 
2997.000000	99.171581 
2996.000000	99.168004 
2995.000000	99.164396 
2994.000000	99.160551 
2993.000000	99.155335 
2992.000000	99.148051 
2991.000000	99.139692 
2990.000000	99.132443 
2989.000000	99.128136 
2988.000000	99.127395 
2987.000000	99.129756 
2986.000000	99.133997 
2985.000000	99.138549 
2984.000000	99.142030 
2983.000000	99.143578 
2982.000000	99.142878 
2981.000000	99.140499 
2980.000000	99.138277 
2979.000000	99.138412 
2978.000000	99.141464 
2977.000000	99.145558 
2976.000000	99.148108 
2975.000000	99.148182 
2974.000000	99.146760 
2973.000000	99.145252 
2972.000000	99.144570 
2971.000000	99.145300 
2970.000000	99.147661 
2969.000000	99.151014 
2968.000000	99.154158 
2967.000000	99.156500 
2966.000000	99.158617 
2965.000000	99.161423 
2964.000000	99.165096 
2963.000000	99.168971 
2962.000000	99.172192 
2961.000000	99.174341 
2960.000000	99.175602 
2959.000000	99.176552 
2958.000000	99.177737 
2957.000000	99.179405 
2956.000000	99.181584 
2955.000000	99.184245 
2954.000000	99.187338 
2953.000000	99.190783 
2952.000000	99.194470 
2951.000000	99.198109 
2950.000000	99.201088 
2949.000000	99.202891 
2948.000000	99.203704 
2947.000000	99.204280 
2946.000000	99.205101 
2945.000000	99.206170 
2944.000000	99.207695 
2943.000000	99.210145 
2942.000000	99.213042 
2941.000000	99.214461 
2940.000000	99.212841 
2939.000000	99.209238 
2938.000000	99.206926 
2937.000000	99.208367 
2936.000000	99.213189 
2935.000000	99.219051 
2934.000000	99.223707 
2933.000000	99.226010 
2932.000000	99.225832 
2931.000000	99.223860 
2930.000000	99.221344 
2929.000000	99.219525 
2928.000000	99.219134 
2927.000000	99.220240 
2926.000000	99.222165 
2925.000000	99.223614 
2924.000000	99.223537 
2923.000000	99.222055 
2922.000000	99.220081 
2921.000000	99.217942 
2920.000000	99.215083 
2919.000000	99.211336 
2918.000000	99.207699 
2917.000000	99.205271 
2916.000000	99.203917 
2915.000000	99.202604 
2914.000000	99.200794 
2913.000000	99.198956 
2912.000000	99.197913 
2911.000000	99.198134 
2910.000000	99.199477 
2909.000000	99.201200 
2908.000000	99.202235 
2907.000000	99.201895 
2906.000000	99.200271 
2905.000000	99.197768 
2904.000000	99.194479 
2903.000000	99.190411 
2902.000000	99.186274 
2901.000000	99.183823 
2900.000000	99.184575 
2899.000000	99.188832 
2898.000000	99.195158 
2897.000000	99.200955 
2896.000000	99.204058 
2895.000000	99.204314 
2894.000000	99.203619 
2893.000000	99.204193 
2892.000000	99.206837 
2891.000000	99.210792 
2890.000000	99.214773 
2889.000000	99.217795 
2888.000000	99.219361 
2887.000000	99.219603 
2886.000000	99.219408 
2885.000000	99.219922 
2884.000000	99.221650 
2883.000000	99.224281 
2882.000000	99.227430 
2881.000000	99.231137 
2880.000000	99.235375 
2879.000000	99.239467 
2878.000000	99.242518 
2877.000000	99.244474 
2876.000000	99.246378 
2875.000000	99.249351 
2874.000000	99.253439 
2873.000000	99.257600 
2872.000000	99.260717 
2871.000000	99.262455 
2870.000000	99.263219 
2869.000000	99.263687 
2868.000000	99.264593 
2867.000000	99.266608 
2866.000000	99.269922 
2865.000000	99.273893 
2864.000000	99.277460 
2863.000000	99.280054 
2862.000000	99.281771 
2861.000000	99.282681 
2860.000000	99.282544 
2859.000000	99.281557 
2858.000000	99.280878 
2857.000000	99.281760 
2856.000000	99.284232 
2855.000000	99.287170 
2854.000000	99.289656 
2853.000000	99.291851 
2852.000000	99.294374 
2851.000000	99.297378 
2850.000000	99.300609 
2849.000000	99.303985 
2848.000000	99.307638 
2847.000000	99.311496 
2846.000000	99.315184 
2845.000000	99.318298 
2844.000000	99.320536 
2843.000000	99.321638 
2842.000000	99.321585 
2841.000000	99.320987 
2840.000000	99.320931 
2839.000000	99.322147 
2838.000000	99.324359 
2837.000000	99.326503 
2836.000000	99.327635 
2835.000000	99.327672 
2834.000000	99.327417 
2833.000000	99.327833 
2832.000000	99.329161 
2831.000000	99.330712 
2830.000000	99.331597 
2829.000000	99.331616 
2828.000000	99.331391 
2827.000000	99.331668 
2826.000000	99.332674 
2825.000000	99.334138 
2824.000000	99.335663 
2823.000000	99.336915 
2822.000000	99.337662 
2821.000000	99.337898 
2820.000000	99.337919 
2819.000000	99.338078 
2818.000000	99.338420 
2817.000000	99.338717 
2816.000000	99.338870 
2815.000000	99.339086 
2814.000000	99.339535 
2813.000000	99.340032 
2812.000000	99.340254 
2811.000000	99.340269 
2810.000000	99.340602 
2809.000000	99.341703 
2808.000000	99.343410 
2807.000000	99.345024 
2806.000000	99.345882 
2805.000000	99.345858 
2804.000000	99.345372 
2803.000000	99.345029 
2802.000000	99.345168 
2801.000000	99.345720 
2800.000000	99.346386 
2799.000000	99.346912 
2798.000000	99.347230 
2797.000000	99.347397 
2796.000000	99.347439 
2795.000000	99.347311 
2794.000000	99.347001 
2793.000000	99.346621 
2792.000000	99.346328 
2791.000000	99.346185 
2790.000000	99.346210 
2789.000000	99.346555 
2788.000000	99.347459 
2787.000000	99.348940 
2786.000000	99.350562 
2785.000000	99.351676 
2784.000000	99.351965 
2783.000000	99.351699 
2782.000000	99.351455 
2781.000000	99.351655 
2780.000000	99.352349 
2779.000000	99.353289 
2778.000000	99.354100 
2777.000000	99.354487 
2776.000000	99.354416 
2775.000000	99.354087 
2774.000000	99.353680 
2773.000000	99.353207 
2772.000000	99.352779 
2771.000000	99.352909 
2770.000000	99.354237 
2769.000000	99.356816 
2768.000000	99.359836 
2767.000000	99.362310 
2766.000000	99.363961 
2765.000000	99.365136 
2764.000000	99.365920 
2763.000000	99.365770 
2762.000000	99.364250 
2761.000000	99.361793 
2760.000000	99.359427 
2759.000000	99.357810 
2758.000000	99.356898 
2757.000000	99.356469 
2756.000000	99.356543 
2755.000000	99.357138 
2754.000000	99.357923 
2753.000000	99.358461 
2752.000000	99.358784 
2751.000000	99.359458 
2750.000000	99.360968 
2749.000000	99.363114 
2748.000000	99.365045 
2747.000000	99.365888 
2746.000000	99.365331 
2745.000000	99.363713 
2744.000000	99.361717 
2743.000000	99.360007 
2742.000000	99.359066 
2741.000000	99.359175 
2740.000000	99.360278 
2739.000000	99.361854 
2738.000000	99.363205 
2737.000000	99.364084 
2736.000000	99.364888 
2735.000000	99.366059 
2734.000000	99.367396 
2733.000000	99.368173 
2732.000000	99.367891 
2731.000000	99.366657 
2730.000000	99.364847 
2729.000000	99.362756 
2728.000000	99.360735 
2727.000000	99.359406 
2726.000000	99.359338 
2725.000000	99.360540 
2724.000000	99.362479 
2723.000000	99.364645 
2722.000000	99.366917 
2721.000000	99.369258 
2720.000000	99.371246 
2719.000000	99.372180 
2718.000000	99.371688 
2717.000000	99.370137 
2716.000000	99.368413 
2715.000000	99.367242 
2714.000000	99.366777 
2713.000000	99.366770 
2712.000000	99.366972 
2711.000000	99.367311 
2710.000000	99.367862 
2709.000000	99.368804 
2708.000000	99.370302 
2707.000000	99.372237 
2706.000000	99.374090 
2705.000000	99.375348 
2704.000000	99.376009 
2703.000000	99.376469 
2702.000000	99.376857 
2701.000000	99.376739 
2700.000000	99.375667 
2699.000000	99.373885 
2698.000000	99.372311 
2697.000000	99.371756 
2696.000000	99.372327 
2695.000000	99.373562 
2694.000000	99.374947 
2693.000000	99.376236 
2692.000000	99.377355 
2691.000000	99.378144 
2690.000000	99.378371 
2689.000000	99.378045 
2688.000000	99.377557 
2687.000000	99.377370 
2686.000000	99.377605 
2685.000000	99.378001 
2684.000000	99.378205 
2683.000000	99.377968 
2682.000000	99.377149 
2681.000000	99.375783 
2680.000000	99.374253 
2679.000000	99.373201 
2678.000000	99.373060 
2677.000000	99.373814 
2676.000000	99.375213 
2675.000000	99.377029 
2674.000000	99.378959 
2673.000000	99.380466 
2672.000000	99.381048 
2671.000000	99.380675 
2670.000000	99.379830 
2669.000000	99.379078 
2668.000000	99.378659 
2667.000000	99.378534 
2666.000000	99.378581 
2665.000000	99.378620 
2664.000000	99.378392 
2663.000000	99.377715 
2662.000000	99.376715 
2661.000000	99.375873 
2660.000000	99.375721 
2659.000000	99.376448 
2658.000000	99.377731 
2657.000000	99.378889 
2656.000000	99.379391 
2655.000000	99.379176 
2654.000000	99.378535 
2653.000000	99.377799 
2652.000000	99.377223 
2651.000000	99.377087 
2650.000000	99.377598 
2649.000000	99.378551 
2648.000000	99.379291 
2647.000000	99.379294 
2646.000000	99.378742 
2645.000000	99.378332 
2644.000000	99.378489 
2643.000000	99.378950 
2642.000000	99.379138 
2641.000000	99.378812 
2640.000000	99.378239 
2639.000000	99.377815 
2638.000000	99.377566 
2637.000000	99.377052 
2636.000000	99.375802 
2635.000000	99.373880 
2634.000000	99.371961 
2633.000000	99.370806 
2632.000000	99.370761 
2631.000000	99.371728 
2630.000000	99.373314 
2629.000000	99.374838 
2628.000000	99.375514 
2627.000000	99.375068 
2626.000000	99.374144 
2625.000000	99.373742 
2624.000000	99.374180 
2623.000000	99.374894 
2622.000000	99.375279 
2621.000000	99.375304 
2620.000000	99.375165 
2619.000000	99.374756 
2618.000000	99.373896 
2617.000000	99.372870 
2616.000000	99.372343 
2615.000000	99.372756 
2614.000000	99.374064 
2613.000000	99.375947 
2612.000000	99.378061 
2611.000000	99.380092 
2610.000000	99.381737 
2609.000000	99.382672 
2608.000000	99.382608 
2607.000000	99.381566 
2606.000000	99.380217 
2605.000000	99.379653 
2604.000000	99.380386 
2603.000000	99.381649 
2602.000000	99.382119 
2601.000000	99.381438 
2600.000000	99.380619 
2599.000000	99.380688 
2598.000000	99.381265 
2597.000000	99.380941 
2596.000000	99.378922 
2595.000000	99.375833 
2594.000000	99.373174 
2593.000000	99.372024 
2592.000000	99.372412 
2591.000000	99.373624 
2590.000000	99.374783 
2589.000000	99.375360 
2588.000000	99.375326 
2587.000000	99.374895 
2586.000000	99.374214 
2585.000000	99.373374 
2584.000000	99.372609 
2583.000000	99.372244 
2582.000000	99.372309 
2581.000000	99.372340 
2580.000000	99.371725 
2579.000000	99.370217 
2578.000000	99.368058 
2577.000000	99.365729 
2576.000000	99.363699 
2575.000000	99.362335 
2574.000000	99.361836 
2573.000000	99.362130 
2572.000000	99.362896 
2571.000000	99.363744 
2570.000000	99.364382 
2569.000000	99.364642 
2568.000000	99.364470 
2567.000000	99.363944 
2566.000000	99.363221 
2565.000000	99.362430 
2564.000000	99.361630 
2563.000000	99.360869 
2562.000000	99.360199 
2561.000000	99.359588 
2560.000000	99.358857 
2559.000000	99.357795 
2558.000000	99.356399 
2557.000000	99.355020 
2556.000000	99.354185 
2555.000000	99.354172 
2554.000000	99.354783 
2553.000000	99.355396 
2552.000000	99.355421 
2551.000000	99.354706 
2550.000000	99.353532 
2549.000000	99.352405 
2548.000000	99.351732 
2547.000000	99.351647 
2546.000000	99.351990 
2545.000000	99.352396 
2544.000000	99.352565 
2543.000000	99.352435 
2542.000000	99.352100 
2541.000000	99.351577 
2540.000000	99.350803 
2539.000000	99.349858 
2538.000000	99.348964 
2537.000000	99.348192 
2536.000000	99.347370 
2535.000000	99.346442 
2534.000000	99.345714 
2533.000000	99.345501 
2532.000000	99.345655 
2531.000000	99.345760 
2530.000000	99.345761 
2529.000000	99.346068 
2528.000000	99.346895 
2527.000000	99.347773 
2526.000000	99.347959 
2525.000000	99.347253 
2524.000000	99.346229 
2523.000000	99.345633 
2522.000000	99.345625 
2521.000000	99.345807 
2520.000000	99.345802 
2519.000000	99.345574 
2518.000000	99.345215 
2517.000000	99.344751 
2516.000000	99.344297 
2515.000000	99.344174 
2514.000000	99.344677 
2513.000000	99.345813 
2512.000000	99.347353 
2511.000000	99.349035 
2510.000000	99.350572 
2509.000000	99.351625 
2508.000000	99.352125 
2507.000000	99.352473 
2506.000000	99.352987 
2505.000000	99.353200 
2504.000000	99.352178 
2503.000000	99.349739 
2502.000000	99.347088 
2501.000000	99.345940 
2500.000000	99.347149 
2499.000000	99.350394 
2498.000000	99.354635 
2497.000000	99.358570 
2496.000000	99.360967 
2495.000000	99.361188 
2494.000000	99.359665 
2493.000000	99.357665 
2492.000000	99.356228 
2491.000000	99.355516 
2490.000000	99.355308 
2489.000000	99.355817 
2488.000000	99.357676 
2487.000000	99.361122 
2486.000000	99.365245 
2485.000000	99.368196 
2484.000000	99.368477 
2483.000000	99.366151 
2482.000000	99.362806 
2481.000000	99.360079 
2480.000000	99.358225 
2479.000000	99.356419 
2478.000000	99.354081 
2477.000000	99.351457 
2476.000000	99.349090 
2475.000000	99.347378 
2474.000000	99.346747 
2473.000000	99.347600 
2472.000000	99.349799 
2471.000000	99.352562 
2470.000000	99.355144 
2469.000000	99.357320 
2468.000000	99.358971 
2467.000000	99.359664 
2466.000000	99.359038 
2465.000000	99.357300 
2464.000000	99.354999 
2463.000000	99.352566 
2462.000000	99.350410 
2461.000000	99.349087 
2460.000000	99.348807 
2459.000000	99.348984 
2458.000000	99.348901 
2457.000000	99.348720 
2456.000000	99.349324 
2455.000000	99.351148 
2454.000000	99.353677 
2453.000000	99.356079 
2452.000000	99.357866 
2451.000000	99.358759 
2450.000000	99.358377 
2449.000000	99.356515 
2448.000000	99.353668 
2447.000000	99.351024 
2446.000000	99.349789 
2445.000000	99.350432 
2444.000000	99.352405 
2443.000000	99.354444 
2442.000000	99.355479 
2441.000000	99.355424 
2440.000000	99.355120 
2439.000000	99.355513 
2438.000000	99.356825 
2437.000000	99.358445 
2436.000000	99.359529 
2435.000000	99.359692 
2434.000000	99.359213 
2433.000000	99.358734 
2432.000000	99.358774 
2431.000000	99.359434 
2430.000000	99.360395 
2429.000000	99.361096 
2428.000000	99.361038 
2427.000000	99.360180 
2426.000000	99.359150 
2425.000000	99.358852 
2424.000000	99.359687 
2423.000000	99.361326 
2422.000000	99.363317 
2421.000000	99.365567 
2420.000000	99.367820 
2419.000000	99.369054 
2418.000000	99.368207 
2417.000000	99.365431 
2416.000000	99.362150 
2415.000000	99.359562 
2414.000000	99.357677 
2413.000000	99.356092 
2412.000000	99.354974 
2411.000000	99.354783 
2410.000000	99.355472 
2409.000000	99.356512 
2408.000000	99.357498 
2407.000000	99.358263 
2406.000000	99.358644 
2405.000000	99.358681 
2404.000000	99.358845 
2403.000000	99.359540 
2402.000000	99.360414 
2401.000000	99.360601 
2400.000000	99.359584 
2399.000000	99.357561 
2398.000000	99.355210 
2397.000000	99.353387 
2396.000000	99.352833 
2395.000000	99.353702 
2394.000000	99.355236 
2393.000000	99.356300 
2392.000000	99.356501 
2391.000000	99.356306 
2390.000000	99.356287 
2389.000000	99.356653 
2388.000000	99.357415 
2387.000000	99.358525 
2386.000000	99.359707 
2385.000000	99.360494 
2384.000000	99.360637 
2383.000000	99.360410 
2382.000000	99.360451 
2381.000000	99.361236 
2380.000000	99.362706 
2379.000000	99.364386 
2378.000000	99.365922 
2377.000000	99.367298 
2376.000000	99.368306 
2375.000000	99.368289 
2374.000000	99.366963 
2373.000000	99.365108 
2372.000000	99.363913 
2371.000000	99.363707 
2370.000000	99.363992 
2369.000000	99.364416 
2368.000000	99.364884 
2367.000000	99.365033 
2366.000000	99.364567 
2365.000000	99.363878 
2364.000000	99.363475 
2363.000000	99.363017 
2362.000000	99.361746 
2361.000000	99.359865 
2360.000000	99.358311 
2359.000000	99.357418 
2358.000000	99.357038 
2357.000000	99.357203 
2356.000000	99.358166 
2355.000000	99.359836 
2354.000000	99.362274 
2353.000000	99.364739 
2352.000000	99.365665 
2351.000000	99.364323 
2350.000000	99.361375 
2349.000000	99.358259 
2348.000000	99.356059 
2347.000000	99.355374 
2346.000000	99.355883 
2345.000000	99.356163 
2344.000000	99.355460 
2343.000000	99.354295 
2342.000000	99.353641 
2341.000000	99.353483 
2340.000000	99.353478 
2339.000000	99.353621 
2338.000000	99.354183 
2337.000000	99.354938 
2336.000000	99.354606 
2335.000000	99.352664 
2334.000000	99.350273 
2333.000000	99.349377 
2332.000000	99.349803 
2331.000000	99.350508 
2330.000000	99.350338 
2329.000000	99.349469 
2328.000000	99.347521 
2327.000000	99.345180 
2326.000000	99.343242 
2325.000000	99.341959 
2324.000000	99.340450 
2323.000000	99.338842 
2322.000000	99.338665 
2321.000000	99.340424 
2320.000000	99.341855 
2319.000000	99.341061 
2318.000000	99.338372 
2317.000000	99.336376 
2316.000000	99.336042 
2315.000000	99.337516 
2314.000000	99.339852 
2313.000000	99.343060 
2312.000000	99.346262 
2311.000000	99.349203 
2310.000000	99.351278 
2309.000000	99.352553 
2308.000000	99.352694 
2307.000000	99.352336 
2306.000000	99.352083 
2305.000000	99.352674 
2304.000000	99.354242 
2303.000000	99.357230 
2302.000000	99.361139 
2301.000000	99.364730 
2300.000000	99.366516 
2299.000000	99.366998 
2298.000000	99.367235 
2297.000000	99.367575 
2296.000000	99.366708 
2295.000000	99.364350 
2294.000000	99.361810 
2293.000000	99.360999 
2292.000000	99.362296 
2291.000000	99.364943 
2290.000000	99.367952 
2289.000000	99.370427 
2288.000000	99.371558 
2287.000000	99.371038 
2286.000000	99.369378 
2285.000000	99.367172 
2284.000000	99.364833 
2283.000000	99.363069 
2282.000000	99.363188 
2281.000000	99.365818 
2280.000000	99.369900 
2279.000000	99.373341 
2278.000000	99.375009 
2277.000000	99.375470 
2276.000000	99.375863 
2275.000000	99.376700 
2274.000000	99.377700 
2273.000000	99.378355 
2272.000000	99.378352 
2271.000000	99.377998 
2270.000000	99.378281 
2269.000000	99.380211 
2268.000000	99.383759 
2267.000000	99.387616 
2266.000000	99.390136 
2265.000000	99.390514 
2264.000000	99.389037 
2263.000000	99.386565 
2262.000000	99.383907 
2261.000000	99.381514 
2260.000000	99.379495 
2259.000000	99.377839 
2258.000000	99.376600 
2257.000000	99.375959 
2256.000000	99.376196 
2255.000000	99.377351 
2254.000000	99.378892 
2253.000000	99.379955 
2252.000000	99.380241 
2251.000000	99.380427 
2250.000000	99.381239 
2249.000000	99.382470 
2248.000000	99.383227 
2247.000000	99.383173 
2246.000000	99.382729 
2245.000000	99.382364 
2244.000000	99.382175 
2243.000000	99.382159 
2242.000000	99.382438 
2241.000000	99.383021 
2240.000000	99.383729 
2239.000000	99.384422 
2238.000000	99.385003 
2237.000000	99.385333 
2236.000000	99.385340 
2235.000000	99.385159 
2234.000000	99.385020 
2233.000000	99.385013 
2232.000000	99.385075 
2231.000000	99.385144 
2230.000000	99.385219 
2229.000000	99.385309 
2228.000000	99.385415 
2227.000000	99.385543 
2226.000000	99.385701 
2225.000000	99.385899 
2224.000000	99.386148 
2223.000000	99.386455 
2222.000000	99.386817 
2221.000000	99.387222 
2220.000000	99.387651 
2219.000000	99.388084 
2218.000000	99.388517 
2217.000000	99.388957 
2216.000000	99.389403 
2215.000000	99.389845 
2214.000000	99.390269 
2213.000000	99.390674 
2212.000000	99.391078 
2211.000000	99.391505 
2210.000000	99.391970 
2209.000000	99.392469 
2208.000000	99.392985 
2207.000000	99.393493 
2206.000000	99.393979 
2205.000000	99.394448 
2204.000000	99.394928 
2203.000000	99.395453 
2202.000000	99.396040 
2201.000000	99.396677 
2200.000000	99.397326 
2199.000000	99.397955 
2198.000000	99.398552 
2197.000000	99.399124 
2196.000000	99.399668 
2195.000000	99.400218 
2194.000000	99.400850 
2193.000000	99.401586 
2192.000000	99.402367 
2191.000000	99.403110 
2190.000000	99.403818 
2189.000000	99.404653 
2188.000000	99.405785 
2187.000000	99.407117 
2186.000000	99.408240 
2185.000000	99.408832 
2184.000000	99.409015 
2183.000000	99.409186 
2182.000000	99.409525 
2181.000000	99.409915 
2180.000000	99.410224 
2179.000000	99.410354 
2178.000000	99.410047 
2177.000000	99.409127 
2176.000000	99.408067 
2175.000000	99.407746 
2174.000000	99.408364 
2173.000000	99.409190 
2172.000000	99.409907 
2171.000000	99.411529 
2170.000000	99.415056 
2169.000000	99.419659 
2168.000000	99.423029 
2167.000000	99.423787 
2166.000000	99.422599 
2165.000000	99.421138 
2164.000000	99.420626 
2163.000000	99.421620 
2162.000000	99.424108 
2161.000000	99.426846 
2160.000000	99.427526 
2159.000000	99.424861 
2158.000000	99.419965 
2157.000000	99.414987 
2156.000000	99.411106 
2155.000000	99.408749 
2154.000000	99.408662 
2153.000000	99.411345 
2152.000000	99.415668 
2151.000000	99.419270 
2150.000000	99.420711 
2149.000000	99.420604 
2148.000000	99.420623 
2147.000000	99.421600 
2146.000000	99.422672 
2145.000000	99.422202 
2144.000000	99.419451 
2143.000000	99.415374 
2142.000000	99.411883 
2141.000000	99.410018 
2140.000000	99.409174 
2139.000000	99.408261 
2138.000000	99.407259 
2137.000000	99.407068 
2136.000000	99.407987 
2135.000000	99.409141 
2134.000000	99.409685 
2133.000000	99.409913 
2132.000000	99.410586 
2131.000000	99.411497 
2130.000000	99.411374 
2129.000000	99.409319 
2128.000000	99.406014 
2127.000000	99.403291 
2126.000000	99.402479 
2125.000000	99.403543 
2124.000000	99.405621 
2123.000000	99.408016 
2122.000000	99.410415 
2121.000000	99.412455 
2120.000000	99.413699 
2119.000000	99.414062 
2118.000000	99.413837 
2117.000000	99.413243 
2116.000000	99.412323 
2115.000000	99.411295 
2114.000000	99.410607 
2113.000000	99.410541 
2112.000000	99.410920 
2111.000000	99.411432 
2110.000000	99.412063 
2109.000000	99.412889 
2108.000000	99.413531 
2107.000000	99.413158 
2106.000000	99.411278 
2105.000000	99.408486 
2104.000000	99.406332 
2103.000000	99.406089 
2102.000000	99.407578 
2101.000000	99.409286 
2100.000000	99.409841 
2099.000000	99.409246 
2098.000000	99.408614 
2097.000000	99.409009 
2096.000000	99.410717 
2095.000000	99.413344 
2094.000000	99.416128 
2093.000000	99.418215 
2092.000000	99.419123 
2091.000000	99.419103 
2090.000000	99.418946 
2089.000000	99.419264 
2088.000000	99.419976 
2087.000000	99.420564 
2086.000000	99.420711 
2085.000000	99.420629 
2084.000000	99.420901 
2083.000000	99.422018 
2082.000000	99.423965 
2081.000000	99.426159 
2080.000000	99.427918 
2079.000000	99.429111 
2078.000000	99.430261 
2077.000000	99.431920 
2076.000000	99.433941 
2075.000000	99.435484 
2074.000000	99.435788 
2073.000000	99.434853 
2072.000000	99.433529 
2071.000000	99.432880 
2070.000000	99.433392 
2069.000000	99.434718 
2068.000000	99.436074 
2067.000000	99.436955 
2066.000000	99.437442 
2065.000000	99.437987 
2064.000000	99.439033 
2063.000000	99.440692 
2062.000000	99.442606 
2061.000000	99.444157 
2060.000000	99.445027 
2059.000000	99.445472 
2058.000000	99.446088 
2057.000000	99.447218 
2056.000000	99.448689 
2055.000000	99.450090 
2054.000000	99.451202 
2053.000000	99.452104 
2052.000000	99.452984 
2051.000000	99.453944 
2050.000000	99.454947 
2049.000000	99.455878 
2048.000000	99.456669 
2047.000000	99.457383 
2046.000000	99.458134 
2045.000000	99.458924 
2044.000000	99.459609 
2043.000000	99.460091 
2042.000000	99.460441 
2041.000000	99.460806 
2040.000000	99.461234 
2039.000000	99.461664 
2038.000000	99.462031 
2037.000000	99.462322 
2036.000000	99.462552 
2035.000000	99.462742 
2034.000000	99.462907 
2033.000000	99.463064 
2032.000000	99.463236 
2031.000000	99.463441 
2030.000000	99.463676 
2029.000000	99.463911 
2028.000000	99.464070 
2027.000000	99.464089 
2026.000000	99.463948 
2025.000000	99.463717 
2024.000000	99.463518 
2023.000000	99.463437 
2022.000000	99.463502 
2021.000000	99.463619 
2020.000000	99.463611 
2019.000000	99.463372 
2018.000000	99.463030 
2017.000000	99.462834 
2016.000000	99.462794 
2015.000000	99.462686 
2014.000000	99.462464 
2013.000000	99.462374 
2012.000000	99.462562 
2011.000000	99.462822 
2010.000000	99.462921 
2009.000000	99.462952 
2008.000000	99.463183 
2007.000000	99.463699 
2006.000000	99.464313 
2005.000000	99.464718 
2004.000000	99.464701 
2003.000000	99.464416 
2002.000000	99.464425 
2001.000000	99.465046 
2000.000000	99.465558 
1999.000000	99.464526 
1998.000000	99.461079 
1997.000000	99.455789 
1996.000000	99.450428 
1995.000000	99.446943 
1994.000000	99.446526 
1993.000000	99.448978 
1992.000000	99.452627 
1991.000000	99.455449 
1990.000000	99.456384 
1989.000000	99.455292 
1988.000000	99.452664 
1987.000000	99.450178 
1986.000000	99.450578 
1985.000000	99.455606 
1984.000000	99.463838 
1983.000000	99.471478 
1982.000000	99.475606 
1981.000000	99.475765 
1980.000000	99.473315 
1979.000000	99.470247 
1978.000000	99.468034 
1977.000000	99.466218 
1976.000000	99.462472 
1975.000000	99.455656 
1974.000000	99.448743 
1973.000000	99.446818 
1972.000000	99.451697 
1971.000000	99.459904 
1970.000000	99.466481 
1969.000000	99.470144 
1968.000000	99.473463 
1967.000000	99.478581 
1966.000000	99.484277 
1965.000000	99.487682 
1964.000000	99.487428 
1963.000000	99.484120 
1962.000000	99.478853 
1961.000000	99.472544 
1960.000000	99.466404 
1959.000000	99.461740 
1958.000000	99.458813 
1957.000000	99.456454 
1956.000000	99.453272 
1955.000000	99.448959 
1954.000000	99.444200 
1953.000000	99.439899 
1952.000000	99.436916 
1951.000000	99.436074 
1950.000000	99.437556 
1949.000000	99.440255 
1948.000000	99.442286 
1947.000000	99.442507 
1946.000000	99.441075 
1945.000000	99.438562 
1944.000000	99.435300 
1943.000000	99.431746 
1942.000000	99.428545 
1941.000000	99.425645 
1940.000000	99.422463 
1939.000000	99.419370 
1938.000000	99.417945 
1937.000000	99.419271 
1936.000000	99.422549 
1935.000000	99.425683 
1934.000000	99.426917 
1933.000000	99.425821 
1932.000000	99.423250 
1931.000000	99.420913 
1930.000000	99.420487 
1929.000000	99.422257 
1928.000000	99.424706 
1927.000000	99.425854 
1926.000000	99.424875 
1925.000000	99.422179 
1924.000000	99.418713 
1923.000000	99.415583 
1922.000000	99.413760 
1921.000000	99.413475 
1920.000000	99.414041 
1919.000000	99.414425 
1918.000000	99.414093 
1917.000000	99.413289 
1916.000000	99.412463 
1915.000000	99.411829 
1914.000000	99.411517 
1913.000000	99.411629 
1912.000000	99.411993 
1911.000000	99.412168 
1910.000000	99.411897 
1909.000000	99.411347 
1908.000000	99.410870 
1907.000000	99.410750 
1906.000000	99.411114 
1905.000000	99.411604 
1904.000000	99.411251 
1903.000000	99.409212 
1902.000000	99.405664 
1901.000000	99.401822 
1900.000000	99.398993 
1899.000000	99.397693 
1898.000000	99.397651 
1897.000000	99.398050 
1896.000000	99.397948 
1895.000000	99.396977 
1894.000000	99.395690 
1893.000000	99.394904 
1892.000000	99.394751 
1891.000000	99.394776 
1890.000000	99.394748 
1889.000000	99.394863 
1888.000000	99.395083 
1887.000000	99.395053 
1886.000000	99.394664 
1885.000000	99.394083 
1884.000000	99.393222 
1883.000000	99.391810 
1882.000000	99.390108 
1881.000000	99.388883 
1880.000000	99.388519 
1879.000000	99.388618 
1878.000000	99.388550 
1877.000000	99.388046 
1876.000000	99.387233 
1875.000000	99.386534 
1874.000000	99.386555 
1873.000000	99.387552 
1872.000000	99.388854 
1871.000000	99.389287 
1870.000000	99.388392 
1869.000000	99.386900 
1868.000000	99.385563 
1867.000000	99.384254 
1866.000000	99.382971 
1865.000000	99.382382 
1864.000000	99.383024 
1863.000000	99.384658 
1862.000000	99.386584 
1861.000000	99.388241 
1860.000000	99.389235 
1859.000000	99.389359 
1858.000000	99.389031 
1857.000000	99.389217 
1856.000000	99.390473 
1855.000000	99.392470 
1854.000000	99.394514 
1853.000000	99.396020 
1852.000000	99.396538 
1851.000000	99.395837 
1850.000000	99.394334 
1849.000000	99.393074 
1848.000000	99.392877 
1847.000000	99.393626 
1846.000000	99.394626 
1845.000000	99.395151 
1844.000000	99.394648 
1843.000000	99.393239 
1842.000000	99.392118 
1841.000000	99.392401 
1840.000000	99.394046 
1839.000000	99.395951 
1838.000000	99.397047 
1837.000000	99.397352 
1836.000000	99.397700 
1835.000000	99.398662 
1834.000000	99.400206 
1833.000000	99.402153 
1832.000000	99.404529 
1831.000000	99.406946 
1830.000000	99.408250 
1829.000000	99.407730 
1828.000000	99.406348 
1827.000000	99.405261 
1826.000000	99.404435 
1825.000000	99.403462 
1824.000000	99.402374 
1823.000000	99.401298 
1822.000000	99.399999 
1821.000000	99.397970 
1820.000000	99.394872 
1819.000000	99.390974 
1818.000000	99.387641 
1817.000000	99.386754 
1816.000000	99.388709 
1815.000000	99.391896 
1814.000000	99.394973 
1813.000000	99.398513 
1812.000000	99.403495 
1811.000000	99.408872 
1810.000000	99.412622 
1809.000000	99.414577 
1808.000000	99.415451 
1807.000000	99.414746 
1806.000000	99.411736 
1805.000000	99.407265 
1804.000000	99.403184 
1803.000000	99.400548 
1802.000000	99.399513 
1801.000000	99.400295 
1800.000000	99.402337 
1799.000000	99.403899 
1798.000000	99.404233 
1797.000000	99.404585 
1796.000000	99.406193 
1795.000000	99.408624 
1794.000000	99.410399 
1793.000000	99.410779 
1792.000000	99.410464 
1791.000000	99.410137 
1790.000000	99.409938 
1789.000000	99.410161 
1788.000000	99.411073 
1787.000000	99.412460 
1786.000000	99.413671 
1785.000000	99.414199 
1784.000000	99.414081 
1783.000000	99.413883 
1782.000000	99.414149 
1781.000000	99.414867 
1780.000000	99.415459 
1779.000000	99.415535 
1778.000000	99.415419 
1777.000000	99.415696 
1776.000000	99.416555 
1775.000000	99.417795 
1774.000000	99.419108 
1773.000000	99.420234 
1772.000000	99.421020 
1771.000000	99.421457 
1770.000000	99.421670 
1769.000000	99.421809 
1768.000000	99.422009 
1767.000000	99.422311 
1766.000000	99.422666 
1765.000000	99.423037 
1764.000000	99.423422 
1763.000000	99.423830 
1762.000000	99.424239 
1761.000000	99.424627 
1760.000000	99.425007 
1759.000000	99.425402 
1758.000000	99.425810 
1757.000000	99.426210 
1756.000000	99.426581 
1755.000000	99.426908 
1754.000000	99.427154 
1753.000000	99.427279 
1752.000000	99.427339 
1751.000000	99.427526 
1750.000000	99.427958 
1749.000000	99.428469 
1748.000000	99.428772 
1747.000000	99.428780 
1746.000000	99.428583 
1745.000000	99.428306 
1744.000000	99.428040 
1743.000000	99.427850 
1742.000000	99.427751 
1741.000000	99.427723 
1740.000000	99.427766 
1739.000000	99.427850 
1738.000000	99.427870 
1737.000000	99.427748 
1736.000000	99.427435 
1735.000000	99.426929 
1734.000000	99.426454 
1733.000000	99.426259 
1732.000000	99.426362 
1731.000000	99.426693 
1730.000000	99.427087 
1729.000000	99.427205 
1728.000000	99.426855 
1727.000000	99.426182 
1726.000000	99.425423 
1725.000000	99.424628 
1724.000000	99.423777 
1723.000000	99.423037 
1722.000000	99.422667 
1721.000000	99.422772 
1720.000000	99.423131 
1719.000000	99.423146 
1718.000000	99.422180 
1717.000000	99.420412 
1716.000000	99.418520 
1715.000000	99.416613 
1714.000000	99.414798 
1713.000000	99.413426 
1712.000000	99.412547 
1711.000000	99.411871 
1710.000000	99.411095 
1709.000000	99.410150 
1708.000000	99.409131 
1707.000000	99.408128 
1706.000000	99.407376 
1705.000000	99.407062 
1704.000000	99.406729 
1703.000000	99.405504 
1702.000000	99.402952 
1701.000000	99.399825 
1700.000000	99.397851 
1699.000000	99.396706 
1698.000000	99.395287 
1697.000000	99.393869 
1696.000000	99.392943 
1695.000000	99.391901 
1694.000000	99.390015 
1693.000000	99.387462 
1692.000000	99.384617 
1691.000000	99.381771 
1690.000000	99.379222 
1689.000000	99.377147 
1688.000000	99.375348 
1687.000000	99.373364 
1686.000000	99.370976 
1685.000000	99.368656 
1684.000000	99.367011 
1683.000000	99.365304 
1682.000000	99.363106 
1681.000000	99.360585 
1680.000000	99.358150 
1679.000000	99.356168 
1678.000000	99.354687 
1677.000000	99.353340 
1676.000000	99.351650 
1675.000000	99.349693 
1674.000000	99.347811 
1673.000000	99.346197 
1672.000000	99.344881 
1671.000000	99.343884 
1670.000000	99.343054 
1669.000000	99.341644 
1668.000000	99.339162 
1667.000000	99.336130 
1666.000000	99.332652 
1665.000000	99.328460 
1664.000000	99.324061 
1663.000000	99.321078 
1662.000000	99.320523 
1661.000000	99.321245 
1660.000000	99.321286 
1659.000000	99.320396 
1658.000000	99.319628 
1657.000000	99.319371 
1656.000000	99.318476 
1655.000000	99.316408 
1654.000000	99.315704 
1653.000000	99.318035 
1652.000000	99.317919 
1651.000000	99.315404 
1650.000000	99.311722 
1649.000000	99.307821 
1648.000000	99.303308 
1647.000000	99.297634 
1646.000000	99.291633 
1645.000000	99.288035 
1644.000000	99.287752 
1643.000000	99.289331 
1642.000000	99.291309 
1641.000000	99.293173 
1640.000000	99.294684 
1639.000000	99.295611 
1638.000000	99.295747 
1637.000000	99.294862 
1636.000000	99.292743 
1635.000000	99.290252 
1634.000000	99.289582 
1633.000000	99.290964 
1632.000000	99.293109 
1631.000000	99.295297 
1630.000000	99.297293 
1629.000000	99.298730 
1628.000000	99.299210 
1627.000000	99.299602 
1626.000000	99.301679 
1625.000000	99.306079 
1624.000000	99.311431 
1623.000000	99.315603 
1622.000000	99.317729 
1621.000000	99.318450 
1620.000000	99.318582 
1619.000000	99.318929 
1618.000000	99.320422 
1617.000000	99.322976 
1616.000000	99.324522 
1615.000000	99.324638 
1614.000000	99.324799 
1613.000000	99.325281 
1612.000000	99.325735 
1611.000000	99.326421 
1610.000000	99.328135 
1609.000000	99.330571 
1608.000000	99.332486 
1607.000000	99.333755 
1606.000000	99.335152 
1605.000000	99.336949 
1604.000000	99.339248 
1603.000000	99.342817 
1602.000000	99.347635 
1601.000000	99.351967 
1600.000000	99.354651 
1599.000000	99.356937 
1598.000000	99.360497 
1597.000000	99.365074 
1596.000000	99.369260 
1595.000000	99.372601 
1594.000000	99.375594 
1593.000000	99.378072 
1592.000000	99.379450 
1591.000000	99.380203 
1590.000000	99.381487 
1589.000000	99.383398 
1588.000000	99.385118 
1587.000000	99.386566 
1586.000000	99.388262 
1585.000000	99.389910 
1584.000000	99.390684 
1583.000000	99.390769 
1582.000000	99.391479 
1581.000000	99.393402 
1580.000000	99.395952 
1579.000000	99.398604 
1578.000000	99.401365 
1577.000000	99.403844 
1576.000000	99.405190 
1575.000000	99.405843 
1574.000000	99.407017 
1573.000000	99.408511 
1572.000000	99.409670 
1571.000000	99.410568 
1570.000000	99.411930 
1569.000000	99.413666 
1568.000000	99.415013 
1567.000000	99.415941 
1566.000000	99.416780 
1565.000000	99.417676 
1564.000000	99.418685 
1563.000000	99.419907 
1562.000000	99.421247 
1561.000000	99.422051 
1560.000000	99.421827 
1559.000000	99.421490 
1558.000000	99.421950 
1557.000000	99.422853 
1556.000000	99.423738 
1555.000000	99.424435 
1554.000000	99.424826 
1553.000000	99.424838 
1552.000000	99.424658 
1551.000000	99.424642 
1550.000000	99.425027 
1549.000000	99.425671 
1548.000000	99.426216 
1547.000000	99.426458 
1546.000000	99.426453 
1545.000000	99.426425 
1544.000000	99.426528 
1543.000000	99.426697 
1542.000000	99.426881 
1541.000000	99.427241 
1540.000000	99.427717 
1539.000000	99.427937 
1538.000000	99.428020 
1537.000000	99.428156 
1536.000000	99.428324 
1535.000000	99.428457 
1534.000000	99.428537 
1533.000000	99.428494 
1532.000000	99.428180 
1531.000000	99.427600 
1530.000000	99.426983 
1529.000000	99.426589 
1528.000000	99.426469 
1527.000000	99.426481 
1526.000000	99.426465 
1525.000000	99.426403 
1524.000000	99.426289 
1523.000000	99.426131 
1522.000000	99.426113 
1521.000000	99.426419 
1520.000000	99.426770 
1519.000000	99.426805 
1518.000000	99.426515 
1517.000000	99.426082 
1516.000000	99.425582 
1515.000000	99.424977 
1514.000000	99.424332 
1513.000000	99.423811 
1512.000000	99.423534 
1511.000000	99.423406 
1510.000000	99.423205 
1509.000000	99.422914 
1508.000000	99.422834 
1507.000000	99.423117 
1506.000000	99.423237 
1505.000000	99.422976 
1504.000000	99.422570 
1503.000000	99.422153 
1502.000000	99.421795 
1501.000000	99.421514 
1500.000000	99.421289 
1499.000000	99.421033 
1498.000000	99.420628 
1497.000000	99.420133 
1496.000000	99.419707 
1495.000000	99.419265 
1494.000000	99.418636 
1493.000000	99.417841 
1492.000000	99.417014 
1491.000000	99.416286 
1490.000000	99.415690 
1489.000000	99.415177 
1488.000000	99.414642 
1487.000000	99.414015 
1486.000000	99.413333 
1485.000000	99.412662 
1484.000000	99.412014 
1483.000000	99.411353 
1482.000000	99.410633 
1481.000000	99.409834 
1480.000000	99.408975 
1479.000000	99.408092 
1478.000000	99.407221 
1477.000000	99.406382 
1476.000000	99.405561 
1475.000000	99.404708 
1474.000000	99.403830 
1473.000000	99.403005 
1472.000000	99.402267 
1471.000000	99.401537 
1470.000000	99.400736 
1469.000000	99.399872 
1468.000000	99.398988 
1467.000000	99.398102 
1466.000000	99.397196 
1465.000000	99.396255 
1464.000000	99.395295 
1463.000000	99.394349 
1462.000000	99.393432 
1461.000000	99.392541 
1460.000000	99.391639 
1459.000000	99.390648 
1458.000000	99.389490 
1457.000000	99.388210 
1456.000000	99.387015 
1455.000000	99.385961 
1454.000000	99.384950 
1453.000000	99.383969 
1452.000000	99.383049 
1451.000000	99.382094 
1450.000000	99.380854 
1449.000000	99.379349 
1448.000000	99.378178 
1447.000000	99.377702 
1446.000000	99.377501 
1445.000000	99.377337 
1444.000000	99.377383 
1443.000000	99.377534 
1442.000000	99.377137 
1441.000000	99.375755 
1440.000000	99.373837 
1439.000000	99.372083 
1438.000000	99.370267 
1437.000000	99.368306 
1436.000000	99.367194 
1435.000000	99.366540 
1434.000000	99.364894 
1433.000000	99.362440 
1432.000000	99.360432 
1431.000000	99.360033 
1430.000000	99.360879 
1429.000000	99.361573 
1428.000000	99.361689 
1427.000000	99.361605 
1426.000000	99.361647 
1425.000000	99.361862 
1424.000000	99.362588 
1423.000000	99.363863 
1422.000000	99.364054 
1421.000000	99.361675 
1420.000000	99.357765 
1419.000000	99.355170 
1418.000000	99.352908 
1417.000000	99.349006 
1416.000000	99.345561 
1415.000000	99.344230 
1414.000000	99.343326 
1413.000000	99.340352 
1412.000000	99.335837 
1411.000000	99.332482 
1410.000000	99.330820 
1409.000000	99.329604 
1408.000000	99.329144 
1407.000000	99.330651 
1406.000000	99.333977 
1405.000000	99.337988 
1404.000000	99.342516 
1403.000000	99.347329 
1402.000000	99.350515 
1401.000000	99.351075 
1400.000000	99.351075 
1399.000000	99.353514 
1398.000000	99.357243 
1397.000000	99.358227 
1396.000000	99.355558 
1395.000000	99.352911 
1394.000000	99.354076 
1393.000000	99.359030 
1392.000000	99.366411 
1391.000000	99.374975 
1390.000000	99.382873 
1389.000000	99.388100 
1388.000000	99.390099 
1387.000000	99.390210 
1386.000000	99.389818 
1385.000000	99.389416 
1384.000000	99.389438 
1383.000000	99.390514 
1382.000000	99.392757 
1381.000000	99.395899 
1380.000000	99.399740 
1379.000000	99.404043 
1378.000000	99.407979 
1377.000000	99.410335 
1376.000000	99.410952 
1375.000000	99.411537 
1374.000000	99.414063 
1373.000000	99.418192 
1372.000000	99.422124 
1371.000000	99.425382 
1370.000000	99.429176 
1369.000000	99.433986 
1368.000000	99.438906 
1367.000000	99.442972 
1366.000000	99.445872 
1365.000000	99.447540 
1364.000000	99.447876 
1363.000000	99.447458 
1362.000000	99.447751 
1361.000000	99.449423 
1360.000000	99.451536 
1359.000000	99.453149 
1358.000000	99.454627 
1357.000000	99.456730 
1356.000000	99.459338 
1355.000000	99.461664 
1354.000000	99.463355 
1353.000000	99.464732 
1352.000000	99.465815 
1351.000000	99.466210 
1350.000000	99.466557 
1349.000000	99.467521 
1348.000000	99.468864 
1347.000000	99.470146 
1346.000000	99.471702 
1345.000000	99.473798 
1344.000000	99.475575 
1343.000000	99.475856 
1342.000000	99.474751 
1341.000000	99.473494 
1340.000000	99.472933 
1339.000000	99.473003 
1338.000000	99.473499 
1337.000000	99.474555 
1336.000000	99.476117 
1335.000000	99.477557 
1334.000000	99.478416 
1333.000000	99.479084 
1332.000000	99.480217 
1331.000000	99.481754 
1330.000000	99.482836 
1329.000000	99.482494 
1328.000000	99.480519 
1327.000000	99.477799 
1326.000000	99.475812 
1325.000000	99.475288 
1324.000000	99.476167 
1323.000000	99.478122 
1322.000000	99.480503 
1321.000000	99.482126 
1320.000000	99.482018 
1319.000000	99.480490 
1318.000000	99.479018 
1317.000000	99.478729 
1316.000000	99.479224 
1315.000000	99.479111 
1314.000000	99.477536 
1313.000000	99.475210 
1312.000000	99.473846 
1311.000000	99.474469 
1310.000000	99.476459 
1309.000000	99.478285 
1308.000000	99.478926 
1307.000000	99.478341 
1306.000000	99.477137 
1305.000000	99.476057 
1304.000000	99.476118 
1303.000000	99.478091 
1302.000000	99.481448 
1301.000000	99.484309 
1300.000000	99.484992 
1299.000000	99.483269 
1298.000000	99.480100 
1297.000000	99.476782 
1296.000000	99.474491 
1295.000000	99.474130 
1294.000000	99.475812 
1293.000000	99.478617 
1292.000000	99.481193 
1291.000000	99.482567 
1290.000000	99.482582 
1289.000000	99.481940 
1288.000000	99.481675 
1287.000000	99.481994 
1286.000000	99.481817 
1285.000000	99.480280 
1284.000000	99.478445 
1283.000000	99.478303 
1282.000000	99.479965 
1281.000000	99.481303 
1280.000000	99.480819 
1279.000000	99.479459 
1278.000000	99.478656 
1277.000000	99.478061 
1276.000000	99.476516 
1275.000000	99.474397 
1274.000000	99.473386 
1273.000000	99.474395 
1272.000000	99.476963 
1271.000000	99.480204 
1270.000000	99.483146 
1269.000000	99.484672 
1268.000000	99.484328 
1267.000000	99.482825 
1266.000000	99.480800 
1265.000000	99.478066 
1264.000000	99.474872 
1263.000000	99.472582 
1262.000000	99.471845 
1261.000000	99.471356 
1260.000000	99.469918 
1259.000000	99.468779 
1258.000000	99.469859 
1257.000000	99.472786 
1256.000000	99.475518 
1255.000000	99.477224 
1254.000000	99.478673 
1253.000000	99.480216 
1252.000000	99.481098 
1251.000000	99.480863 
1250.000000	99.479955 
1249.000000	99.478951 
1248.000000	99.478442 
1247.000000	99.479314 
1246.000000	99.481448 
1245.000000	99.482484 
1244.000000	99.479594 
1243.000000	99.472858 
1242.000000	99.465840 
1241.000000	99.462415 
1240.000000	99.463520 
1239.000000	99.466737 
1238.000000	99.468309 
1237.000000	99.465785 
1236.000000	99.459421 
1235.000000	99.451129 
1234.000000	99.442043 
1233.000000	99.431818 
1232.000000	99.420495 
1231.000000	99.409510 
1230.000000	99.399754 
1229.000000	99.390043 
1228.000000	99.379081 
1227.000000	99.367927 
1226.000000	99.358730 
1225.000000	99.351310 
1224.000000	99.342558 
1223.000000	99.329201 
1222.000000	99.310121 
1221.000000	99.286420 
1220.000000	99.260551 
1219.000000	99.235163 
1218.000000	99.211202 
1217.000000	99.186902 
1216.000000	99.159560 
1215.000000	99.128291 
1214.000000	99.094521 
1213.000000	99.060256 
1212.000000	99.026667 
1211.000000	98.993804 
1210.000000	98.960868 
1209.000000	98.927035 
1208.000000	98.892376 
1207.000000	98.857516 
1206.000000	98.822471 
1205.000000	98.786894 
1204.000000	98.751223 
1203.000000	98.715807 
1202.000000	98.678878 
1201.000000	98.637879 
1200.000000	98.593730 
1199.000000	98.551477 
1198.000000	98.515014 
1197.000000	98.482983 
1196.000000	98.451302 
1195.000000	98.417603 
1194.000000	98.381584 
1193.000000	98.343032 
1192.000000	98.302045 
1191.000000	98.260353 
1190.000000	98.220377 
1189.000000	98.183228 
1188.000000	98.148524 
1187.000000	98.115051 
1186.000000	98.080509 
1185.000000	98.041923 
1184.000000	97.997714 
1183.000000	97.948834 
1182.000000	97.897511 
1181.000000	97.845998 
1180.000000	97.796604 
1179.000000	97.750614 
1178.000000	97.705996 
1177.000000	97.658309 
1176.000000	97.605422 
1175.000000	97.549676 
1174.000000	97.494310 
1173.000000	97.439815 
1172.000000	97.385342 
1171.000000	97.331316 
1170.000000	97.278473 
1169.000000	97.226187 
1168.000000	97.173977 
1167.000000	97.123423 
1166.000000	97.077186 
1165.000000	97.037992 
1164.000000	97.010043 
1163.000000	96.998749 
1162.000000	97.006118 
1161.000000	97.027097 
1160.000000	97.051887 
1159.000000	97.071211 
1158.000000	97.079031 
1157.000000	97.072526 
1156.000000	97.051725 
1155.000000	97.018719 
1154.000000	96.976107 
1153.000000	96.926500 
1152.000000	96.873630 
1151.000000	96.822046 
1150.000000	96.774442 
1149.000000	96.730253 
1148.000000	96.687243 
1147.000000	96.642838 
1146.000000	96.594075 
1145.000000	96.539254 
1144.000000	96.480859 
1143.000000	96.424529 
1142.000000	96.373629 
1141.000000	96.326451 
1140.000000	96.279299 
1139.000000	96.229851 
1138.000000	96.176985 
1137.000000	96.120503 
1136.000000	96.062542 
1135.000000	96.006734 
1134.000000	95.954387 
1133.000000	95.903340 
1132.000000	95.851192 
1131.000000	95.797346 
1130.000000	95.741566 
1129.000000	95.683340 
1128.000000	95.623095 
1127.000000	95.561277 
1126.000000	95.496377 
1125.000000	95.427387 
1124.000000	95.357985 
1123.000000	95.293761 
1122.000000	95.234609 
1121.000000	95.174504 
1120.000000	95.109793 
1119.000000	95.042966 
1118.000000	94.977138 
1117.000000	94.912207 
1116.000000	94.848403 
1115.000000	94.788307 
1114.000000	94.732747 
1113.000000	94.679143 
1112.000000	94.626170 
1111.000000	94.575619 
1110.000000	94.527592 
1109.000000	94.478355 
1108.000000	94.425300 
1107.000000	94.369874 
1106.000000	94.314216 
1105.000000	94.258981 
1104.000000	94.205413 
1103.000000	94.154858 
1102.000000	94.105450 
1101.000000	94.054097 
1100.000000	94.002659 
1099.000000	93.954922 
1098.000000	93.909122 
1097.000000	93.859337 
1096.000000	93.805810 
1095.000000	93.756103 
1094.000000	93.714040 
1093.000000	93.674915 
1092.000000	93.633899 
1091.000000	93.591460 
1090.000000	93.547558 
1089.000000	93.498538 
1088.000000	93.444322 
1087.000000	93.392184 
1086.000000	93.348797 
1085.000000	93.313488 
1084.000000	93.282248 
1083.000000	93.252361 
1082.000000	93.220151 
1081.000000	93.180867 
1080.000000	93.134910 
1079.000000	93.088887 
1078.000000	93.047056 
1077.000000	93.006784 
1076.000000	92.965069 
1075.000000	92.923231 
1074.000000	92.881735 
1073.000000	92.836047 
1072.000000	92.780773 
1071.000000	92.712746 
1070.000000	92.628260 
1069.000000	92.524208 
1068.000000	92.405624 
1067.000000	92.286219 
1066.000000	92.176882 
1065.000000	92.077487 
1064.000000	91.982330 
1063.000000	91.887352 
1062.000000	91.789425 
1061.000000	91.685791 
1060.000000	91.578761 
1059.000000	91.475878 
1058.000000	91.381579 
1057.000000	91.292320 
1056.000000	91.201124 
1055.000000	91.101821 
1054.000000	90.988885 
1053.000000	90.860728 
1052.000000	90.724893 
1051.000000	90.592367 
1050.000000	90.465001 
1049.000000	90.337286 
1048.000000	90.210591 
1047.000000	90.093325 
1046.000000	89.985685 
1045.000000	89.876638 
1044.000000	89.758471 
1043.000000	89.634124 
1042.000000	89.508303 
1041.000000	89.382054 
1040.000000	89.259282 
1039.000000	89.147988 
1038.000000	89.050271 
1037.000000	88.959875 
1036.000000	88.873158 
1035.000000	88.793645 
1034.000000	88.723065 
1033.000000	88.657718 
1032.000000	88.596599 
1031.000000	88.543267 
1030.000000	88.497230 
1029.000000	88.454022 
1028.000000	88.416272 
1027.000000	88.393025 
1026.000000	88.384307 
1025.000000	88.377502 
1024.000000	88.363212 
1023.000000	88.343999 
1022.000000	88.323655 
1021.000000	88.299711 
1020.000000	88.271803 
1019.000000	88.246313 
1018.000000	88.226229 
1017.000000	88.205653 
1016.000000	88.180192 
1015.000000	88.154358 
1014.000000	88.133427 
1013.000000	88.116075 
1012.000000	88.099925 
1011.000000	88.086713 
1010.000000	88.077621 
1009.000000	88.070729 
1008.000000	88.066351 
1007.000000	88.067542 
1006.000000	88.073047 
1005.000000	88.077868 
1004.000000	88.082969 
1003.000000	88.095660 
1002.000000	88.118159 
1001.000000	88.144721 
1000.000000	88.172267 
999.000000	 88.204311 
998.000000	 88.241467 
997.000000	 88.277792 
996.000000	 88.310545 
995.000000	 88.345344 
994.000000	 88.387967 
993.000000	 88.438152 
992.000000	 88.493669 
991.000000	 88.553003 
990.000000	 88.612388 
989.000000	 88.668024 
988.000000	 88.722656 
987.000000	 88.782439 
986.000000	 88.847309 
985.000000	 88.913274 
984.000000	 88.983946 
983.000000	 89.069174 
982.000000	 89.171178 
981.000000	 89.282206 
980.000000	 89.397010 
979.000000	 89.517148 
978.000000	 89.641551 
977.000000	 89.764503 
976.000000	 89.886026 
975.000000	 90.013591 
974.000000	 90.150206 
973.000000	 90.290695 
972.000000	 90.432533 
971.000000	 90.579709 
970.000000	 90.731979 
969.000000	 90.880876 
968.000000	 91.021647 
967.000000	 91.159970 
966.000000	 91.301280 
965.000000	 91.441664 
964.000000	 91.575333 
963.000000	 91.704078 
962.000000	 91.833080 
961.000000	 91.962567 
960.000000	 92.088795 
959.000000	 92.208801 
958.000000	 92.320144 
957.000000	 92.420764 
956.000000	 92.513347 
955.000000	 92.605773 
954.000000	 92.703087 
953.000000	 92.802043 
952.000000	 92.896013 
951.000000	 92.981206 
950.000000	 93.056052 
949.000000	 93.119821 
948.000000	 93.175731 
947.000000	 93.231566 
946.000000	 93.293186 
945.000000	 93.359512 
944.000000	 93.425923 
943.000000	 93.489174 
942.000000	 93.546850 
941.000000	 93.595965 
940.000000	 93.635538 
939.000000	 93.668660 
938.000000	 93.700059 
937.000000	 93.733386 
936.000000	 93.771647 
935.000000	 93.816940 
934.000000	 93.867886 
933.000000	 93.919747 
932.000000	 93.968481 
931.000000	 94.013218 
930.000000	 94.055286 
929.000000	 94.097405 
928.000000	 94.143088 
927.000000	 94.193394 
926.000000	 94.244519 
925.000000	 94.291760 
924.000000	 94.334713 
923.000000	 94.374875 
922.000000	 94.409888 
921.000000	 94.435374 
920.000000	 94.451978 
919.000000	 94.465706 
918.000000	 94.481466 
917.000000	 94.500805 
916.000000	 94.525247 
915.000000	 94.556438 
914.000000	 94.593143 
913.000000	 94.633333 
912.000000	 94.678778 
911.000000	 94.732245 
910.000000	 94.791527 
909.000000	 94.853168 
908.000000	 94.921560 
907.000000	 95.006239 
906.000000	 95.108955 
905.000000	 95.220466 
904.000000	 95.331871 
903.000000	 95.443134 
902.000000	 95.558705 
901.000000	 95.680661 
900.000000	 95.808092 
899.000000	 95.938095 
898.000000	 96.065643 
897.000000	 96.186450 
896.000000	 96.300822 
895.000000	 96.411185 
894.000000	 96.516551 
893.000000	 96.614027 
892.000000	 96.704980 
891.000000	 96.794059 
890.000000	 96.882153 
889.000000	 96.966366 
888.000000	 97.047469 
887.000000	 97.130282 
886.000000	 97.214026 
885.000000	 97.288806 
884.000000	 97.346590 
883.000000	 97.392207 
882.000000	 97.439368 
881.000000	 97.497396 
880.000000	 97.565102 
879.000000	 97.635928 
878.000000	 97.705344 
877.000000	 97.773170 
876.000000	 97.840702 
875.000000	 97.906761 
874.000000	 97.967543 
873.000000	 98.021300 
872.000000	 98.072388 
871.000000	 98.128879 
870.000000	 98.195762 
869.000000	 98.271204 
868.000000	 98.348549 
867.000000	 98.420841 
866.000000	 98.484985 
865.000000	 98.543469 
864.000000	 98.601763 
863.000000	 98.663089 
862.000000	 98.726108 
861.000000	 98.787505 
860.000000	 98.844795 
859.000000	 98.896582 
858.000000	 98.943482 
857.000000	 98.989866 
856.000000	 99.040846 
855.000000	 99.095207 
854.000000	 99.144513 
853.000000	 99.181853 
852.000000	 99.208868 
851.000000	 99.232353 
850.000000	 99.257198 
849.000000	 99.284903 
848.000000	 99.315018 
847.000000	 99.344117 
846.000000	 99.366369 
845.000000	 99.379214 
844.000000	 99.386366 
843.000000	 99.391852 
842.000000	 99.393451 
841.000000	 99.385691 
840.000000	 99.367171 
839.000000	 99.341253 
838.000000	 99.311384 
837.000000	 99.278899 
836.000000	 99.244072 
835.000000	 99.207583 
834.000000	 99.173455 
833.000000	 99.151055 
832.000000	 99.147751 
831.000000	 99.155962 
830.000000	 99.155932 
829.000000	 99.140043 
828.000000	 99.127014 
827.000000	 99.139563 
826.000000	 99.172516 
825.000000	 99.199254 
824.000000	 99.208687 
823.000000	 99.217082 
822.000000	 99.240582 
821.000000	 99.274300 
820.000000	 99.303879 
819.000000	 99.321293 
818.000000	 99.323393 
817.000000	 99.307731 
816.000000	 99.276969 
815.000000	 99.239263 
814.000000	 99.197354 
813.000000	 99.142561 
812.000000	 99.064652 
811.000000	 98.962054 
810.000000	 98.837488 
809.000000	 98.689395 
808.000000	 98.514096 
807.000000	 98.312221 
806.000000	 98.087237 
805.000000	 97.841983 
804.000000	 97.583719 
803.000000	 97.329614 
802.000000	 97.100202 
801.000000	 96.908874 
800.000000	 96.761383 
799.000000	 96.660123 
798.000000	 96.603103 
797.000000	 96.583435 
796.000000	 96.595310 
795.000000	 96.637155 
794.000000	 96.705702 
793.000000	 96.790876 
792.000000	 96.878706 
791.000000	 96.955460 
790.000000	 97.009047 
789.000000	 97.033154 
788.000000	 97.032481 
787.000000	 97.018131 
786.000000	 96.994299 
785.000000	 96.953614 
784.000000	 96.888416 
783.000000	 96.802390 
782.000000	 96.708951 
781.000000	 96.623429 
780.000000	 96.559724 
779.000000	 96.527956 
778.000000	 96.529364 
777.000000	 96.557074 
776.000000	 96.605470 
775.000000	 96.675172 
774.000000	 96.766382 
773.000000	 96.871743 
772.000000	 96.978237 
771.000000	 97.072410 
770.000000	 97.143273 
769.000000	 97.186347 
768.000000	 97.208601 
767.000000	 97.225654 
766.000000	 97.249738 
765.000000	 97.281265 
764.000000	 97.313004 
763.000000	 97.339118 
762.000000	 97.359265 
761.000000	 97.378409 
760.000000	 97.404827 
759.000000	 97.443922 
758.000000	 97.490805 
757.000000	 97.532408 
756.000000	 97.560067 
755.000000	 97.578258 
754.000000	 97.599677 
753.000000	 97.634111 
752.000000	 97.682703 
751.000000	 97.738173 
750.000000	 97.787947 
749.000000	 97.821703 
748.000000	 97.840630 
747.000000	 97.858630 
746.000000	 97.891515 
745.000000	 97.944066 
744.000000	 98.007099 
743.000000	 98.065746 
742.000000	 98.111296 
741.000000	 98.147694 
740.000000	 98.187690 
739.000000	 98.241126 
738.000000	 98.306063 
737.000000	 98.372010 
736.000000	 98.430788 
735.000000	 98.482556 
734.000000	 98.532960 
733.000000	 98.587459 
732.000000	 98.647461 
731.000000	 98.707087 
730.000000	 98.752645 
729.000000	 98.769749 
728.000000	 98.758114 
727.000000	 98.737349 
726.000000	 98.730984 
725.000000	 98.747259 
724.000000	 98.778333 
723.000000	 98.813318 
722.000000	 98.846743 
721.000000	 98.877263 
720.000000	 98.904981 
719.000000	 98.931001 
718.000000	 98.956160 
717.000000	 98.980350 
716.000000	 99.003923 
715.000000	 99.028707 
714.000000	 99.056192 
713.000000	 99.085300 
712.000000	 99.113930 
711.000000	 99.139463 
710.000000	 99.156310 
709.000000	 99.156315 
708.000000	 99.136939 
707.000000	 99.111164 
706.000000	 99.098282 
705.000000	 99.103693 
704.000000	 99.112387 
703.000000	 99.100629 
702.000000	 99.054053 
701.000000	 98.974250 
700.000000	 98.869837 
699.000000	 98.750557 
698.000000	 98.626455 
697.000000	 98.509304 
696.000000	 98.412417 
695.000000	 98.344674 
694.000000	 98.312272 
693.000000	 98.322316 
692.000000	 98.375292 
691.000000	 98.456992 
690.000000	 98.540777 
689.000000	 98.607367 
688.000000	 98.661736 
687.000000	 98.722886 
686.000000	 98.802181 
685.000000	 98.891455 
684.000000	 98.966840 
683.000000	 99.006235 
682.000000	 99.007403 
681.000000	 98.992604 
680.000000	 98.992733 
679.000000	 99.024616 
678.000000	 99.080713 
677.000000	 99.132050 
676.000000	 99.154749 
675.000000	 99.152861 
674.000000	 99.149918 
673.000000	 99.165086 
672.000000	 99.206253 
671.000000	 99.276725 
670.000000	 99.381060 
669.000000	 99.504063 
668.000000	 99.569736 
667.000000	 99.548526 
666.000000	 99.534005 
665.000000	 99.546295 
664.000000	 99.549978 
663.000000	 99.526640 
662.000000	 99.484031 
661.000000	 99.444223 
660.000000	 99.431173 
659.000000	 99.456990 
658.000000	 99.503242 
657.000000	 99.524397 
656.000000	 99.499640 
655.000000	 99.458144 
654.000000	 99.433629 
653.000000	 99.422069 
652.000000	 99.410934 
651.000000	 99.414178 
650.000000	 99.452935 

