4000.000000	99.580746 
3999.000000	99.581309 
3998.000000	99.581568 
3997.000000	99.581181 
3996.000000	99.579968 
3995.000000	99.578155 
3994.000000	99.576433 
3993.000000	99.575513 
3992.000000	99.575644 
3991.000000	99.576512 
3990.000000	99.577467 
3989.000000	99.578051 
3988.000000	99.578309 
3987.000000	99.578585 
3986.000000	99.579081 
3985.000000	99.579604 
3984.000000	99.579723 
3983.000000	99.579138 
3982.000000	99.577925 
3981.000000	99.576488 
3980.000000	99.575254 
3979.000000	99.574411 
3978.000000	99.574000 
3977.000000	99.574099 
3976.000000	99.574787 
3975.000000	99.575962 
3974.000000	99.577305 
3973.000000	99.578432 
3972.000000	99.579059 
3971.000000	99.579091 
3970.000000	99.578563 
3969.000000	99.577581 
3968.000000	99.576360 
3967.000000	99.575203 
3966.000000	99.574413 
3965.000000	99.574180 
3964.000000	99.574423 
3963.000000	99.574757 
3962.000000	99.574711 
3961.000000	99.574069 
3960.000000	99.572991 
3959.000000	99.571893 
3958.000000	99.571163 
3957.000000	99.570919 
3956.000000	99.571023 
3955.000000	99.571249 
3954.000000	99.571424 
3953.000000	99.571440 
3952.000000	99.571218 
3951.000000	99.570739 
3950.000000	99.570076 
3949.000000	99.569417 
3948.000000	99.568996 
3947.000000	99.568912 
3946.000000	99.569050 
3945.000000	99.569234 
3944.000000	99.569393 
3943.000000	99.569462 
3942.000000	99.569339 
3941.000000	99.568976 
3940.000000	99.568384 
3939.000000	99.567532 
3938.000000	99.566361 
3937.000000	99.564916 
3936.000000	99.563525 
3935.000000	99.562729 
3934.000000	99.562999 
3933.000000	99.564394 
3932.000000	99.566367 
3931.000000	99.567943 
3930.000000	99.568341 
3929.000000	99.567573 
3928.000000	99.566402 
3927.000000	99.565732 
3926.000000	99.566001 
3925.000000	99.566832 
3924.000000	99.567198 
3923.000000	99.566336 
3922.000000	99.564404 
3921.000000	99.562380 
3920.000000	99.561251 
3919.000000	99.561380 
3918.000000	99.562552 
3917.000000	99.564276 
3916.000000	99.565991 
3915.000000	99.567242 
3914.000000	99.568009 
3913.000000	99.568669 
3912.000000	99.569457 
3911.000000	99.570287 
3910.000000	99.570981 
3909.000000	99.571519 
3908.000000	99.571939 
3907.000000	99.571885 
3906.000000	99.570595 
3905.000000	99.567473 
3904.000000	99.562722 
3903.000000	99.557780 
3902.000000	99.554598 
3901.000000	99.554173 
3900.000000	99.556090 
3899.000000	99.558779 
3898.000000	99.560713 
3897.000000	99.561553 
3896.000000	99.561840 
3895.000000	99.562111 
3894.000000	99.562376 
3893.000000	99.562162 
3892.000000	99.561152 
3891.000000	99.559725 
3890.000000	99.558592 
3889.000000	99.557918 
3888.000000	99.557374 
3887.000000	99.556934 
3886.000000	99.556905 
3885.000000	99.557285 
3884.000000	99.557709 
3883.000000	99.558092 
3882.000000	99.558773 
3881.000000	99.559878 
3880.000000	99.560989 
3879.000000	99.561609 
3878.000000	99.561761 
3877.000000	99.561897 
3876.000000	99.562473 
3875.000000	99.563471 
3874.000000	99.564320 
3873.000000	99.564493 
3872.000000	99.564126 
3871.000000	99.563834 
3870.000000	99.564044 
3869.000000	99.564625 
3868.000000	99.565235 
3867.000000	99.565724 
3866.000000	99.566179 
3865.000000	99.566670 
3864.000000	99.567158 
3863.000000	99.567620 
3862.000000	99.568085 
3861.000000	99.568590 
3860.000000	99.569137 
3859.000000	99.569695 
3858.000000	99.570233 
3857.000000	99.570733 
3856.000000	99.571192 
3855.000000	99.571622 
3854.000000	99.572039 
3853.000000	99.572451 
3852.000000	99.572860 
3851.000000	99.573270 
3850.000000	99.573682 
3849.000000	99.574096 
3848.000000	99.574508 
3847.000000	99.574916 
3846.000000	99.575316 
3845.000000	99.575704 
3844.000000	99.576080 
3843.000000	99.576447 
3842.000000	99.576807 
3841.000000	99.577156 
3840.000000	99.577485 
3839.000000	99.577789 
3838.000000	99.578070 
3837.000000	99.578333 
3836.000000	99.578577 
3835.000000	99.578805 
3834.000000	99.579019 
3833.000000	99.579235 
3832.000000	99.579476 
3831.000000	99.579748 
3830.000000	99.580012 
3829.000000	99.580210 
3828.000000	99.580319 
3827.000000	99.580377 
3826.000000	99.580454 
3825.000000	99.580558 
3824.000000	99.580635 
3823.000000	99.580680 
3822.000000	99.580770 
3821.000000	99.580924 
3820.000000	99.581036 
3819.000000	99.581007 
3818.000000	99.580823 
3817.000000	99.580599 
3816.000000	99.580480 
3815.000000	99.580418 
3814.000000	99.580247 
3813.000000	99.579956 
3812.000000	99.579724 
3811.000000	99.579704 
3810.000000	99.579860 
3809.000000	99.579989 
3808.000000	99.579957 
3807.000000	99.579833 
3806.000000	99.579700 
3805.000000	99.579458 
3804.000000	99.578980 
3803.000000	99.578410 
3802.000000	99.578085 
3801.000000	99.578040 
3800.000000	99.577893 
3799.000000	99.577322 
3798.000000	99.576362 
3797.000000	99.575364 
3796.000000	99.574647 
3795.000000	99.574196 
3794.000000	99.573762 
3793.000000	99.573198 
3792.000000	99.572613 
3791.000000	99.572203 
3790.000000	99.572075 
3789.000000	99.572215 
3788.000000	99.572479 
3787.000000	99.572612 
3786.000000	99.572423 
3785.000000	99.571981 
3784.000000	99.571510 
3783.000000	99.571066 
3782.000000	99.570558 
3781.000000	99.570051 
3780.000000	99.569750 
3779.000000	99.569665 
3778.000000	99.569495 
3777.000000	99.568919 
3776.000000	99.567901 
3775.000000	99.566830 
3774.000000	99.566023 
3773.000000	99.565396 
3772.000000	99.564751 
3771.000000	99.564163 
3770.000000	99.563734 
3769.000000	99.563331 
3768.000000	99.562849 
3767.000000	99.562336 
3766.000000	99.561910 
3765.000000	99.561580 
3764.000000	99.561155 
3763.000000	99.560468 
3762.000000	99.559744 
3761.000000	99.559486 
3760.000000	99.559811 
3759.000000	99.560282 
3758.000000	99.560560 
3757.000000	99.560807 
3756.000000	99.561131 
3755.000000	99.561283 
3754.000000	99.561013 
3753.000000	99.560409 
3752.000000	99.559608 
3751.000000	99.558464 
3750.000000	99.557296 
3749.000000	99.557045 
3748.000000	99.557862 
3747.000000	99.558623 
3746.000000	99.558216 
3745.000000	99.556663 
3744.000000	99.555014 
3743.000000	99.553902 
3742.000000	99.552888 
3741.000000	99.551561 
3740.000000	99.549967 
3739.000000	99.547977 
3738.000000	99.545766 
3737.000000	99.544777 
3736.000000	99.546585 
3735.000000	99.550351 
3734.000000	99.552807 
3733.000000	99.551977 
3732.000000	99.548834 
3731.000000	99.545307 
3730.000000	99.541838 
3729.000000	99.537748 
3728.000000	99.533436 
3727.000000	99.530561 
3726.000000	99.529849 
3725.000000	99.530137 
3724.000000	99.530299 
3723.000000	99.530683 
3722.000000	99.531860 
3721.000000	99.533540 
3720.000000	99.534494 
3719.000000	99.533397 
3718.000000	99.530119 
3717.000000	99.525610 
3716.000000	99.520833 
3715.000000	99.516104 
3714.000000	99.511420 
3713.000000	99.507256 
3712.000000	99.504182 
3711.000000	99.502440 
3710.000000	99.501654 
3709.000000	99.500820 
3708.000000	99.499202 
3707.000000	99.496901 
3706.000000	99.494763 
3705.000000	99.493771 
3704.000000	99.494157 
3703.000000	99.494488 
3702.000000	99.491855 
3701.000000	99.484496 
3700.000000	99.473668 
3699.000000	99.462239 
3698.000000	99.452581 
3697.000000	99.445565 
3696.000000	99.440290 
3695.000000	99.435167 
3694.000000	99.430129 
3693.000000	99.427051 
3692.000000	99.427281 
3691.000000	99.429425 
3690.000000	99.429457 
3689.000000	99.424444 
3688.000000	99.415687 
3687.000000	99.406325 
3686.000000	99.397953 
3685.000000	99.391596 
3684.000000	99.388546 
3683.000000	99.388927 
3682.000000	99.390656 
3681.000000	99.390694 
3680.000000	99.387185 
3679.000000	99.379437 
3678.000000	99.368187 
3677.000000	99.357906 
3676.000000	99.354577 
3675.000000	99.358045 
3674.000000	99.362058 
3673.000000	99.361765 
3672.000000	99.357622 
3671.000000	99.355020 
3670.000000	99.357430 
3669.000000	99.362106 
3668.000000	99.365366 
3667.000000	99.366903 
3666.000000	99.368045 
3665.000000	99.369541 
3664.000000	99.370911 
3663.000000	99.371454 
3662.000000	99.371193 
3661.000000	99.370363 
3660.000000	99.368830 
3659.000000	99.366714 
3658.000000	99.365692 
3657.000000	99.368240 
3656.000000	99.374784 
3655.000000	99.382708 
3654.000000	99.388686 
3653.000000	99.391337 
3652.000000	99.391506 
3651.000000	99.390880 
3650.000000	99.390196 
3649.000000	99.389942 
3648.000000	99.391732 
3647.000000	99.396290 
3646.000000	99.402458 
3645.000000	99.409058 
3644.000000	99.416001 
3643.000000	99.423683 
3642.000000	99.432305 
3641.000000	99.441186 
3640.000000	99.449205 
3639.000000	99.455487 
3638.000000	99.459549 
3637.000000	99.461320 
3636.000000	99.461409 
3635.000000	99.461278 
3634.000000	99.462044 
3633.000000	99.463099 
3632.000000	99.462826 
3631.000000	99.461036 
3630.000000	99.460372 
3629.000000	99.462944 
3628.000000	99.467011 
3627.000000	99.470458 
3626.000000	99.473500 
3625.000000	99.477704 
3624.000000	99.484203 
3623.000000	99.492685 
3622.000000	99.501879 
3621.000000	99.510693 
3620.000000	99.517335 
3619.000000	99.518974 
3618.000000	99.514709 
3617.000000	99.507356 
3616.000000	99.501012 
3615.000000	99.498205 
3614.000000	99.498532 
3613.000000	99.499414 
3612.000000	99.498830 
3611.000000	99.497081 
3610.000000	99.495885 
3609.000000	99.496669 
3608.000000	99.499200 
3607.000000	99.502347 
3606.000000	99.505898 
3605.000000	99.510418 
3604.000000	99.516047 
3603.000000	99.521934 
3602.000000	99.526875 
3601.000000	99.530407 
3600.000000	99.532367 
3599.000000	99.532222 
3598.000000	99.529761 
3597.000000	99.525891 
3596.000000	99.522478 
3595.000000	99.521295 
3594.000000	99.522517 
3593.000000	99.524719 
3592.000000	99.526265 
3591.000000	99.526368 
3590.000000	99.525601 
3589.000000	99.525476 
3588.000000	99.526745 
3587.000000	99.528219 
3586.000000	99.528574 
3585.000000	99.528113 
3584.000000	99.528175 
3583.000000	99.529404 
3582.000000	99.531329 
3581.000000	99.532968 
3580.000000	99.533741 
3579.000000	99.533692 
3578.000000	99.533083 
3577.000000	99.532213 
3576.000000	99.531475 
3575.000000	99.531392 
3574.000000	99.532193 
3573.000000	99.533471 
3572.000000	99.534454 
3571.000000	99.534591 
3570.000000	99.533817 
3569.000000	99.532664 
3568.000000	99.532018 
3567.000000	99.532305 
3566.000000	99.533172 
3565.000000	99.534072 
3564.000000	99.534803 
3563.000000	99.535616 
3562.000000	99.536851 
3561.000000	99.538452 
3560.000000	99.539973 
3559.000000	99.540990 
3558.000000	99.541507 
3557.000000	99.541917 
3556.000000	99.542642 
3555.000000	99.543774 
3554.000000	99.544998 
3553.000000	99.545657 
3552.000000	99.545166 
3551.000000	99.543507 
3550.000000	99.541231 
3549.000000	99.539108 
3548.000000	99.537896 
3547.000000	99.538025 
3546.000000	99.539312 
3545.000000	99.540826 
3544.000000	99.541585 
3543.000000	99.541543 
3542.000000	99.541663 
3541.000000	99.542845 
3540.000000	99.545010 
3539.000000	99.547136 
3538.000000	99.548333 
3537.000000	99.548606 
3536.000000	99.548556 
3535.000000	99.548668 
3534.000000	99.548923 
3533.000000	99.549128 
3532.000000	99.549261 
3531.000000	99.549446 
3530.000000	99.549639 
3529.000000	99.549576 
3528.000000	99.549128 
3527.000000	99.548602 
3526.000000	99.548495 
3525.000000	99.548993 
3524.000000	99.549791 
3523.000000	99.550410 
3522.000000	99.550675 
3521.000000	99.550762 
3520.000000	99.550924 
3519.000000	99.551264 
3518.000000	99.551741 
3517.000000	99.552267 
3516.000000	99.552724 
3515.000000	99.553006 
3514.000000	99.553065 
3513.000000	99.552954 
3512.000000	99.552802 
3511.000000	99.552724 
3510.000000	99.552760 
3509.000000	99.552899 
3508.000000	99.553137 
3507.000000	99.553479 
3506.000000	99.553898 
3505.000000	99.554287 
3504.000000	99.554529 
3503.000000	99.554615 
3502.000000	99.554734 
3501.000000	99.555124 
3500.000000	99.555825 
3499.000000	99.556676 
3498.000000	99.557433 
3497.000000	99.557965 
3496.000000	99.558292 
3495.000000	99.558520 
3494.000000	99.558790 
3493.000000	99.559189 
3492.000000	99.559731 
3491.000000	99.560368 
3490.000000	99.561028 
3489.000000	99.561667 
3488.000000	99.562283 
3487.000000	99.562877 
3486.000000	99.563431 
3485.000000	99.563933 
3484.000000	99.564407 
3483.000000	99.564899 
3482.000000	99.565404 
3481.000000	99.565877 
3480.000000	99.566311 
3479.000000	99.566771 
3478.000000	99.567304 
3477.000000	99.567873 
3476.000000	99.568428 
3475.000000	99.569042 
3474.000000	99.569870 
3473.000000	99.570908 
3472.000000	99.571861 
3471.000000	99.572415 
3470.000000	99.572594 
3469.000000	99.572785 
3468.000000	99.573297 
3467.000000	99.574007 
3466.000000	99.574583 
3465.000000	99.574980 
3464.000000	99.575501 
3463.000000	99.576347 
3462.000000	99.577288 
3461.000000	99.577949 
3460.000000	99.578302 
3459.000000	99.578679 
3458.000000	99.579318 
3457.000000	99.580010 
3456.000000	99.580295 
3455.000000	99.579906 
3454.000000	99.579076 
3453.000000	99.578436 
3452.000000	99.578424 
3451.000000	99.578959 
3450.000000	99.579648 
3449.000000	99.580241 
3448.000000	99.580776 
3447.000000	99.581258 
3446.000000	99.581413 
3445.000000	99.580966 
3444.000000	99.580055 
3443.000000	99.579199 
3442.000000	99.578807 
3441.000000	99.578797 
3440.000000	99.578767 
3439.000000	99.578434 
3438.000000	99.577782 
3437.000000	99.576927 
3436.000000	99.576069 
3435.000000	99.575577 
3434.000000	99.575856 
3433.000000	99.576994 
3432.000000	99.578531 
3431.000000	99.579727 
3430.000000	99.580184 
3429.000000	99.580115 
3428.000000	99.580035 
3427.000000	99.580183 
3426.000000	99.580284 
3425.000000	99.579893 
3424.000000	99.578896 
3423.000000	99.577649 
3422.000000	99.576652 
3421.000000	99.576141 
3420.000000	99.576095 
3419.000000	99.576497 
3418.000000	99.577384 
3417.000000	99.578598 
3416.000000	99.579642 
3415.000000	99.580013 
3414.000000	99.579608 
3413.000000	99.578789 
3412.000000	99.578083 
3411.000000	99.577796 
3410.000000	99.577886 
3409.000000	99.578087 
3408.000000	99.578105 
3407.000000	99.577796 
3406.000000	99.577257 
3405.000000	99.576768 
3404.000000	99.576601 
3403.000000	99.576847 
3402.000000	99.577384 
3401.000000	99.578023 
3400.000000	99.578681 
3399.000000	99.579396 
3398.000000	99.580169 
3397.000000	99.580830 
3396.000000	99.581087 
3395.000000	99.580751 
3394.000000	99.579860 
3393.000000	99.578610 
3392.000000	99.577291 
3391.000000	99.576277 
3390.000000	99.575954 
3389.000000	99.576527 
3388.000000	99.577839 
3387.000000	99.579380 
3386.000000	99.580615 
3385.000000	99.581352 
3384.000000	99.581724 
3383.000000	99.581893 
3382.000000	99.581793 
3381.000000	99.581263 
3380.000000	99.580376 
3379.000000	99.579548 
3378.000000	99.579229 
3377.000000	99.579501 
3376.000000	99.580037 
3375.000000	99.580394 
3374.000000	99.580400 
3373.000000	99.580207 
3372.000000	99.580047 
3371.000000	99.579989 
3370.000000	99.579950 
3369.000000	99.579852 
3368.000000	99.579725 
3367.000000	99.579650 
3366.000000	99.579652 
3365.000000	99.579668 
3364.000000	99.579602 
3363.000000	99.579417 
3362.000000	99.579154 
3361.000000	99.578880 
3360.000000	99.578627 
3359.000000	99.578392 
3358.000000	99.578186 
3357.000000	99.578044 
3356.000000	99.577967 
3355.000000	99.577904 
3354.000000	99.577799 
3353.000000	99.577644 
3352.000000	99.577467 
3351.000000	99.577295 
3350.000000	99.577142 
3349.000000	99.576996 
3348.000000	99.576847 
3347.000000	99.576683 
3346.000000	99.576503 
3345.000000	99.576311 
3344.000000	99.576113 
3343.000000	99.575921 
3342.000000	99.575737 
3341.000000	99.575561 
3340.000000	99.575388 
3339.000000	99.575214 
3338.000000	99.575041 
3337.000000	99.574870 
3336.000000	99.574705 
3335.000000	99.574544 
3334.000000	99.574385 
3333.000000	99.574225 
3332.000000	99.574066 
3331.000000	99.573908 
3330.000000	99.573741 
3329.000000	99.573549 
3328.000000	99.573326 
3327.000000	99.573079 
3326.000000	99.572823 
3325.000000	99.572566 
3324.000000	99.572304 
3323.000000	99.572031 
3322.000000	99.571748 
3321.000000	99.571466 
3320.000000	99.571196 
3319.000000	99.570942 
3318.000000	99.570698 
3317.000000	99.570453 
3316.000000	99.570198 
3315.000000	99.569923 
3314.000000	99.569622 
3313.000000	99.569296 
3312.000000	99.568961 
3311.000000	99.568629 
3310.000000	99.568298 
3309.000000	99.567955 
3308.000000	99.567589 
3307.000000	99.567203 
3306.000000	99.566806 
3305.000000	99.566409 
3304.000000	99.566019 
3303.000000	99.565636 
3302.000000	99.565246 
3301.000000	99.564828 
3300.000000	99.564373 
3299.000000	99.563891 
3298.000000	99.563403 
3297.000000	99.562926 
3296.000000	99.562459 
3295.000000	99.561997 
3294.000000	99.561525 
3293.000000	99.561034 
3292.000000	99.560527 
3291.000000	99.560015 
3290.000000	99.559505 
3289.000000	99.558995 
3288.000000	99.558478 
3287.000000	99.557957 
3286.000000	99.557442 
3285.000000	99.556937 
3284.000000	99.556440 
3283.000000	99.555939 
3282.000000	99.555440 
3281.000000	99.554961 
3280.000000	99.554524 
3279.000000	99.554130 
3278.000000	99.553759 
3277.000000	99.553386 
3276.000000	99.552984 
3275.000000	99.552537 
3274.000000	99.552041 
3273.000000	99.551526 
3272.000000	99.551052 
3271.000000	99.550664 
3270.000000	99.550359 
3269.000000	99.550076 
3268.000000	99.549749 
3267.000000	99.549361 
3266.000000	99.548942 
3265.000000	99.548539 
3264.000000	99.548198 
3263.000000	99.547961 
3262.000000	99.547848 
3261.000000	99.547802 
3260.000000	99.547702 
3259.000000	99.547461 
3258.000000	99.547079 
3257.000000	99.546629 
3256.000000	99.546178 
3255.000000	99.545739 
3254.000000	99.545299 
3253.000000	99.544878 
3252.000000	99.544578 
3251.000000	99.544547 
3250.000000	99.544812 
3249.000000	99.545160 
3248.000000	99.545254 
3247.000000	99.544904 
3246.000000	99.544224 
3245.000000	99.543520 
3244.000000	99.543013 
3243.000000	99.542697 
3242.000000	99.542413 
3241.000000	99.542044 
3240.000000	99.541665 
3239.000000	99.541539 
3238.000000	99.541942 
3237.000000	99.542937 
3236.000000	99.544275 
3235.000000	99.545477 
3234.000000	99.546053 
3233.000000	99.545751 
3232.000000	99.544737 
3231.000000	99.543576 
3230.000000	99.542875 
3229.000000	99.542818 
3228.000000	99.543039 
3227.000000	99.542965 
3226.000000	99.542293 
3225.000000	99.541163 
3224.000000	99.539963 
3223.000000	99.539040 
3222.000000	99.538550 
3221.000000	99.538452 
3220.000000	99.538562 
3219.000000	99.538647 
3218.000000	99.538584 
3217.000000	99.538468 
3216.000000	99.538548 
3215.000000	99.538992 
3214.000000	99.539674 
3213.000000	99.540191 
3212.000000	99.540164 
3211.000000	99.539521 
3210.000000	99.538500 
3209.000000	99.537456 
3208.000000	99.536640 
3207.000000	99.536136 
3206.000000	99.535904 
3205.000000	99.535843 
3204.000000	99.535855 
3203.000000	99.535901 
3202.000000	99.535964 
3201.000000	99.535980 
3200.000000	99.535853 
3199.000000	99.535562 
3198.000000	99.535186 
3197.000000	99.534836 
3196.000000	99.534561 
3195.000000	99.534349 
3194.000000	99.534153 
3193.000000	99.533926 
3192.000000	99.533639 
3191.000000	99.533295 
3190.000000	99.532916 
3189.000000	99.532534 
3188.000000	99.532187 
3187.000000	99.531901 
3186.000000	99.531676 
3185.000000	99.531477 
3184.000000	99.531266 
3183.000000	99.531013 
3182.000000	99.530714 
3181.000000	99.530399 
3180.000000	99.530114 
3179.000000	99.529891 
3178.000000	99.529708 
3177.000000	99.529502 
3176.000000	99.529218 
3175.000000	99.528883 
3174.000000	99.528607 
3173.000000	99.528469 
3172.000000	99.528375 
3171.000000	99.528106 
3170.000000	99.527558 
3169.000000	99.526933 
3168.000000	99.526582 
3167.000000	99.526640 
3166.000000	99.526875 
3165.000000	99.526921 
3164.000000	99.526679 
3163.000000	99.526357 
3162.000000	99.526185 
3161.000000	99.526153 
3160.000000	99.526070 
3159.000000	99.525790 
3158.000000	99.525320 
3157.000000	99.524746 
3156.000000	99.524121 
3155.000000	99.523433 
3154.000000	99.522602 
3153.000000	99.521473 
3152.000000	99.519941 
3151.000000	99.518213 
3150.000000	99.516883 
3149.000000	99.516530 
3148.000000	99.517206 
3147.000000	99.518394 
3146.000000	99.519538 
3145.000000	99.520464 
3144.000000	99.521220 
3143.000000	99.521753 
3142.000000	99.521914 
3141.000000	99.521696 
3140.000000	99.521270 
3139.000000	99.520788 
3138.000000	99.520290 
3137.000000	99.519832 
3136.000000	99.519564 
3135.000000	99.519594 
3134.000000	99.519818 
3133.000000	99.519957 
3132.000000	99.519775 
3131.000000	99.519248 
3130.000000	99.518559 
3129.000000	99.517963 
3128.000000	99.517667 
3127.000000	99.517762 
3126.000000	99.518188 
3125.000000	99.518697 
3124.000000	99.518902 
3123.000000	99.518546 
3122.000000	99.517754 
3121.000000	99.516994 
3120.000000	99.516641 
3119.000000	99.516620 
3118.000000	99.516567 
3117.000000	99.516308 
3116.000000	99.516086 
3115.000000	99.516230 
3114.000000	99.516711 
3113.000000	99.517083 
3112.000000	99.516906 
3111.000000	99.516193 
3110.000000	99.515422 
3109.000000	99.515071 
3108.000000	99.515155 
3107.000000	99.515282 
3106.000000	99.515103 
3105.000000	99.514657 
3104.000000	99.514251 
3103.000000	99.514124 
3102.000000	99.514287 
3101.000000	99.514614 
3100.000000	99.515018 
3099.000000	99.515531 
3098.000000	99.516259 
3097.000000	99.517244 
3096.000000	99.518303 
3095.000000	99.519023 
3094.000000	99.518998 
3093.000000	99.518135 
3092.000000	99.516758 
3091.000000	99.515430 
3090.000000	99.514669 
3089.000000	99.514732 
3088.000000	99.515464 
3087.000000	99.516276 
3086.000000	99.516493 
3085.000000	99.515920 
3084.000000	99.514912 
3083.000000	99.513769 
3082.000000	99.512289 
3081.000000	99.510227 
3080.000000	99.508071 
3079.000000	99.506985 
3078.000000	99.507928 
3077.000000	99.510928 
3076.000000	99.515018 
3075.000000	99.518627 
3074.000000	99.520191 
3073.000000	99.518972 
3072.000000	99.515585 
3071.000000	99.511538 
3070.000000	99.508021 
3069.000000	99.505228 
3068.000000	99.502946 
3067.000000	99.501564 
3066.000000	99.502201 
3065.000000	99.505683 
3064.000000	99.511269 
3063.000000	99.516387 
3062.000000	99.518065 
3061.000000	99.515111 
3060.000000	99.509137 
3059.000000	99.503309 
3058.000000	99.499989 
3057.000000	99.499613 
3056.000000	99.501332 
3055.000000	99.503996 
3054.000000	99.506351 
3053.000000	99.507054 
3052.000000	99.505103 
3051.000000	99.500440 
3050.000000	99.494255 
3049.000000	99.488841 
3048.000000	99.486524 
3047.000000	99.487640 
3046.000000	99.489379 
3045.000000	99.487705 
3044.000000	99.481241 
3043.000000	99.472836 
3042.000000	99.466717 
3041.000000	99.464267 
3040.000000	99.463248 
3039.000000	99.460707 
3038.000000	99.455613 
3037.000000	99.448704 
3036.000000	99.440811 
3035.000000	99.432096 
3034.000000	99.422568 
3033.000000	99.412578 
3032.000000	99.402637 
3031.000000	99.392999 
3030.000000	99.383539 
3029.000000	99.374079 
3028.000000	99.364787 
3027.000000	99.356036 
3026.000000	99.347702 
3025.000000	99.338751 
3024.000000	99.327887 
3023.000000	99.314661 
3022.000000	99.299773 
3021.000000	99.284106 
3020.000000	99.267634 
3019.000000	99.249561 
3018.000000	99.229708 
3017.000000	99.209423 
3016.000000	99.190630 
3015.000000	99.173888 
3014.000000	99.157984 
3013.000000	99.141720 
3012.000000	99.125518 
3011.000000	99.110503 
3010.000000	99.096435 
3009.000000	99.081632 
3008.000000	99.064970 
3007.000000	99.046944 
3006.000000	99.028496 
3005.000000	99.009777 
3004.000000	98.990710 
3003.000000	98.971961 
3002.000000	98.954500 
3001.000000	98.938561 
3000.000000	98.923702 
2999.000000	98.909593 
2998.000000	98.896272 
2997.000000	98.883976 
2996.000000	98.873019 
2995.000000	98.862873 
2994.000000	98.850557 
2993.000000	98.831110 
2992.000000	98.801776 
2991.000000	98.766286 
2990.000000	98.733774 
2989.000000	98.712584 
2988.000000	98.705394 
2987.000000	98.709614 
2986.000000	98.720562 
2985.000000	98.733705 
2984.000000	98.745165 
2983.000000	98.752156 
2982.000000	98.753828 
2981.000000	98.751557 
2980.000000	98.748115 
2979.000000	98.746143 
2978.000000	98.746542 
2977.000000	98.747688 
2976.000000	98.746471 
2975.000000	98.740934 
2974.000000	98.732344 
2973.000000	98.724697 
2972.000000	98.722022 
2971.000000	98.725819 
2970.000000	98.734532 
2969.000000	98.745151 
2968.000000	98.755596 
2967.000000	98.765986 
2966.000000	98.777772 
2965.000000	98.791769 
2964.000000	98.807122 
2963.000000	98.821967 
2962.000000	98.834703 
2961.000000	98.844653 
2960.000000	98.852064 
2959.000000	98.858011 
2958.000000	98.864077 
2957.000000	98.871553 
2956.000000	98.880607 
2955.000000	98.890353 
2954.000000	98.899963 
2953.000000	98.909688 
2952.000000	98.920508 
2951.000000	98.932505 
2950.000000	98.943781 
2949.000000	98.951517 
2948.000000	98.954319 
2947.000000	98.953393 
2946.000000	98.951601 
2945.000000	98.951677 
2944.000000	98.954898 
2943.000000	98.960555 
2942.000000	98.966167 
2941.000000	98.968926 
2940.000000	98.967896 
2939.000000	98.965076 
2938.000000	98.963777 
2937.000000	98.965839 
2936.000000	98.970616 
2935.000000	98.976033 
2934.000000	98.979894 
2933.000000	98.980594 
2932.000000	98.977773 
2931.000000	98.972598 
2930.000000	98.966916 
2929.000000	98.961992 
2928.000000	98.958144 
2927.000000	98.955027 
2926.000000	98.951625 
2925.000000	98.946530 
2924.000000	98.939400 
2923.000000	98.932070 
2922.000000	98.927147 
2921.000000	98.925330 
2920.000000	98.925004 
2919.000000	98.924432 
2918.000000	98.923247 
2917.000000	98.921498 
2916.000000	98.918456 
2915.000000	98.913199 
2914.000000	98.905861 
2913.000000	98.897769 
2912.000000	98.890798 
2911.000000	98.886674 
2910.000000	98.886016 
2909.000000	98.887452 
2908.000000	98.888253 
2907.000000	98.886480 
2906.000000	98.881890 
2905.000000	98.874559 
2904.000000	98.863911 
2903.000000	98.850664 
2902.000000	98.839172 
2901.000000	98.836181 
2900.000000	98.845267 
2899.000000	98.863817 
2898.000000	98.884243 
2897.000000	98.899043 
2896.000000	98.905556 
2895.000000	98.906713 
2894.000000	98.907899 
2893.000000	98.912621 
2892.000000	98.920621 
2891.000000	98.929364 
2890.000000	98.936657 
2889.000000	98.941646 
2888.000000	98.944295 
2887.000000	98.945173 
2886.000000	98.945846 
2885.000000	98.948489 
2884.000000	98.954612 
2883.000000	98.964387 
2882.000000	98.977132 
2881.000000	98.991806 
2880.000000	99.006824 
2879.000000	99.020218 
2878.000000	99.030778 
2877.000000	99.039045 
2876.000000	99.046740 
2875.000000	99.055155 
2874.000000	99.064239 
2873.000000	99.073072 
2872.000000	99.080795 
2871.000000	99.087046 
2870.000000	99.091985 
2869.000000	99.096543 
2868.000000	99.102609 
2867.000000	99.112189 
2866.000000	99.125625 
2865.000000	99.140732 
2864.000000	99.154334 
2863.000000	99.164926 
2862.000000	99.173360 
2861.000000	99.181035 
2860.000000	99.188350 
2859.000000	99.195450 
2858.000000	99.203397 
2857.000000	99.213323 
2856.000000	99.224684 
2855.000000	99.235659 
2854.000000	99.245388 
2853.000000	99.254847 
2852.000000	99.265116 
2851.000000	99.275736 
2850.000000	99.285527 
2849.000000	99.294285 
2848.000000	99.302756 
2847.000000	99.311261 
2846.000000	99.319189 
2845.000000	99.325800 
2844.000000	99.330872 
2843.000000	99.334487 
2842.000000	99.336967 
2841.000000	99.339400 
2840.000000	99.343618 
2839.000000	99.350756 
2838.000000	99.359821 
2837.000000	99.368239 
2836.000000	99.374131 
2835.000000	99.377774 
2834.000000	99.380728 
2833.000000	99.383956 
2832.000000	99.387209 
2831.000000	99.389927 
2830.000000	99.391929 
2829.000000	99.393252 
2828.000000	99.394096 
2827.000000	99.395243 
2826.000000	99.397864 
2825.000000	99.402256 
2824.000000	99.407126 
2823.000000	99.410705 
2822.000000	99.412435 
2821.000000	99.413173 
2820.000000	99.414006 
2819.000000	99.415336 
2818.000000	99.416934 
2817.000000	99.418354 
2816.000000	99.419329 
2815.000000	99.420142 
2814.000000	99.421443 
2813.000000	99.423248 
2812.000000	99.424455 
2811.000000	99.424115 
2810.000000	99.423048 
2809.000000	99.423240 
2808.000000	99.425376 
2807.000000	99.427812 
2806.000000	99.428498 
2805.000000	99.427300 
2804.000000	99.425933 
2803.000000	99.426090 
2802.000000	99.428128 
2801.000000	99.431184 
2800.000000	99.433892 
2799.000000	99.435114 
2798.000000	99.434574 
2797.000000	99.432909 
2796.000000	99.431024 
2795.000000	99.429496 
2794.000000	99.428755 
2793.000000	99.429349 
2792.000000	99.431408 
2791.000000	99.434065 
2790.000000	99.436055 
2789.000000	99.437001 
2788.000000	99.437663 
2787.000000	99.438810 
2786.000000	99.440269 
2785.000000	99.441263 
2784.000000	99.441383 
2783.000000	99.440928 
2782.000000	99.440501 
2781.000000	99.440538 
2780.000000	99.441218 
2779.000000	99.442526 
2778.000000	99.444250 
2777.000000	99.446041 
2776.000000	99.447587 
2775.000000	99.448755 
2774.000000	99.449596 
2773.000000	99.450268 
2772.000000	99.450988 
2771.000000	99.451953 
2770.000000	99.453177 
2769.000000	99.454373 
2768.000000	99.455113 
2767.000000	99.455220 
2766.000000	99.454988 
2765.000000	99.454931 
2764.000000	99.455246 
2763.000000	99.455635 
2762.000000	99.455707 
2761.000000	99.455444 
2760.000000	99.455186 
2759.000000	99.455274 
2758.000000	99.455826 
2757.000000	99.456843 
2756.000000	99.458241 
2755.000000	99.459709 
2754.000000	99.460751 
2753.000000	99.461089 
2752.000000	99.460933 
2751.000000	99.460835 
2750.000000	99.461187 
2749.000000	99.461913 
2748.000000	99.462669 
2747.000000	99.463216 
2746.000000	99.463602 
2745.000000	99.464020 
2744.000000	99.464549 
2743.000000	99.465096 
2742.000000	99.465565 
2741.000000	99.466041 
2740.000000	99.466713 
2739.000000	99.467620 
2738.000000	99.468572 
2737.000000	99.469358 
2736.000000	99.469986 
2735.000000	99.470629 
2734.000000	99.471375 
2733.000000	99.472124 
2732.000000	99.472747 
2731.000000	99.473242 
2730.000000	99.473718 
2729.000000	99.474276 
2728.000000	99.474958 
2727.000000	99.475751 
2726.000000	99.476592 
2725.000000	99.477395 
2724.000000	99.478111 
2723.000000	99.478792 
2722.000000	99.479552 
2721.000000	99.480449 
2720.000000	99.481406 
2719.000000	99.482266 
2718.000000	99.482930 
2717.000000	99.483424 
2716.000000	99.483859 
2715.000000	99.484346 
2714.000000	99.484946 
2713.000000	99.485683 
2712.000000	99.486546 
2711.000000	99.487479 
2710.000000	99.488414 
2709.000000	99.489351 
2708.000000	99.490324 
2707.000000	99.491255 
2706.000000	99.491954 
2705.000000	99.492340 
2704.000000	99.492596 
2703.000000	99.493021 
2702.000000	99.493699 
2701.000000	99.494456 
2700.000000	99.495091 
2699.000000	99.495572 
2698.000000	99.496007 
2697.000000	99.496495 
2696.000000	99.497042 
2695.000000	99.497576 
2694.000000	99.498002 
2693.000000	99.498299 
2692.000000	99.498565 
2691.000000	99.498937 
2690.000000	99.499432 
2689.000000	99.499928 
2688.000000	99.500338 
2687.000000	99.500719 
2686.000000	99.501176 
2685.000000	99.501713 
2684.000000	99.502262 
2683.000000	99.502764 
2682.000000	99.503207 
2681.000000	99.503599 
2680.000000	99.503966 
2679.000000	99.504346 
2678.000000	99.504765 
2677.000000	99.505220 
2676.000000	99.505686 
2675.000000	99.506147 
2674.000000	99.506597 
2673.000000	99.507038 
2672.000000	99.507471 
2671.000000	99.507895 
2670.000000	99.508315 
2669.000000	99.508734 
2668.000000	99.509152 
2667.000000	99.509573 
2666.000000	99.510000 
2665.000000	99.510438 
2664.000000	99.510888 
2663.000000	99.511349 
2662.000000	99.511819 
2661.000000	99.512297 
2660.000000	99.512782 
2659.000000	99.513275 
2658.000000	99.513779 
2657.000000	99.514293 
2656.000000	99.514816 
2655.000000	99.515350 
2654.000000	99.515893 
2653.000000	99.516446 
2652.000000	99.517009 
2651.000000	99.517581 
2650.000000	99.518164 
2649.000000	99.518753 
2648.000000	99.519339 
2647.000000	99.519919 
2646.000000	99.520497 
2645.000000	99.521080 
2644.000000	99.521668 
2643.000000	99.522254 
2642.000000	99.522831 
2641.000000	99.523399 
2640.000000	99.523969 
2639.000000	99.524549 
2638.000000	99.525146 
2637.000000	99.525754 
2636.000000	99.526361 
2635.000000	99.526955 
2634.000000	99.527531 
2633.000000	99.528076 
2632.000000	99.528592 
2631.000000	99.529100 
2630.000000	99.529638 
2629.000000	99.530219 
2628.000000	99.530801 
2627.000000	99.531328 
2626.000000	99.531823 
2625.000000	99.532373 
2624.000000	99.533005 
2623.000000	99.533617 
2622.000000	99.534087 
2621.000000	99.534404 
2620.000000	99.534659 
2619.000000	99.534962 
2618.000000	99.535370 
2617.000000	99.535851 
2616.000000	99.536309 
2615.000000	99.536705 
2614.000000	99.537148 
2613.000000	99.537776 
2612.000000	99.538550 
2611.000000	99.539276 
2610.000000	99.539857 
2609.000000	99.540331 
2608.000000	99.540619 
2607.000000	99.540523 
2606.000000	99.540086 
2605.000000	99.539747 
2604.000000	99.539906 
2603.000000	99.540422 
2602.000000	99.540759 
2601.000000	99.540648 
2600.000000	99.540410 
2599.000000	99.540528 
2598.000000	99.541028 
2597.000000	99.541390 
2596.000000	99.541099 
2595.000000	99.540119 
2594.000000	99.538814 
2593.000000	99.537625 
2592.000000	99.536815 
2591.000000	99.536489 
2590.000000	99.536664 
2589.000000	99.537215 
2588.000000	99.537784 
2587.000000	99.537944 
2586.000000	99.537531 
2585.000000	99.536754 
2584.000000	99.536009 
2583.000000	99.535496 
2582.000000	99.535108 
2581.000000	99.534673 
2580.000000	99.534180 
2579.000000	99.533728 
2578.000000	99.533325 
2577.000000	99.532844 
2576.000000	99.532172 
2575.000000	99.531343 
2574.000000	99.530507 
2573.000000	99.529819 
2572.000000	99.529355 
2571.000000	99.529091 
2570.000000	99.528876 
2569.000000	99.528496 
2568.000000	99.527854 
2567.000000	99.527090 
2566.000000	99.526456 
2565.000000	99.526057 
2564.000000	99.525750 
2563.000000	99.525301 
2562.000000	99.524617 
2561.000000	99.523789 
2560.000000	99.522928 
2559.000000	99.522014 
2558.000000	99.520962 
2557.000000	99.519790 
2556.000000	99.518696 
2555.000000	99.517950 
2554.000000	99.517683 
2553.000000	99.517759 
2552.000000	99.517781 
2551.000000	99.517389 
2550.000000	99.516517 
2549.000000	99.515350 
2548.000000	99.514113 
2547.000000	99.512917 
2546.000000	99.511799 
2545.000000	99.510802 
2544.000000	99.509984 
2543.000000	99.509334 
2542.000000	99.508677 
2541.000000	99.507763 
2540.000000	99.506533 
2539.000000	99.505268 
2538.000000	99.504327 
2537.000000	99.503738 
2536.000000	99.503188 
2535.000000	99.502463 
2534.000000	99.501706 
2533.000000	99.501102 
2532.000000	99.500531 
2531.000000	99.499767 
2530.000000	99.498925 
2529.000000	99.498387 
2528.000000	99.498210 
2527.000000	99.497904 
2526.000000	99.496958 
2525.000000	99.495544 
2524.000000	99.494502 
2523.000000	99.494477 
2522.000000	99.495342 
2521.000000	99.496376 
2520.000000	99.496956 
2519.000000	99.496929 
2518.000000	99.496377 
2517.000000	99.495361 
2516.000000	99.493956 
2515.000000	99.492391 
2514.000000	99.491029 
2513.000000	99.490231 
2512.000000	99.490267 
2511.000000	99.491170 
2510.000000	99.492588 
2509.000000	99.493913 
2508.000000	99.494771 
2507.000000	99.495281 
2506.000000	99.495687 
2505.000000	99.495823 
2504.000000	99.495275 
2503.000000	99.494071 
2502.000000	99.492893 
2501.000000	99.492438 
2500.000000	99.492759 
2499.000000	99.493416 
2498.000000	99.494000 
2497.000000	99.494321 
2496.000000	99.494228 
2495.000000	99.493610 
2494.000000	99.492638 
2493.000000	99.491786 
2492.000000	99.491485 
2491.000000	99.491828 
2490.000000	99.492638 
2489.000000	99.493741 
2488.000000	99.495143 
2487.000000	99.496931 
2486.000000	99.498905 
2485.000000	99.500323 
2484.000000	99.500334 
2483.000000	99.498747 
2482.000000	99.496297 
2481.000000	99.494020 
2480.000000	99.492485 
2479.000000	99.491697 
2478.000000	99.491460 
2477.000000	99.491551 
2476.000000	99.491721 
2475.000000	99.491889 
2474.000000	99.492236 
2473.000000	99.492858 
2472.000000	99.493455 
2471.000000	99.493596 
2470.000000	99.493223 
2469.000000	99.492659 
2468.000000	99.492191 
2467.000000	99.491838 
2466.000000	99.491539 
2465.000000	99.491327 
2464.000000	99.491258 
2463.000000	99.491303 
2462.000000	99.491387 
2461.000000	99.491453 
2460.000000	99.491453 
2459.000000	99.491348 
2458.000000	99.491156 
2457.000000	99.490953 
2456.000000	99.490796 
2455.000000	99.490675 
2454.000000	99.490554 
2453.000000	99.490415 
2452.000000	99.490262 
2451.000000	99.490092 
2450.000000	99.489902 
2449.000000	99.489695 
2448.000000	99.489475 
2447.000000	99.489247 
2446.000000	99.489018 
2445.000000	99.488788 
2444.000000	99.488558 
2443.000000	99.488326 
2442.000000	99.488094 
2441.000000	99.487867 
2440.000000	99.487649 
2439.000000	99.487443 
2438.000000	99.487248 
2437.000000	99.487057 
2436.000000	99.486862 
2435.000000	99.486659 
2434.000000	99.486444 
2433.000000	99.486218 
2432.000000	99.485982 
2431.000000	99.485736 
2430.000000	99.485471 
2429.000000	99.485180 
2428.000000	99.484859 
2427.000000	99.484514 
2426.000000	99.484156 
2425.000000	99.483796 
2424.000000	99.483439 
2423.000000	99.483085 
2422.000000	99.482738 
2421.000000	99.482424 
2420.000000	99.482153 
2419.000000	99.481886 
2418.000000	99.481531 
2417.000000	99.480999 
2416.000000	99.480345 
2415.000000	99.479762 
2414.000000	99.479367 
2413.000000	99.479052 
2412.000000	99.478676 
2411.000000	99.478297 
2410.000000	99.478078 
2409.000000	99.478065 
2408.000000	99.478136 
2407.000000	99.478055 
2406.000000	99.477621 
2405.000000	99.476951 
2404.000000	99.476577 
2403.000000	99.476912 
2402.000000	99.477639 
2401.000000	99.477932 
2400.000000	99.477374 
2399.000000	99.476382 
2398.000000	99.475655 
2397.000000	99.475541 
2396.000000	99.476026 
2395.000000	99.476900 
2394.000000	99.477637 
2393.000000	99.477562 
2392.000000	99.476432 
2391.000000	99.474589 
2390.000000	99.472469 
2389.000000	99.470300 
2388.000000	99.468511 
2387.000000	99.467974 
2386.000000	99.469162 
2385.000000	99.471335 
2384.000000	99.473088 
2383.000000	99.473797 
2382.000000	99.474185 
2381.000000	99.475334 
2380.000000	99.477454 
2379.000000	99.479851 
2378.000000	99.481929 
2377.000000	99.483724 
2376.000000	99.485211 
2375.000000	99.485730 
2374.000000	99.484788 
2373.000000	99.482854 
2372.000000	99.480899 
2371.000000	99.479402 
2370.000000	99.478386 
2369.000000	99.477965 
2368.000000	99.478111 
2367.000000	99.478345 
2366.000000	99.478353 
2365.000000	99.478441 
2364.000000	99.478866 
2363.000000	99.479180 
2362.000000	99.478831 
2361.000000	99.477964 
2360.000000	99.477021 
2359.000000	99.476186 
2358.000000	99.475508 
2357.000000	99.475120 
2356.000000	99.475136 
2355.000000	99.475423 
2354.000000	99.475945 
2353.000000	99.476446 
2352.000000	99.476512 
2351.000000	99.476021 
2350.000000	99.475166 
2349.000000	99.474304 
2348.000000	99.473676 
2347.000000	99.473432 
2346.000000	99.473481 
2345.000000	99.473420 
2344.000000	99.473041 
2343.000000	99.472448 
2342.000000	99.471959 
2341.000000	99.471604 
2340.000000	99.471281 
2339.000000	99.471027 
2338.000000	99.471079 
2337.000000	99.471499 
2336.000000	99.471725 
2335.000000	99.471331 
2334.000000	99.470614 
2333.000000	99.470435 
2332.000000	99.470802 
2331.000000	99.471337 
2330.000000	99.471494 
2329.000000	99.471571 
2328.000000	99.471345 
2327.000000	99.471282 
2326.000000	99.471818 
2325.000000	99.472847 
2324.000000	99.472998 
2323.000000	99.471522 
2322.000000	99.469773 
2321.000000	99.469298 
2320.000000	99.469362 
2319.000000	99.468652 
2318.000000	99.467278 
2317.000000	99.467501 
2316.000000	99.469673 
2315.000000	99.473200 
2314.000000	99.476358 
2313.000000	99.479403 
2312.000000	99.481971 
2311.000000	99.484387 
2310.000000	99.485819 
2309.000000	99.486224 
2308.000000	99.485341 
2307.000000	99.484656 
2306.000000	99.485511 
2305.000000	99.488788 
2304.000000	99.493473 
2303.000000	99.498571 
2302.000000	99.502712 
2301.000000	99.505202 
2300.000000	99.505786 
2299.000000	99.506492 
2298.000000	99.509022 
2297.000000	99.513296 
2296.000000	99.516340 
2295.000000	99.516557 
2294.000000	99.515035 
2293.000000	99.514649 
2292.000000	99.516497 
2291.000000	99.519951 
2290.000000	99.524014 
2289.000000	99.528075 
2288.000000	99.531439 
2287.000000	99.533289 
2286.000000	99.533423 
2285.000000	99.532133 
2284.000000	99.530269 
2283.000000	99.529012 
2282.000000	99.529365 
2281.000000	99.530822 
2280.000000	99.531845 
2279.000000	99.531804 
2278.000000	99.531882 
2277.000000	99.533224 
2276.000000	99.535076 
2275.000000	99.535963 
2274.000000	99.535785 
2273.000000	99.535719 
2272.000000	99.536289 
2271.000000	99.536994 
2270.000000	99.537423 
2269.000000	99.537797 
2268.000000	99.538259 
2267.000000	99.538612 
2266.000000	99.538782 
2265.000000	99.538895 
2264.000000	99.538733 
2263.000000	99.537792 
2262.000000	99.536119 
2261.000000	99.534581 
2260.000000	99.534089 
2259.000000	99.534714 
2258.000000	99.535782 
2257.000000	99.536634 
2256.000000	99.537161 
2255.000000	99.537593 
2254.000000	99.538022 
2253.000000	99.538358 
2252.000000	99.538664 
2251.000000	99.539276 
2250.000000	99.540300 
2249.000000	99.541291 
2248.000000	99.541627 
2247.000000	99.541272 
2246.000000	99.540696 
2245.000000	99.540323 
2244.000000	99.540266 
2243.000000	99.540484 
2242.000000	99.540928 
2241.000000	99.541460 
2240.000000	99.541939 
2239.000000	99.542391 
2238.000000	99.542910 
2237.000000	99.543374 
2236.000000	99.543489 
2235.000000	99.543217 
2234.000000	99.542836 
2233.000000	99.542653 
2232.000000	99.542696 
2231.000000	99.542831 
2230.000000	99.542952 
2229.000000	99.543044 
2228.000000	99.543143 
2227.000000	99.543298 
2226.000000	99.543533 
2225.000000	99.543831 
2224.000000	99.544153 
2223.000000	99.544478 
2222.000000	99.544805 
2221.000000	99.545121 
2220.000000	99.545401 
2219.000000	99.545640 
2218.000000	99.545861 
2217.000000	99.546094 
2216.000000	99.546343 
2215.000000	99.546577 
2214.000000	99.546757 
2213.000000	99.546880 
2212.000000	99.546977 
2211.000000	99.547072 
2210.000000	99.547169 
2209.000000	99.547282 
2208.000000	99.547468 
2207.000000	99.547802 
2206.000000	99.548215 
2205.000000	99.548407 
2204.000000	99.548154 
2203.000000	99.547782 
2202.000000	99.548113 
2201.000000	99.549536 
2200.000000	99.551227 
2199.000000	99.552012 
2198.000000	99.551770 
2197.000000	99.551427 
2196.000000	99.551756 
2195.000000	99.552796 
2194.000000	99.554374 
2193.000000	99.556363 
2192.000000	99.558208 
2191.000000	99.559172 
2190.000000	99.559573 
2189.000000	99.560935 
2188.000000	99.563916 
2187.000000	99.566552 
2186.000000	99.565779 
2185.000000	99.560676 
2184.000000	99.553657 
2183.000000	99.548296 
2182.000000	99.546158 
2181.000000	99.546208 
2180.000000	99.546755 
2179.000000	99.547263 
2178.000000	99.548038 
2177.000000	99.548903 
2176.000000	99.549042 
2175.000000	99.547995 
2174.000000	99.546174 
2173.000000	99.544595 
2172.000000	99.544734 
2171.000000	99.548240 
2170.000000	99.555571 
2169.000000	99.564659 
2168.000000	99.571866 
2167.000000	99.574770 
2166.000000	99.573460 
2165.000000	99.569759 
2164.000000	99.566455 
2163.000000	99.566579 
2162.000000	99.570987 
2161.000000	99.575689 
2160.000000	99.573880 
2159.000000	99.562305 
2158.000000	99.544430 
2157.000000	99.526742 
2156.000000	99.513205 
2155.000000	99.505100 
2154.000000	99.503249 
2153.000000	99.507193 
2152.000000	99.513626 
2151.000000	99.518470 
2150.000000	99.520553 
2149.000000	99.521879 
2148.000000	99.524692 
2147.000000	99.529349 
2146.000000	99.534445 
2145.000000	99.537767 
2144.000000	99.537471 
2143.000000	99.533444 
2142.000000	99.527686 
2141.000000	99.522697 
2140.000000	99.519473 
2139.000000	99.517604 
2138.000000	99.516854 
2137.000000	99.517563 
2136.000000	99.519402 
2135.000000	99.520824 
2134.000000	99.520551 
2133.000000	99.519292 
2132.000000	99.519066 
2131.000000	99.520507 
2130.000000	99.521446 
2129.000000	99.518986 
2128.000000	99.513047 
2127.000000	99.507052 
2126.000000	99.504519 
2125.000000	99.505850 
2124.000000	99.509149 
2123.000000	99.513227 
2122.000000	99.518334 
2121.000000	99.524119 
2120.000000	99.528746 
2119.000000	99.530757 
2118.000000	99.530582 
2117.000000	99.529568 
2116.000000	99.528612 
2115.000000	99.528054 
2114.000000	99.528150 
2113.000000	99.528933 
2112.000000	99.529926 
2111.000000	99.530758 
2110.000000	99.531742 
2109.000000	99.533311 
2108.000000	99.535045 
2107.000000	99.535772 
2106.000000	99.534742 
2105.000000	99.532441 
2104.000000	99.530314 
2103.000000	99.529649 
2102.000000	99.530636 
2101.000000	99.532311 
2100.000000	99.533432 
2099.000000	99.533522 
2098.000000	99.533037 
2097.000000	99.532679 
2096.000000	99.532824 
2095.000000	99.533636 
2094.000000	99.535212 
2093.000000	99.537323 
2092.000000	99.539308 
2091.000000	99.540609 
2090.000000	99.541337 
2089.000000	99.542083 
2088.000000	99.543145 
2087.000000	99.544100 
2086.000000	99.544209 
2085.000000	99.543351 
2084.000000	99.542581 
2083.000000	99.543491 
2082.000000	99.546677 
2081.000000	99.550897 
2080.000000	99.554130 
2079.000000	99.555773 
2078.000000	99.557253 
2077.000000	99.560225 
2076.000000	99.564407 
2075.000000	99.567563 
2074.000000	99.567417 
2073.000000	99.563441 
2072.000000	99.557570 
2071.000000	99.553065 
2070.000000	99.551871 
2069.000000	99.553032 
2068.000000	99.553863 
2067.000000	99.552886 
2066.000000	99.551008 
2065.000000	99.550081 
2064.000000	99.551304 
2063.000000	99.554969 
2062.000000	99.560232 
2061.000000	99.564756 
2060.000000	99.566422 
2059.000000	99.565887 
2058.000000	99.566148 
2057.000000	99.568810 
2056.000000	99.572082 
2055.000000	99.573462 
2054.000000	99.573207 
2053.000000	99.573664 
2052.000000	99.575940 
2051.000000	99.578735 
2050.000000	99.580244 
2049.000000	99.580033 
2048.000000	99.579067 
2047.000000	99.578749 
2046.000000	99.579934 
2045.000000	99.582125 
2044.000000	99.583605 
2043.000000	99.583132 
2042.000000	99.581321 
2041.000000	99.579769 
2040.000000	99.579005 
2039.000000	99.578169 
2038.000000	99.576597 
2037.000000	99.574699 
2036.000000	99.573178 
2035.000000	99.571985 
2034.000000	99.570450 
2033.000000	99.568288 
2032.000000	99.566266 
2031.000000	99.565658 
2030.000000	99.566879 
2029.000000	99.568810 
2028.000000	99.569625 
2027.000000	99.568532 
2026.000000	99.566082 
2025.000000	99.563278 
2024.000000	99.560912 
2023.000000	99.559523 
2022.000000	99.559382 
2021.000000	99.560065 
2020.000000	99.560425 
2019.000000	99.559689 
2018.000000	99.558322 
2017.000000	99.557364 
2016.000000	99.557124 
2015.000000	99.557152 
2014.000000	99.557118 
2013.000000	99.556973 
2012.000000	99.556535 
2011.000000	99.555693 
2010.000000	99.554912 
2009.000000	99.554881 
2008.000000	99.555656 
2007.000000	99.556618 
2006.000000	99.557083 
2005.000000	99.556488 
2004.000000	99.554496 
2003.000000	99.551647 
2002.000000	99.549491 
2001.000000	99.549033 
2000.000000	99.549215 
1999.000000	99.547828 
1998.000000	99.543980 
1997.000000	99.539108 
1996.000000	99.535634 
1995.000000	99.535049 
1994.000000	99.537292 
1993.000000	99.540766 
1992.000000	99.542937 
1991.000000	99.542140 
1990.000000	99.538949 
1989.000000	99.535400 
1988.000000	99.533277 
1987.000000	99.533737 
1986.000000	99.537687 
1985.000000	99.544929 
1984.000000	99.552899 
1983.000000	99.558164 
1982.000000	99.559422 
1981.000000	99.557807 
1980.000000	99.554701 
1979.000000	99.550511 
1978.000000	99.545602 
1977.000000	99.540598 
1976.000000	99.535209 
1975.000000	99.528334 
1974.000000	99.520303 
1973.000000	99.513766 
1972.000000	99.511247 
1971.000000	99.512667 
1970.000000	99.516050 
1969.000000	99.520018 
1968.000000	99.524554 
1967.000000	99.529284 
1966.000000	99.532352 
1965.000000	99.532047 
1964.000000	99.529028 
1963.000000	99.525867 
1962.000000	99.524236 
1961.000000	99.523315 
1960.000000	99.521579 
1959.000000	99.519142 
1958.000000	99.517142 
1957.000000	99.515456 
1956.000000	99.512594 
1955.000000	99.507780 
1954.000000	99.501737 
1953.000000	99.495568 
1952.000000	99.490133 
1951.000000	99.486599 
1950.000000	99.486241 
1949.000000	99.488809 
1948.000000	99.492043 
1947.000000	99.493905 
1946.000000	99.494213 
1945.000000	99.493349 
1944.000000	99.490951 
1943.000000	99.486934 
1942.000000	99.482710 
1941.000000	99.479774 
1940.000000	99.478109 
1939.000000	99.477110 
1938.000000	99.476897 
1937.000000	99.477887 
1936.000000	99.479808 
1935.000000	99.481741 
1934.000000	99.482834 
1933.000000	99.482652 
1932.000000	99.481220 
1931.000000	99.479373 
1930.000000	99.478642 
1929.000000	99.479809 
1928.000000	99.481819 
1927.000000	99.482789 
1926.000000	99.481891 
1925.000000	99.479702 
1924.000000	99.477298 
1923.000000	99.475593 
1922.000000	99.475268 
1921.000000	99.476429 
1920.000000	99.478351 
1919.000000	99.479975 
1918.000000	99.480765 
1917.000000	99.480893 
1916.000000	99.480736 
1915.000000	99.480730 
1914.000000	99.481437 
1913.000000	99.483121 
1912.000000	99.485216 
1911.000000	99.486666 
1910.000000	99.486970 
1909.000000	99.486499 
1908.000000	99.485964 
1907.000000	99.485898 
1906.000000	99.486511 
1905.000000	99.487469 
1904.000000	99.487857 
1903.000000	99.486948 
1902.000000	99.484963 
1901.000000	99.482857 
1900.000000	99.481500 
1899.000000	99.481205 
1898.000000	99.481834 
1897.000000	99.482857 
1896.000000	99.483517 
1895.000000	99.483462 
1894.000000	99.483163 
1893.000000	99.483331 
1892.000000	99.484039 
1891.000000	99.484751 
1890.000000	99.485055 
1889.000000	99.485044 
1888.000000	99.484985 
1887.000000	99.485075 
1886.000000	99.485480 
1885.000000	99.486181 
1884.000000	99.486784 
1883.000000	99.486881 
1882.000000	99.486590 
1881.000000	99.486345 
1880.000000	99.486323 
1879.000000	99.486353 
1878.000000	99.486215 
1877.000000	99.485787 
1876.000000	99.485067 
1875.000000	99.484384 
1874.000000	99.484405 
1873.000000	99.485471 
1872.000000	99.486972 
1871.000000	99.487763 
1870.000000	99.487342 
1869.000000	99.486220 
1868.000000	99.484934 
1867.000000	99.483417 
1866.000000	99.481854 
1865.000000	99.480976 
1864.000000	99.481364 
1863.000000	99.482986 
1862.000000	99.485395 
1861.000000	99.487967 
1860.000000	99.489917 
1859.000000	99.490731 
1858.000000	99.490760 
1857.000000	99.490888 
1856.000000	99.491577 
1855.000000	99.492679 
1854.000000	99.493911 
1853.000000	99.494924 
1852.000000	99.495248 
1851.000000	99.494716 
1850.000000	99.493857 
1849.000000	99.493501 
1848.000000	99.493866 
1847.000000	99.494445 
1846.000000	99.494785 
1845.000000	99.494770 
1844.000000	99.494230 
1843.000000	99.493166 
1842.000000	99.492415 
1841.000000	99.492878 
1840.000000	99.494692 
1839.000000	99.497209 
1838.000000	99.499536 
1837.000000	99.501236 
1836.000000	99.502369 
1835.000000	99.503125 
1834.000000	99.503613 
1833.000000	99.504000 
1832.000000	99.504676 
1831.000000	99.505696 
1830.000000	99.506384 
1829.000000	99.506337 
1828.000000	99.506356 
1827.000000	99.507243 
1826.000000	99.508649 
1825.000000	99.509754 
1824.000000	99.510276 
1823.000000	99.510613 
1822.000000	99.511148 
1821.000000	99.511652 
1820.000000	99.511497 
1819.000000	99.510345 
1818.000000	99.508869 
1817.000000	99.508350 
1816.000000	99.509075 
1815.000000	99.510080 
1814.000000	99.510686 
1813.000000	99.511429 
1812.000000	99.513129 
1811.000000	99.515529 
1810.000000	99.517886 
1809.000000	99.520124 
1808.000000	99.522146 
1807.000000	99.523255 
1806.000000	99.523072 
1805.000000	99.522116 
1804.000000	99.521213 
1803.000000	99.520754 
1802.000000	99.520818 
1801.000000	99.521507 
1800.000000	99.522498 
1799.000000	99.523069 
1798.000000	99.523071 
1797.000000	99.522978 
1796.000000	99.523161 
1795.000000	99.523656 
1794.000000	99.524367 
1793.000000	99.525143 
1792.000000	99.525751 
1791.000000	99.526039 
1790.000000	99.526275 
1789.000000	99.526803 
1788.000000	99.527582 
1787.000000	99.528291 
1786.000000	99.528691 
1785.000000	99.528814 
1784.000000	99.528825 
1783.000000	99.528906 
1782.000000	99.529159 
1781.000000	99.529530 
1780.000000	99.529848 
1779.000000	99.530018 
1778.000000	99.530165 
1777.000000	99.530467 
1776.000000	99.530946 
1775.000000	99.531514 
1774.000000	99.532076 
1773.000000	99.532563 
1772.000000	99.532929 
1771.000000	99.533179 
1770.000000	99.533370 
1769.000000	99.533559 
1768.000000	99.533776 
1767.000000	99.534024 
1766.000000	99.534290 
1765.000000	99.534570 
1764.000000	99.534863 
1763.000000	99.535169 
1762.000000	99.535483 
1761.000000	99.535802 
1760.000000	99.536128 
1759.000000	99.536461 
1758.000000	99.536795 
1757.000000	99.537126 
1756.000000	99.537452 
1755.000000	99.537775 
1754.000000	99.538095 
1753.000000	99.538412 
1752.000000	99.538737 
1751.000000	99.539089 
1750.000000	99.539472 
1749.000000	99.539873 
1748.000000	99.540276 
1747.000000	99.540676 
1746.000000	99.541074 
1745.000000	99.541471 
1744.000000	99.541869 
1743.000000	99.542266 
1742.000000	99.542659 
1741.000000	99.543044 
1740.000000	99.543423 
1739.000000	99.543791 
1738.000000	99.544148 
1737.000000	99.544492 
1736.000000	99.544823 
1735.000000	99.545143 
1734.000000	99.545462 
1733.000000	99.545798 
1732.000000	99.546158 
1731.000000	99.546538 
1730.000000	99.546925 
1729.000000	99.547308 
1728.000000	99.547679 
1727.000000	99.548035 
1726.000000	99.548377 
1725.000000	99.548706 
1724.000000	99.549027 
1723.000000	99.549342 
1722.000000	99.549656 
1721.000000	99.549970 
1720.000000	99.550277 
1719.000000	99.550563 
1718.000000	99.550815 
1717.000000	99.551039 
1716.000000	99.551255 
1715.000000	99.551466 
1714.000000	99.551673 
1713.000000	99.551895 
1712.000000	99.552138 
1711.000000	99.552397 
1710.000000	99.552665 
1709.000000	99.552938 
1708.000000	99.553213 
1707.000000	99.553477 
1706.000000	99.553727 
1705.000000	99.553965 
1704.000000	99.554157 
1703.000000	99.554268 
1702.000000	99.554306 
1701.000000	99.554339 
1700.000000	99.554470 
1699.000000	99.554689 
1698.000000	99.554950 
1697.000000	99.555261 
1696.000000	99.555621 
1695.000000	99.555936 
1694.000000	99.556176 
1693.000000	99.556405 
1692.000000	99.556620 
1691.000000	99.556775 
1690.000000	99.556879 
1689.000000	99.557001 
1688.000000	99.557161 
1687.000000	99.557271 
1686.000000	99.557307 
1685.000000	99.557456 
1684.000000	99.557856 
1683.000000	99.558235 
1682.000000	99.558525 
1681.000000	99.558706 
1680.000000	99.558860 
1679.000000	99.559107 
1678.000000	99.559474 
1677.000000	99.559859 
1676.000000	99.560195 
1675.000000	99.560554 
1674.000000	99.560936 
1673.000000	99.561324 
1672.000000	99.561732 
1671.000000	99.562247 
1670.000000	99.562933 
1669.000000	99.563568 
1668.000000	99.563953 
1667.000000	99.564181 
1666.000000	99.564202 
1665.000000	99.563952 
1664.000000	99.563670 
1663.000000	99.563843 
1662.000000	99.564684 
1661.000000	99.565793 
1660.000000	99.566598 
1659.000000	99.567063 
1658.000000	99.567514 
1657.000000	99.567973 
1656.000000	99.567898 
1655.000000	99.567245 
1654.000000	99.567115 
1653.000000	99.568194 
1652.000000	99.568493 
1651.000000	99.568843 
1650.000000	99.569061 
1649.000000	99.568685 
1648.000000	99.567597 
1647.000000	99.566271 
1646.000000	99.565179 
1645.000000	99.565057 
1644.000000	99.566091 
1643.000000	99.567581 
1642.000000	99.568827 
1641.000000	99.569587 
1640.000000	99.569852 
1639.000000	99.569688 
1638.000000	99.569381 
1637.000000	99.569420 
1636.000000	99.569741 
1635.000000	99.569862 
1634.000000	99.570346 
1633.000000	99.571586 
1632.000000	99.572690 
1631.000000	99.573221 
1630.000000	99.573511 
1629.000000	99.573786 
1628.000000	99.573684 
1627.000000	99.573322 
1626.000000	99.573547 
1625.000000	99.574893 
1624.000000	99.577045 
1623.000000	99.579373 
1622.000000	99.581504 
1621.000000	99.583012 
1620.000000	99.583193 
1619.000000	99.581925 
1618.000000	99.580375 
1617.000000	99.579592 
1616.000000	99.578930 
1615.000000	99.578271 
1614.000000	99.577808 
1613.000000	99.576660 
1612.000000	99.574765 
1611.000000	99.573423 
1610.000000	99.573713 
1609.000000	99.574724 
1608.000000	99.574844 
1607.000000	99.574042 
1606.000000	99.573198 
1605.000000	99.572607 
1604.000000	99.572389 
1603.000000	99.573041 
1602.000000	99.574407 
1601.000000	99.575261 
1600.000000	99.575102 
1599.000000	99.575131 
1598.000000	99.576399 
1597.000000	99.578361 
1596.000000	99.579855 
1595.000000	99.580684 
1594.000000	99.581341 
1593.000000	99.581683 
1592.000000	99.581257 
1591.000000	99.580471 
1590.000000	99.580234 
1589.000000	99.580585 
1588.000000	99.580880 
1587.000000	99.580983 
1586.000000	99.581143 
1585.000000	99.581150 
1584.000000	99.580699 
1583.000000	99.580103 
1582.000000	99.579945 
1581.000000	99.580202 
1580.000000	99.580466 
1579.000000	99.580595 
1578.000000	99.580705 
1577.000000	99.580737 
1576.000000	99.580504 
1575.000000	99.580244 
1574.000000	99.580282 
1573.000000	99.580409 
1572.000000	99.580387 
1571.000000	99.580248 
1570.000000	99.580141 
1569.000000	99.580058 
1568.000000	99.579949 
1567.000000	99.579836 
1566.000000	99.579708 
1565.000000	99.579547 
1564.000000	99.579365 
1563.000000	99.579178 
1562.000000	99.578982 
1561.000000	99.578772 
1560.000000	99.578548 
1559.000000	99.578317 
1558.000000	99.578082 
1557.000000	99.577840 
1556.000000	99.577588 
1555.000000	99.577322 
1554.000000	99.577044 
1553.000000	99.576759 
1552.000000	99.576472 
1551.000000	99.576186 
1550.000000	99.575898 
1549.000000	99.575607 
1548.000000	99.575307 
1547.000000	99.574993 
1546.000000	99.574661 
1545.000000	99.574314 
1544.000000	99.573956 
1543.000000	99.573592 
1542.000000	99.573228 
1541.000000	99.572871 
1540.000000	99.572520 
1539.000000	99.572170 
1538.000000	99.571824 
1537.000000	99.571488 
1536.000000	99.571158 
1535.000000	99.570826 
1534.000000	99.570513 
1533.000000	99.570268 
1532.000000	99.570044 
1531.000000	99.569717 
1530.000000	99.569266 
1529.000000	99.568819 
1528.000000	99.568461 
1527.000000	99.568134 
1526.000000	99.567751 
1525.000000	99.567352 
1524.000000	99.566978 
1523.000000	99.566583 
1522.000000	99.566265 
1521.000000	99.566213 
1520.000000	99.566163 
1519.000000	99.565761 
1518.000000	99.564931 
1517.000000	99.563905 
1516.000000	99.562853 
1515.000000	99.561766 
1514.000000	99.560702 
1513.000000	99.559844 
1512.000000	99.559356 
1511.000000	99.559032 
1510.000000	99.558401 
1509.000000	99.557328 
1508.000000	99.556538 
1507.000000	99.556543 
1506.000000	99.556000 
1505.000000	99.554734 
1504.000000	99.553824 
1503.000000	99.553100 
1502.000000	99.552395 
1501.000000	99.551990 
1500.000000	99.552191 
1499.000000	99.552535 
1498.000000	99.552008 
1497.000000	99.550820 
1496.000000	99.550145 
1495.000000	99.549632 
1494.000000	99.548074 
1493.000000	99.545244 
1492.000000	99.541847 
1491.000000	99.538995 
1490.000000	99.537373 
1489.000000	99.536792 
1488.000000	99.536130 
1487.000000	99.534449 
1486.000000	99.532485 
1485.000000	99.531205 
1484.000000	99.530496 
1483.000000	99.529719 
1482.000000	99.528298 
1481.000000	99.526252 
1480.000000	99.523944 
1479.000000	99.521612 
1478.000000	99.519403 
1477.000000	99.517533 
1476.000000	99.515765 
1475.000000	99.512962 
1474.000000	99.509281 
1473.000000	99.507312 
1472.000000	99.508575 
1471.000000	99.510292 
1470.000000	99.510237 
1469.000000	99.509311 
1468.000000	99.509107 
1467.000000	99.509633 
1466.000000	99.509902 
1465.000000	99.509698 
1464.000000	99.509394 
1463.000000	99.508983 
1462.000000	99.508397 
1461.000000	99.508269 
1460.000000	99.508730 
1459.000000	99.508218 
1458.000000	99.502776 
1457.000000	99.491275 
1456.000000	99.480161 
1455.000000	99.474559 
1454.000000	99.472477 
1453.000000	99.471551 
1452.000000	99.471063 
1451.000000	99.470569 
1450.000000	99.470319 
1449.000000	99.472666 
1448.000000	99.479228 
1447.000000	99.486595 
1446.000000	99.490208 
1445.000000	99.490551 
1444.000000	99.490617 
1443.000000	99.490900 
1442.000000	99.489929 
1441.000000	99.487752 
1440.000000	99.486665 
1439.000000	99.487784 
1438.000000	99.488371 
1437.000000	99.485450 
1436.000000	99.480334 
1435.000000	99.475056 
1434.000000	99.469886 
1433.000000	99.465994 
1432.000000	99.464991 
1431.000000	99.467092 
1430.000000	99.469261 
1429.000000	99.468514 
1428.000000	99.465598 
1427.000000	99.462453 
1426.000000	99.458867 
1425.000000	99.453050 
1424.000000	99.445913 
1423.000000	99.440028 
1422.000000	99.434399 
1421.000000	99.426204 
1420.000000	99.415559 
1419.000000	99.405604 
1418.000000	99.395399 
1417.000000	99.383086 
1416.000000	99.371048 
1415.000000	99.360830 
1414.000000	99.350364 
1413.000000	99.336985 
1412.000000	99.321999 
1411.000000	99.309290 
1410.000000	99.299769 
1409.000000	99.292228 
1408.000000	99.287135 
1407.000000	99.285255 
1406.000000	99.285400 
1405.000000	99.286551 
1404.000000	99.290909 
1403.000000	99.299427 
1402.000000	99.308054 
1401.000000	99.313098 
1400.000000	99.315770 
1399.000000	99.319309 
1398.000000	99.320973 
1397.000000	99.313477 
1396.000000	99.295039 
1395.000000	99.275106 
1394.000000	99.267242 
1393.000000	99.275861 
1392.000000	99.296092 
1391.000000	99.319466 
1390.000000	99.338208 
1389.000000	99.347948 
1388.000000	99.348863 
1387.000000	99.344735 
1386.000000	99.339460 
1385.000000	99.335114 
1384.000000	99.332782 
1383.000000	99.332921 
1382.000000	99.334963 
1381.000000	99.338310 
1380.000000	99.342995 
1379.000000	99.349326 
1378.000000	99.356952 
1377.000000	99.364837 
1376.000000	99.372679 
1375.000000	99.381505 
1374.000000	99.391835 
1373.000000	99.401928 
1372.000000	99.410133 
1371.000000	99.417598 
1370.000000	99.427071 
1369.000000	99.438867 
1368.000000	99.450942 
1367.000000	99.461372 
1366.000000	99.469581 
1365.000000	99.475859 
1364.000000	99.480557 
1363.000000	99.484551 
1362.000000	99.489418 
1361.000000	99.495507 
1360.000000	99.501431 
1359.000000	99.506358 
1358.000000	99.511337 
1357.000000	99.517638 
1356.000000	99.524920 
1355.000000	99.531620 
1354.000000	99.536907 
1353.000000	99.541379 
1352.000000	99.544855 
1351.000000	99.545739 
1350.000000	99.544823 
1349.000000	99.544399 
1348.000000	99.546164 
1347.000000	99.550370 
1346.000000	99.556461 
1345.000000	99.562846 
1344.000000	99.567537 
1343.000000	99.569891 
1342.000000	99.571360 
1341.000000	99.573293 
1340.000000	99.574841 
1339.000000	99.574370 
1338.000000	99.572045 
1337.000000	99.569981 
1336.000000	99.569966 
1335.000000	99.571764 
1334.000000	99.574060 
1333.000000	99.576130 
1332.000000	99.578005 
1331.000000	99.579796 
1330.000000	99.581266 
1329.000000	99.581661 
1328.000000	99.580500 
1327.000000	99.578571 
1326.000000	99.577601 
1325.000000	99.577961 
1324.000000	99.579138 
1323.000000	99.580918 
1322.000000	99.582983 
1321.000000	99.584081 
1320.000000	99.583102 
1319.000000	99.580655 
1318.000000	99.578477 
1317.000000	99.577450 
1316.000000	99.576887 
1315.000000	99.575774 
1314.000000	99.573977 
1313.000000	99.572422 
1312.000000	99.572211 
1311.000000	99.573597 
1310.000000	99.575873 
1309.000000	99.578166 
1308.000000	99.579994 
1307.000000	99.580826 
1306.000000	99.580103 
1305.000000	99.577837 
1304.000000	99.575834 
1303.000000	99.576407 
1302.000000	99.579877 
1301.000000	99.584054 
1300.000000	99.586478 
1299.000000	99.586157 
1298.000000	99.583335 
1297.000000	99.579159 
1296.000000	99.575783 
1295.000000	99.575553 
1294.000000	99.578766 
1293.000000	99.583073 
1292.000000	99.585671 
1291.000000	99.585396 
1290.000000	99.582714 
1289.000000	99.578899 
1288.000000	99.575489 
1287.000000	99.573264 
1286.000000	99.571216 
1285.000000	99.567761 
1284.000000	99.563313 
1283.000000	99.560179 
1282.000000	99.559284 
1281.000000	99.558811 
1280.000000	99.556887 
1279.000000	99.553813 
1278.000000	99.550343 
1277.000000	99.545848 
1276.000000	99.539633 
1275.000000	99.532956 
1274.000000	99.527827 
1273.000000	99.524496 
1272.000000	99.521568 
1271.000000	99.517920 
1270.000000	99.513181 
1269.000000	99.507080 
1268.000000	99.499903 
1267.000000	99.493002 
1266.000000	99.487255 
1265.000000	99.481700 
1264.000000	99.474857 
1263.000000	99.466714 
1262.000000	99.458375 
1261.000000	99.450585 
1260.000000	99.443817 
1259.000000	99.439030 
1258.000000	99.436521 
1257.000000	99.434916 
1256.000000	99.432685 
1255.000000	99.430132 
1254.000000	99.428410 
1253.000000	99.427260 
1252.000000	99.425382 
1251.000000	99.422889 
1250.000000	99.421643 
1249.000000	99.423103 
1248.000000	99.427278 
1247.000000	99.433404 
1246.000000	99.439684 
1245.000000	99.442640 
1244.000000	99.439253 
1243.000000	99.430996 
1242.000000	99.424391 
1241.000000	99.425415 
1240.000000	99.433848 
1239.000000	99.443694 
1238.000000	99.448963 
1237.000000	99.448333 
1236.000000	99.444143 
1235.000000	99.438870 
1234.000000	99.433368 
1233.000000	99.427748 
1232.000000	99.422572 
1231.000000	99.418571 
1230.000000	99.415664 
1229.000000	99.413070 
1228.000000	99.410615 
1227.000000	99.409500 
1226.000000	99.411296 
1225.000000	99.416117 
1224.000000	99.422077 
1223.000000	99.426755 
1222.000000	99.429178 
1221.000000	99.430266 
1220.000000	99.431549 
1219.000000	99.433821 
1218.000000	99.436873 
1217.000000	99.440081 
1216.000000	99.442913 
1215.000000	99.445075 
1214.000000	99.446644 
1213.000000	99.448058 
1212.000000	99.449580 
1211.000000	99.450531 
1210.000000	99.449701 
1209.000000	99.446855 
1208.000000	99.443331 
1207.000000	99.440647 
1206.000000	99.438930 
1205.000000	99.437315 
1204.000000	99.435303 
1203.000000	99.432770 
1202.000000	99.428889 
1201.000000	99.422375 
1200.000000	99.413324 
1199.000000	99.403951 
1198.000000	99.396947 
1197.000000	99.393295 
1196.000000	99.391789 
1195.000000	99.390173 
1194.000000	99.386597 
1193.000000	99.380444 
1192.000000	99.372425 
1191.000000	99.363922 
1190.000000	99.356084 
1189.000000	99.349648 
1188.000000	99.345284 
1187.000000	99.343166 
1186.000000	99.341945 
1185.000000	99.339025 
1184.000000	99.332472 
1183.000000	99.322491 
1182.000000	99.311143 
1181.000000	99.301012 
1180.000000	99.293938 
1179.000000	99.290041 
1178.000000	99.287233 
1177.000000	99.282393 
1176.000000	99.273943 
1175.000000	99.263219 
1174.000000	99.253008 
1173.000000	99.244878 
1172.000000	99.238435 
1171.000000	99.232615 
1170.000000	99.226790 
1169.000000	99.220689 
1168.000000	99.214046 
1167.000000	99.206671 
1166.000000	99.198668 
1165.000000	99.190666 
1164.000000	99.184101 
1163.000000	99.180865 
1162.000000	99.181903 
1161.000000	99.185912 
1160.000000	99.189874 
1159.000000	99.191417 
1158.000000	99.190505 
1157.000000	99.188595 
1156.000000	99.186223 
1155.000000	99.181803 
1154.000000	99.173098 
1153.000000	99.159783 
1152.000000	99.144414 
1151.000000	99.130792 
1150.000000	99.121219 
1149.000000	99.115170 
1148.000000	99.110114 
1147.000000	99.103240 
1146.000000	99.092878 
1145.000000	99.079239 
1144.000000	99.064208 
1143.000000	99.050160 
1142.000000	99.038620 
1141.000000	99.029824 
1140.000000	99.023029 
1139.000000	99.016633 
1138.000000	99.008505 
1137.000000	98.997380 
1136.000000	98.984169 
1135.000000	98.971199 
1134.000000	98.959946 
1133.000000	98.950030 
1132.000000	98.940332 
1131.000000	98.930098 
1130.000000	98.918913 
1129.000000	98.906665 
1128.000000	98.893884 
1127.000000	98.881221 
1126.000000	98.868375 
1125.000000	98.854517 
1124.000000	98.839941 
1123.000000	98.826075 
1122.000000	98.813296 
1121.000000	98.799928 
1120.000000	98.784236 
1119.000000	98.766434 
1118.000000	98.747870 
1117.000000	98.729093 
1116.000000	98.709652 
1115.000000	98.689076 
1114.000000	98.667041 
1113.000000	98.643071 
1112.000000	98.617277 
1111.000000	98.591323 
1110.000000	98.567355 
1109.000000	98.545909 
1108.000000	98.525735 
1107.000000	98.505169 
1106.000000	98.483728 
1105.000000	98.462419 
1104.000000	98.442417 
1103.000000	98.423564 
1102.000000	98.404885 
1101.000000	98.386427 
1100.000000	98.370109 
1099.000000	98.356354 
1098.000000	98.343309 
1097.000000	98.328976 
1096.000000	98.313525 
1095.000000	98.297589 
1094.000000	98.279228 
1093.000000	98.255069 
1092.000000	98.224342 
1091.000000	98.189685 
1090.000000	98.153732 
1089.000000	98.116806 
1088.000000	98.078690 
1087.000000	98.040728 
1086.000000	98.004845 
1085.000000	97.971595 
1084.000000	97.940171 
1083.000000	97.909409 
1082.000000	97.878154 
1081.000000	97.845864 
1080.000000	97.813678 
1079.000000	97.783991 
1078.000000	97.758361 
1077.000000	97.736774 
1076.000000	97.719000 
1075.000000	97.705132 
1074.000000	97.694557 
1073.000000	97.685959 
1072.000000	97.677884 
1071.000000	97.666695 
1070.000000	97.644557 
1069.000000	97.604551 
1068.000000	97.550934 
1067.000000	97.501432 
1066.000000	97.474359 
1065.000000	97.473609 
1064.000000	97.487495 
1063.000000	97.499495 
1062.000000	97.498222 
1061.000000	97.479195 
1060.000000	97.443685 
1059.000000	97.399572 
1058.000000	97.359739 
1057.000000	97.334221 
1056.000000	97.322585 
1055.000000	97.314846 
1054.000000	97.300595 
1053.000000	97.277704 
1052.000000	97.252321 
1051.000000	97.231194 
1050.000000	97.215377 
1049.000000	97.201933 
1048.000000	97.189733 
1047.000000	97.180812 
1046.000000	97.176442 
1045.000000	97.174651 
1044.000000	97.172532 
1043.000000	97.169530 
1042.000000	97.167325 
1041.000000	97.166976 
1040.000000	97.167459 
1039.000000	97.167755 
1038.000000	97.170073 
1037.000000	97.179593 
1036.000000	97.199781 
1035.000000	97.228383 
1034.000000	97.259199 
1033.000000	97.286913 
1032.000000	97.307703 
1031.000000	97.316384 
1030.000000	97.308949 
1029.000000	97.291078 
1028.000000	97.279843 
1027.000000	97.290929 
1026.000000	97.324301 
1025.000000	97.365142 
1024.000000	97.398207 
1023.000000	97.418291 
1022.000000	97.428215 
1021.000000	97.432757 
1020.000000	97.436431 
1019.000000	97.443008 
1018.000000	97.453360 
1017.000000	97.464815 
1016.000000	97.474555 
1015.000000	97.482886 
1014.000000	97.492374 
1013.000000	97.504874 
1012.000000	97.520092 
1011.000000	97.536006 
1010.000000	97.550324 
1009.000000	97.562782 
1008.000000	97.576129 
1007.000000	97.593502 
1006.000000	97.614775 
1005.000000	97.636815 
1004.000000	97.657238 
1003.000000	97.676258 
1002.000000	97.694871 
1001.000000	97.713219 
1000.000000	97.731299 
999.000000	 97.749449 
998.000000	 97.767185 
997.000000	 97.782993 
996.000000	 97.796594 
995.000000	 97.810605 
994.000000	 97.828573 
993.000000	 97.851343 
992.000000	 97.875925 
991.000000	 97.897832 
990.000000	 97.914536 
989.000000	 97.927335 
988.000000	 97.940137 
987.000000	 97.955751 
986.000000	 97.973372 
985.000000	 97.990867 
984.000000	 98.008877 
983.000000	 98.030381 
982.000000	 98.056411 
981.000000	 98.084322 
980.000000	 98.110728 
979.000000	 98.134776 
978.000000	 98.157567 
977.000000	 98.180279 
976.000000	 98.204244 
975.000000	 98.231012 
974.000000	 98.260541 
973.000000	 98.290563 
972.000000	 98.319283 
971.000000	 98.347540 
970.000000	 98.376761 
969.000000	 98.406002 
968.000000	 98.433061 
967.000000	 98.457828 
966.000000	 98.482351 
965.000000	 98.507553 
964.000000	 98.531794 
963.000000	 98.553220 
962.000000	 98.571989 
961.000000	 98.589469 
960.000000	 98.606400 
959.000000	 98.622688 
958.000000	 98.638332 
957.000000	 98.653774 
956.000000	 98.669662 
955.000000	 98.686623 
954.000000	 98.704748 
953.000000	 98.722837 
952.000000	 98.738715 
951.000000	 98.751052 
950.000000	 98.760848 
949.000000	 98.770475 
948.000000	 98.781294 
947.000000	 98.792907 
946.000000	 98.804616 
945.000000	 98.816653 
944.000000	 98.829422 
943.000000	 98.841976 
942.000000	 98.852029 
941.000000	 98.857790 
940.000000	 98.859696 
939.000000	 98.860357 
938.000000	 98.862627 
937.000000	 98.867244 
936.000000	 98.872158 
935.000000	 98.874377 
934.000000	 98.872824 
933.000000	 98.869396 
932.000000	 98.867198 
931.000000	 98.868155 
930.000000	 98.872483 
929.000000	 98.879782 
928.000000	 98.889661 
927.000000	 98.901218 
926.000000	 98.912694 
925.000000	 98.922106 
924.000000	 98.928002 
923.000000	 98.929624 
922.000000	 98.926969 
921.000000	 98.921026 
920.000000	 98.913688 
919.000000	 98.907151 
918.000000	 98.903190 
917.000000	 98.902458 
916.000000	 98.903843 
915.000000	 98.904764 
914.000000	 98.903241 
913.000000	 98.900287 
912.000000	 98.899639 
911.000000	 98.904334 
910.000000	 98.913543 
909.000000	 98.923010 
908.000000	 98.928587 
907.000000	 98.929406 
906.000000	 98.928282 
905.000000	 98.929466 
904.000000	 98.935743 
903.000000	 98.947155 
902.000000	 98.962024 
901.000000	 98.978762 
900.000000	 98.996478 
899.000000	 99.014384 
898.000000	 99.031649 
897.000000	 99.047556 
896.000000	 99.060998 
895.000000	 99.070426 
894.000000	 99.075985 
893.000000	 99.081512 
892.000000	 99.092365 
891.000000	 99.110461 
890.000000	 99.132610 
889.000000	 99.154244 
888.000000	 99.173225 
887.000000	 99.189001 
886.000000	 99.200153 
885.000000	 99.205343 
884.000000	 99.206179 
883.000000	 99.207022 
882.000000	 99.211339 
881.000000	 99.219417 
880.000000	 99.230031 
879.000000	 99.242852 
878.000000	 99.258188 
877.000000	 99.274931 
876.000000	 99.289817 
875.000000	 99.299276 
874.000000	 99.302434 
873.000000	 99.302586 
872.000000	 99.305263 
871.000000	 99.313888 
870.000000	 99.326920 
869.000000	 99.339403 
868.000000	 99.347595 
867.000000	 99.352224 
866.000000	 99.357483 
865.000000	 99.367060 
864.000000	 99.381127 
863.000000	 99.397037 
862.000000	 99.412421 
861.000000	 99.426827 
860.000000	 99.440249 
859.000000	 99.451662 
858.000000	 99.460919 
857.000000	 99.471304 
856.000000	 99.487155 
855.000000	 99.507723 
854.000000	 99.525821 
853.000000	 99.534878 
852.000000	 99.535879 
851.000000	 99.535422 
850.000000	 99.537963 
849.000000	 99.542640 
848.000000	 99.547426 
847.000000	 99.552806 
846.000000	 99.559920 
845.000000	 99.567739 
844.000000	 99.574432 
843.000000	 99.580119 
842.000000	 99.585794 
841.000000	 99.590018 
840.000000	 99.589476 
839.000000	 99.583807 
838.000000	 99.577758 
837.000000	 99.576231 
836.000000	 99.578068 
835.000000	 99.577599 
834.000000	 99.572754 
833.000000	 99.568599 
832.000000	 99.570548 
831.000000	 99.576385 
830.000000	 99.579209 
829.000000	 99.577882 
828.000000	 99.579136 
827.000000	 99.586658 
826.000000	 99.592943 
825.000000	 99.588210 
824.000000	 99.575056 
823.000000	 99.567117 
822.000000	 99.572299 
821.000000	 99.583779 
820.000000	 99.589581 
819.000000	 99.585460 
818.000000	 99.576435 
817.000000	 99.569769 
816.000000	 99.568626 
815.000000	 99.570136 
814.000000	 99.567380 
813.000000	 99.554834 
812.000000	 99.533888 
811.000000	 99.512268 
810.000000	 99.496316 
809.000000	 99.484381 
808.000000	 99.468964 
807.000000	 99.443654 
806.000000	 99.406435 
805.000000	 99.358624 
804.000000	 99.304682 
803.000000	 99.253091 
802.000000	 99.213130 
801.000000	 99.188624 
800.000000	 99.176125 
799.000000	 99.169788 
798.000000	 99.166937 
797.000000	 99.168594 
796.000000	 99.176097 
795.000000	 99.188554 
794.000000	 99.203505 
793.000000	 99.219212 
792.000000	 99.235150 
791.000000	 99.249475 
790.000000	 99.257267 
789.000000	 99.254060 
788.000000	 99.241882 
787.000000	 99.229146 
786.000000	 99.222333 
785.000000	 99.219415 
784.000000	 99.213957 
783.000000	 99.204134 
782.000000	 99.194211 
781.000000	 99.188137 
780.000000	 99.185746 
779.000000	 99.185262 
778.000000	 99.185866 
777.000000	 99.187498 
776.000000	 99.191490 
775.000000	 99.201745 
774.000000	 99.221233 
773.000000	 99.246008 
772.000000	 99.266699 
771.000000	 99.278141 
770.000000	 99.283941 
769.000000	 99.289467 
768.000000	 99.294699 
767.000000	 99.297737 
766.000000	 99.301375 
765.000000	 99.310276 
764.000000	 99.322960 
763.000000	 99.331899 
762.000000	 99.332084 
761.000000	 99.326051 
760.000000	 99.320454 
759.000000	 99.320597 
758.000000	 99.327810 
757.000000	 99.339104 
756.000000	 99.349302 
755.000000	 99.355939 
754.000000	 99.361826 
753.000000	 99.370755 
752.000000	 99.381927 
751.000000	 99.391252 
750.000000	 99.397009 
749.000000	 99.400890 
748.000000	 99.404111 
747.000000	 99.406663 
746.000000	 99.410673 
745.000000	 99.419503 
744.000000	 99.431768 
743.000000	 99.440820 
742.000000	 99.443034 
741.000000	 99.443051 
740.000000	 99.447817 
739.000000	 99.458195 
738.000000	 99.469603 
737.000000	 99.478529 
736.000000	 99.485233 
735.000000	 99.491785 
734.000000	 99.500652 
733.000000	 99.513772 
732.000000	 99.529974 
731.000000	 99.544118 
730.000000	 99.551543 
729.000000	 99.551787 
728.000000	 99.548013 
727.000000	 99.543605 
726.000000	 99.539182 
725.000000	 99.534813 
724.000000	 99.533245 
723.000000	 99.538527 
722.000000	 99.551266 
721.000000	 99.566369 
720.000000	 99.576576 
719.000000	 99.578146 
718.000000	 99.572300 
717.000000	 99.562320 
716.000000	 99.551122 
715.000000	 99.541454 
714.000000	 99.535813 
713.000000	 99.534209 
712.000000	 99.534430 
711.000000	 99.535392 
710.000000	 99.538619 
709.000000	 99.544326 
708.000000	 99.548585 
707.000000	 99.548447 
706.000000	 99.545159 
705.000000	 99.541786 
704.000000	 99.539890 
703.000000	 99.538796 
702.000000	 99.538287 
701.000000	 99.539029 
700.000000	 99.538907 
699.000000	 99.534321 
698.000000	 99.524114 
697.000000	 99.510703 
696.000000	 99.497557 
695.000000	 99.486075 
694.000000	 99.478751 
693.000000	 99.480353 
692.000000	 99.491598 
691.000000	 99.506778 
690.000000	 99.518678 
689.000000	 99.525786 
688.000000	 99.532002 
687.000000	 99.539594 
686.000000	 99.548178 
685.000000	 99.557335 
684.000000	 99.565355 
683.000000	 99.569122 
682.000000	 99.568159 
681.000000	 99.567084 
680.000000	 99.570694 
679.000000	 99.578811 
678.000000	 99.587373 
677.000000	 99.589996 
676.000000	 99.584870 
675.000000	 99.579199 
674.000000	 99.582431 
673.000000	 99.596858 
672.000000	 99.620030 
671.000000	 99.653991 
670.000000	 99.707555 
669.000000	 99.774390 
668.000000	 99.801843 
667.000000	 99.759122 
666.000000	 99.698044 
665.000000	 99.654732 
664.000000	 99.627045 
663.000000	 99.608534 
662.000000	 99.596750 
661.000000	 99.590986 
660.000000	 99.591405 
659.000000	 99.596908 
658.000000	 99.602125 
657.000000	 99.598698 
656.000000	 99.587715 
655.000000	 99.581315 
654.000000	 99.584141 
653.000000	 99.585633 
652.000000	 99.577781 
651.000000	 99.566142 
650.000000	 99.560361 

