4000.000000	99.499177 
3999.000000	99.498809 
3998.000000	99.498463 
3997.000000	99.498052 
3996.000000	99.497486 
3995.000000	99.496778 
3994.000000	99.496085 
3993.000000	99.495591 
3992.000000	99.495324 
3991.000000	99.495095 
3990.000000	99.494688 
3989.000000	99.494153 
3988.000000	99.493827 
3987.000000	99.494024 
3986.000000	99.494742 
3985.000000	99.495631 
3984.000000	99.496203 
3983.000000	99.496118 
3982.000000	99.495325 
3981.000000	99.494051 
3980.000000	99.492648 
3979.000000	99.491371 
3978.000000	99.490350 
3977.000000	99.489730 
3976.000000	99.489684 
3975.000000	99.490246 
3974.000000	99.491211 
3973.000000	99.492166 
3972.000000	99.492676 
3971.000000	99.492541 
3970.000000	99.491848 
3969.000000	99.490862 
3968.000000	99.489868 
3967.000000	99.489007 
3966.000000	99.488280 
3965.000000	99.487679 
3964.000000	99.487227 
3963.000000	99.486872 
3962.000000	99.486452 
3961.000000	99.485839 
3960.000000	99.485104 
3959.000000	99.484492 
3958.000000	99.484195 
3957.000000	99.484151 
3956.000000	99.484127 
3955.000000	99.483936 
3954.000000	99.483573 
3953.000000	99.483126 
3952.000000	99.482634 
3951.000000	99.482110 
3950.000000	99.481643 
3949.000000	99.481402 
3948.000000	99.481456 
3947.000000	99.481605 
3946.000000	99.481571 
3945.000000	99.481330 
3944.000000	99.481154 
3943.000000	99.481214 
3942.000000	99.481337 
3941.000000	99.481244 
3940.000000	99.480845 
3939.000000	99.480143 
3938.000000	99.479040 
3937.000000	99.477443 
3936.000000	99.475648 
3935.000000	99.474393 
3934.000000	99.474395 
3933.000000	99.475795 
3932.000000	99.477891 
3931.000000	99.479464 
3930.000000	99.479617 
3929.000000	99.478342 
3928.000000	99.476445 
3927.000000	99.474938 
3926.000000	99.474422 
3925.000000	99.474800 
3924.000000	99.475401 
3923.000000	99.475636 
3922.000000	99.475512 
3921.000000	99.475499 
3920.000000	99.475970 
3919.000000	99.476858 
3918.000000	99.477879 
3917.000000	99.478876 
3916.000000	99.479886 
3915.000000	99.480971 
3914.000000	99.482175 
3913.000000	99.483451 
3912.000000	99.484536 
3911.000000	99.485102 
3910.000000	99.485087 
3909.000000	99.484748 
3908.000000	99.484393 
3907.000000	99.483916 
3906.000000	99.482755 
3905.000000	99.480368 
3904.000000	99.476737 
3903.000000	99.472724 
3902.000000	99.469795 
3901.000000	99.469054 
3900.000000	99.470578 
3899.000000	99.473312 
3898.000000	99.475811 
3897.000000	99.477339 
3896.000000	99.477964 
3895.000000	99.478004 
3894.000000	99.477692 
3893.000000	99.477127 
3892.000000	99.476342 
3891.000000	99.475270 
3890.000000	99.473890 
3889.000000	99.472407 
3888.000000	99.471269 
3887.000000	99.470948 
3886.000000	99.471445 
3885.000000	99.472108 
3884.000000	99.472304 
3883.000000	99.472195 
3882.000000	99.472525 
3881.000000	99.473649 
3880.000000	99.475030 
3879.000000	99.475778 
3878.000000	99.475763 
3877.000000	99.475681 
3876.000000	99.476210 
3875.000000	99.477253 
3874.000000	99.478032 
3873.000000	99.477960 
3872.000000	99.477309 
3871.000000	99.476895 
3870.000000	99.477170 
3869.000000	99.477886 
3868.000000	99.478598 
3867.000000	99.479175 
3866.000000	99.479748 
3865.000000	99.480376 
3864.000000	99.480895 
3863.000000	99.481171 
3862.000000	99.481299 
3861.000000	99.481505 
3860.000000	99.481916 
3859.000000	99.482478 
3858.000000	99.483032 
3857.000000	99.483465 
3856.000000	99.483804 
3855.000000	99.484238 
3854.000000	99.484926 
3853.000000	99.485750 
3852.000000	99.486474 
3851.000000	99.487039 
3850.000000	99.487494 
3849.000000	99.487872 
3848.000000	99.488157 
3847.000000	99.488333 
3846.000000	99.488443 
3845.000000	99.488591 
3844.000000	99.488892 
3843.000000	99.489421 
3842.000000	99.490135 
3841.000000	99.490872 
3840.000000	99.491479 
3839.000000	99.491902 
3838.000000	99.492169 
3837.000000	99.492346 
3836.000000	99.492507 
3835.000000	99.492759 
3834.000000	99.493226 
3833.000000	99.493965 
3832.000000	99.494861 
3831.000000	99.495617 
3830.000000	99.495982 
3829.000000	99.495969 
3828.000000	99.495810 
3827.000000	99.495738 
3826.000000	99.495805 
3825.000000	99.495891 
3824.000000	99.495906 
3823.000000	99.495984 
3822.000000	99.496356 
3821.000000	99.497015 
3820.000000	99.497680 
3819.000000	99.498203 
3818.000000	99.498721 
3817.000000	99.499381 
3816.000000	99.499953 
3815.000000	99.499913 
3814.000000	99.499074 
3813.000000	99.497891 
3812.000000	99.497096 
3811.000000	99.497075 
3810.000000	99.497694 
3809.000000	99.498542 
3808.000000	99.499251 
3807.000000	99.499628 
3806.000000	99.499548 
3805.000000	99.498962 
3804.000000	99.498064 
3803.000000	99.497305 
3802.000000	99.496999 
3801.000000	99.496892 
3800.000000	99.496473 
3799.000000	99.495648 
3798.000000	99.494815 
3797.000000	99.494388 
3796.000000	99.494349 
3795.000000	99.494286 
3794.000000	99.493844 
3793.000000	99.493057 
3792.000000	99.492266 
3791.000000	99.491802 
3790.000000	99.491757 
3789.000000	99.491941 
3788.000000	99.492005 
3787.000000	99.491644 
3786.000000	99.490847 
3785.000000	99.489992 
3784.000000	99.489603 
3783.000000	99.489908 
3782.000000	99.490728 
3781.000000	99.491728 
3780.000000	99.492617 
3779.000000	99.493098 
3778.000000	99.492887 
3777.000000	99.491924 
3776.000000	99.490548 
3775.000000	99.489428 
3774.000000	99.489081 
3773.000000	99.489443 
3772.000000	99.489951 
3771.000000	99.490001 
3770.000000	99.489229 
3769.000000	99.487665 
3768.000000	99.485941 
3767.000000	99.484956 
3766.000000	99.485146 
3765.000000	99.486114 
3764.000000	99.486907 
3763.000000	99.486870 
3762.000000	99.486179 
3761.000000	99.485463 
3760.000000	99.485070 
3759.000000	99.484960 
3758.000000	99.485331 
3757.000000	99.486632 
3756.000000	99.488779 
3755.000000	99.491052 
3754.000000	99.492783 
3753.000000	99.493993 
3752.000000	99.494974 
3751.000000	99.495308 
3750.000000	99.494470 
3749.000000	99.493030 
3748.000000	99.492114 
3747.000000	99.492336 
3746.000000	99.493653 
3745.000000	99.495043 
3744.000000	99.494650 
3743.000000	99.491707 
3742.000000	99.487200 
3741.000000	99.482165 
3740.000000	99.476701 
3739.000000	99.470474 
3738.000000	99.464194 
3737.000000	99.459851 
3736.000000	99.458534 
3735.000000	99.458980 
3734.000000	99.459181 
3733.000000	99.459201 
3732.000000	99.460455 
3731.000000	99.463083 
3730.000000	99.465821 
3729.000000	99.467535 
3728.000000	99.468122 
3727.000000	99.467786 
3726.000000	99.466139 
3725.000000	99.462823 
3724.000000	99.458632 
3723.000000	99.455310 
3722.000000	99.454042 
3721.000000	99.454799 
3720.000000	99.456495 
3719.000000	99.457437 
3718.000000	99.456388 
3717.000000	99.453167 
3716.000000	99.448255 
3715.000000	99.442607 
3714.000000	99.437804 
3713.000000	99.435803 
3712.000000	99.437163 
3711.000000	99.439847 
3710.000000	99.440762 
3709.000000	99.438064 
3708.000000	99.431967 
3707.000000	99.424037 
3706.000000	99.416078 
3705.000000	99.409425 
3704.000000	99.404518 
3703.000000	99.400707 
3702.000000	99.396395 
3701.000000	99.390113 
3700.000000	99.381800 
3699.000000	99.372784 
3698.000000	99.364698 
3697.000000	99.358439 
3696.000000	99.353721 
3695.000000	99.349785 
3694.000000	99.346501 
3693.000000	99.344179 
3692.000000	99.342278 
3691.000000	99.339056 
3690.000000	99.333192 
3689.000000	99.325674 
3688.000000	99.318994 
3687.000000	99.314327 
3686.000000	99.311105 
3685.000000	99.308976 
3684.000000	99.308354 
3683.000000	99.309198 
3682.000000	99.310017 
3681.000000	99.308508 
3680.000000	99.303106 
3679.000000	99.293877 
3678.000000	99.282811 
3677.000000	99.274119 
3676.000000	99.272001 
3675.000000	99.275561 
3674.000000	99.279074 
3673.000000	99.278754 
3672.000000	99.275569 
3671.000000	99.273074 
3670.000000	99.273304 
3669.000000	99.274790 
3668.000000	99.275453 
3667.000000	99.275411 
3666.000000	99.275815 
3665.000000	99.276878 
3664.000000	99.277679 
3663.000000	99.277318 
3662.000000	99.275816 
3661.000000	99.273720 
3660.000000	99.271551 
3659.000000	99.270133 
3658.000000	99.270934 
3657.000000	99.274932 
3656.000000	99.280722 
3655.000000	99.285226 
3654.000000	99.286716 
3653.000000	99.285892 
3652.000000	99.284264 
3651.000000	99.282634 
3650.000000	99.281156 
3649.000000	99.280764 
3648.000000	99.282984 
3647.000000	99.287709 
3646.000000	99.293091 
3645.000000	99.297696 
3644.000000	99.301629 
3643.000000	99.305816 
3642.000000	99.311096 
3641.000000	99.317509 
3640.000000	99.324338 
3639.000000	99.330484 
3638.000000	99.334888 
3637.000000	99.337094 
3636.000000	99.337420 
3635.000000	99.336556 
3634.000000	99.334862 
3633.000000	99.332507 
3632.000000	99.330284 
3631.000000	99.329802 
3630.000000	99.332416 
3629.000000	99.336966 
3628.000000	99.339982 
3627.000000	99.339970 
3626.000000	99.338712 
3625.000000	99.338359 
3624.000000	99.339472 
3623.000000	99.341455 
3622.000000	99.343799 
3621.000000	99.346788 
3620.000000	99.350700 
3619.000000	99.354687 
3618.000000	99.357453 
3617.000000	99.358940 
3616.000000	99.360307 
3615.000000	99.362649 
3614.000000	99.365854 
3613.000000	99.368753 
3612.000000	99.370489 
3611.000000	99.371459 
3610.000000	99.372703 
3609.000000	99.374634 
3608.000000	99.376692 
3607.000000	99.378299 
3606.000000	99.379699 
3605.000000	99.381539 
3604.000000	99.384026 
3603.000000	99.386790 
3602.000000	99.389317 
3601.000000	99.391404 
3600.000000	99.393009 
3599.000000	99.393960 
3598.000000	99.394168 
3597.000000	99.393925 
3596.000000	99.393862 
3595.000000	99.394646 
3594.000000	99.396448 
3593.000000	99.398770 
3592.000000	99.400765 
3591.000000	99.401722 
3590.000000	99.401521 
3589.000000	99.400862 
3588.000000	99.400924 
3587.000000	99.402126 
3586.000000	99.403746 
3585.000000	99.405038 
3584.000000	99.406178 
3583.000000	99.407762 
3582.000000	99.409950 
3581.000000	99.412190 
3580.000000	99.413709 
3579.000000	99.414180 
3578.000000	99.413866 
3577.000000	99.413396 
3576.000000	99.413376 
3575.000000	99.414117 
3574.000000	99.415462 
3573.000000	99.416776 
3572.000000	99.417340 
3571.000000	99.416819 
3570.000000	99.415318 
3569.000000	99.413375 
3568.000000	99.411924 
3567.000000	99.411693 
3566.000000	99.412464 
3565.000000	99.413478 
3564.000000	99.414504 
3563.000000	99.416012 
3562.000000	99.418421 
3561.000000	99.421403 
3560.000000	99.424068 
3559.000000	99.425742 
3558.000000	99.426497 
3557.000000	99.426876 
3556.000000	99.427281 
3555.000000	99.427609 
3554.000000	99.427507 
3553.000000	99.426699 
3552.000000	99.425225 
3551.000000	99.423467 
3550.000000	99.421781 
3549.000000	99.420157 
3548.000000	99.418579 
3547.000000	99.417477 
3546.000000	99.417549 
3545.000000	99.418741 
3544.000000	99.420082 
3543.000000	99.420929 
3542.000000	99.421928 
3541.000000	99.424104 
3540.000000	99.427484 
3539.000000	99.430840 
3538.000000	99.432935 
3537.000000	99.433608 
3536.000000	99.433575 
3535.000000	99.433529 
3534.000000	99.433562 
3533.000000	99.433497 
3532.000000	99.433293 
3531.000000	99.433056 
3530.000000	99.432687 
3529.000000	99.431775 
3528.000000	99.430037 
3527.000000	99.427841 
3526.000000	99.426099 
3525.000000	99.425546 
3524.000000	99.426189 
3523.000000	99.427410 
3522.000000	99.428583 
3521.000000	99.429490 
3520.000000	99.430275 
3519.000000	99.431149 
3518.000000	99.432196 
3517.000000	99.433309 
3516.000000	99.434212 
3515.000000	99.434647 
3514.000000	99.434506 
3513.000000	99.433860 
3512.000000	99.432883 
3511.000000	99.431819 
3510.000000	99.430967 
3509.000000	99.430613 
3508.000000	99.430896 
3507.000000	99.431718 
3506.000000	99.432764 
3505.000000	99.433585 
3504.000000	99.433824 
3503.000000	99.433469 
3502.000000	99.432911 
3501.000000	99.432685 
3500.000000	99.433012 
3499.000000	99.433661 
3498.000000	99.434168 
3497.000000	99.434239 
3496.000000	99.433946 
3495.000000	99.433603 
3494.000000	99.433498 
3493.000000	99.433718 
3492.000000	99.434180 
3491.000000	99.434751 
3490.000000	99.435369 
3489.000000	99.436072 
3488.000000	99.436905 
3487.000000	99.437779 
3486.000000	99.438463 
3485.000000	99.438770 
3484.000000	99.438708 
3483.000000	99.438450 
3482.000000	99.438185 
3481.000000	99.438038 
3480.000000	99.438086 
3479.000000	99.438351 
3478.000000	99.438730 
3477.000000	99.439020 
3476.000000	99.439134 
3475.000000	99.439245 
3474.000000	99.439616 
3473.000000	99.440262 
3472.000000	99.440867 
3471.000000	99.441114 
3470.000000	99.441033 
3469.000000	99.440954 
3468.000000	99.441117 
3467.000000	99.441412 
3466.000000	99.441594 
3465.000000	99.441656 
3464.000000	99.441821 
3463.000000	99.442204 
3462.000000	99.442617 
3461.000000	99.442813 
3460.000000	99.442845 
3459.000000	99.443028 
3458.000000	99.443535 
3457.000000	99.444114 
3456.000000	99.444324 
3455.000000	99.443998 
3454.000000	99.443390 
3453.000000	99.442921 
3452.000000	99.442741 
3451.000000	99.442678 
3450.000000	99.442521 
3449.000000	99.442257 
3448.000000	99.442019 
3447.000000	99.441889 
3446.000000	99.441806 
3445.000000	99.441699 
3444.000000	99.441619 
3443.000000	99.441672 
3442.000000	99.441851 
3441.000000	99.441975 
3440.000000	99.441846 
3439.000000	99.441432 
3438.000000	99.440879 
3437.000000	99.440374 
3436.000000	99.440008 
3435.000000	99.439807 
3434.000000	99.439805 
3433.000000	99.440027 
3432.000000	99.440396 
3431.000000	99.440713 
3430.000000	99.440799 
3429.000000	99.440642 
3428.000000	99.440414 
3427.000000	99.440297 
3426.000000	99.440290 
3425.000000	99.440210 
3424.000000	99.439884 
3423.000000	99.439317 
3422.000000	99.438711 
3421.000000	99.438330 
3420.000000	99.438329 
3419.000000	99.438707 
3418.000000	99.439339 
3417.000000	99.439979 
3416.000000	99.440366 
3415.000000	99.440380 
3414.000000	99.440111 
3413.000000	99.439786 
3412.000000	99.439607 
3411.000000	99.439643 
3410.000000	99.439847 
3409.000000	99.440085 
3408.000000	99.440195 
3407.000000	99.440075 
3406.000000	99.439771 
3405.000000	99.439465 
3404.000000	99.439339 
3403.000000	99.439432 
3402.000000	99.439628 
3401.000000	99.439797 
3400.000000	99.439940 
3399.000000	99.440170 
3398.000000	99.440556 
3397.000000	99.441001 
3396.000000	99.441290 
3395.000000	99.441261 
3394.000000	99.440883 
3393.000000	99.440207 
3392.000000	99.439365 
3391.000000	99.438626 
3390.000000	99.438332 
3389.000000	99.438673 
3388.000000	99.439525 
3387.000000	99.440526 
3386.000000	99.441383 
3385.000000	99.442065 
3384.000000	99.442646 
3383.000000	99.443037 
3382.000000	99.442975 
3381.000000	99.442342 
3380.000000	99.441405 
3379.000000	99.440697 
3378.000000	99.440554 
3377.000000	99.440848 
3376.000000	99.441124 
3375.000000	99.441026 
3374.000000	99.440617 
3373.000000	99.440245 
3372.000000	99.440157 
3371.000000	99.440314 
3370.000000	99.440536 
3369.000000	99.440705 
3368.000000	99.440809 
3367.000000	99.440864 
3366.000000	99.440894 
3365.000000	99.440926 
3364.000000	99.440943 
3363.000000	99.440868 
3362.000000	99.440653 
3361.000000	99.440353 
3360.000000	99.440051 
3359.000000	99.439727 
3358.000000	99.439310 
3357.000000	99.438873 
3356.000000	99.438653 
3355.000000	99.438794 
3354.000000	99.439131 
3353.000000	99.439330 
3352.000000	99.439239 
3351.000000	99.439013 
3350.000000	99.438925 
3349.000000	99.439115 
3348.000000	99.439520 
3347.000000	99.439952 
3346.000000	99.440198 
3345.000000	99.440124 
3344.000000	99.439752 
3343.000000	99.439285 
3342.000000	99.438941 
3341.000000	99.438725 
3340.000000	99.438411 
3339.000000	99.437814 
3338.000000	99.437094 
3337.000000	99.436699 
3336.000000	99.436940 
3335.000000	99.437669 
3334.000000	99.438373 
3333.000000	99.438715 
3332.000000	99.438791 
3331.000000	99.438880 
3330.000000	99.439056 
3329.000000	99.439116 
3328.000000	99.438896 
3327.000000	99.438489 
3326.000000	99.438120 
3325.000000	99.437870 
3324.000000	99.437628 
3323.000000	99.437297 
3322.000000	99.436956 
3321.000000	99.436781 
3320.000000	99.436853 
3319.000000	99.437107 
3318.000000	99.437414 
3317.000000	99.437672 
3316.000000	99.437811 
3315.000000	99.437793 
3314.000000	99.437676 
3313.000000	99.437644 
3312.000000	99.437854 
3311.000000	99.438249 
3310.000000	99.438533 
3309.000000	99.438443 
3308.000000	99.437998 
3307.000000	99.437450 
3306.000000	99.437059 
3305.000000	99.436909 
3304.000000	99.436952 
3303.000000	99.437076 
3302.000000	99.437124 
3301.000000	99.436943 
3300.000000	99.436474 
3299.000000	99.435806 
3298.000000	99.435138 
3297.000000	99.434666 
3296.000000	99.434473 
3295.000000	99.434484 
3294.000000	99.434522 
3293.000000	99.434445 
3292.000000	99.434262 
3291.000000	99.434070 
3290.000000	99.433885 
3289.000000	99.433609 
3288.000000	99.433185 
3287.000000	99.432704 
3286.000000	99.432314 
3285.000000	99.432050 
3284.000000	99.431817 
3283.000000	99.431531 
3282.000000	99.431232 
3281.000000	99.431038 
3280.000000	99.431028 
3279.000000	99.431178 
3278.000000	99.431364 
3277.000000	99.431408 
3276.000000	99.431191 
3275.000000	99.430718 
3274.000000	99.430106 
3273.000000	99.429507 
3272.000000	99.429039 
3271.000000	99.428760 
3270.000000	99.428666 
3269.000000	99.428659 
3268.000000	99.428594 
3267.000000	99.428400 
3266.000000	99.428106 
3265.000000	99.427798 
3264.000000	99.427570 
3263.000000	99.427517 
3262.000000	99.427674 
3261.000000	99.427938 
3260.000000	99.428119 
3259.000000	99.428095 
3258.000000	99.427924 
3257.000000	99.427773 
3256.000000	99.427736 
3255.000000	99.427732 
3254.000000	99.427591 
3253.000000	99.427267 
3252.000000	99.426967 
3251.000000	99.427024 
3250.000000	99.427585 
3249.000000	99.428405 
3248.000000	99.429016 
3247.000000	99.429113 
3246.000000	99.428711 
3245.000000	99.428046 
3244.000000	99.427400 
3243.000000	99.426986 
3242.000000	99.426862 
3241.000000	99.426899 
3240.000000	99.426944 
3239.000000	99.427076 
3238.000000	99.427591 
3237.000000	99.428657 
3236.000000	99.430027 
3235.000000	99.431147 
3234.000000	99.431551 
3233.000000	99.431166 
3232.000000	99.430358 
3231.000000	99.429706 
3230.000000	99.429566 
3229.000000	99.429767 
3228.000000	99.429784 
3227.000000	99.429241 
3226.000000	99.428223 
3225.000000	99.427124 
3224.000000	99.426311 
3223.000000	99.425955 
3222.000000	99.426052 
3221.000000	99.426438 
3220.000000	99.426838 
3219.000000	99.427039 
3218.000000	99.427059 
3217.000000	99.427154 
3216.000000	99.427642 
3215.000000	99.428671 
3214.000000	99.430064 
3213.000000	99.431329 
3212.000000	99.431933 
3211.000000	99.431622 
3210.000000	99.430536 
3209.000000	99.429128 
3208.000000	99.427953 
3207.000000	99.427409 
3206.000000	99.427525 
3205.000000	99.427971 
3204.000000	99.428343 
3203.000000	99.428497 
3202.000000	99.428531 
3201.000000	99.428508 
3200.000000	99.428380 
3199.000000	99.428175 
3198.000000	99.428079 
3197.000000	99.428250 
3196.000000	99.428657 
3195.000000	99.429153 
3194.000000	99.429597 
3193.000000	99.429844 
3192.000000	99.429748 
3191.000000	99.429288 
3190.000000	99.428665 
3189.000000	99.428173 
3188.000000	99.427943 
3187.000000	99.427888 
3186.000000	99.427875 
3185.000000	99.427868 
3184.000000	99.427855 
3183.000000	99.427782 
3182.000000	99.427655 
3181.000000	99.427643 
3180.000000	99.427993 
3179.000000	99.428815 
3178.000000	99.429890 
3177.000000	99.430675 
3176.000000	99.430669 
3175.000000	99.429900 
3174.000000	99.429044 
3173.000000	99.428781 
3172.000000	99.428988 
3171.000000	99.428851 
3170.000000	99.427888 
3169.000000	99.426617 
3168.000000	99.426018 
3167.000000	99.426424 
3166.000000	99.427251 
3165.000000	99.427735 
3164.000000	99.427721 
3163.000000	99.427631 
3162.000000	99.427842 
3161.000000	99.428304 
3160.000000	99.428741 
3159.000000	99.429049 
3158.000000	99.429341 
3157.000000	99.429604 
3156.000000	99.429452 
3155.000000	99.428370 
3154.000000	99.426200 
3153.000000	99.423325 
3152.000000	99.420422 
3151.000000	99.418166 
3150.000000	99.417085 
3149.000000	99.417403 
3148.000000	99.418804 
3147.000000	99.420542 
3146.000000	99.422031 
3145.000000	99.423249 
3144.000000	99.424431 
3143.000000	99.425541 
3142.000000	99.426270 
3141.000000	99.426510 
3140.000000	99.426557 
3139.000000	99.426776 
3138.000000	99.427213 
3137.000000	99.427651 
3136.000000	99.427936 
3135.000000	99.428115 
3134.000000	99.428309 
3133.000000	99.428518 
3132.000000	99.428570 
3131.000000	99.428226 
3130.000000	99.427421 
3129.000000	99.426444 
3128.000000	99.425824 
3127.000000	99.425956 
3126.000000	99.426795 
3125.000000	99.427903 
3124.000000	99.428700 
3123.000000	99.428747 
3122.000000	99.427925 
3121.000000	99.426542 
3120.000000	99.425282 
3119.000000	99.424793 
3118.000000	99.425220 
3117.000000	99.426170 
3116.000000	99.427089 
3115.000000	99.427704 
3114.000000	99.428064 
3113.000000	99.428253 
3112.000000	99.428213 
3111.000000	99.427893 
3110.000000	99.427437 
3109.000000	99.427131 
3108.000000	99.427136 
3107.000000	99.427330 
3106.000000	99.427447 
3105.000000	99.427363 
3104.000000	99.427220 
3103.000000	99.427293 
3102.000000	99.427745 
3101.000000	99.428501 
3100.000000	99.429318 
3099.000000	99.429976 
3098.000000	99.430390 
3097.000000	99.430557 
3096.000000	99.430485 
3095.000000	99.430206 
3094.000000	99.429815 
3093.000000	99.429400 
3092.000000	99.428962 
3091.000000	99.428478 
3090.000000	99.428106 
3089.000000	99.428223 
3088.000000	99.429076 
3087.000000	99.430338 
3086.000000	99.431157 
3085.000000	99.430842 
3084.000000	99.429476 
3083.000000	99.427759 
3082.000000	99.426304 
3081.000000	99.425261 
3080.000000	99.424546 
3079.000000	99.424269 
3078.000000	99.424872 
3077.000000	99.426813 
3076.000000	99.429952 
3075.000000	99.433185 
3074.000000	99.434976 
3073.000000	99.434549 
3072.000000	99.432477 
3071.000000	99.429829 
3070.000000	99.426877 
3069.000000	99.423096 
3068.000000	99.418509 
3067.000000	99.414544 
3066.000000	99.413252 
3065.000000	99.415715 
3064.000000	99.421115 
3063.000000	99.426979 
3062.000000	99.430450 
3061.000000	99.429873 
3060.000000	99.425678 
3059.000000	99.419846 
3058.000000	99.414610 
3057.000000	99.411701 
3056.000000	99.412191 
3055.000000	99.415944 
3054.000000	99.420968 
3053.000000	99.424204 
3052.000000	99.423674 
3051.000000	99.419750 
3050.000000	99.414430 
3049.000000	99.409930 
3048.000000	99.407719 
3047.000000	99.407642 
3046.000000	99.407307 
3045.000000	99.403503 
3044.000000	99.395498 
3043.000000	99.386564 
3042.000000	99.381130 
3041.000000	99.380383 
3040.000000	99.381471 
3039.000000	99.380785 
3038.000000	99.376958 
3037.000000	99.370720 
3036.000000	99.363130 
3035.000000	99.354682 
3034.000000	99.345580 
3033.000000	99.336043 
3032.000000	99.326243 
3031.000000	99.316192 
3030.000000	99.305807 
3029.000000	99.295284 
3028.000000	99.285526 
3027.000000	99.277683 
3026.000000	99.271664 
3025.000000	99.265327 
3024.000000	99.255890 
3023.000000	99.242390 
3022.000000	99.226413 
3021.000000	99.210338 
3020.000000	99.195173 
3019.000000	99.180203 
3018.000000	99.164459 
3017.000000	99.148073 
3016.000000	99.132013 
3015.000000	99.116570 
3014.000000	99.100702 
3013.000000	99.083429 
3012.000000	99.065571 
3011.000000	99.049146 
3010.000000	99.034828 
3009.000000	99.020948 
3008.000000	99.005471 
3007.000000	98.988133 
3006.000000	98.969968 
3005.000000	98.951563 
3004.000000	98.932847 
3003.000000	98.914250 
3002.000000	98.896966 
3001.000000	98.881953 
3000.000000	98.869245 
2999.000000	98.858215 
2998.000000	98.848087 
2997.000000	98.838433 
2996.000000	98.829387 
2995.000000	98.820561 
2994.000000	98.809088 
2993.000000	98.790007 
2992.000000	98.760653 
2991.000000	98.725013 
2990.000000	98.692358 
2989.000000	98.670862 
2988.000000	98.663034 
2987.000000	98.666482 
2986.000000	98.676846 
2985.000000	98.689529 
2984.000000	98.700376 
2983.000000	98.706822 
2982.000000	98.708652 
2981.000000	98.707208 
2980.000000	98.704039 
2979.000000	98.700506 
2978.000000	98.697794 
2977.000000	98.696244 
2976.000000	98.694777 
2975.000000	98.691792 
2974.000000	98.686953 
2973.000000	98.681902 
2972.000000	98.679226 
2971.000000	98.680792 
2970.000000	98.686764 
2969.000000	98.695775 
2968.000000	98.705974 
2967.000000	98.716145 
2966.000000	98.726040 
2965.000000	98.735876 
2964.000000	98.745821 
2963.000000	98.755867 
2962.000000	98.765850 
2961.000000	98.775439 
2960.000000	98.784285 
2959.000000	98.792236 
2958.000000	98.799299 
2957.000000	98.805552 
2956.000000	98.811426 
2955.000000	98.817970 
2954.000000	98.826355 
2953.000000	98.836875 
2952.000000	98.848565 
2951.000000	98.859834 
2950.000000	98.869393 
2949.000000	98.876762 
2948.000000	98.882153 
2947.000000	98.885953 
2946.000000	98.888487 
2945.000000	98.890467 
2944.000000	98.893234 
2943.000000	98.897680 
2942.000000	98.902632 
2941.000000	98.905121 
2940.000000	98.903092 
2939.000000	98.897801 
2938.000000	98.893010 
2937.000000	98.891879 
2936.000000	98.894922 
2935.000000	98.900207 
2934.000000	98.904617 
2933.000000	98.905344 
2932.000000	98.901484 
2931.000000	98.894562 
2930.000000	98.887253 
2929.000000	98.881589 
2928.000000	98.878392 
2927.000000	98.877455 
2926.000000	98.877353 
2925.000000	98.875831 
2924.000000	98.871758 
2923.000000	98.866570 
2922.000000	98.862762 
2921.000000	98.861029 
2920.000000	98.859946 
2919.000000	98.858195 
2918.000000	98.855893 
2917.000000	98.853591 
2916.000000	98.851183 
2915.000000	98.848216 
2914.000000	98.844556 
2913.000000	98.840509 
2912.000000	98.836890 
2911.000000	98.834855 
2910.000000	98.834781 
2909.000000	98.835305 
2908.000000	98.834332 
2907.000000	98.831045 
2906.000000	98.825856 
2905.000000	98.818539 
2904.000000	98.808128 
2903.000000	98.795689 
2902.000000	98.786000 
2901.000000	98.785126 
2900.000000	98.795565 
2899.000000	98.814415 
2898.000000	98.834838 
2897.000000	98.850050 
2896.000000	98.857329 
2895.000000	98.859186 
2894.000000	98.860738 
2893.000000	98.865326 
2892.000000	98.872600 
2891.000000	98.880260 
2890.000000	98.886562 
2889.000000	98.890882 
2888.000000	98.893224 
2887.000000	98.894431 
2886.000000	98.896385 
2885.000000	98.900889 
2884.000000	98.908368 
2883.000000	98.918135 
2882.000000	98.929537 
2881.000000	98.942153 
2880.000000	98.955129 
2879.000000	98.967202 
2878.000000	98.977580 
2877.000000	98.986500 
2876.000000	98.994859 
2875.000000	99.003470 
2874.000000	99.012501 
2873.000000	99.021340 
2872.000000	99.029108 
2871.000000	99.035497 
2870.000000	99.041070 
2869.000000	99.046864 
2868.000000	99.054016 
2867.000000	99.063541 
2866.000000	99.075598 
2865.000000	99.088718 
2864.000000	99.100574 
2863.000000	99.110052 
2862.000000	99.118003 
2861.000000	99.125671 
2860.000000	99.133272 
2859.000000	99.140780 
2858.000000	99.149048 
2857.000000	99.158874 
2856.000000	99.169380 
2855.000000	99.178649 
2854.000000	99.185946 
2853.000000	99.192478 
2852.000000	99.199877 
2851.000000	99.208732 
2850.000000	99.218749 
2849.000000	99.229435 
2848.000000	99.240252 
2847.000000	99.250562 
2846.000000	99.259753 
2845.000000	99.267295 
2844.000000	99.272829 
2843.000000	99.276582 
2842.000000	99.279715 
2841.000000	99.283830 
2840.000000	99.289936 
2839.000000	99.297846 
2838.000000	99.306347 
2837.000000	99.313820 
2836.000000	99.319142 
2835.000000	99.322525 
2834.000000	99.325337 
2833.000000	99.328676 
2832.000000	99.332270 
2831.000000	99.335092 
2830.000000	99.336700 
2829.000000	99.337459 
2828.000000	99.337813 
2827.000000	99.338110 
2826.000000	99.339074 
2825.000000	99.341569 
2824.000000	99.345487 
2823.000000	99.349397 
2822.000000	99.351812 
2821.000000	99.352698 
2820.000000	99.353497 
2819.000000	99.355725 
2818.000000	99.359621 
2817.000000	99.364037 
2816.000000	99.367429 
2815.000000	99.368961 
2814.000000	99.368833 
2813.000000	99.367885 
2812.000000	99.367064 
2811.000000	99.367167 
2810.000000	99.368655 
2809.000000	99.371410 
2808.000000	99.374717 
2807.000000	99.377626 
2806.000000	99.379407 
2805.000000	99.379764 
2804.000000	99.378936 
2803.000000	99.377688 
2802.000000	99.376937 
2801.000000	99.377143 
2800.000000	99.378105 
2799.000000	99.379393 
2798.000000	99.380730 
2797.000000	99.381792 
2796.000000	99.382018 
2795.000000	99.381122 
2794.000000	99.379778 
2793.000000	99.379355 
2792.000000	99.380678 
2791.000000	99.383243 
2790.000000	99.385771 
2789.000000	99.387456 
2788.000000	99.388516 
2787.000000	99.389555 
2786.000000	99.390689 
2785.000000	99.391443 
2784.000000	99.391394 
2783.000000	99.390654 
2782.000000	99.389752 
2781.000000	99.389210 
2780.000000	99.389285 
2779.000000	99.389963 
2778.000000	99.391038 
2777.000000	99.392231 
2776.000000	99.393366 
2775.000000	99.394397 
2774.000000	99.395270 
2773.000000	99.395876 
2772.000000	99.396226 
2771.000000	99.396549 
2770.000000	99.397086 
2769.000000	99.397819 
2768.000000	99.398515 
2767.000000	99.399045 
2766.000000	99.399520 
2765.000000	99.400062 
2764.000000	99.400575 
2763.000000	99.400861 
2762.000000	99.400880 
2761.000000	99.400821 
2760.000000	99.400931 
2759.000000	99.401300 
2758.000000	99.401845 
2757.000000	99.402445 
2756.000000	99.403051 
2755.000000	99.403643 
2754.000000	99.404147 
2753.000000	99.404471 
2752.000000	99.404633 
2751.000000	99.404809 
2750.000000	99.405172 
2749.000000	99.405736 
2748.000000	99.406380 
2747.000000	99.406983 
2746.000000	99.407509 
2745.000000	99.407965 
2744.000000	99.408359 
2743.000000	99.408709 
2742.000000	99.409056 
2741.000000	99.409445 
2740.000000	99.409884 
2739.000000	99.410350 
2738.000000	99.410824 
2737.000000	99.411319 
2736.000000	99.411863 
2735.000000	99.412468 
2734.000000	99.413106 
2733.000000	99.413712 
2732.000000	99.414238 
2731.000000	99.414690 
2730.000000	99.415103 
2729.000000	99.415514 
2728.000000	99.415948 
2727.000000	99.416430 
2726.000000	99.416969 
2725.000000	99.417534 
2724.000000	99.418085 
2723.000000	99.418618 
2722.000000	99.419164 
2721.000000	99.419742 
2720.000000	99.420336 
2719.000000	99.420905 
2718.000000	99.421415 
2717.000000	99.421863 
2716.000000	99.422278 
2715.000000	99.422706 
2714.000000	99.423183 
2713.000000	99.423707 
2712.000000	99.424250 
2711.000000	99.424785 
2710.000000	99.425305 
2709.000000	99.425822 
2708.000000	99.426349 
2707.000000	99.426873 
2706.000000	99.427352 
2705.000000	99.427756 
2704.000000	99.428106 
2703.000000	99.428471 
2702.000000	99.428896 
2701.000000	99.429357 
2700.000000	99.429794 
2699.000000	99.430186 
2698.000000	99.430577 
2697.000000	99.431011 
2696.000000	99.431475 
2695.000000	99.431900 
2694.000000	99.432236 
2693.000000	99.432495 
2692.000000	99.432739 
2691.000000	99.433024 
2690.000000	99.433353 
2689.000000	99.433688 
2688.000000	99.434001 
2687.000000	99.434308 
2686.000000	99.434642 
2685.000000	99.435017 
2684.000000	99.435413 
2683.000000	99.435806 
2682.000000	99.436181 
2681.000000	99.436533 
2680.000000	99.436864 
2679.000000	99.437192 
2678.000000	99.437545 
2677.000000	99.437938 
2676.000000	99.438360 
2675.000000	99.438792 
2674.000000	99.439213 
2673.000000	99.439611 
2672.000000	99.439981 
2671.000000	99.440333 
2670.000000	99.440695 
2669.000000	99.441083 
2668.000000	99.441492 
2667.000000	99.441912 
2666.000000	99.442344 
2665.000000	99.442796 
2664.000000	99.443262 
2663.000000	99.443727 
2662.000000	99.444186 
2661.000000	99.444643 
2660.000000	99.445107 
2659.000000	99.445582 
2658.000000	99.446059 
2657.000000	99.446531 
2656.000000	99.446997 
2655.000000	99.447467 
2654.000000	99.447943 
2653.000000	99.448422 
2652.000000	99.448903 
2651.000000	99.449391 
2650.000000	99.449897 
2649.000000	99.450419 
2648.000000	99.450941 
2647.000000	99.451452 
2646.000000	99.451959 
2645.000000	99.452494 
2644.000000	99.453085 
2643.000000	99.453707 
2642.000000	99.454280 
2641.000000	99.454744 
2640.000000	99.455126 
2639.000000	99.455533 
2638.000000	99.456034 
2637.000000	99.456568 
2636.000000	99.456965 
2635.000000	99.457134 
2634.000000	99.457196 
2633.000000	99.457370 
2632.000000	99.457783 
2631.000000	99.458486 
2630.000000	99.459518 
2629.000000	99.460746 
2628.000000	99.461753 
2627.000000	99.462164 
2626.000000	99.462064 
2625.000000	99.461942 
2624.000000	99.462090 
2623.000000	99.462335 
2622.000000	99.462476 
2621.000000	99.462667 
2620.000000	99.463154 
2619.000000	99.463880 
2618.000000	99.464589 
2617.000000	99.465143 
2616.000000	99.465567 
2615.000000	99.465956 
2614.000000	99.466504 
2613.000000	99.467401 
2612.000000	99.468489 
2611.000000	99.469229 
2610.000000	99.469284 
2609.000000	99.469043 
2608.000000	99.469295 
2607.000000	99.470393 
2606.000000	99.471921 
2605.000000	99.473184 
2604.000000	99.473870 
2603.000000	99.474137 
2602.000000	99.474177 
2601.000000	99.474014 
2600.000000	99.473720 
2599.000000	99.473541 
2598.000000	99.473493 
2597.000000	99.472980 
2596.000000	99.471319 
2595.000000	99.468697 
2594.000000	99.466287 
2593.000000	99.465170 
2592.000000	99.465416 
2591.000000	99.466388 
2590.000000	99.467533 
2589.000000	99.468641 
2588.000000	99.469554 
2587.000000	99.470031 
2586.000000	99.469969 
2585.000000	99.469516 
2584.000000	99.468960 
2583.000000	99.468569 
2582.000000	99.468460 
2581.000000	99.468496 
2580.000000	99.468349 
2579.000000	99.467790 
2578.000000	99.466874 
2577.000000	99.465819 
2576.000000	99.464807 
2575.000000	99.463979 
2574.000000	99.463521 
2573.000000	99.463597 
2572.000000	99.464198 
2571.000000	99.465063 
2570.000000	99.465737 
2569.000000	99.465813 
2568.000000	99.465215 
2567.000000	99.464257 
2566.000000	99.463357 
2565.000000	99.462679 
2564.000000	99.462181 
2563.000000	99.461902 
2562.000000	99.461950 
2561.000000	99.462175 
2560.000000	99.462154 
2559.000000	99.461622 
2558.000000	99.460736 
2557.000000	99.459888 
2556.000000	99.459413 
2555.000000	99.459530 
2554.000000	99.460287 
2553.000000	99.461312 
2552.000000	99.461883 
2551.000000	99.461566 
2550.000000	99.460547 
2549.000000	99.459272 
2548.000000	99.457939 
2547.000000	99.456635 
2546.000000	99.455627 
2545.000000	99.455114 
2544.000000	99.454924 
2543.000000	99.454766 
2542.000000	99.454568 
2541.000000	99.454279 
2540.000000	99.453674 
2539.000000	99.452758 
2538.000000	99.452033 
2537.000000	99.451828 
2536.000000	99.451657 
2535.000000	99.450834 
2534.000000	99.449539 
2533.000000	99.448613 
2532.000000	99.448348 
2531.000000	99.448183 
2530.000000	99.447645 
2529.000000	99.446996 
2528.000000	99.446644 
2527.000000	99.446495 
2526.000000	99.446237 
2525.000000	99.445966 
2524.000000	99.446096 
2523.000000	99.446834 
2522.000000	99.448001 
2521.000000	99.449242 
2520.000000	99.450157 
2519.000000	99.450363 
2518.000000	99.449656 
2517.000000	99.448168 
2516.000000	99.446398 
2515.000000	99.444987 
2514.000000	99.444378 
2513.000000	99.444622 
2512.000000	99.445461 
2511.000000	99.446565 
2510.000000	99.447683 
2509.000000	99.448591 
2508.000000	99.449097 
2507.000000	99.449173 
2506.000000	99.448994 
2505.000000	99.448750 
2504.000000	99.448499 
2503.000000	99.448247 
2502.000000	99.448084 
2501.000000	99.448131 
2500.000000	99.448427 
2499.000000	99.448922 
2498.000000	99.449509 
2497.000000	99.449991 
2496.000000	99.450138 
2495.000000	99.449897 
2494.000000	99.449482 
2493.000000	99.449205 
2492.000000	99.449187 
2491.000000	99.449328 
2490.000000	99.449509 
2489.000000	99.449732 
2488.000000	99.450044 
2487.000000	99.450412 
2486.000000	99.450693 
2485.000000	99.450741 
2484.000000	99.450538 
2483.000000	99.450203 
2482.000000	99.449908 
2481.000000	99.449738 
2480.000000	99.449663 
2479.000000	99.449615 
2478.000000	99.449540 
2477.000000	99.449433 
2476.000000	99.449313 
2475.000000	99.449197 
2474.000000	99.449092 
2473.000000	99.448993 
2472.000000	99.448886 
2471.000000	99.448757 
2470.000000	99.448608 
2469.000000	99.448449 
2468.000000	99.448293 
2467.000000	99.448139 
2466.000000	99.447978 
2465.000000	99.447803 
2464.000000	99.447618 
2463.000000	99.447437 
2462.000000	99.447273 
2461.000000	99.447133 
2460.000000	99.447015 
2459.000000	99.446894 
2458.000000	99.446742 
2457.000000	99.446559 
2456.000000	99.446376 
2455.000000	99.446207 
2454.000000	99.446034 
2453.000000	99.445832 
2452.000000	99.445601 
2451.000000	99.445347 
2450.000000	99.445033 
2449.000000	99.444622 
2448.000000	99.444158 
2447.000000	99.443767 
2446.000000	99.443563 
2445.000000	99.443557 
2444.000000	99.443673 
2443.000000	99.443795 
2442.000000	99.443784 
2441.000000	99.443542 
2440.000000	99.443134 
2439.000000	99.442784 
2438.000000	99.442673 
2437.000000	99.442725 
2436.000000	99.442704 
2435.000000	99.442486 
2434.000000	99.442162 
2433.000000	99.441892 
2432.000000	99.441781 
2431.000000	99.441879 
2430.000000	99.442134 
2429.000000	99.442270 
2428.000000	99.441893 
2427.000000	99.440874 
2426.000000	99.439580 
2425.000000	99.438615 
2424.000000	99.438336 
2423.000000	99.438748 
2422.000000	99.439682 
2421.000000	99.440843 
2420.000000	99.441726 
2419.000000	99.441719 
2418.000000	99.440540 
2417.000000	99.438546 
2416.000000	99.436571 
2415.000000	99.435294 
2414.000000	99.434763 
2413.000000	99.434508 
2412.000000	99.434077 
2411.000000	99.433452 
2410.000000	99.432930 
2409.000000	99.432702 
2408.000000	99.432627 
2407.000000	99.432415 
2406.000000	99.431959 
2405.000000	99.431505 
2404.000000	99.431523 
2403.000000	99.432255 
2402.000000	99.433307 
2401.000000	99.433796 
2400.000000	99.433139 
2399.000000	99.431597 
2398.000000	99.429977 
2397.000000	99.428886 
2396.000000	99.428467 
2395.000000	99.428604 
2394.000000	99.428952 
2393.000000	99.428967 
2392.000000	99.428409 
2391.000000	99.427782 
2390.000000	99.427832 
2389.000000	99.428719 
2388.000000	99.430104 
2387.000000	99.431861 
2386.000000	99.434017 
2385.000000	99.436043 
2384.000000	99.437069 
2383.000000	99.437085 
2382.000000	99.437172 
2381.000000	99.438080 
2380.000000	99.439108 
2379.000000	99.439075 
2378.000000	99.437983 
2377.000000	99.437031 
2376.000000	99.437175 
2375.000000	99.438241 
2374.000000	99.439348 
2373.000000	99.439742 
2372.000000	99.439189 
2371.000000	99.438052 
2370.000000	99.437121 
2369.000000	99.437113 
2368.000000	99.438163 
2367.000000	99.439949 
2366.000000	99.442065 
2365.000000	99.444244 
2364.000000	99.446346 
2363.000000	99.448272 
2362.000000	99.449793 
2361.000000	99.450565 
2360.000000	99.450619 
2359.000000	99.450363 
2358.000000	99.450126 
2357.000000	99.449946 
2356.000000	99.450013 
2355.000000	99.450925 
2354.000000	99.452623 
2353.000000	99.454390 
2352.000000	99.455584 
2351.000000	99.456335 
2350.000000	99.457179 
2349.000000	99.458203 
2348.000000	99.459244 
2347.000000	99.460133 
2346.000000	99.461075 
2345.000000	99.462428 
2344.000000	99.464046 
2343.000000	99.465573 
2342.000000	99.466530 
2341.000000	99.467025 
2340.000000	99.467530 
2339.000000	99.468526 
2338.000000	99.469921 
2337.000000	99.470945 
2336.000000	99.470957 
2335.000000	99.469992 
2334.000000	99.468967 
2333.000000	99.468918 
2332.000000	99.470356 
2331.000000	99.472456 
2330.000000	99.474102 
2329.000000	99.474671 
2328.000000	99.475319 
2327.000000	99.477259 
2326.000000	99.480819 
2325.000000	99.484691 
2324.000000	99.487203 
2323.000000	99.487969 
2322.000000	99.487997 
2321.000000	99.488364 
2320.000000	99.488663 
2319.000000	99.487806 
2318.000000	99.485858 
2317.000000	99.484026 
2316.000000	99.483472 
2315.000000	99.483952 
2314.000000	99.484750 
2313.000000	99.485244 
2312.000000	99.485616 
2311.000000	99.485951 
2310.000000	99.486287 
2309.000000	99.486328 
2308.000000	99.486051 
2307.000000	99.485556 
2306.000000	99.485259 
2305.000000	99.485381 
2304.000000	99.485890 
2303.000000	99.486357 
2302.000000	99.486451 
2301.000000	99.486098 
2300.000000	99.485746 
2299.000000	99.485938 
2298.000000	99.486929 
2297.000000	99.488133 
2296.000000	99.488673 
2295.000000	99.488188 
2294.000000	99.487246 
2293.000000	99.486499 
2292.000000	99.485998 
2291.000000	99.485466 
2290.000000	99.485066 
2289.000000	99.485210 
2288.000000	99.485786 
2287.000000	99.486099 
2286.000000	99.485593 
2285.000000	99.484262 
2284.000000	99.482372 
2283.000000	99.480379 
2282.000000	99.478933 
2281.000000	99.478519 
2280.000000	99.478849 
2279.000000	99.479086 
2278.000000	99.478741 
2277.000000	99.478058 
2276.000000	99.477478 
2275.000000	99.477066 
2274.000000	99.476694 
2273.000000	99.476439 
2272.000000	99.476425 
2271.000000	99.476457 
2270.000000	99.476262 
2269.000000	99.475951 
2268.000000	99.475895 
2267.000000	99.476176 
2266.000000	99.476420 
2265.000000	99.476191 
2264.000000	99.475403 
2263.000000	99.474266 
2262.000000	99.473033 
2261.000000	99.471888 
2260.000000	99.471005 
2259.000000	99.470561 
2258.000000	99.470536 
2257.000000	99.470793 
2256.000000	99.471187 
2255.000000	99.471579 
2254.000000	99.471858 
2253.000000	99.472001 
2252.000000	99.472135 
2251.000000	99.472407 
2250.000000	99.472750 
2249.000000	99.472905 
2248.000000	99.472726 
2247.000000	99.472409 
2246.000000	99.472221 
2245.000000	99.472179 
2244.000000	99.472126 
2243.000000	99.471988 
2242.000000	99.471828 
2241.000000	99.471719 
2240.000000	99.471689 
2239.000000	99.471755 
2238.000000	99.471904 
2237.000000	99.472035 
2236.000000	99.472009 
2235.000000	99.471808 
2234.000000	99.471533 
2233.000000	99.471305 
2232.000000	99.471147 
2231.000000	99.471016 
2230.000000	99.470888 
2229.000000	99.470761 
2228.000000	99.470651 
2227.000000	99.470572 
2226.000000	99.470528 
2225.000000	99.470508 
2224.000000	99.470504 
2223.000000	99.470515 
2222.000000	99.470541 
2221.000000	99.470576 
2220.000000	99.470608 
2219.000000	99.470633 
2218.000000	99.470656 
2217.000000	99.470686 
2216.000000	99.470720 
2215.000000	99.470741 
2214.000000	99.470729 
2213.000000	99.470677 
2212.000000	99.470600 
2211.000000	99.470519 
2210.000000	99.470459 
2209.000000	99.470435 
2208.000000	99.470455 
2207.000000	99.470521 
2206.000000	99.470629 
2205.000000	99.470726 
2204.000000	99.470700 
2203.000000	99.470611 
2202.000000	99.470820 
2201.000000	99.471611 
2200.000000	99.472658 
2199.000000	99.473221 
2198.000000	99.472812 
2197.000000	99.471638 
2196.000000	99.470539 
2195.000000	99.470442 
2194.000000	99.471859 
2193.000000	99.474498 
2192.000000	99.477200 
2191.000000	99.478746 
2190.000000	99.479117 
2189.000000	99.479720 
2188.000000	99.481603 
2187.000000	99.483412 
2186.000000	99.482296 
2185.000000	99.477274 
2184.000000	99.471056 
2183.000000	99.467537 
2182.000000	99.467672 
2181.000000	99.469004 
2180.000000	99.469180 
2179.000000	99.468719 
2178.000000	99.469479 
2177.000000	99.471683 
2176.000000	99.473724 
2175.000000	99.474289 
2174.000000	99.473410 
2173.000000	99.471903 
2172.000000	99.471233 
2171.000000	99.473662 
2170.000000	99.480698 
2169.000000	99.490771 
2168.000000	99.499675 
2167.000000	99.504167 
2166.000000	99.504281 
2165.000000	99.502278 
2164.000000	99.500631 
2163.000000	99.500861 
2162.000000	99.502253 
2161.000000	99.500771 
2160.000000	99.491369 
2159.000000	99.473353 
2158.000000	99.452531 
2157.000000	99.436126 
2156.000000	99.426897 
2155.000000	99.423952 
2154.000000	99.426269 
2153.000000	99.432822 
2152.000000	99.440782 
2151.000000	99.446443 
2150.000000	99.448278 
2149.000000	99.448030 
2148.000000	99.448803 
2147.000000	99.452359 
2146.000000	99.457656 
2145.000000	99.461313 
2144.000000	99.460270 
2143.000000	99.454690 
2142.000000	99.447848 
2141.000000	99.442679 
2140.000000	99.439183 
2139.000000	99.435984 
2138.000000	99.433303 
2137.000000	99.432756 
2136.000000	99.434469 
2135.000000	99.436234 
2134.000000	99.436263 
2133.000000	99.435736 
2132.000000	99.437395 
2131.000000	99.441808 
2130.000000	99.446045 
2129.000000	99.446527 
2128.000000	99.442945 
2127.000000	99.438669 
2126.000000	99.437187 
2125.000000	99.438969 
2124.000000	99.442243 
2123.000000	99.445748 
2122.000000	99.449480 
2121.000000	99.453212 
2120.000000	99.455946 
2119.000000	99.457271 
2118.000000	99.458159 
2117.000000	99.459770 
2116.000000	99.462083 
2115.000000	99.464255 
2114.000000	99.465750 
2113.000000	99.466526 
2112.000000	99.466542 
2111.000000	99.465871 
2110.000000	99.465127 
2109.000000	99.465020 
2108.000000	99.465328 
2107.000000	99.464800 
2106.000000	99.462398 
2105.000000	99.458605 
2104.000000	99.455475 
2103.000000	99.455065 
2102.000000	99.457645 
2101.000000	99.461354 
2100.000000	99.463740 
2099.000000	99.463946 
2098.000000	99.463124 
2097.000000	99.462983 
2096.000000	99.464158 
2095.000000	99.466049 
2094.000000	99.467760 
2093.000000	99.468915 
2092.000000	99.469702 
2091.000000	99.470535 
2090.000000	99.471724 
2089.000000	99.473229 
2088.000000	99.474577 
2087.000000	99.475104 
2086.000000	99.474459 
2085.000000	99.473099 
2084.000000	99.472259 
2083.000000	99.473103 
2082.000000	99.475666 
2081.000000	99.478661 
2080.000000	99.480662 
2079.000000	99.481556 
2078.000000	99.482450 
2077.000000	99.484246 
2076.000000	99.486642 
2075.000000	99.488587 
2074.000000	99.489205 
2073.000000	99.488135 
2072.000000	99.485613 
2071.000000	99.482535 
2070.000000	99.480151 
2069.000000	99.479200 
2068.000000	99.479395 
2067.000000	99.479909 
2066.000000	99.480224 
2065.000000	99.480597 
2064.000000	99.481954 
2063.000000	99.485087 
2062.000000	99.489489 
2061.000000	99.493088 
2060.000000	99.494075 
2059.000000	99.492880 
2058.000000	99.491805 
2057.000000	99.492426 
2056.000000	99.494047 
2055.000000	99.495197 
2054.000000	99.495808 
2053.000000	99.496989 
2052.000000	99.499102 
2051.000000	99.501049 
2050.000000	99.501520 
2049.000000	99.500295 
2048.000000	99.498293 
2047.000000	99.496743 
2046.000000	99.496314 
2045.000000	99.496766 
2044.000000	99.497188 
2043.000000	99.496835 
2042.000000	99.495819 
2041.000000	99.494821 
2040.000000	99.494236 
2039.000000	99.493880 
2038.000000	99.493445 
2037.000000	99.492888 
2036.000000	99.492338 
2035.000000	99.491778 
2034.000000	99.490976 
2033.000000	99.489809 
2032.000000	99.488596 
2031.000000	99.487942 
2030.000000	99.488122 
2029.000000	99.488648 
2028.000000	99.488577 
2027.000000	99.487432 
2026.000000	99.485475 
2025.000000	99.483370 
2024.000000	99.481730 
2023.000000	99.480965 
2022.000000	99.481213 
2021.000000	99.482029 
2020.000000	99.482462 
2019.000000	99.482012 
2018.000000	99.481183 
2017.000000	99.480744 
2016.000000	99.480660 
2015.000000	99.480363 
2014.000000	99.479673 
2013.000000	99.478718 
2012.000000	99.477461 
2011.000000	99.476119 
2010.000000	99.475680 
2009.000000	99.477035 
2008.000000	99.479638 
2007.000000	99.481817 
2006.000000	99.482491 
2005.000000	99.481889 
2004.000000	99.480748 
2003.000000	99.479511 
2002.000000	99.478139 
2001.000000	99.476006 
2000.000000	99.472255 
1999.000000	99.466998 
1998.000000	99.461898 
1997.000000	99.458866 
1996.000000	99.458556 
1995.000000	99.460642 
1994.000000	99.464663 
1993.000000	99.469610 
1992.000000	99.473395 
1991.000000	99.474267 
1990.000000	99.472531 
1989.000000	99.469951 
1988.000000	99.468089 
1987.000000	99.468045 
1986.000000	99.470949 
1985.000000	99.477130 
1984.000000	99.484708 
1983.000000	99.490381 
1982.000000	99.491895 
1981.000000	99.489116 
1980.000000	99.483630 
1979.000000	99.478017 
1978.000000	99.474428 
1977.000000	99.472635 
1976.000000	99.470158 
1975.000000	99.465539 
1974.000000	99.460659 
1973.000000	99.458543 
1972.000000	99.459578 
1971.000000	99.461372 
1970.000000	99.461879 
1969.000000	99.461263 
1968.000000	99.460684 
1967.000000	99.460618 
1966.000000	99.460846 
1965.000000	99.461082 
1964.000000	99.460955 
1963.000000	99.459986 
1962.000000	99.458079 
1961.000000	99.455854 
1960.000000	99.454180 
1959.000000	99.453278 
1958.000000	99.452302 
1957.000000	99.450003 
1956.000000	99.446047 
1955.000000	99.441468 
1954.000000	99.437481 
1953.000000	99.434065 
1952.000000	99.430463 
1951.000000	99.427042 
1950.000000	99.425552 
1949.000000	99.426962 
1948.000000	99.429878 
1947.000000	99.431890 
1946.000000	99.431875 
1945.000000	99.430080 
1944.000000	99.427018 
1943.000000	99.423431 
1942.000000	99.420609 
1941.000000	99.419229 
1940.000000	99.418406 
1939.000000	99.416904 
1938.000000	99.414807 
1937.000000	99.413360 
1936.000000	99.413408 
1935.000000	99.414520 
1934.000000	99.415574 
1933.000000	99.415805 
1932.000000	99.415204 
1931.000000	99.414483 
1930.000000	99.414765 
1929.000000	99.416575 
1928.000000	99.419036 
1927.000000	99.420503 
1926.000000	99.420063 
1925.000000	99.418045 
1924.000000	99.415467 
1923.000000	99.413369 
1922.000000	99.412436 
1921.000000	99.412724 
1920.000000	99.413613 
1919.000000	99.414241 
1918.000000	99.414196 
1917.000000	99.413773 
1916.000000	99.413530 
1915.000000	99.413848 
1914.000000	99.414854 
1913.000000	99.416346 
1912.000000	99.417754 
1911.000000	99.418496 
1910.000000	99.418448 
1909.000000	99.417941 
1908.000000	99.417400 
1907.000000	99.417137 
1906.000000	99.417328 
1905.000000	99.417826 
1904.000000	99.418034 
1903.000000	99.417377 
1902.000000	99.415878 
1901.000000	99.414125 
1900.000000	99.412826 
1899.000000	99.412410 
1898.000000	99.412878 
1897.000000	99.413774 
1896.000000	99.414402 
1895.000000	99.414455 
1894.000000	99.414306 
1893.000000	99.414488 
1892.000000	99.415038 
1891.000000	99.415539 
1890.000000	99.415704 
1889.000000	99.415703 
1888.000000	99.415807 
1887.000000	99.416029 
1886.000000	99.416244 
1885.000000	99.416344 
1884.000000	99.416193 
1883.000000	99.415667 
1882.000000	99.414863 
1881.000000	99.414082 
1880.000000	99.413622 
1879.000000	99.413645 
1878.000000	99.414045 
1877.000000	99.414357 
1876.000000	99.414081 
1875.000000	99.413364 
1874.000000	99.413071 
1873.000000	99.413774 
1872.000000	99.414892 
1871.000000	99.415318 
1870.000000	99.414840 
1869.000000	99.414301 
1868.000000	99.413963 
1867.000000	99.412934 
1866.000000	99.410932 
1865.000000	99.409170 
1864.000000	99.409050 
1863.000000	99.410727 
1862.000000	99.413117 
1861.000000	99.415029 
1860.000000	99.416074 
1859.000000	99.416598 
1858.000000	99.417248 
1857.000000	99.418410 
1856.000000	99.419945 
1855.000000	99.421579 
1854.000000	99.423211 
1853.000000	99.424575 
1852.000000	99.425060 
1851.000000	99.424264 
1850.000000	99.422523 
1849.000000	99.420705 
1848.000000	99.419410 
1847.000000	99.418668 
1846.000000	99.418407 
1845.000000	99.418435 
1844.000000	99.418081 
1843.000000	99.417008 
1842.000000	99.416120 
1841.000000	99.416530 
1840.000000	99.418492 
1839.000000	99.421331 
1838.000000	99.423968 
1837.000000	99.425669 
1836.000000	99.426381 
1835.000000	99.426574 
1834.000000	99.426730 
1833.000000	99.426980 
1832.000000	99.427259 
1831.000000	99.427359 
1830.000000	99.427029 
1829.000000	99.426454 
1828.000000	99.426278 
1827.000000	99.426656 
1826.000000	99.427135 
1825.000000	99.427549 
1824.000000	99.428143 
1823.000000	99.428835 
1822.000000	99.428978 
1821.000000	99.427937 
1820.000000	99.425864 
1819.000000	99.423752 
1818.000000	99.422711 
1817.000000	99.423100 
1816.000000	99.424236 
1815.000000	99.425248 
1814.000000	99.426034 
1813.000000	99.427128 
1812.000000	99.428974 
1811.000000	99.431381 
1810.000000	99.433994 
1809.000000	99.436704 
1808.000000	99.438931 
1807.000000	99.439588 
1806.000000	99.438302 
1805.000000	99.435964 
1804.000000	99.433894 
1803.000000	99.432660 
1802.000000	99.432220 
1801.000000	99.432646 
1800.000000	99.433757 
1799.000000	99.434783 
1798.000000	99.435228 
1797.000000	99.435335 
1796.000000	99.435611 
1795.000000	99.436340 
1794.000000	99.437402 
1793.000000	99.438310 
1792.000000	99.438675 
1791.000000	99.438623 
1790.000000	99.438621 
1789.000000	99.439015 
1788.000000	99.439863 
1787.000000	99.440993 
1786.000000	99.442066 
1785.000000	99.442692 
1784.000000	99.442690 
1783.000000	99.442362 
1782.000000	99.442266 
1781.000000	99.442619 
1780.000000	99.443073 
1779.000000	99.443248 
1778.000000	99.443303 
1777.000000	99.443622 
1776.000000	99.444263 
1775.000000	99.445044 
1774.000000	99.445816 
1773.000000	99.446513 
1772.000000	99.447043 
1771.000000	99.447380 
1770.000000	99.447626 
1769.000000	99.447860 
1768.000000	99.448117 
1767.000000	99.448402 
1766.000000	99.448717 
1765.000000	99.449069 
1764.000000	99.449455 
1763.000000	99.449858 
1762.000000	99.450275 
1761.000000	99.450735 
1760.000000	99.451258 
1759.000000	99.451808 
1758.000000	99.452325 
1757.000000	99.452772 
1756.000000	99.453171 
1755.000000	99.453571 
1754.000000	99.453980 
1753.000000	99.454359 
1752.000000	99.454735 
1751.000000	99.455243 
1750.000000	99.455947 
1749.000000	99.456683 
1748.000000	99.457242 
1747.000000	99.457585 
1746.000000	99.457806 
1745.000000	99.458021 
1744.000000	99.458296 
1743.000000	99.458634 
1742.000000	99.458987 
1741.000000	99.459307 
1740.000000	99.459575 
1739.000000	99.459813 
1738.000000	99.460063 
1737.000000	99.460312 
1736.000000	99.460493 
1735.000000	99.460549 
1734.000000	99.460543 
1733.000000	99.460674 
1732.000000	99.461030 
1731.000000	99.461520 
1730.000000	99.462016 
1729.000000	99.462435 
1728.000000	99.462763 
1727.000000	99.463039 
1726.000000	99.463300 
1725.000000	99.463540 
1724.000000	99.463750 
1723.000000	99.463966 
1722.000000	99.464250 
1721.000000	99.464635 
1720.000000	99.465084 
1719.000000	99.465477 
1718.000000	99.465668 
1717.000000	99.465648 
1716.000000	99.465552 
1715.000000	99.465476 
1714.000000	99.465464 
1713.000000	99.465539 
1712.000000	99.465670 
1711.000000	99.465811 
1710.000000	99.465944 
1709.000000	99.466077 
1708.000000	99.466204 
1707.000000	99.466307 
1706.000000	99.466401 
1705.000000	99.466511 
1704.000000	99.466612 
1703.000000	99.466647 
1702.000000	99.466597 
1701.000000	99.466567 
1700.000000	99.466710 
1699.000000	99.467028 
1698.000000	99.467398 
1697.000000	99.467753 
1696.000000	99.468096 
1695.000000	99.468415 
1694.000000	99.468706 
1693.000000	99.468961 
1692.000000	99.469159 
1691.000000	99.469305 
1690.000000	99.469444 
1689.000000	99.469610 
1688.000000	99.469786 
1687.000000	99.469910 
1686.000000	99.469962 
1685.000000	99.470010 
1684.000000	99.470098 
1683.000000	99.470173 
1682.000000	99.470255 
1681.000000	99.470344 
1680.000000	99.470449 
1679.000000	99.470594 
1678.000000	99.470772 
1677.000000	99.470949 
1676.000000	99.471091 
1675.000000	99.471200 
1674.000000	99.471313 
1673.000000	99.471477 
1672.000000	99.471690 
1671.000000	99.471960 
1670.000000	99.472287 
1669.000000	99.472585 
1668.000000	99.472857 
1667.000000	99.473140 
1666.000000	99.473262 
1665.000000	99.473078 
1664.000000	99.472779 
1663.000000	99.472835 
1662.000000	99.473497 
1661.000000	99.474523 
1660.000000	99.475421 
1659.000000	99.475988 
1658.000000	99.476330 
1657.000000	99.476366 
1656.000000	99.475716 
1655.000000	99.474394 
1654.000000	99.473630 
1653.000000	99.473958 
1652.000000	99.474203 
1651.000000	99.474797 
1650.000000	99.475046 
1649.000000	99.474633 
1648.000000	99.473910 
1647.000000	99.473098 
1646.000000	99.472077 
1645.000000	99.471633 
1644.000000	99.472390 
1643.000000	99.473944 
1642.000000	99.475548 
1641.000000	99.476742 
1640.000000	99.477426 
1639.000000	99.477660 
1638.000000	99.477542 
1637.000000	99.477262 
1636.000000	99.476845 
1635.000000	99.476435 
1634.000000	99.477115 
1633.000000	99.478889 
1632.000000	99.480586 
1631.000000	99.481539 
1630.000000	99.481832 
1629.000000	99.481865 
1628.000000	99.481925 
1627.000000	99.482169 
1626.000000	99.482705 
1625.000000	99.483633 
1624.000000	99.485013 
1623.000000	99.486718 
1622.000000	99.488499 
1621.000000	99.490081 
1620.000000	99.490894 
1619.000000	99.490641 
1618.000000	99.489929 
1617.000000	99.489642 
1616.000000	99.489917 
1615.000000	99.490608 
1614.000000	99.491149 
1613.000000	99.490870 
1612.000000	99.489995 
1611.000000	99.489249 
1610.000000	99.489000 
1609.000000	99.489026 
1608.000000	99.489013 
1607.000000	99.488819 
1606.000000	99.488310 
1605.000000	99.487647 
1604.000000	99.487553 
1603.000000	99.488668 
1602.000000	99.490591 
1601.000000	99.492084 
1600.000000	99.492564 
1599.000000	99.492682 
1598.000000	99.493213 
1597.000000	99.494161 
1596.000000	99.495141 
1595.000000	99.496055 
1594.000000	99.496986 
1593.000000	99.497736 
1592.000000	99.498036 
1591.000000	99.497986 
1590.000000	99.497963 
1589.000000	99.498150 
1588.000000	99.498491 
1587.000000	99.498936 
1586.000000	99.499355 
1585.000000	99.499460 
1584.000000	99.499118 
1583.000000	99.498575 
1582.000000	99.498258 
1581.000000	99.498315 
1580.000000	99.498563 
1579.000000	99.498793 
1578.000000	99.498941 
1577.000000	99.498963 
1576.000000	99.498797 
1575.000000	99.498621 
1574.000000	99.498640 
1573.000000	99.498739 
1572.000000	99.498777 
1571.000000	99.498768 
1570.000000	99.498788 
1569.000000	99.498829 
1568.000000	99.498840 
1567.000000	99.498789 
1566.000000	99.498677 
1565.000000	99.498533 
1564.000000	99.498390 
1563.000000	99.498252 
1562.000000	99.498100 
1561.000000	99.497918 
1560.000000	99.497708 
1559.000000	99.497485 
1558.000000	99.497265 
1557.000000	99.497082 
1556.000000	99.496921 
1555.000000	99.496742 
1554.000000	99.496523 
1553.000000	99.496263 
1552.000000	99.495981 
1551.000000	99.495691 
1550.000000	99.495391 
1549.000000	99.495065 
1548.000000	99.494697 
1547.000000	99.494289 
1546.000000	99.493855 
1545.000000	99.493418 
1544.000000	99.492994 
1543.000000	99.492584 
1542.000000	99.492195 
1541.000000	99.491842 
1540.000000	99.491483 
1539.000000	99.491059 
1538.000000	99.490633 
1537.000000	99.490271 
1536.000000	99.489935 
1535.000000	99.489572 
1534.000000	99.489226 
1533.000000	99.488944 
1532.000000	99.488626 
1531.000000	99.488143 
1530.000000	99.487534 
1529.000000	99.486978 
1528.000000	99.486533 
1527.000000	99.486067 
1526.000000	99.485503 
1525.000000	99.484999 
1524.000000	99.484743 
1523.000000	99.484847 
1522.000000	99.485411 
1521.000000	99.486069 
1520.000000	99.485940 
1519.000000	99.484667 
1518.000000	99.482588 
1517.000000	99.480464 
1516.000000	99.478814 
1515.000000	99.477674 
1514.000000	99.476911 
1513.000000	99.476340 
1512.000000	99.475767 
1511.000000	99.475031 
1510.000000	99.474004 
1509.000000	99.472862 
1508.000000	99.472554 
1507.000000	99.473348 
1506.000000	99.472526 
1505.000000	99.470327 
1504.000000	99.468835 
1503.000000	99.467913 
1502.000000	99.467287 
1501.000000	99.467107 
1500.000000	99.467420 
1499.000000	99.467945 
1498.000000	99.468186 
1497.000000	99.468133 
1496.000000	99.467774 
1495.000000	99.466244 
1494.000000	99.462950 
1493.000000	99.458460 
1492.000000	99.453913 
1491.000000	99.450478 
1490.000000	99.448583 
1489.000000	99.447555 
1488.000000	99.446167 
1487.000000	99.443951 
1486.000000	99.441897 
1485.000000	99.440759 
1484.000000	99.440103 
1483.000000	99.439062 
1482.000000	99.436937 
1481.000000	99.433735 
1480.000000	99.430168 
1479.000000	99.427053 
1478.000000	99.424884 
1477.000000	99.423718 
1476.000000	99.423007 
1475.000000	99.421575 
1474.000000	99.419406 
1473.000000	99.418294 
1472.000000	99.419013 
1471.000000	99.419697 
1470.000000	99.419108 
1469.000000	99.417916 
1468.000000	99.417159 
1467.000000	99.416969 
1466.000000	99.416961 
1465.000000	99.416914 
1464.000000	99.416649 
1463.000000	99.416210 
1462.000000	99.415923 
1461.000000	99.416386 
1460.000000	99.417737 
1459.000000	99.418722 
1458.000000	99.415931 
1457.000000	99.406948 
1456.000000	99.396037 
1455.000000	99.388983 
1454.000000	99.385859 
1453.000000	99.384873 
1452.000000	99.384434 
1451.000000	99.383588 
1450.000000	99.383119 
1449.000000	99.385233 
1448.000000	99.390363 
1447.000000	99.395205 
1446.000000	99.396800 
1445.000000	99.395926 
1444.000000	99.394660 
1443.000000	99.393667 
1442.000000	99.392677 
1441.000000	99.391819 
1440.000000	99.391756 
1439.000000	99.392785 
1438.000000	99.393683 
1437.000000	99.392682 
1436.000000	99.389282 
1435.000000	99.384410 
1434.000000	99.379717 
1433.000000	99.376941 
1432.000000	99.376660 
1431.000000	99.378166 
1430.000000	99.379423 
1429.000000	99.378776 
1428.000000	99.376419 
1427.000000	99.373206 
1426.000000	99.369340 
1425.000000	99.364411 
1424.000000	99.359061 
1423.000000	99.354284 
1422.000000	99.348837 
1421.000000	99.340553 
1420.000000	99.329488 
1419.000000	99.318736 
1418.000000	99.309175 
1417.000000	99.298861 
1416.000000	99.287639 
1415.000000	99.276254 
1414.000000	99.264220 
1413.000000	99.250496 
1412.000000	99.236163 
1411.000000	99.224272 
1410.000000	99.216021 
1409.000000	99.210323 
1408.000000	99.206630 
1407.000000	99.205176 
1406.000000	99.205672 
1405.000000	99.207879 
1404.000000	99.212689 
1403.000000	99.219787 
1402.000000	99.226309 
1401.000000	99.230414 
1400.000000	99.233498 
1399.000000	99.237372 
1398.000000	99.238727 
1397.000000	99.231025 
1396.000000	99.212839 
1395.000000	99.193046 
1394.000000	99.184941 
1393.000000	99.193215 
1392.000000	99.212595 
1391.000000	99.234566 
1390.000000	99.252455 
1389.000000	99.262961 
1388.000000	99.265801 
1387.000000	99.263037 
1386.000000	99.257707 
1385.000000	99.252703 
1384.000000	99.249934 
1383.000000	99.249795 
1382.000000	99.251405 
1381.000000	99.254152 
1380.000000	99.258251 
1379.000000	99.263955 
1378.000000	99.270749 
1377.000000	99.277730 
1376.000000	99.284840 
1375.000000	99.293078 
1374.000000	99.302973 
1373.000000	99.313144 
1372.000000	99.321906 
1371.000000	99.329633 
1370.000000	99.338373 
1369.000000	99.348787 
1368.000000	99.359604 
1367.000000	99.369189 
1366.000000	99.376802 
1365.000000	99.382614 
1364.000000	99.387066 
1363.000000	99.391155 
1362.000000	99.396439 
1361.000000	99.403353 
1360.000000	99.410633 
1359.000000	99.417126 
1358.000000	99.423132 
1357.000000	99.429498 
1356.000000	99.436269 
1355.000000	99.442774 
1354.000000	99.448624 
1353.000000	99.453752 
1352.000000	99.457062 
1351.000000	99.456991 
1350.000000	99.455211 
1349.000000	99.455076 
1348.000000	99.458126 
1347.000000	99.463447 
1346.000000	99.469745 
1345.000000	99.475804 
1344.000000	99.480038 
1343.000000	99.481418 
1342.000000	99.480864 
1341.000000	99.480159 
1340.000000	99.479824 
1339.000000	99.479383 
1338.000000	99.479176 
1337.000000	99.480345 
1336.000000	99.482915 
1335.000000	99.485344 
1334.000000	99.486689 
1333.000000	99.487843 
1332.000000	99.489802 
1331.000000	99.491989 
1330.000000	99.493087 
1329.000000	99.492513 
1328.000000	99.490842 
1327.000000	99.489272 
1326.000000	99.488954 
1325.000000	99.489640 
1324.000000	99.490441 
1323.000000	99.491065 
1322.000000	99.491849 
1321.000000	99.492806 
1320.000000	99.493488 
1319.000000	99.493740 
1318.000000	99.493920 
1317.000000	99.494298 
1316.000000	99.494531 
1315.000000	99.494008 
1314.000000	99.492516 
1313.000000	99.490653 
1312.000000	99.489594 
1311.000000	99.490352 
1310.000000	99.493032 
1309.000000	99.496497 
1308.000000	99.498929 
1307.000000	99.498980 
1306.000000	99.496912 
1305.000000	99.494157 
1304.000000	99.492515 
1303.000000	99.493044 
1302.000000	99.495570 
1301.000000	99.498830 
1300.000000	99.501212 
1299.000000	99.501633 
1298.000000	99.500113 
1297.000000	99.497827 
1296.000000	99.496285 
1295.000000	99.496477 
1294.000000	99.498386 
1293.000000	99.501100 
1292.000000	99.503082 
1291.000000	99.502640 
1290.000000	99.499145 
1289.000000	99.494143 
1288.000000	99.490401 
1287.000000	99.489035 
1286.000000	99.488239 
1285.000000	99.485804 
1284.000000	99.482086 
1283.000000	99.479264 
1282.000000	99.477998 
1281.000000	99.476556 
1280.000000	99.473532 
1279.000000	99.469653 
1278.000000	99.466000 
1277.000000	99.462063 
1276.000000	99.456609 
1275.000000	99.449879 
1274.000000	99.443637 
1273.000000	99.439265 
1272.000000	99.436483 
1271.000000	99.433680 
1270.000000	99.429032 
1269.000000	99.421819 
1268.000000	99.413276 
1267.000000	99.405687 
1266.000000	99.399939 
1265.000000	99.394685 
1264.000000	99.388315 
1263.000000	99.380729 
1262.000000	99.372585 
1261.000000	99.364068 
1260.000000	99.355631 
1259.000000	99.348985 
1258.000000	99.345493 
1257.000000	99.344261 
1256.000000	99.343114 
1255.000000	99.341112 
1254.000000	99.338843 
1253.000000	99.336697 
1252.000000	99.334455 
1251.000000	99.332680 
1250.000000	99.332851 
1249.000000	99.335664 
1248.000000	99.340296 
1247.000000	99.345405 
1246.000000	99.349471 
1245.000000	99.350205 
1244.000000	99.345672 
1243.000000	99.337351 
1242.000000	99.330856 
1241.000000	99.331478 
1240.000000	99.339283 
1239.000000	99.349069 
1238.000000	99.355105 
1237.000000	99.355587 
1236.000000	99.352239 
1235.000000	99.347373 
1234.000000	99.342122 
1233.000000	99.336847 
1232.000000	99.332095 
1231.000000	99.328602 
1230.000000	99.326606 
1229.000000	99.325599 
1228.000000	99.325000 
1227.000000	99.324993 
1226.000000	99.326435 
1225.000000	99.329675 
1224.000000	99.333601 
1223.000000	99.336278 
1222.000000	99.336787 
1221.000000	99.336214 
1220.000000	99.336616 
1219.000000	99.339156 
1218.000000	99.343322 
1217.000000	99.347740 
1216.000000	99.351408 
1215.000000	99.354168 
1214.000000	99.356426 
1213.000000	99.358699 
1212.000000	99.361169 
1211.000000	99.363296 
1210.000000	99.364044 
1209.000000	99.362871 
1208.000000	99.360438 
1207.000000	99.358015 
1206.000000	99.356244 
1205.000000	99.354866 
1204.000000	99.353638 
1203.000000	99.352834 
1202.000000	99.352445 
1201.000000	99.351507 
1200.000000	99.348964 
1199.000000	99.344968 
1198.000000	99.340821 
1197.000000	99.337781 
1196.000000	99.336213 
1195.000000	99.335662 
1194.000000	99.335051 
1193.000000	99.332903 
1192.000000	99.328297 
1191.000000	99.321949 
1190.000000	99.315861 
1189.000000	99.311755 
1188.000000	99.310241 
1187.000000	99.311170 
1186.000000	99.313645 
1185.000000	99.315570 
1184.000000	99.314405 
1183.000000	99.309259 
1182.000000	99.301839 
1181.000000	99.294828 
1180.000000	99.289632 
1179.000000	99.286168 
1178.000000	99.283964 
1177.000000	99.282284 
1176.000000	99.279682 
1175.000000	99.274853 
1174.000000	99.268253 
1173.000000	99.261931 
1172.000000	99.257412 
1171.000000	99.254348 
1170.000000	99.251282 
1169.000000	99.247029 
1168.000000	99.241018 
1167.000000	99.233058 
1166.000000	99.223459 
1165.000000	99.213346 
1164.000000	99.204532 
1163.000000	99.198786 
1162.000000	99.196728 
1161.000000	99.197056 
1160.000000	99.197249 
1159.000000	99.195825 
1158.000000	99.193788 
1157.000000	99.193089 
1156.000000	99.193643 
1155.000000	99.192757 
1154.000000	99.187883 
1153.000000	99.179321 
1152.000000	99.169810 
1151.000000	99.161959 
1150.000000	99.156409 
1149.000000	99.152003 
1148.000000	99.147011 
1147.000000	99.139986 
1146.000000	99.130024 
1145.000000	99.117049 
1144.000000	99.102442 
1143.000000	99.089174 
1142.000000	99.080105 
1141.000000	99.075265 
1140.000000	99.071312 
1139.000000	99.064455 
1138.000000	99.053747 
1137.000000	99.041117 
1136.000000	99.028745 
1135.000000	99.017383 
1134.000000	99.006933 
1133.000000	98.997078 
1132.000000	98.986819 
1131.000000	98.974642 
1130.000000	98.960096 
1129.000000	98.944597 
1128.000000	98.929783 
1127.000000	98.915436 
1126.000000	98.899974 
1125.000000	98.882795 
1124.000000	98.865119 
1123.000000	98.848403 
1122.000000	98.832674 
1121.000000	98.816819 
1120.000000	98.799836 
1119.000000	98.781087 
1118.000000	98.759805 
1117.000000	98.735427 
1116.000000	98.708730 
1115.000000	98.681860 
1114.000000	98.656475 
1113.000000	98.632076 
1112.000000	98.606980 
1111.000000	98.580929 
1110.000000	98.555827 
1109.000000	98.533627 
1108.000000	98.514220 
1107.000000	98.495560 
1106.000000	98.475744 
1105.000000	98.454264 
1104.000000	98.431282 
1103.000000	98.406816 
1102.000000	98.381627 
1101.000000	98.358122 
1100.000000	98.339179 
1099.000000	98.324340 
1098.000000	98.309920 
1097.000000	98.292873 
1096.000000	98.273910 
1095.000000	98.255326 
1094.000000	98.236399 
1093.000000	98.212994 
1092.000000	98.182066 
1091.000000	98.145040 
1090.000000	98.106092 
1089.000000	98.067952 
1088.000000	98.030378 
1087.000000	97.992289 
1086.000000	97.954183 
1085.000000	97.918139 
1084.000000	97.885798 
1083.000000	97.856557 
1082.000000	97.827867 
1081.000000	97.797531 
1080.000000	97.765721 
1079.000000	97.734704 
1078.000000	97.707025 
1077.000000	97.684356 
1076.000000	97.667360 
1075.000000	97.655596 
1074.000000	97.647805 
1073.000000	97.642829 
1072.000000	97.639083 
1071.000000	97.631899 
1070.000000	97.613293 
1069.000000	97.578325 
1068.000000	97.533027 
1067.000000	97.493590 
1066.000000	97.474468 
1065.000000	97.477551 
1064.000000	97.492587 
1063.000000	97.505782 
1062.000000	97.507553 
1061.000000	97.494261 
1060.000000	97.467472 
1059.000000	97.434205 
1058.000000	97.405245 
1057.000000	97.388785 
1056.000000	97.384048 
1055.000000	97.381682 
1054.000000	97.371759 
1053.000000	97.352198 
1052.000000	97.329160 
1051.000000	97.309571 
1050.000000	97.294568 
1049.000000	97.280943 
1048.000000	97.266862 
1047.000000	97.253481 
1046.000000	97.241730 
1045.000000	97.230450 
1044.000000	97.218539 
1043.000000	97.207205 
1042.000000	97.198540 
1041.000000	97.192144 
1040.000000	97.184608 
1039.000000	97.173571 
1038.000000	97.162158 
1037.000000	97.157877 
1036.000000	97.166003 
1035.000000	97.184761 
1034.000000	97.207705 
1033.000000	97.229193 
1032.000000	97.244987 
1031.000000	97.249478 
1030.000000	97.238826 
1029.000000	97.219500 
1028.000000	97.208633 
1027.000000	97.220308 
1026.000000	97.252472 
1025.000000	97.289982 
1024.000000	97.319432 
1023.000000	97.337700 
1022.000000	97.347951 
1021.000000	97.353601 
1020.000000	97.357582 
1019.000000	97.362995 
1018.000000	97.371151 
1017.000000	97.380479 
1016.000000	97.389110 
1015.000000	97.397544 
1014.000000	97.407908 
1013.000000	97.421546 
1012.000000	97.437856 
1011.000000	97.454606 
1010.000000	97.469580 
1009.000000	97.483234 
1008.000000	97.499197 
1007.000000	97.520534 
1006.000000	97.546048 
1005.000000	97.572063 
1004.000000	97.597235 
1003.000000	97.623348 
1002.000000	97.651764 
1001.000000	97.681804 
1000.000000	97.712775 
999.000000	 97.744724 
998.000000	 97.776356 
997.000000	 97.804818 
996.000000	 97.829233 
995.000000	 97.852903 
994.000000	 97.880359 
993.000000	 97.912759 
992.000000	 97.946944 
991.000000	 97.978465 
990.000000	 98.005268 
989.000000	 98.029250 
988.000000	 98.054371 
987.000000	 98.082472 
986.000000	 98.111378 
985.000000	 98.138506 
984.000000	 98.165643 
983.000000	 98.197821 
982.000000	 98.237374 
981.000000	 98.281189 
980.000000	 98.324217 
979.000000	 98.363808 
978.000000	 98.399940 
977.000000	 98.433680 
976.000000	 98.467100 
975.000000	 98.502906 
974.000000	 98.541977 
973.000000	 98.581898 
972.000000	 98.619295 
971.000000	 98.652945 
970.000000	 98.683622 
969.000000	 98.712007 
968.000000	 98.738353 
967.000000	 98.763426 
966.000000	 98.787738 
965.000000	 98.810047 
964.000000	 98.828691 
963.000000	 98.844696 
962.000000	 98.861547 
961.000000	 98.881125 
960.000000	 98.901609 
959.000000	 98.920378 
958.000000	 98.937252 
957.000000	 98.953387 
956.000000	 98.968538 
955.000000	 98.981686 
954.000000	 98.993609 
953.000000	 99.006354 
952.000000	 99.019899 
951.000000	 99.031496 
950.000000	 99.039026 
949.000000	 99.043413 
948.000000	 99.047078 
947.000000	 99.051636 
946.000000	 99.057913 
945.000000	 99.066491 
944.000000	 99.076543 
943.000000	 99.085068 
942.000000	 99.089067 
941.000000	 99.088412 
940.000000	 99.085583 
939.000000	 99.083121 
938.000000	 99.082359 
937.000000	 99.083911 
936.000000	 99.087579 
935.000000	 99.091531 
934.000000	 99.093128 
933.000000	 99.091343 
932.000000	 99.087721 
931.000000	 99.084898 
930.000000	 99.085074 
929.000000	 99.089776 
928.000000	 99.099320 
927.000000	 99.111382 
926.000000	 99.121235 
925.000000	 99.124991 
924.000000	 99.122555 
923.000000	 99.116886 
922.000000	 99.110755 
921.000000	 99.104894 
920.000000	 99.098907 
919.000000	 99.092761 
918.000000	 99.086912 
917.000000	 99.081586 
916.000000	 99.076552 
915.000000	 99.071749 
914.000000	 99.068031 
913.000000	 99.066997 
912.000000	 99.069642 
911.000000	 99.074899 
910.000000	 99.079849 
909.000000	 99.082205 
908.000000	 99.082593 
907.000000	 99.083801 
906.000000	 99.087811 
905.000000	 99.094028 
904.000000	 99.100402 
903.000000	 99.105986 
902.000000	 99.112184 
901.000000	 99.121453 
900.000000	 99.134897 
899.000000	 99.151173 
898.000000	 99.167588 
897.000000	 99.181896 
896.000000	 99.192675 
895.000000	 99.199002 
894.000000	 99.201377 
893.000000	 99.203026 
892.000000	 99.208573 
891.000000	 99.220225 
890.000000	 99.235823 
889.000000	 99.251463 
888.000000	 99.265333 
887.000000	 99.277717 
886.000000	 99.288000 
885.000000	 99.293865 
884.000000	 99.294266 
883.000000	 99.291856 
882.000000	 99.291190 
881.000000	 99.294660 
880.000000	 99.301344 
879.000000	 99.309603 
878.000000	 99.319277 
877.000000	 99.330515 
876.000000	 99.341247 
875.000000	 99.347464 
874.000000	 99.346943 
873.000000	 99.342279 
872.000000	 99.339477 
871.000000	 99.342594 
870.000000	 99.350027 
869.000000	 99.356324 
868.000000	 99.357879 
867.000000	 99.356598 
866.000000	 99.357880 
865.000000	 99.365406 
864.000000	 99.378279 
863.000000	 99.392469 
862.000000	 99.404279 
861.000000	 99.412434 
860.000000	 99.417756 
859.000000	 99.422124 
858.000000	 99.427911 
857.000000	 99.437198 
856.000000	 99.450277 
855.000000	 99.464613 
854.000000	 99.475966 
853.000000	 99.481312 
852.000000	 99.480935 
851.000000	 99.478067 
850.000000	 99.476523 
849.000000	 99.478231 
848.000000	 99.482522 
847.000000	 99.487317 
846.000000	 99.490982 
845.000000	 99.493441 
844.000000	 99.495876 
843.000000	 99.499310 
842.000000	 99.503099 
841.000000	 99.504885 
840.000000	 99.502822 
839.000000	 99.498231 
838.000000	 99.495202 
837.000000	 99.496258 
836.000000	 99.499045 
835.000000	 99.499197 
834.000000	 99.496431 
833.000000	 99.495231 
832.000000	 99.497926 
831.000000	 99.499489 
830.000000	 99.492944 
829.000000	 99.479364 
828.000000	 99.468890 
827.000000	 99.469557 
826.000000	 99.477973 
825.000000	 99.484034 
824.000000	 99.483490 
823.000000	 99.481463 
822.000000	 99.483673 
821.000000	 99.488675 
820.000000	 99.490446 
819.000000	 99.485391 
818.000000	 99.475006 
817.000000	 99.463809 
816.000000	 99.455965 
815.000000	 99.452729 
814.000000	 99.451817 
813.000000	 99.449699 
812.000000	 99.445330 
811.000000	 99.441014 
810.000000	 99.439104 
809.000000	 99.438697 
808.000000	 99.436556 
807.000000	 99.430353 
806.000000	 99.419755 
805.000000	 99.404950 
804.000000	 99.386098 
803.000000	 99.365106 
802.000000	 99.346464 
801.000000	 99.334674 
800.000000	 99.330732 
799.000000	 99.331638 
798.000000	 99.333699 
797.000000	 99.336373 
796.000000	 99.342175 
795.000000	 99.352720 
794.000000	 99.366028 
793.000000	 99.378418 
792.000000	 99.387844 
791.000000	 99.393699 
790.000000	 99.394527 
789.000000	 99.388941 
788.000000	 99.379328 
787.000000	 99.371658 
786.000000	 99.369500 
785.000000	 99.370196 
784.000000	 99.369092 
783.000000	 99.365927 
782.000000	 99.364345 
781.000000	 99.366128 
780.000000	 99.369133 
779.000000	 99.370832 
778.000000	 99.371180 
777.000000	 99.371878 
776.000000	 99.375174 
775.000000	 99.383542 
774.000000	 99.397797 
773.000000	 99.414408 
772.000000	 99.426913 
771.000000	 99.431669 
770.000000	 99.430592 
769.000000	 99.427813 
768.000000	 99.425644 
767.000000	 99.424903 
766.000000	 99.426772 
765.000000	 99.431569 
764.000000	 99.436858 
763.000000	 99.439478 
762.000000	 99.439306 
761.000000	 99.439086 
760.000000	 99.440747 
759.000000	 99.443613 
758.000000	 99.446201 
757.000000	 99.448049 
756.000000	 99.449544 
755.000000	 99.451349 
754.000000	 99.454368 
753.000000	 99.459221 
752.000000	 99.465274 
751.000000	 99.470709 
750.000000	 99.474060 
749.000000	 99.475186 
748.000000	 99.474614 
747.000000	 99.473007 
746.000000	 99.471732 
745.000000	 99.472557 
744.000000	 99.475692 
743.000000	 99.478925 
742.000000	 99.479909 
741.000000	 99.479018 
740.000000	 99.478769 
739.000000	 99.480607 
738.000000	 99.483516 
737.000000	 99.485876 
736.000000	 99.487434 
735.000000	 99.488927 
734.000000	 99.490956 
733.000000	 99.493975 
732.000000	 99.498272 
731.000000	 99.502704 
730.000000	 99.504622 
729.000000	 99.502630 
728.000000	 99.498757 
727.000000	 99.496456 
726.000000	 99.496578 
725.000000	 99.497070 
724.000000	 99.496473 
723.000000	 99.495952 
722.000000	 99.497376 
721.000000	 99.500736 
720.000000	 99.504238 
719.000000	 99.506111 
718.000000	 99.505487 
717.000000	 99.502172 
716.000000	 99.497034 
715.000000	 99.491948 
714.000000	 99.488575 
713.000000	 99.487374 
712.000000	 99.488104 
711.000000	 99.490824 
710.000000	 99.495314 
709.000000	 99.499817 
708.000000	 99.502021 
707.000000	 99.501230 
706.000000	 99.498953 
705.000000	 99.497399 
704.000000	 99.497443 
703.000000	 99.498497 
702.000000	 99.499647 
701.000000	 99.500399 
700.000000	 99.500573 
699.000000	 99.499898 
698.000000	 99.498155 
697.000000	 99.495376 
696.000000	 99.491442 
695.000000	 99.486009 
694.000000	 99.479526 
693.000000	 99.474552 
692.000000	 99.474638 
691.000000	 99.480633 
690.000000	 99.488936 
689.000000	 99.494618 
688.000000	 99.496555 
687.000000	 99.497752 
686.000000	 99.500407 
685.000000	 99.502979 
684.000000	 99.503032 
683.000000	 99.500595 
682.000000	 99.497794 
681.000000	 99.496767 
680.000000	 99.498612 
679.000000	 99.502609 
678.000000	 99.505544 
677.000000	 99.504214 
676.000000	 99.499503 
675.000000	 99.495769 
674.000000	 99.496034 
673.000000	 99.498878 
672.000000	 99.500032 
671.000000	 99.496393 
670.000000	 99.487564 
669.000000	 99.476018 
668.000000	 99.467297 
667.000000	 99.466157 
666.000000	 99.473192 
665.000000	 99.485012 
664.000000	 99.495690 
663.000000	 99.500881 
662.000000	 99.500923 
661.000000	 99.501039 
660.000000	 99.505233 
659.000000	 99.510699 
658.000000	 99.511593 
657.000000	 99.506840 
656.000000	 99.501089 
655.000000	 99.498704 
654.000000	 99.499499 
653.000000	 99.499717 
652.000000	 99.495445 
651.000000	 99.487418 
650.000000	 99.483557 

