4000.000000	99.580444 
3999.000000	99.581158 
3998.000000	99.581874 
3997.000000	99.582090 
3996.000000	99.581571 
3995.000000	99.580522 
3994.000000	99.579532 
3993.000000	99.579184 
3992.000000	99.579597 
3991.000000	99.580313 
3990.000000	99.580701 
3989.000000	99.580572 
3988.000000	99.580354 
3987.000000	99.580650 
3986.000000	99.581659 
3985.000000	99.582979 
3984.000000	99.583878 
3983.000000	99.583755 
3982.000000	99.582468 
3981.000000	99.580401 
3980.000000	99.578172 
3979.000000	99.576251 
3978.000000	99.574913 
3977.000000	99.574444 
3976.000000	99.575123 
3975.000000	99.576932 
3974.000000	99.579369 
3973.000000	99.581620 
3972.000000	99.583028 
3971.000000	99.583452 
3970.000000	99.583142 
3969.000000	99.582422 
3968.000000	99.581483 
3967.000000	99.580364 
3966.000000	99.579157 
3965.000000	99.578161 
3964.000000	99.577622 
3963.000000	99.577355 
3962.000000	99.576801 
3961.000000	99.575609 
3960.000000	99.574072 
3959.000000	99.572946 
3958.000000	99.572727 
3957.000000	99.573151 
3956.000000	99.573489 
3955.000000	99.573244 
3954.000000	99.572573 
3953.000000	99.571998 
3952.000000	99.571835 
3951.000000	99.572005 
3950.000000	99.572223 
3949.000000	99.572319 
3948.000000	99.572330 
3947.000000	99.572335 
3946.000000	99.572362 
3945.000000	99.572400 
3944.000000	99.572388 
3943.000000	99.572125 
3942.000000	99.571460 
3941.000000	99.570526 
3940.000000	99.569614 
3939.000000	99.568829 
3938.000000	99.568018 
3937.000000	99.567089 
3936.000000	99.566334 
3935.000000	99.566270 
3934.000000	99.567183 
3933.000000	99.568821 
3932.000000	99.570465 
3931.000000	99.571364 
3930.000000	99.571204 
3929.000000	99.570279 
3928.000000	99.569297 
3927.000000	99.568869 
3926.000000	99.569107 
3925.000000	99.569597 
3924.000000	99.569748 
3923.000000	99.569341 
3922.000000	99.568628 
3921.000000	99.568052 
3920.000000	99.567878 
3919.000000	99.568108 
3918.000000	99.568601 
3917.000000	99.569187 
3916.000000	99.569710 
3915.000000	99.570081 
3914.000000	99.570333 
3913.000000	99.570530 
3912.000000	99.570632 
3911.000000	99.570579 
3910.000000	99.570447 
3909.000000	99.570424 
3908.000000	99.570616 
3907.000000	99.570773 
3906.000000	99.570341 
3905.000000	99.568860 
3904.000000	99.566391 
3903.000000	99.563767 
3902.000000	99.562112 
3901.000000	99.561950 
3900.000000	99.563004 
3899.000000	99.564429 
3898.000000	99.565447 
3897.000000	99.565828 
3896.000000	99.565716 
3895.000000	99.565331 
3894.000000	99.564843 
3893.000000	99.564262 
3892.000000	99.563447 
3891.000000	99.562295 
3890.000000	99.561022 
3889.000000	99.560042 
3888.000000	99.559659 
3887.000000	99.559851 
3886.000000	99.560172 
3885.000000	99.560116 
3884.000000	99.559700 
3883.000000	99.559427 
3882.000000	99.559716 
3881.000000	99.560447 
3880.000000	99.561080 
3879.000000	99.561246 
3878.000000	99.561111 
3877.000000	99.561089 
3876.000000	99.561417 
3875.000000	99.561914 
3874.000000	99.562157 
3873.000000	99.561952 
3872.000000	99.561519 
3871.000000	99.561242 
3870.000000	99.561285 
3869.000000	99.561557 
3868.000000	99.561917 
3867.000000	99.562297 
3866.000000	99.562699 
3865.000000	99.563100 
3864.000000	99.563422 
3863.000000	99.563633 
3862.000000	99.563790 
3861.000000	99.563994 
3860.000000	99.564294 
3859.000000	99.564653 
3858.000000	99.564985 
3857.000000	99.565251 
3856.000000	99.565502 
3855.000000	99.565837 
3854.000000	99.566254 
3853.000000	99.566666 
3852.000000	99.567051 
3851.000000	99.567438 
3850.000000	99.567837 
3849.000000	99.568246 
3848.000000	99.568654 
3847.000000	99.569050 
3846.000000	99.569428 
3845.000000	99.569788 
3844.000000	99.570136 
3843.000000	99.570476 
3842.000000	99.570814 
3841.000000	99.571147 
3840.000000	99.571469 
3839.000000	99.571779 
3838.000000	99.572080 
3837.000000	99.572377 
3836.000000	99.572676 
3835.000000	99.572980 
3834.000000	99.573290 
3833.000000	99.573601 
3832.000000	99.573910 
3831.000000	99.574210 
3830.000000	99.574495 
3829.000000	99.574758 
3828.000000	99.575000 
3827.000000	99.575224 
3826.000000	99.575433 
3825.000000	99.575632 
3824.000000	99.575822 
3823.000000	99.576006 
3822.000000	99.576184 
3821.000000	99.576355 
3820.000000	99.576519 
3819.000000	99.576679 
3818.000000	99.576838 
3817.000000	99.576993 
3816.000000	99.577137 
3815.000000	99.577263 
3814.000000	99.577368 
3813.000000	99.577454 
3812.000000	99.577528 
3811.000000	99.577594 
3810.000000	99.577652 
3809.000000	99.577696 
3808.000000	99.577722 
3807.000000	99.577726 
3806.000000	99.577710 
3805.000000	99.577677 
3804.000000	99.577635 
3803.000000	99.577586 
3802.000000	99.577531 
3801.000000	99.577462 
3800.000000	99.577368 
3799.000000	99.577247 
3798.000000	99.577102 
3797.000000	99.576937 
3796.000000	99.576754 
3795.000000	99.576552 
3794.000000	99.576330 
3793.000000	99.576085 
3792.000000	99.575815 
3791.000000	99.575519 
3790.000000	99.575199 
3789.000000	99.574861 
3788.000000	99.574512 
3787.000000	99.574162 
3786.000000	99.573815 
3785.000000	99.573457 
3784.000000	99.573061 
3783.000000	99.572610 
3782.000000	99.572123 
3781.000000	99.571653 
3780.000000	99.571246 
3779.000000	99.570883 
3778.000000	99.570479 
3777.000000	99.569971 
3776.000000	99.569342 
3775.000000	99.568636 
3774.000000	99.567939 
3773.000000	99.567338 
3772.000000	99.566903 
3771.000000	99.566626 
3770.000000	99.566344 
3769.000000	99.565877 
3768.000000	99.565276 
3767.000000	99.564727 
3766.000000	99.564293 
3765.000000	99.563864 
3764.000000	99.563294 
3763.000000	99.562568 
3762.000000	99.561836 
3761.000000	99.561271 
3760.000000	99.560822 
3759.000000	99.560258 
3758.000000	99.559540 
3757.000000	99.558837 
3756.000000	99.558145 
3755.000000	99.557250 
3754.000000	99.556044 
3753.000000	99.554716 
3752.000000	99.553436 
3751.000000	99.551964 
3750.000000	99.550312 
3749.000000	99.549182 
3748.000000	99.549082 
3747.000000	99.549771 
3746.000000	99.550679 
3745.000000	99.550987 
3744.000000	99.550292 
3743.000000	99.549475 
3742.000000	99.549188 
3741.000000	99.548632 
3740.000000	99.546747 
3739.000000	99.543358 
3738.000000	99.540049 
3737.000000	99.539575 
3736.000000	99.543365 
3735.000000	99.549569 
3734.000000	99.554219 
3733.000000	99.555043 
3732.000000	99.552752 
3731.000000	99.549179 
3730.000000	99.545375 
3729.000000	99.541636 
3728.000000	99.538744 
3727.000000	99.537641 
3726.000000	99.537934 
3725.000000	99.538166 
3724.000000	99.537785 
3723.000000	99.537727 
3722.000000	99.538582 
3721.000000	99.539729 
3720.000000	99.539875 
3719.000000	99.538016 
3718.000000	99.534287 
3717.000000	99.529458 
3716.000000	99.524198 
3715.000000	99.518870 
3714.000000	99.513875 
3713.000000	99.510137 
3712.000000	99.508250 
3711.000000	99.507913 
3710.000000	99.508134 
3709.000000	99.507826 
3708.000000	99.506630 
3707.000000	99.504775 
3706.000000	99.502759 
3705.000000	99.501227 
3704.000000	99.500664 
3703.000000	99.500530 
3702.000000	99.498572 
3701.000000	99.492424 
3700.000000	99.481916 
3699.000000	99.469100 
3698.000000	99.456626 
3697.000000	99.446183 
3696.000000	99.437812 
3695.000000	99.430669 
3694.000000	99.424531 
3693.000000	99.420113 
3692.000000	99.417716 
3691.000000	99.416226 
3690.000000	99.413241 
3689.000000	99.407130 
3688.000000	99.399047 
3687.000000	99.391468 
3686.000000	99.385813 
3685.000000	99.382708 
3684.000000	99.382519 
3683.000000	99.384660 
3682.000000	99.386960 
3681.000000	99.386184 
3680.000000	99.379714 
3679.000000	99.367147 
3678.000000	99.351638 
3677.000000	99.340145 
3676.000000	99.338321 
3675.000000	99.343902 
3674.000000	99.349738 
3673.000000	99.352032 
3672.000000	99.351993 
3671.000000	99.353340 
3670.000000	99.357035 
3669.000000	99.360600 
3668.000000	99.362836 
3667.000000	99.364878 
3666.000000	99.367744 
3665.000000	99.371066 
3664.000000	99.373585 
3663.000000	99.374547 
3662.000000	99.374242 
3661.000000	99.373097 
3660.000000	99.371255 
3659.000000	99.369420 
3658.000000	99.369446 
3657.000000	99.372753 
3656.000000	99.378238 
3655.000000	99.383381 
3654.000000	99.386769 
3653.000000	99.388691 
3652.000000	99.389837 
3651.000000	99.390380 
3650.000000	99.390514 
3649.000000	99.392328 
3648.000000	99.398199 
3647.000000	99.406997 
3646.000000	99.415597 
3645.000000	99.422830 
3644.000000	99.430031 
3643.000000	99.438744 
3642.000000	99.449185 
3641.000000	99.459940 
3640.000000	99.469208 
3639.000000	99.475817 
3638.000000	99.479405 
3637.000000	99.480379 
3636.000000	99.479667 
3635.000000	99.478332 
3634.000000	99.476941 
3633.000000	99.475668 
3632.000000	99.474957 
3631.000000	99.475836 
3630.000000	99.478998 
3629.000000	99.482794 
3628.000000	99.484756 
3627.000000	99.485350 
3626.000000	99.486932 
3625.000000	99.491087 
3624.000000	99.497832 
3623.000000	99.505988 
3622.000000	99.514108 
3621.000000	99.521268 
3620.000000	99.526278 
3619.000000	99.527311 
3618.000000	99.523905 
3617.000000	99.518388 
3616.000000	99.514245 
3615.000000	99.513636 
3614.000000	99.515817 
3613.000000	99.517920 
3612.000000	99.517975 
3611.000000	99.516776 
3610.000000	99.516520 
3609.000000	99.518415 
3608.000000	99.521575 
3607.000000	99.524504 
3606.000000	99.527093 
3605.000000	99.530184 
3604.000000	99.534039 
3603.000000	99.537891 
3602.000000	99.540897 
3601.000000	99.543232 
3600.000000	99.545325 
3599.000000	99.546617 
3598.000000	99.545997 
3597.000000	99.543257 
3596.000000	99.539687 
3595.000000	99.537321 
3594.000000	99.537113 
3593.000000	99.538452 
3592.000000	99.540135 
3591.000000	99.541316 
3590.000000	99.541977 
3589.000000	99.542697 
3588.000000	99.543835 
3587.000000	99.544819 
3586.000000	99.544921 
3585.000000	99.544232 
3584.000000	99.543670 
3583.000000	99.543969 
3582.000000	99.545138 
3581.000000	99.546535 
3580.000000	99.547408 
3579.000000	99.547357 
3578.000000	99.546386 
3577.000000	99.544931 
3576.000000	99.543742 
3575.000000	99.543554 
3574.000000	99.544496 
3573.000000	99.545870 
3572.000000	99.546711 
3571.000000	99.546578 
3570.000000	99.545684 
3569.000000	99.544618 
3568.000000	99.543981 
3567.000000	99.543919 
3566.000000	99.544098 
3565.000000	99.544273 
3564.000000	99.544703 
3563.000000	99.545924 
3562.000000	99.548082 
3561.000000	99.550558 
3560.000000	99.552435 
3559.000000	99.553325 
3558.000000	99.553620 
3557.000000	99.553962 
3556.000000	99.554604 
3555.000000	99.555235 
3554.000000	99.555368 
3553.000000	99.554673 
3552.000000	99.553220 
3551.000000	99.551573 
3550.000000	99.550442 
3549.000000	99.550168 
3548.000000	99.550625 
3547.000000	99.551414 
3546.000000	99.552194 
3545.000000	99.552727 
3544.000000	99.552850 
3543.000000	99.552636 
3542.000000	99.552540 
3541.000000	99.553086 
3540.000000	99.554421 
3539.000000	99.556079 
3538.000000	99.557387 
3537.000000	99.558007 
3536.000000	99.558089 
3535.000000	99.558014 
3534.000000	99.558025 
3533.000000	99.558198 
3532.000000	99.558579 
3531.000000	99.559165 
3530.000000	99.559710 
3529.000000	99.559809 
3528.000000	99.559317 
3527.000000	99.558602 
3526.000000	99.558229 
3525.000000	99.558407 
3524.000000	99.558892 
3523.000000	99.559316 
3522.000000	99.559546 
3521.000000	99.559688 
3520.000000	99.559878 
3519.000000	99.560149 
3518.000000	99.560466 
3517.000000	99.560784 
3516.000000	99.561053 
3515.000000	99.561229 
3514.000000	99.561302 
3513.000000	99.561313 
3512.000000	99.561324 
3511.000000	99.561378 
3510.000000	99.561489 
3509.000000	99.561649 
3508.000000	99.561851 
3507.000000	99.562098 
3506.000000	99.562396 
3505.000000	99.562724 
3504.000000	99.563033 
3503.000000	99.563296 
3502.000000	99.563570 
3501.000000	99.563964 
3500.000000	99.564524 
3499.000000	99.565167 
3498.000000	99.565700 
3497.000000	99.565989 
3496.000000	99.566038 
3495.000000	99.566003 
3494.000000	99.566067 
3493.000000	99.566302 
3492.000000	99.566670 
3491.000000	99.567086 
3490.000000	99.567487 
3489.000000	99.567888 
3488.000000	99.568353 
3487.000000	99.568911 
3486.000000	99.569498 
3485.000000	99.569998 
3484.000000	99.570347 
3483.000000	99.570583 
3482.000000	99.570797 
3481.000000	99.571045 
3480.000000	99.571308 
3479.000000	99.571530 
3478.000000	99.571656 
3477.000000	99.571688 
3476.000000	99.571758 
3475.000000	99.572106 
3474.000000	99.572890 
3473.000000	99.573956 
3472.000000	99.574844 
3471.000000	99.575202 
3470.000000	99.575178 
3469.000000	99.575353 
3468.000000	99.576173 
3467.000000	99.577473 
3466.000000	99.578655 
3465.000000	99.579364 
3464.000000	99.579763 
3463.000000	99.580142 
3462.000000	99.580440 
3461.000000	99.580401 
3460.000000	99.580081 
3459.000000	99.579945 
3458.000000	99.580357 
3457.000000	99.581083 
3456.000000	99.581476 
3455.000000	99.581127 
3454.000000	99.580248 
3453.000000	99.579446 
3452.000000	99.579079 
3451.000000	99.579104 
3450.000000	99.579351 
3449.000000	99.579744 
3448.000000	99.580167 
3447.000000	99.580352 
3446.000000	99.580102 
3445.000000	99.579618 
3444.000000	99.579378 
3443.000000	99.579618 
3442.000000	99.580028 
3441.000000	99.580024 
3440.000000	99.579328 
3439.000000	99.578197 
3438.000000	99.577098 
3437.000000	99.576258 
3436.000000	99.575644 
3435.000000	99.575342 
3434.000000	99.575703 
3433.000000	99.577008 
3432.000000	99.578972 
3431.000000	99.580780 
3430.000000	99.581749 
3429.000000	99.581912 
3428.000000	99.581899 
3427.000000	99.582201 
3426.000000	99.582577 
3425.000000	99.582360 
3424.000000	99.581275 
3423.000000	99.579763 
3422.000000	99.578545 
3421.000000	99.577956 
3420.000000	99.577882 
3419.000000	99.578179 
3418.000000	99.578863 
3417.000000	99.579862 
3416.000000	99.580780 
3415.000000	99.581149 
3414.000000	99.580883 
3413.000000	99.580389 
3412.000000	99.580198 
3411.000000	99.580526 
3410.000000	99.581161 
3409.000000	99.581682 
3408.000000	99.581729 
3407.000000	99.581164 
3406.000000	99.580130 
3405.000000	99.579012 
3404.000000	99.578259 
3403.000000	99.578086 
3402.000000	99.578358 
3401.000000	99.578777 
3400.000000	99.579201 
3399.000000	99.579726 
3398.000000	99.580446 
3397.000000	99.581232 
3396.000000	99.581769 
3395.000000	99.581775 
3394.000000	99.581146 
3393.000000	99.579987 
3392.000000	99.578617 
3391.000000	99.577486 
3390.000000	99.576947 
3389.000000	99.577094 
3388.000000	99.577763 
3387.000000	99.578635 
3386.000000	99.579416 
3385.000000	99.579985 
3384.000000	99.580409 
3383.000000	99.580799 
3382.000000	99.581095 
3381.000000	99.581086 
3380.000000	99.580690 
3379.000000	99.580130 
3378.000000	99.579777 
3377.000000	99.579776 
3376.000000	99.579953 
3375.000000	99.580041 
3374.000000	99.579948 
3373.000000	99.579788 
3372.000000	99.579714 
3371.000000	99.579773 
3370.000000	99.579887 
3369.000000	99.579941 
3368.000000	99.579873 
3367.000000	99.579725 
3366.000000	99.579582 
3365.000000	99.579494 
3364.000000	99.579446 
3363.000000	99.579394 
3362.000000	99.579314 
3361.000000	99.579212 
3360.000000	99.579096 
3359.000000	99.578967 
3358.000000	99.578823 
3357.000000	99.578670 
3356.000000	99.578516 
3355.000000	99.578361 
3354.000000	99.578207 
3353.000000	99.578056 
3352.000000	99.577911 
3351.000000	99.577776 
3350.000000	99.577651 
3349.000000	99.577534 
3348.000000	99.577414 
3347.000000	99.577282 
3346.000000	99.577128 
3345.000000	99.576953 
3344.000000	99.576760 
3343.000000	99.576561 
3342.000000	99.576360 
3341.000000	99.576159 
3340.000000	99.575954 
3339.000000	99.575741 
3338.000000	99.575513 
3337.000000	99.575281 
3336.000000	99.575069 
3335.000000	99.574899 
3334.000000	99.574761 
3333.000000	99.574625 
3332.000000	99.574481 
3331.000000	99.574330 
3330.000000	99.574161 
3329.000000	99.573948 
3328.000000	99.573680 
3327.000000	99.573380 
3326.000000	99.573085 
3325.000000	99.572792 
3324.000000	99.572452 
3323.000000	99.572030 
3322.000000	99.571584 
3321.000000	99.571264 
3320.000000	99.571173 
3319.000000	99.571246 
3318.000000	99.571282 
3317.000000	99.571133 
3316.000000	99.570813 
3315.000000	99.570451 
3314.000000	99.570175 
3313.000000	99.570060 
3312.000000	99.570113 
3311.000000	99.570237 
3310.000000	99.570244 
3309.000000	99.570006 
3308.000000	99.569590 
3307.000000	99.569182 
3306.000000	99.568890 
3305.000000	99.568678 
3304.000000	99.568492 
3303.000000	99.568335 
3302.000000	99.568161 
3301.000000	99.567801 
3300.000000	99.567091 
3299.000000	99.566084 
3298.000000	99.565068 
3297.000000	99.564358 
3296.000000	99.564059 
3295.000000	99.564008 
3294.000000	99.563915 
3293.000000	99.563622 
3292.000000	99.563216 
3291.000000	99.562863 
3290.000000	99.562551 
3289.000000	99.562104 
3288.000000	99.561419 
3287.000000	99.560609 
3286.000000	99.559873 
3285.000000	99.559282 
3284.000000	99.558744 
3283.000000	99.558145 
3282.000000	99.557494 
3281.000000	99.556920 
3280.000000	99.556562 
3279.000000	99.556428 
3278.000000	99.556352 
3277.000000	99.556084 
3276.000000	99.555474 
3275.000000	99.554550 
3274.000000	99.553498 
3273.000000	99.552552 
3272.000000	99.551865 
3271.000000	99.551462 
3270.000000	99.551238 
3269.000000	99.551022 
3268.000000	99.550683 
3267.000000	99.550202 
3266.000000	99.549646 
3265.000000	99.549101 
3264.000000	99.548654 
3263.000000	99.548407 
3262.000000	99.548435 
3261.000000	99.548690 
3260.000000	99.548965 
3259.000000	99.548987 
3258.000000	99.548590 
3257.000000	99.547825 
3256.000000	99.546936 
3255.000000	99.546165 
3254.000000	99.545609 
3253.000000	99.545264 
3252.000000	99.545156 
3251.000000	99.545319 
3250.000000	99.545636 
3249.000000	99.545824 
3248.000000	99.545682 
3247.000000	99.545266 
3246.000000	99.544804 
3245.000000	99.544446 
3244.000000	99.544165 
3243.000000	99.543869 
3242.000000	99.543504 
3241.000000	99.543054 
3240.000000	99.542559 
3239.000000	99.542169 
3238.000000	99.542118 
3237.000000	99.542551 
3236.000000	99.543373 
3235.000000	99.544244 
3234.000000	99.544743 
3233.000000	99.544614 
3232.000000	99.543930 
3231.000000	99.543059 
3230.000000	99.542396 
3229.000000	99.542089 
3228.000000	99.542001 
3227.000000	99.541859 
3226.000000	99.541430 
3225.000000	99.540653 
3224.000000	99.539694 
3223.000000	99.538882 
3222.000000	99.538470 
3221.000000	99.538422 
3220.000000	99.538431 
3219.000000	99.538193 
3218.000000	99.537679 
3217.000000	99.537162 
3216.000000	99.536996 
3215.000000	99.537346 
3214.000000	99.538042 
3213.000000	99.538624 
3212.000000	99.538658 
3211.000000	99.538026 
3210.000000	99.536967 
3209.000000	99.535873 
3208.000000	99.535020 
3207.000000	99.534498 
3206.000000	99.534265 
3205.000000	99.534196 
3204.000000	99.534148 
3203.000000	99.534061 
3202.000000	99.533951 
3201.000000	99.533806 
3200.000000	99.533590 
3199.000000	99.533392 
3198.000000	99.533452 
3197.000000	99.533904 
3196.000000	99.534562 
3195.000000	99.535060 
3194.000000	99.535195 
3193.000000	99.535020 
3192.000000	99.534633 
3191.000000	99.534034 
3190.000000	99.533205 
3189.000000	99.532233 
3188.000000	99.531296 
3187.000000	99.530602 
3186.000000	99.530315 
3185.000000	99.530430 
3184.000000	99.530690 
3183.000000	99.530720 
3182.000000	99.530364 
3181.000000	99.529888 
3180.000000	99.529823 
3179.000000	99.530580 
3178.000000	99.532060 
3177.000000	99.533561 
3176.000000	99.534229 
3175.000000	99.533850 
3174.000000	99.533111 
3173.000000	99.532839 
3172.000000	99.532934 
3171.000000	99.532474 
3170.000000	99.530955 
3169.000000	99.529063 
3168.000000	99.527906 
3167.000000	99.527702 
3166.000000	99.527736 
3165.000000	99.527386 
3164.000000	99.526812 
3163.000000	99.526559 
3162.000000	99.526800 
3161.000000	99.527216 
3160.000000	99.527496 
3159.000000	99.527659 
3158.000000	99.527789 
3157.000000	99.527630 
3156.000000	99.526742 
3155.000000	99.525052 
3154.000000	99.523048 
3153.000000	99.521286 
3152.000000	99.519855 
3151.000000	99.518549 
3150.000000	99.517411 
3149.000000	99.516826 
3148.000000	99.517075 
3147.000000	99.518060 
3146.000000	99.519454 
3145.000000	99.520881 
3144.000000	99.521949 
3143.000000	99.522396 
3142.000000	99.522324 
3141.000000	99.522074 
3140.000000	99.521801 
3139.000000	99.521336 
3138.000000	99.520572 
3137.000000	99.519738 
3136.000000	99.519180 
3135.000000	99.519044 
3134.000000	99.519324 
3133.000000	99.519982 
3132.000000	99.520771 
3131.000000	99.521125 
3130.000000	99.520608 
3129.000000	99.519456 
3128.000000	99.518522 
3127.000000	99.518488 
3126.000000	99.519271 
3125.000000	99.520200 
3124.000000	99.520645 
3123.000000	99.520423 
3122.000000	99.519677 
3121.000000	99.518670 
3120.000000	99.517650 
3119.000000	99.516783 
3118.000000	99.516138 
3117.000000	99.515738 
3116.000000	99.515596 
3115.000000	99.515692 
3114.000000	99.515937 
3113.000000	99.516189 
3112.000000	99.516313 
3111.000000	99.516250 
3110.000000	99.516031 
3109.000000	99.515749 
3108.000000	99.515465 
3107.000000	99.515128 
3106.000000	99.514586 
3105.000000	99.513739 
3104.000000	99.512715 
3103.000000	99.511905 
3102.000000	99.511758 
3101.000000	99.512464 
3100.000000	99.513752 
3099.000000	99.515032 
3098.000000	99.515880 
3097.000000	99.516309 
3096.000000	99.516526 
3095.000000	99.516584 
3094.000000	99.516348 
3093.000000	99.515747 
3092.000000	99.514915 
3091.000000	99.514064 
3090.000000	99.513349 
3089.000000	99.512908 
3088.000000	99.512833 
3087.000000	99.512970 
3086.000000	99.512911 
3085.000000	99.512347 
3084.000000	99.511242 
3083.000000	99.509503 
3082.000000	99.506851 
3081.000000	99.503518 
3080.000000	99.500835 
3079.000000	99.500477 
3078.000000	99.502999 
3077.000000	99.507309 
3076.000000	99.511586 
3075.000000	99.514449 
3074.000000	99.515289 
3073.000000	99.514200 
3072.000000	99.511929 
3071.000000	99.509471 
3070.000000	99.507273 
3069.000000	99.504968 
3068.000000	99.502148 
3067.000000	99.499312 
3066.000000	99.497828 
3065.000000	99.498938 
3064.000000	99.502631 
3063.000000	99.507178 
3062.000000	99.509816 
3061.000000	99.508460 
3060.000000	99.503243 
3059.000000	99.496470 
3058.000000	99.491098 
3057.000000	99.489223 
3056.000000	99.491433 
3055.000000	99.496584 
3054.000000	99.501915 
3053.000000	99.504303 
3052.000000	99.502307 
3051.000000	99.497056 
3050.000000	99.491117 
3049.000000	99.486703 
3048.000000	99.484710 
3047.000000	99.484393 
3046.000000	99.483362 
3045.000000	99.478925 
3044.000000	99.470772 
3043.000000	99.462131 
3042.000000	99.457123 
3041.000000	99.456650 
3040.000000	99.457627 
3039.000000	99.456283 
3038.000000	99.451329 
3037.000000	99.443823 
3036.000000	99.435094 
3035.000000	99.425638 
3034.000000	99.415483 
3033.000000	99.404620 
3032.000000	99.393035 
3031.000000	99.380942 
3030.000000	99.369056 
3029.000000	99.358265 
3028.000000	99.349040 
3027.000000	99.341229 
3026.000000	99.334026 
3025.000000	99.325846 
3024.000000	99.314656 
3023.000000	99.299324 
3022.000000	99.280886 
3021.000000	99.261859 
3020.000000	99.243876 
3019.000000	99.226354 
3018.000000	99.207989 
3017.000000	99.188994 
3016.000000	99.170869 
3015.000000	99.153964 
3014.000000	99.136561 
3013.000000	99.117106 
3012.000000	99.096553 
3011.000000	99.077386 
3010.000000	99.060618 
3009.000000	99.044880 
3008.000000	99.028440 
3007.000000	99.010952 
3006.000000	98.992834 
3005.000000	98.973903 
3004.000000	98.953558 
3003.000000	98.931969 
3002.000000	98.910418 
3001.000000	98.890543 
3000.000000	98.873435 
2999.000000	98.859098 
2998.000000	98.846530 
2997.000000	98.834741 
2996.000000	98.823769 
2995.000000	98.813660 
2994.000000	98.801853 
2993.000000	98.782976 
2992.000000	98.753310 
2991.000000	98.715909 
2990.000000	98.680172 
2989.000000	98.655628 
2988.000000	98.646298 
2987.000000	98.650179 
2986.000000	98.661908 
2985.000000	98.675450 
2984.000000	98.685859 
2983.000000	98.690626 
2982.000000	98.690056 
2981.000000	98.686142 
2980.000000	98.680994 
2979.000000	98.676170 
2978.000000	98.672541 
2977.000000	98.669794 
2976.000000	98.666265 
2975.000000	98.660280 
2974.000000	98.652216 
2973.000000	98.644927 
2972.000000	98.641815 
2971.000000	98.644446 
2970.000000	98.651895 
2969.000000	98.661996 
2968.000000	98.673042 
2967.000000	98.684538 
2966.000000	98.696667 
2965.000000	98.709280 
2964.000000	98.721495 
2963.000000	98.732188 
2962.000000	98.740795 
2961.000000	98.747621 
2960.000000	98.753523 
2959.000000	98.759349 
2958.000000	98.765547 
2957.000000	98.772176 
2956.000000	98.779258 
2955.000000	98.787164 
2954.000000	98.796649 
2953.000000	98.808361 
2952.000000	98.822100 
2951.000000	98.836356 
2950.000000	98.848657 
2949.000000	98.856827 
2948.000000	98.860201 
2947.000000	98.859702 
2946.000000	98.857002 
2945.000000	98.853896 
2944.000000	98.852012 
2943.000000	98.852180 
2942.000000	98.853479 
2941.000000	98.853335 
2940.000000	98.849557 
2939.000000	98.842614 
2938.000000	98.835360 
2937.000000	98.830339 
2936.000000	98.827796 
2935.000000	98.826244 
2934.000000	98.824205 
2933.000000	98.820912 
2932.000000	98.815834 
2931.000000	98.808313 
2930.000000	98.798147 
2929.000000	98.786500 
2928.000000	98.775824 
2927.000000	98.768162 
2926.000000	98.763328 
2925.000000	98.759204 
2924.000000	98.754352 
2923.000000	98.749903 
2922.000000	98.748238 
2921.000000	98.750097 
2920.000000	98.753894 
2919.000000	98.757683 
2918.000000	98.760822 
2917.000000	98.763362 
2916.000000	98.764810 
2915.000000	98.764336 
2914.000000	98.762047 
2913.000000	98.759489 
2912.000000	98.758748 
2911.000000	98.760901 
2910.000000	98.765072 
2909.000000	98.769035 
2908.000000	98.771118 
2907.000000	98.771396 
2906.000000	98.770446 
2905.000000	98.767280 
2904.000000	98.759913 
2903.000000	98.748928 
2902.000000	98.739628 
2901.000000	98.739276 
2900.000000	98.751059 
2899.000000	98.771687 
2898.000000	98.793459 
2897.000000	98.809528 
2896.000000	98.818001 
2895.000000	98.821880 
2894.000000	98.825805 
2893.000000	98.832369 
2892.000000	98.840974 
2891.000000	98.849525 
2890.000000	98.856643 
2889.000000	98.862200 
2888.000000	98.866599 
2887.000000	98.870455 
2886.000000	98.874835 
2885.000000	98.880950 
2884.000000	98.889338 
2883.000000	98.899677 
2882.000000	98.911425 
2881.000000	98.924212 
2880.000000	98.937512 
2879.000000	98.950494 
2878.000000	98.962527 
2877.000000	98.973573 
2876.000000	98.983851 
2875.000000	98.993295 
2874.000000	99.001646 
2873.000000	99.008947 
2872.000000	99.015711 
2871.000000	99.022509 
2870.000000	99.029557 
2869.000000	99.036852 
2868.000000	99.044688 
2867.000000	99.053762 
2866.000000	99.064348 
2865.000000	99.075425 
2864.000000	99.085170 
2863.000000	99.092680 
2862.000000	99.098806 
2861.000000	99.104925 
2860.000000	99.111303 
2859.000000	99.117336 
2858.000000	99.122912 
2857.000000	99.128520 
2856.000000	99.134179 
2855.000000	99.139642 
2854.000000	99.145840 
2853.000000	99.154799 
2852.000000	99.167543 
2851.000000	99.182864 
2850.000000	99.198702 
2849.000000	99.214227 
2848.000000	99.229848 
2847.000000	99.245619 
2846.000000	99.260569 
2845.000000	99.273478 
2844.000000	99.283719 
2843.000000	99.291468 
2842.000000	99.297811 
2841.000000	99.304604 
2840.000000	99.313403 
2839.000000	99.324082 
2838.000000	99.334835 
2837.000000	99.343769 
2836.000000	99.350323 
2835.000000	99.355270 
2834.000000	99.359754 
2833.000000	99.364428 
2832.000000	99.369096 
2831.000000	99.372911 
2830.000000	99.375082 
2829.000000	99.375634 
2828.000000	99.375474 
2827.000000	99.375758 
2826.000000	99.377370 
2825.000000	99.380782 
2824.000000	99.385796 
2823.000000	99.391185 
2822.000000	99.395163 
2821.000000	99.396883 
2820.000000	99.397416 
2819.000000	99.398782 
2818.000000	99.401901 
2817.000000	99.405816 
2816.000000	99.408963 
2815.000000	99.410754 
2814.000000	99.411675 
2813.000000	99.412266 
2812.000000	99.412602 
2811.000000	99.412836 
2810.000000	99.413729 
2809.000000	99.416152 
2808.000000	99.420045 
2807.000000	99.424116 
2806.000000	99.426719 
2805.000000	99.427028 
2804.000000	99.425520 
2803.000000	99.423541 
2802.000000	99.422421 
2801.000000	99.422751 
2800.000000	99.424262 
2799.000000	99.426274 
2798.000000	99.428135 
2797.000000	99.429245 
2796.000000	99.429060 
2795.000000	99.427629 
2794.000000	99.426164 
2793.000000	99.426379 
2792.000000	99.428826 
2791.000000	99.432201 
2790.000000	99.434665 
2789.000000	99.435703 
2788.000000	99.436273 
2787.000000	99.437313 
2786.000000	99.438657 
2785.000000	99.439484 
2784.000000	99.439364 
2783.000000	99.438647 
2782.000000	99.438110 
2781.000000	99.438372 
2780.000000	99.439518 
2779.000000	99.441097 
2778.000000	99.442515 
2777.000000	99.443559 
2776.000000	99.444493 
2775.000000	99.445593 
2774.000000	99.446743 
2773.000000	99.447621 
2772.000000	99.448183 
2771.000000	99.448741 
2770.000000	99.449573 
2769.000000	99.450561 
2768.000000	99.451347 
2767.000000	99.451778 
2766.000000	99.452076 
2765.000000	99.452536 
2764.000000	99.453170 
2763.000000	99.453705 
2762.000000	99.453909 
2761.000000	99.453851 
2760.000000	99.453858 
2759.000000	99.454209 
2758.000000	99.454923 
2757.000000	99.455826 
2756.000000	99.456762 
2755.000000	99.457653 
2754.000000	99.458400 
2753.000000	99.458904 
2752.000000	99.459252 
2751.000000	99.459749 
2750.000000	99.460636 
2749.000000	99.461809 
2748.000000	99.462889 
2747.000000	99.463590 
2746.000000	99.463922 
2745.000000	99.464068 
2744.000000	99.464165 
2743.000000	99.464269 
2742.000000	99.464471 
2741.000000	99.464926 
2740.000000	99.465719 
2739.000000	99.466762 
2738.000000	99.467872 
2737.000000	99.468927 
2736.000000	99.469919 
2735.000000	99.470847 
2734.000000	99.471638 
2733.000000	99.472212 
2732.000000	99.472616 
2731.000000	99.473004 
2730.000000	99.473486 
2729.000000	99.474037 
2728.000000	99.474592 
2727.000000	99.475149 
2726.000000	99.475747 
2725.000000	99.476377 
2724.000000	99.477000 
2723.000000	99.477631 
2722.000000	99.478337 
2721.000000	99.479130 
2720.000000	99.479903 
2719.000000	99.480522 
2718.000000	99.480964 
2717.000000	99.481335 
2716.000000	99.481761 
2715.000000	99.482292 
2714.000000	99.482911 
2713.000000	99.483595 
2712.000000	99.484299 
2711.000000	99.484943 
2710.000000	99.485472 
2709.000000	99.485929 
2708.000000	99.486419 
2707.000000	99.486969 
2706.000000	99.487492 
2705.000000	99.487902 
2704.000000	99.488234 
2703.000000	99.488603 
2702.000000	99.489056 
2701.000000	99.489533 
2700.000000	99.489953 
2699.000000	99.490328 
2698.000000	99.490739 
2697.000000	99.491243 
2696.000000	99.491801 
2695.000000	99.492291 
2694.000000	99.492636 
2693.000000	99.492867 
2692.000000	99.493099 
2691.000000	99.493396 
2690.000000	99.493717 
2689.000000	99.493999 
2688.000000	99.494262 
2687.000000	99.494594 
2686.000000	99.495045 
2685.000000	99.495572 
2684.000000	99.496091 
2683.000000	99.496541 
2682.000000	99.496918 
2681.000000	99.497245 
2680.000000	99.497549 
2679.000000	99.497853 
2678.000000	99.498186 
2677.000000	99.498583 
2676.000000	99.499058 
2675.000000	99.499582 
2674.000000	99.500102 
2673.000000	99.500575 
2672.000000	99.500998 
2671.000000	99.501392 
2670.000000	99.501781 
2669.000000	99.502183 
2668.000000	99.502603 
2667.000000	99.503040 
2666.000000	99.503490 
2665.000000	99.503952 
2664.000000	99.504423 
2663.000000	99.504901 
2662.000000	99.505382 
2661.000000	99.505866 
2660.000000	99.506352 
2659.000000	99.506839 
2658.000000	99.507326 
2657.000000	99.507812 
2656.000000	99.508295 
2655.000000	99.508776 
2654.000000	99.509254 
2653.000000	99.509728 
2652.000000	99.510199 
2651.000000	99.510673 
2650.000000	99.511153 
2649.000000	99.511634 
2648.000000	99.512107 
2647.000000	99.512567 
2646.000000	99.513014 
2645.000000	99.513455 
2644.000000	99.513897 
2643.000000	99.514340 
2642.000000	99.514782 
2641.000000	99.515223 
2640.000000	99.515666 
2639.000000	99.516117 
2638.000000	99.516579 
2637.000000	99.517048 
2636.000000	99.517516 
2635.000000	99.517977 
2634.000000	99.518424 
2633.000000	99.518859 
2632.000000	99.519288 
2631.000000	99.519718 
2630.000000	99.520157 
2629.000000	99.520604 
2628.000000	99.521056 
2627.000000	99.521508 
2626.000000	99.521955 
2625.000000	99.522393 
2624.000000	99.522821 
2623.000000	99.523239 
2622.000000	99.523645 
2621.000000	99.524044 
2620.000000	99.524438 
2619.000000	99.524827 
2618.000000	99.525214 
2617.000000	99.525588 
2616.000000	99.525916 
2615.000000	99.526187 
2614.000000	99.526458 
2613.000000	99.526787 
2612.000000	99.527148 
2611.000000	99.527492 
2610.000000	99.527846 
2609.000000	99.528235 
2608.000000	99.528549 
2607.000000	99.528610 
2606.000000	99.528434 
2605.000000	99.528348 
2604.000000	99.528759 
2603.000000	99.529785 
2602.000000	99.531067 
2601.000000	99.532025 
2600.000000	99.532428 
2599.000000	99.532559 
2598.000000	99.532780 
2597.000000	99.532991 
2596.000000	99.532776 
2595.000000	99.531975 
2594.000000	99.530905 
2593.000000	99.530065 
2592.000000	99.529765 
2591.000000	99.530081 
2590.000000	99.530946 
2589.000000	99.532175 
2588.000000	99.533445 
2587.000000	99.534330 
2586.000000	99.534449 
2585.000000	99.533727 
2584.000000	99.532604 
2583.000000	99.531794 
2582.000000	99.531537 
2581.000000	99.531336 
2580.000000	99.530650 
2579.000000	99.529607 
2578.000000	99.528702 
2577.000000	99.528014 
2576.000000	99.527161 
2575.000000	99.525954 
2574.000000	99.524748 
2573.000000	99.524055 
2572.000000	99.524121 
2571.000000	99.524870 
2570.000000	99.525903 
2569.000000	99.526629 
2568.000000	99.526659 
2567.000000	99.526167 
2566.000000	99.525650 
2565.000000	99.525336 
2564.000000	99.525029 
2563.000000	99.524539 
2562.000000	99.523960 
2561.000000	99.523447 
2560.000000	99.522959 
2559.000000	99.522378 
2558.000000	99.521726 
2557.000000	99.521154 
2556.000000	99.520843 
2555.000000	99.520919 
2554.000000	99.521334 
2553.000000	99.521732 
2552.000000	99.521633 
2551.000000	99.520865 
2550.000000	99.519663 
2549.000000	99.518365 
2548.000000	99.517126 
2547.000000	99.515984 
2546.000000	99.515051 
2545.000000	99.514464 
2544.000000	99.514210 
2543.000000	99.514069 
2542.000000	99.513713 
2541.000000	99.512925 
2540.000000	99.511740 
2539.000000	99.510485 
2538.000000	99.509569 
2537.000000	99.509125 
2536.000000	99.508934 
2535.000000	99.508657 
2534.000000	99.508148 
2533.000000	99.507476 
2532.000000	99.506708 
2531.000000	99.505843 
2530.000000	99.504948 
2529.000000	99.504221 
2528.000000	99.503799 
2527.000000	99.503578 
2526.000000	99.503291 
2525.000000	99.502804 
2524.000000	99.502279 
2523.000000	99.501990 
2522.000000	99.502042 
2521.000000	99.502301 
2520.000000	99.502511 
2519.000000	99.502434 
2518.000000	99.501932 
2517.000000	99.501018 
2516.000000	99.499935 
2515.000000	99.499103 
2514.000000	99.498849 
2513.000000	99.499198 
2512.000000	99.499883 
2511.000000	99.500551 
2510.000000	99.500967 
2509.000000	99.501086 
2508.000000	99.501045 
2507.000000	99.501075 
2506.000000	99.501274 
2505.000000	99.501443 
2504.000000	99.501255 
2503.000000	99.500620 
2502.000000	99.499834 
2501.000000	99.499349 
2500.000000	99.499411 
2499.000000	99.499991 
2498.000000	99.500880 
2497.000000	99.501795 
2496.000000	99.502483 
2495.000000	99.502826 
2494.000000	99.502874 
2493.000000	99.502757 
2492.000000	99.502580 
2491.000000	99.502458 
2490.000000	99.502571 
2489.000000	99.503102 
2488.000000	99.504099 
2487.000000	99.505399 
2486.000000	99.506582 
2485.000000	99.507090 
2484.000000	99.506606 
2483.000000	99.505355 
2482.000000	99.504038 
2481.000000	99.503256 
2480.000000	99.503031 
2479.000000	99.502979 
2478.000000	99.502782 
2477.000000	99.502474 
2476.000000	99.502269 
2475.000000	99.502291 
2474.000000	99.502513 
2473.000000	99.502818 
2472.000000	99.503041 
2471.000000	99.503028 
2470.000000	99.502760 
2469.000000	99.502386 
2468.000000	99.502081 
2467.000000	99.501887 
2466.000000	99.501729 
2465.000000	99.501542 
2464.000000	99.501344 
2463.000000	99.501207 
2462.000000	99.501196 
2461.000000	99.501294 
2460.000000	99.501357 
2459.000000	99.501183 
2458.000000	99.500686 
2457.000000	99.500008 
2456.000000	99.499415 
2455.000000	99.499059 
2454.000000	99.498908 
2453.000000	99.498816 
2452.000000	99.498625 
2451.000000	99.498226 
2450.000000	99.497582 
2449.000000	99.496756 
2448.000000	99.495943 
2447.000000	99.495379 
2446.000000	99.495183 
2445.000000	99.495271 
2444.000000	99.495395 
2443.000000	99.495327 
2442.000000	99.494989 
2441.000000	99.494453 
2440.000000	99.493884 
2439.000000	99.493453 
2438.000000	99.493252 
2437.000000	99.493260 
2436.000000	99.493355 
2435.000000	99.493360 
2434.000000	99.493170 
2433.000000	99.492862 
2432.000000	99.492677 
2431.000000	99.492801 
2430.000000	99.493152 
2429.000000	99.493381 
2428.000000	99.493155 
2427.000000	99.492418 
2426.000000	99.491436 
2425.000000	99.490600 
2424.000000	99.490133 
2423.000000	99.490043 
2422.000000	99.490269 
2421.000000	99.490767 
2420.000000	99.491345 
2419.000000	99.491510 
2418.000000	99.490806 
2417.000000	99.489291 
2416.000000	99.487640 
2415.000000	99.486510 
2414.000000	99.485908 
2413.000000	99.485411 
2412.000000	99.484826 
2411.000000	99.484420 
2410.000000	99.484465 
2409.000000	99.484864 
2408.000000	99.485278 
2407.000000	99.485417 
2406.000000	99.485161 
2405.000000	99.484609 
2404.000000	99.484110 
2403.000000	99.483983 
2402.000000	99.484131 
2401.000000	99.484107 
2400.000000	99.483636 
2399.000000	99.482911 
2398.000000	99.482301 
2397.000000	99.481981 
2396.000000	99.481913 
2395.000000	99.481960 
2394.000000	99.481913 
2393.000000	99.481612 
2392.000000	99.481187 
2391.000000	99.480964 
2390.000000	99.481027 
2389.000000	99.481115 
2388.000000	99.481122 
2387.000000	99.481388 
2386.000000	99.482175 
2385.000000	99.483138 
2384.000000	99.483637 
2383.000000	99.483493 
2382.000000	99.483164 
2381.000000	99.483178 
2380.000000	99.483596 
2379.000000	99.484171 
2378.000000	99.484848 
2377.000000	99.485804 
2376.000000	99.486962 
2375.000000	99.487778 
2374.000000	99.487816 
2373.000000	99.487217 
2372.000000	99.486489 
2371.000000	99.485951 
2370.000000	99.485628 
2369.000000	99.485566 
2368.000000	99.485846 
2367.000000	99.486374 
2366.000000	99.486954 
2365.000000	99.487514 
2364.000000	99.488038 
2363.000000	99.488350 
2362.000000	99.488273 
2361.000000	99.487905 
2360.000000	99.487521 
2359.000000	99.487294 
2358.000000	99.487255 
2357.000000	99.487389 
2356.000000	99.487670 
2355.000000	99.488035 
2354.000000	99.488481 
2353.000000	99.488895 
2352.000000	99.489070 
2351.000000	99.488931 
2350.000000	99.488568 
2349.000000	99.488146 
2348.000000	99.487806 
2347.000000	99.487670 
2346.000000	99.487759 
2345.000000	99.487905 
2344.000000	99.487948 
2343.000000	99.487884 
2342.000000	99.487836 
2341.000000	99.487817 
2340.000000	99.487791 
2339.000000	99.487802 
2338.000000	99.487965 
2337.000000	99.488284 
2336.000000	99.488502 
2335.000000	99.488459 
2334.000000	99.488329 
2333.000000	99.488486 
2332.000000	99.488913 
2331.000000	99.489399 
2330.000000	99.489701 
2329.000000	99.489946 
2328.000000	99.490142 
2327.000000	99.490570 
2326.000000	99.491464 
2325.000000	99.492694 
2324.000000	99.493465 
2323.000000	99.493313 
2322.000000	99.492914 
2321.000000	99.493157 
2320.000000	99.493618 
2319.000000	99.493289 
2318.000000	99.491971 
2317.000000	99.491055 
2316.000000	99.491345 
2315.000000	99.493017 
2314.000000	99.495298 
2313.000000	99.497969 
2312.000000	99.500300 
2311.000000	99.502087 
2310.000000	99.503056 
2309.000000	99.503634 
2308.000000	99.503928 
2307.000000	99.504480 
2306.000000	99.505578 
2305.000000	99.507491 
2304.000000	99.509910 
2303.000000	99.512844 
2302.000000	99.515975 
2301.000000	99.518735 
2300.000000	99.520199 
2299.000000	99.520864 
2298.000000	99.521914 
2297.000000	99.524133 
2296.000000	99.526278 
2295.000000	99.527024 
2294.000000	99.526403 
2293.000000	99.526094 
2292.000000	99.527372 
2291.000000	99.530262 
2290.000000	99.533775 
2289.000000	99.536744 
2288.000000	99.538461 
2287.000000	99.538975 
2286.000000	99.538837 
2285.000000	99.538115 
2284.000000	99.536504 
2283.000000	99.534397 
2282.000000	99.533383 
2281.000000	99.534572 
2280.000000	99.537104 
2279.000000	99.538854 
2278.000000	99.538764 
2277.000000	99.537690 
2276.000000	99.537057 
2275.000000	99.537386 
2274.000000	99.538229 
2273.000000	99.539025 
2272.000000	99.539566 
2271.000000	99.540074 
2270.000000	99.540911 
2269.000000	99.542145 
2268.000000	99.543269 
2267.000000	99.543619 
2266.000000	99.542993 
2265.000000	99.541764 
2264.000000	99.540489 
2263.000000	99.539519 
2262.000000	99.538974 
2261.000000	99.538787 
2260.000000	99.538803 
2259.000000	99.538838 
2258.000000	99.538761 
2257.000000	99.538538 
2256.000000	99.538270 
2255.000000	99.538172 
2254.000000	99.538444 
2253.000000	99.539073 
2252.000000	99.539806 
2251.000000	99.540327 
2250.000000	99.540470 
2249.000000	99.540301 
2248.000000	99.540050 
2247.000000	99.539961 
2246.000000	99.540084 
2245.000000	99.540268 
2244.000000	99.540367 
2243.000000	99.540414 
2242.000000	99.540531 
2241.000000	99.540753 
2240.000000	99.541031 
2239.000000	99.541371 
2238.000000	99.541803 
2237.000000	99.542239 
2236.000000	99.542485 
2235.000000	99.542468 
2234.000000	99.542318 
2233.000000	99.542238 
2232.000000	99.542313 
2231.000000	99.542485 
2230.000000	99.542655 
2229.000000	99.542774 
2228.000000	99.542870 
2227.000000	99.543016 
2226.000000	99.543252 
2225.000000	99.543549 
2224.000000	99.543861 
2223.000000	99.544167 
2222.000000	99.544465 
2221.000000	99.544751 
2220.000000	99.545007 
2219.000000	99.545221 
2218.000000	99.545424 
2217.000000	99.545685 
2216.000000	99.546041 
2215.000000	99.546457 
2214.000000	99.546854 
2213.000000	99.547192 
2212.000000	99.547486 
2211.000000	99.547765 
2210.000000	99.548048 
2209.000000	99.548363 
2208.000000	99.548751 
2207.000000	99.549191 
2206.000000	99.549498 
2205.000000	99.549417 
2204.000000	99.549030 
2203.000000	99.549114 
2202.000000	99.550654 
2201.000000	99.553500 
2200.000000	99.555955 
2199.000000	99.556418 
2198.000000	99.554990 
2197.000000	99.553226 
2196.000000	99.552324 
2195.000000	99.552267 
2194.000000	99.552822 
2193.000000	99.554266 
2192.000000	99.556356 
2191.000000	99.557593 
2190.000000	99.556937 
2189.000000	99.555761 
2188.000000	99.556477 
2187.000000	99.558926 
2186.000000	99.559754 
2185.000000	99.556224 
2184.000000	99.549503 
2183.000000	99.543231 
2182.000000	99.539724 
2181.000000	99.538929 
2180.000000	99.540200 
2179.000000	99.543207 
2178.000000	99.547151 
2177.000000	99.550829 
2176.000000	99.553861 
2175.000000	99.556396 
2174.000000	99.557449 
2173.000000	99.555752 
2172.000000	99.553149 
2171.000000	99.554718 
2170.000000	99.563409 
2169.000000	99.575645 
2168.000000	99.584398 
2167.000000	99.586425 
2166.000000	99.584261 
2165.000000	99.582101 
2164.000000	99.582090 
2163.000000	99.584446 
2162.000000	99.587757 
2161.000000	99.587747 
2160.000000	99.578946 
2159.000000	99.560151 
2158.000000	99.537113 
2157.000000	99.517802 
2156.000000	99.505906 
2155.000000	99.501186 
2154.000000	99.503079 
2153.000000	99.510722 
2152.000000	99.520782 
2151.000000	99.528216 
2150.000000	99.530095 
2149.000000	99.527880 
2148.000000	99.525772 
2147.000000	99.526873 
2146.000000	99.530577 
2145.000000	99.533196 
2144.000000	99.531447 
2143.000000	99.525749 
2142.000000	99.519960 
2141.000000	99.517547 
2140.000000	99.518191 
2139.000000	99.518679 
2138.000000	99.516766 
2137.000000	99.513421 
2136.000000	99.511089 
2135.000000	99.510625 
2134.000000	99.510851 
2133.000000	99.510831 
2132.000000	99.511244 
2131.000000	99.512766 
2130.000000	99.514114 
2129.000000	99.513073 
2128.000000	99.509414 
2127.000000	99.505530 
2126.000000	99.503748 
2125.000000	99.504223 
2124.000000	99.505996 
2123.000000	99.508888 
2122.000000	99.513173 
2121.000000	99.517966 
2120.000000	99.521470 
2119.000000	99.522864 
2118.000000	99.522871 
2117.000000	99.522592 
2116.000000	99.522507 
2115.000000	99.522596 
2114.000000	99.522819 
2113.000000	99.523049 
2112.000000	99.522943 
2111.000000	99.522396 
2110.000000	99.521964 
2109.000000	99.522402 
2108.000000	99.523703 
2107.000000	99.524810 
2106.000000	99.524619 
2105.000000	99.523151 
2104.000000	99.521689 
2103.000000	99.521691 
2102.000000	99.523457 
2101.000000	99.525873 
2100.000000	99.527410 
2099.000000	99.527431 
2098.000000	99.526500 
2097.000000	99.525758 
2096.000000	99.526026 
2095.000000	99.527323 
2094.000000	99.529003 
2093.000000	99.530327 
2092.000000	99.531061 
2091.000000	99.531554 
2090.000000	99.532232 
2089.000000	99.533091 
2088.000000	99.533713 
2087.000000	99.533620 
2086.000000	99.532503 
2085.000000	99.530498 
2084.000000	99.528589 
2083.000000	99.528369 
2082.000000	99.530713 
2081.000000	99.534818 
2080.000000	99.538933 
2079.000000	99.542088 
2078.000000	99.544620 
2077.000000	99.547006 
2076.000000	99.548856 
2075.000000	99.549283 
2074.000000	99.547688 
2073.000000	99.544218 
2072.000000	99.540030 
2071.000000	99.536821 
2070.000000	99.535675 
2069.000000	99.536156 
2068.000000	99.536803 
2067.000000	99.536638 
2066.000000	99.535794 
2065.000000	99.535116 
2064.000000	99.535702 
2063.000000	99.538302 
2062.000000	99.542310 
2061.000000	99.545558 
2060.000000	99.546314 
2059.000000	99.545256 
2058.000000	99.544690 
2057.000000	99.545866 
2056.000000	99.547911 
2055.000000	99.549453 
2054.000000	99.550371 
2053.000000	99.551430 
2052.000000	99.552890 
2051.000000	99.554134 
2050.000000	99.554437 
2049.000000	99.553665 
2048.000000	99.552366 
2047.000000	99.551393 
2046.000000	99.551236 
2045.000000	99.551538 
2044.000000	99.551386 
2043.000000	99.550311 
2042.000000	99.548807 
2041.000000	99.547787 
2040.000000	99.547604 
2039.000000	99.547874 
2038.000000	99.547991 
2037.000000	99.547648 
2036.000000	99.546910 
2035.000000	99.545937 
2034.000000	99.544758 
2033.000000	99.543366 
2032.000000	99.542002 
2031.000000	99.541136 
2030.000000	99.541039 
2029.000000	99.541444 
2028.000000	99.541578 
2027.000000	99.540882 
2026.000000	99.539382 
2025.000000	99.537532 
2024.000000	99.535861 
2023.000000	99.534736 
2022.000000	99.534351 
2021.000000	99.534548 
2020.000000	99.534655 
2019.000000	99.533969 
2018.000000	99.532412 
2017.000000	99.530589 
2016.000000	99.529083 
2015.000000	99.527979 
2014.000000	99.527108 
2013.000000	99.526321 
2012.000000	99.525645 
2011.000000	99.525423 
2010.000000	99.526159 
2009.000000	99.527901 
2008.000000	99.529985 
2007.000000	99.531737 
2006.000000	99.533083 
2005.000000	99.534031 
2004.000000	99.534141 
2003.000000	99.533096 
2002.000000	99.531200 
2001.000000	99.528611 
2000.000000	99.524798 
1999.000000	99.519550 
1998.000000	99.513985 
1997.000000	99.509758 
1996.000000	99.507732 
1995.000000	99.508177 
1994.000000	99.511230 
1993.000000	99.516105 
1992.000000	99.520537 
1991.000000	99.522433 
1990.000000	99.521736 
1989.000000	99.519663 
1988.000000	99.517230 
1987.000000	99.515634 
1986.000000	99.516836 
1985.000000	99.522030 
1984.000000	99.529595 
1983.000000	99.535969 
1982.000000	99.538706 
1981.000000	99.537521 
1980.000000	99.533470 
1979.000000	99.528416 
1978.000000	99.524534 
1977.000000	99.522588 
1976.000000	99.520769 
1975.000000	99.516697 
1974.000000	99.510567 
1973.000000	99.505096 
1972.000000	99.502388 
1971.000000	99.502181 
1970.000000	99.503546 
1969.000000	99.506825 
1968.000000	99.512702 
1967.000000	99.519783 
1966.000000	99.524681 
1965.000000	99.525189 
1964.000000	99.522138 
1963.000000	99.517975 
1962.000000	99.514341 
1961.000000	99.511514 
1960.000000	99.509374 
1959.000000	99.507652 
1958.000000	99.505611 
1957.000000	99.502795 
1956.000000	99.500099 
1955.000000	99.498894 
1954.000000	99.498889 
1953.000000	99.498044 
1952.000000	99.495083 
1951.000000	99.491148 
1950.000000	99.488454 
1949.000000	99.487923 
1948.000000	99.488881 
1947.000000	99.490364 
1946.000000	99.491661 
1945.000000	99.491871 
1944.000000	99.490294 
1943.000000	99.487453 
1942.000000	99.484939 
1941.000000	99.483630 
1940.000000	99.482971 
1939.000000	99.482170 
1938.000000	99.481159 
1937.000000	99.480420 
1936.000000	99.480366 
1935.000000	99.480951 
1934.000000	99.481601 
1933.000000	99.481624 
1932.000000	99.480887 
1931.000000	99.480038 
1930.000000	99.479844 
1929.000000	99.480340 
1928.000000	99.480899 
1927.000000	99.480968 
1926.000000	99.480533 
1925.000000	99.479872 
1924.000000	99.479245 
1923.000000	99.478840 
1922.000000	99.478789 
1921.000000	99.479067 
1920.000000	99.479498 
1919.000000	99.479886 
1918.000000	99.480158 
1917.000000	99.480354 
1916.000000	99.480523 
1915.000000	99.480735 
1914.000000	99.481102 
1913.000000	99.481662 
1912.000000	99.482266 
1911.000000	99.482702 
1910.000000	99.482907 
1909.000000	99.482974 
1908.000000	99.483016 
1907.000000	99.483118 
1906.000000	99.483367 
1905.000000	99.483759 
1904.000000	99.484071 
1903.000000	99.484016 
1902.000000	99.483544 
1901.000000	99.482949 
1900.000000	99.482625 
1899.000000	99.482764 
1898.000000	99.483305 
1897.000000	99.483934 
1896.000000	99.484306 
1895.000000	99.484394 
1894.000000	99.484571 
1893.000000	99.485174 
1892.000000	99.486096 
1891.000000	99.486934 
1890.000000	99.487486 
1889.000000	99.487867 
1888.000000	99.488188 
1887.000000	99.488466 
1886.000000	99.488817 
1885.000000	99.489306 
1884.000000	99.489711 
1883.000000	99.489753 
1882.000000	99.489502 
1881.000000	99.489255 
1880.000000	99.489209 
1879.000000	99.489389 
1878.000000	99.489666 
1877.000000	99.489688 
1876.000000	99.489164 
1875.000000	99.488470 
1874.000000	99.488567 
1873.000000	99.489885 
1872.000000	99.491570 
1871.000000	99.492267 
1870.000000	99.491571 
1869.000000	99.490245 
1868.000000	99.488931 
1867.000000	99.487509 
1866.000000	99.486097 
1865.000000	99.485198 
1864.000000	99.485113 
1863.000000	99.486077 
1862.000000	99.488494 
1861.000000	99.492201 
1860.000000	99.495680 
1859.000000	99.497318 
1858.000000	99.497264 
1857.000000	99.497023 
1856.000000	99.497517 
1855.000000	99.498386 
1854.000000	99.499088 
1853.000000	99.499477 
1852.000000	99.499353 
1851.000000	99.498424 
1850.000000	99.496990 
1849.000000	99.495968 
1848.000000	99.495881 
1847.000000	99.496362 
1846.000000	99.496806 
1845.000000	99.496836 
1844.000000	99.496109 
1843.000000	99.494691 
1842.000000	99.493702 
1841.000000	99.494246 
1840.000000	99.496335 
1839.000000	99.499001 
1838.000000	99.501251 
1837.000000	99.502828 
1836.000000	99.503942 
1835.000000	99.504765 
1834.000000	99.505370 
1833.000000	99.505850 
1832.000000	99.506338 
1831.000000	99.506653 
1830.000000	99.506406 
1829.000000	99.505665 
1828.000000	99.505173 
1827.000000	99.505430 
1826.000000	99.506280 
1825.000000	99.507552 
1824.000000	99.508940 
1823.000000	99.509724 
1822.000000	99.509331 
1821.000000	99.507770 
1820.000000	99.505595 
1819.000000	99.503554 
1818.000000	99.502439 
1817.000000	99.502761 
1816.000000	99.503921 
1815.000000	99.504619 
1814.000000	99.504720 
1813.000000	99.505755 
1812.000000	99.509182 
1811.000000	99.514359 
1810.000000	99.519245 
1809.000000	99.522707 
1808.000000	99.524428 
1807.000000	99.524062 
1806.000000	99.521978 
1805.000000	99.519667 
1804.000000	99.518279 
1803.000000	99.517390 
1802.000000	99.516090 
1801.000000	99.514768 
1800.000000	99.514257 
1799.000000	99.514341 
1798.000000	99.514735 
1797.000000	99.515756 
1796.000000	99.517460 
1795.000000	99.519310 
1794.000000	99.520680 
1793.000000	99.521324 
1792.000000	99.521405 
1791.000000	99.521028 
1790.000000	99.520668 
1789.000000	99.521196 
1788.000000	99.522958 
1787.000000	99.525451 
1786.000000	99.527759 
1785.000000	99.529069 
1784.000000	99.528903 
1783.000000	99.527647 
1782.000000	99.526336 
1781.000000	99.525622 
1780.000000	99.525059 
1779.000000	99.523963 
1778.000000	99.522867 
1777.000000	99.522856 
1776.000000	99.524160 
1775.000000	99.526273 
1774.000000	99.528647 
1773.000000	99.530794 
1772.000000	99.532002 
1771.000000	99.531722 
1770.000000	99.530350 
1769.000000	99.528622 
1768.000000	99.527201 
1767.000000	99.526369 
1766.000000	99.526133 
1765.000000	99.526589 
1764.000000	99.527611 
1763.000000	99.528658 
1762.000000	99.529029 
1761.000000	99.528578 
1760.000000	99.527830 
1759.000000	99.527119 
1758.000000	99.526304 
1757.000000	99.525266 
1756.000000	99.524212 
1755.000000	99.523316 
1754.000000	99.522242 
1753.000000	99.520431 
1752.000000	99.518206 
1751.000000	99.517160 
1750.000000	99.518195 
1749.000000	99.520269 
1748.000000	99.521929 
1747.000000	99.522537 
1746.000000	99.522071 
1745.000000	99.520930 
1744.000000	99.519983 
1743.000000	99.519918 
1742.000000	99.520492 
1741.000000	99.521089 
1740.000000	99.521506 
1739.000000	99.521870 
1738.000000	99.522224 
1737.000000	99.522403 
1736.000000	99.521999 
1735.000000	99.520733 
1734.000000	99.519379 
1733.000000	99.519180 
1732.000000	99.520623 
1731.000000	99.523273 
1730.000000	99.526169 
1729.000000	99.528306 
1728.000000	99.529389 
1727.000000	99.529863 
1726.000000	99.530212 
1725.000000	99.530569 
1724.000000	99.530909 
1723.000000	99.531356 
1722.000000	99.532108 
1721.000000	99.533181 
1720.000000	99.534314 
1719.000000	99.535128 
1718.000000	99.535460 
1717.000000	99.535640 
1716.000000	99.535958 
1715.000000	99.536381 
1714.000000	99.536977 
1713.000000	99.537818 
1712.000000	99.538747 
1711.000000	99.539590 
1710.000000	99.540331 
1709.000000	99.541061 
1708.000000	99.541830 
1707.000000	99.542619 
1706.000000	99.543427 
1705.000000	99.544261 
1704.000000	99.545045 
1703.000000	99.545708 
1702.000000	99.546278 
1701.000000	99.546887 
1700.000000	99.547638 
1699.000000	99.548456 
1698.000000	99.549253 
1697.000000	99.550046 
1696.000000	99.550862 
1695.000000	99.551634 
1694.000000	99.552323 
1693.000000	99.552959 
1692.000000	99.553552 
1691.000000	99.554101 
1690.000000	99.554627 
1689.000000	99.555154 
1688.000000	99.555661 
1687.000000	99.556058 
1686.000000	99.556267 
1685.000000	99.556442 
1684.000000	99.556900 
1683.000000	99.557562 
1682.000000	99.558228 
1681.000000	99.558807 
1680.000000	99.559340 
1679.000000	99.559910 
1678.000000	99.560530 
1677.000000	99.561120 
1676.000000	99.561629 
1675.000000	99.562147 
1674.000000	99.562654 
1673.000000	99.563139 
1672.000000	99.563685 
1671.000000	99.564489 
1670.000000	99.565679 
1669.000000	99.566818 
1668.000000	99.567427 
1667.000000	99.567699 
1666.000000	99.567749 
1665.000000	99.567499 
1664.000000	99.567187 
1663.000000	99.567474 
1662.000000	99.568636 
1661.000000	99.570051 
1660.000000	99.570952 
1659.000000	99.571341 
1658.000000	99.571697 
1657.000000	99.572113 
1656.000000	99.571893 
1655.000000	99.570821 
1654.000000	99.570560 
1653.000000	99.571971 
1652.000000	99.571669 
1651.000000	99.571266 
1650.000000	99.571267 
1649.000000	99.570605 
1648.000000	99.568702 
1647.000000	99.566350 
1646.000000	99.564661 
1645.000000	99.564541 
1644.000000	99.566021 
1643.000000	99.568141 
1642.000000	99.570053 
1641.000000	99.571570 
1640.000000	99.572651 
1639.000000	99.573053 
1638.000000	99.572612 
1637.000000	99.571660 
1636.000000	99.570802 
1635.000000	99.570310 
1634.000000	99.570813 
1633.000000	99.572337 
1632.000000	99.573618 
1631.000000	99.574005 
1630.000000	99.573906 
1629.000000	99.573846 
1628.000000	99.573726 
1627.000000	99.573559 
1626.000000	99.573855 
1625.000000	99.575004 
1624.000000	99.576884 
1623.000000	99.579173 
1622.000000	99.581481 
1621.000000	99.583291 
1620.000000	99.583976 
1619.000000	99.583388 
1618.000000	99.582419 
1617.000000	99.581746 
1616.000000	99.580418 
1615.000000	99.578533 
1614.000000	99.576999 
1613.000000	99.575329 
1612.000000	99.573210 
1611.000000	99.571343 
1610.000000	99.570505 
1609.000000	99.570354 
1608.000000	99.570227 
1607.000000	99.570408 
1606.000000	99.571138 
1605.000000	99.571770 
1604.000000	99.571768 
1603.000000	99.571561 
1602.000000	99.571613 
1601.000000	99.571645 
1600.000000	99.571530 
1599.000000	99.571890 
1598.000000	99.573036 
1597.000000	99.574415 
1596.000000	99.575477 
1595.000000	99.576351 
1594.000000	99.577214 
1593.000000	99.577598 
1592.000000	99.577156 
1591.000000	99.576436 
1590.000000	99.576259 
1589.000000	99.576656 
1588.000000	99.577087 
1587.000000	99.577264 
1586.000000	99.577184 
1585.000000	99.576805 
1584.000000	99.576180 
1583.000000	99.575570 
1582.000000	99.575204 
1581.000000	99.575048 
1580.000000	99.574959 
1579.000000	99.574868 
1578.000000	99.574769 
1577.000000	99.574665 
1576.000000	99.574567 
1575.000000	99.574477 
1574.000000	99.574401 
1573.000000	99.574334 
1572.000000	99.574271 
1571.000000	99.574209 
1570.000000	99.574153 
1569.000000	99.574100 
1568.000000	99.574044 
1567.000000	99.573979 
1566.000000	99.573904 
1565.000000	99.573824 
1564.000000	99.573740 
1563.000000	99.573655 
1562.000000	99.573565 
1561.000000	99.573464 
1560.000000	99.573349 
1559.000000	99.573231 
1558.000000	99.573120 
1557.000000	99.573018 
1556.000000	99.572921 
1555.000000	99.572818 
1554.000000	99.572705 
1553.000000	99.572581 
1552.000000	99.572450 
1551.000000	99.572316 
1550.000000	99.572182 
1549.000000	99.572045 
1548.000000	99.571902 
1547.000000	99.571748 
1546.000000	99.571581 
1545.000000	99.571410 
1544.000000	99.571243 
1543.000000	99.571086 
1542.000000	99.570943 
1541.000000	99.570814 
1540.000000	99.570696 
1539.000000	99.570584 
1538.000000	99.570482 
1537.000000	99.570397 
1536.000000	99.570328 
1535.000000	99.570266 
1534.000000	99.570202 
1533.000000	99.570152 
1532.000000	99.570144 
1531.000000	99.570087 
1530.000000	99.569904 
1529.000000	99.569666 
1528.000000	99.569435 
1527.000000	99.569180 
1526.000000	99.568946 
1525.000000	99.568924 
1524.000000	99.569126 
1523.000000	99.569304 
1522.000000	99.569461 
1521.000000	99.569779 
1520.000000	99.569690 
1519.000000	99.568729 
1518.000000	99.567193 
1517.000000	99.565911 
1516.000000	99.565157 
1515.000000	99.564404 
1514.000000	99.563403 
1513.000000	99.562416 
1512.000000	99.561742 
1511.000000	99.561256 
1510.000000	99.560454 
1509.000000	99.559229 
1508.000000	99.558873 
1507.000000	99.560789 
1506.000000	99.562004 
1505.000000	99.560628 
1504.000000	99.558835 
1503.000000	99.557401 
1502.000000	99.556345 
1501.000000	99.555939 
1500.000000	99.556356 
1499.000000	99.557043 
1498.000000	99.557159 
1497.000000	99.557271 
1496.000000	99.558174 
1495.000000	99.558292 
1494.000000	99.555888 
1493.000000	99.551221 
1492.000000	99.545700 
1491.000000	99.541019 
1490.000000	99.538245 
1489.000000	99.537116 
1488.000000	99.536087 
1487.000000	99.534070 
1486.000000	99.532034 
1485.000000	99.530951 
1484.000000	99.530375 
1483.000000	99.529320 
1482.000000	99.527028 
1481.000000	99.523586 
1480.000000	99.519679 
1479.000000	99.515960 
1478.000000	99.512902 
1477.000000	99.510867 
1476.000000	99.509555 
1475.000000	99.507494 
1474.000000	99.504493 
1473.000000	99.503100 
1472.000000	99.504536 
1471.000000	99.505332 
1470.000000	99.503268 
1469.000000	99.499947 
1468.000000	99.497656 
1467.000000	99.496914 
1466.000000	99.496949 
1465.000000	99.497208 
1464.000000	99.497102 
1463.000000	99.496028 
1462.000000	99.494389 
1461.000000	99.493500 
1460.000000	99.493753 
1459.000000	99.493531 
1458.000000	99.489247 
1457.000000	99.479740 
1456.000000	99.469202 
1455.000000	99.461946 
1454.000000	99.458125 
1453.000000	99.456500 
1452.000000	99.456121 
1451.000000	99.456414 
1450.000000	99.457934 
1449.000000	99.462529 
1448.000000	99.470203 
1447.000000	99.476876 
1446.000000	99.479392 
1445.000000	99.479772 
1444.000000	99.480897 
1443.000000	99.482159 
1442.000000	99.481517 
1441.000000	99.479430 
1440.000000	99.478768 
1439.000000	99.480986 
1438.000000	99.483612 
1437.000000	99.483346 
1436.000000	99.479674 
1435.000000	99.473649 
1434.000000	99.467251 
1433.000000	99.463189 
1432.000000	99.462737 
1431.000000	99.465074 
1430.000000	99.467243 
1429.000000	99.466948 
1428.000000	99.464570 
1427.000000	99.461128 
1426.000000	99.456335 
1425.000000	99.449309 
1424.000000	99.441464 
1423.000000	99.434923 
1422.000000	99.428350 
1421.000000	99.418911 
1420.000000	99.406624 
1419.000000	99.395125 
1418.000000	99.384723 
1417.000000	99.373314 
1416.000000	99.361963 
1415.000000	99.351588 
1414.000000	99.340512 
1413.000000	99.326918 
1412.000000	99.312286 
1411.000000	99.299857 
1410.000000	99.290038 
1409.000000	99.281622 
1408.000000	99.275420 
1407.000000	99.272852 
1406.000000	99.273334 
1405.000000	99.275769 
1404.000000	99.281150 
1403.000000	99.289475 
1402.000000	99.297316 
1401.000000	99.302214 
1400.000000	99.305889 
1399.000000	99.310835 
1398.000000	99.313042 
1397.000000	99.304592 
1396.000000	99.284096 
1395.000000	99.262188 
1394.000000	99.253619 
1393.000000	99.262767 
1392.000000	99.283546 
1391.000000	99.306752 
1390.000000	99.325061 
1389.000000	99.334974 
1388.000000	99.336861 
1387.000000	99.333682 
1386.000000	99.328414 
1385.000000	99.323245 
1384.000000	99.320029 
1383.000000	99.319720 
1382.000000	99.321758 
1381.000000	99.325331 
1380.000000	99.330334 
1379.000000	99.336890 
1378.000000	99.344344 
1377.000000	99.351578 
1376.000000	99.358648 
1375.000000	99.367154 
1374.000000	99.377957 
1373.000000	99.389085 
1372.000000	99.398289 
1371.000000	99.406284 
1370.000000	99.415676 
1369.000000	99.427107 
1368.000000	99.439066 
1367.000000	99.449950 
1366.000000	99.459116 
1365.000000	99.466534 
1364.000000	99.472275 
1363.000000	99.477104 
1362.000000	99.482435 
1361.000000	99.488590 
1360.000000	99.494783 
1359.000000	99.500979 
1358.000000	99.508175 
1357.000000	99.516522 
1356.000000	99.524531 
1355.000000	99.530726 
1354.000000	99.535486 
1353.000000	99.540355 
1352.000000	99.545050 
1351.000000	99.547230 
1350.000000	99.546896 
1349.000000	99.545905 
1348.000000	99.545811 
1347.000000	99.547525 
1346.000000	99.551931 
1345.000000	99.558344 
1344.000000	99.563966 
1343.000000	99.566573 
1342.000000	99.567069 
1341.000000	99.567773 
1340.000000	99.569124 
1339.000000	99.569750 
1338.000000	99.569175 
1337.000000	99.568769 
1336.000000	99.569753 
1335.000000	99.571766 
1334.000000	99.574134 
1333.000000	99.576988 
1332.000000	99.580151 
1331.000000	99.582355 
1330.000000	99.582475 
1329.000000	99.580662 
1328.000000	99.578195 
1327.000000	99.576529 
1326.000000	99.576484 
1325.000000	99.577207 
1324.000000	99.577656 
1323.000000	99.577965 
1322.000000	99.578745 
1321.000000	99.579680 
1320.000000	99.579979 
1319.000000	99.579829 
1318.000000	99.580207 
1317.000000	99.581316 
1316.000000	99.582051 
1315.000000	99.581429 
1314.000000	99.579897 
1313.000000	99.578936 
1312.000000	99.579417 
1311.000000	99.580812 
1310.000000	99.582118 
1309.000000	99.582958 
1308.000000	99.583385 
1307.000000	99.582934 
1306.000000	99.581007 
1305.000000	99.577904 
1304.000000	99.575673 
1303.000000	99.576509 
1302.000000	99.580436 
1301.000000	99.584969 
1300.000000	99.587254 
1299.000000	99.586149 
1298.000000	99.582463 
1297.000000	99.578116 
1296.000000	99.575116 
1295.000000	99.574884 
1294.000000	99.577570 
1293.000000	99.581850 
1292.000000	99.585458 
1291.000000	99.586227 
1290.000000	99.583449 
1289.000000	99.578709 
1288.000000	99.574708 
1287.000000	99.572489 
1286.000000	99.570326 
1285.000000	99.566289 
1284.000000	99.561123 
1283.000000	99.557377 
1282.000000	99.555925 
1281.000000	99.554952 
1280.000000	99.552596 
1279.000000	99.548939 
1278.000000	99.544624 
1277.000000	99.539326 
1276.000000	99.532546 
1275.000000	99.525128 
1274.000000	99.518711 
1273.000000	99.514040 
1272.000000	99.510433 
1271.000000	99.506480 
1270.000000	99.500829 
1269.000000	99.493054 
1268.000000	99.484375 
1267.000000	99.476783 
1266.000000	99.470650 
1265.000000	99.464258 
1264.000000	99.456289 
1263.000000	99.447549 
1262.000000	99.439391 
1261.000000	99.431709 
1260.000000	99.423892 
1259.000000	99.416828 
1258.000000	99.411952 
1257.000000	99.409021 
1256.000000	99.406426 
1255.000000	99.403470 
1254.000000	99.400819 
1253.000000	99.398820 
1252.000000	99.396923 
1251.000000	99.395149 
1250.000000	99.394777 
1249.000000	99.397024 
1248.000000	99.401934 
1247.000000	99.408587 
1246.000000	99.414989 
1245.000000	99.417728 
1244.000000	99.413753 
1243.000000	99.404148 
1242.000000	99.395417 
1241.000000	99.394626 
1240.000000	99.403003 
1239.000000	99.414873 
1238.000000	99.422882 
1237.000000	99.424213 
1236.000000	99.420969 
1235.000000	99.416328 
1234.000000	99.411749 
1233.000000	99.407375 
1232.000000	99.403404 
1231.000000	99.400138 
1230.000000	99.397424 
1229.000000	99.394981 
1228.000000	99.393166 
1227.000000	99.392984 
1226.000000	99.395388 
1225.000000	99.400544 
1224.000000	99.407335 
1223.000000	99.413567 
1222.000000	99.417482 
1221.000000	99.419532 
1220.000000	99.422109 
1219.000000	99.427089 
1218.000000	99.433942 
1217.000000	99.440549 
1216.000000	99.445238 
1215.000000	99.447613 
1214.000000	99.448292 
1213.000000	99.448725 
1212.000000	99.450574 
1211.000000	99.454037 
1210.000000	99.457187 
1209.000000	99.458066 
1208.000000	99.457090 
1207.000000	99.456341 
1206.000000	99.456910 
1205.000000	99.458222 
1204.000000	99.459599 
1203.000000	99.460783 
1202.000000	99.460737 
1201.000000	99.457802 
1200.000000	99.451865 
1199.000000	99.445061 
1198.000000	99.439668 
1197.000000	99.436295 
1196.000000	99.434458 
1195.000000	99.433622 
1194.000000	99.432851 
1193.000000	99.430554 
1192.000000	99.425889 
1191.000000	99.420037 
1190.000000	99.415189 
1189.000000	99.412607 
1188.000000	99.412207 
1187.000000	99.413221 
1186.000000	99.414269 
1185.000000	99.413376 
1184.000000	99.409024 
1183.000000	99.401357 
1182.000000	99.392131 
1181.000000	99.383586 
1180.000000	99.377423 
1179.000000	99.374143 
1178.000000	99.372508 
1177.000000	99.370019 
1176.000000	99.364843 
1175.000000	99.357371 
1174.000000	99.349603 
1173.000000	99.343168 
1172.000000	99.338448 
1171.000000	99.335137 
1170.000000	99.332673 
1169.000000	99.330113 
1168.000000	99.326419 
1167.000000	99.321206 
1166.000000	99.314982 
1165.000000	99.308803 
1164.000000	99.304072 
1163.000000	99.302213 
1162.000000	99.303624 
1161.000000	99.306842 
1160.000000	99.309494 
1159.000000	99.310429 
1158.000000	99.310294 
1157.000000	99.309836 
1156.000000	99.308440 
1155.000000	99.304979 
1154.000000	99.299513 
1153.000000	99.293253 
1152.000000	99.286975 
1151.000000	99.280331 
1150.000000	99.272930 
1149.000000	99.265382 
1148.000000	99.258624 
1147.000000	99.252311 
1146.000000	99.244622 
1145.000000	99.234165 
1144.000000	99.221936 
1143.000000	99.210960 
1142.000000	99.203707 
1141.000000	99.199952 
1140.000000	99.197194 
1139.000000	99.192803 
1138.000000	99.185687 
1137.000000	99.176482 
1136.000000	99.166776 
1135.000000	99.158197 
1134.000000	99.151665 
1133.000000	99.146937 
1132.000000	99.142615 
1131.000000	99.136743 
1130.000000	99.127948 
1129.000000	99.116414 
1128.000000	99.103628 
1127.000000	99.090976 
1126.000000	99.078807 
1125.000000	99.067006 
1124.000000	99.055794 
1123.000000	99.045200 
1122.000000	99.034210 
1121.000000	99.021587 
1120.000000	99.007559 
1119.000000	98.993542 
1118.000000	98.979880 
1117.000000	98.964983 
1116.000000	98.947425 
1115.000000	98.927921 
1114.000000	98.908233 
1113.000000	98.888616 
1112.000000	98.867694 
1111.000000	98.845121 
1110.000000	98.823008 
1109.000000	98.803929 
1108.000000	98.788040 
1107.000000	98.772464 
1106.000000	98.754163 
1105.000000	98.732947 
1104.000000	98.711027 
1103.000000	98.690024 
1102.000000	98.669916 
1101.000000	98.650984 
1100.000000	98.635487 
1099.000000	98.624573 
1098.000000	98.616562 
1097.000000	98.608512 
1096.000000	98.598991 
1095.000000	98.587390 
1094.000000	98.571562 
1093.000000	98.548749 
1092.000000	98.518883 
1091.000000	98.484797 
1090.000000	98.448773 
1089.000000	98.410795 
1088.000000	98.370963 
1087.000000	98.331644 
1086.000000	98.295761 
1085.000000	98.263978 
1084.000000	98.234598 
1083.000000	98.205269 
1082.000000	98.174272 
1081.000000	98.141460 
1080.000000	98.108836 
1079.000000	98.079189 
1078.000000	98.053652 
1077.000000	98.031791 
1076.000000	98.014235 
1075.000000	98.003210 
1074.000000	97.999668 
1073.000000	98.001340 
1072.000000	98.003502 
1071.000000	97.999415 
1070.000000	97.980678 
1069.000000	97.942373 
1068.000000	97.891441 
1067.000000	97.847098 
1066.000000	97.827462 
1065.000000	97.835341 
1064.000000	97.857940 
1063.000000	97.878087 
1062.000000	97.884160 
1061.000000	97.871697 
1060.000000	97.842401 
1059.000000	97.805177 
1058.000000	97.773892 
1057.000000	97.758413 
1056.000000	97.756936 
1055.000000	97.758313 
1054.000000	97.752403 
1053.000000	97.738123 
1052.000000	97.721924 
1051.000000	97.710098 
1050.000000	97.703690 
1049.000000	97.700308 
1048.000000	97.698775 
1047.000000	97.700252 
1046.000000	97.705401 
1045.000000	97.712516 
1044.000000	97.719406 
1043.000000	97.726237 
1042.000000	97.735079 
1041.000000	97.746356 
1040.000000	97.757331 
1039.000000	97.765805 
1038.000000	97.774832 
1037.000000	97.791218 
1036.000000	97.818360 
1035.000000	97.852386 
1034.000000	97.886531 
1033.000000	97.917000 
1032.000000	97.941665 
1031.000000	97.955653 
1030.000000	97.954558 
1029.000000	97.943708 
1028.000000	97.939269 
1027.000000	97.955305 
1026.000000	97.990852 
1025.000000	98.031944 
1024.000000	98.064952 
1023.000000	98.085452 
1022.000000	98.096314 
1021.000000	98.102323 
1020.000000	98.107753 
1019.000000	98.115702 
1018.000000	98.126670 
1017.000000	98.138562 
1016.000000	98.149585 
1015.000000	98.160598 
1014.000000	98.173835 
1013.000000	98.189875 
1012.000000	98.206760 
1011.000000	98.221986 
1010.000000	98.235022 
1009.000000	98.247881 
1008.000000	98.263130 
1007.000000	98.281384 
1006.000000	98.300995 
1005.000000	98.320043 
1004.000000	98.337915 
1003.000000	98.354830 
1002.000000	98.370889 
1001.000000	98.386233 
1000.000000	98.401411 
999.000000	 98.416826 
998.000000	 98.432119 
997.000000	 98.446645 
996.000000	 98.460494 
995.000000	 98.474742 
994.000000	 98.490639 
993.000000	 98.508453 
992.000000	 98.526815 
991.000000	 98.543323 
990.000000	 98.556239 
989.000000	 98.566003 
988.000000	 98.575052 
987.000000	 98.585548 
986.000000	 98.597445 
985.000000	 98.609794 
984.000000	 98.623295 
983.000000	 98.639751 
982.000000	 98.659274 
981.000000	 98.679515 
980.000000	 98.697923 
979.000000	 98.713848 
978.000000	 98.727886 
977.000000	 98.740803 
976.000000	 98.754107 
975.000000	 98.770128 
974.000000	 98.789862 
973.000000	 98.811331 
972.000000	 98.831312 
971.000000	 98.848352 
970.000000	 98.863316 
969.000000	 98.877724 
968.000000	 98.892755 
967.000000	 98.909255 
966.000000	 98.926931 
965.000000	 98.943382 
964.000000	 98.955581 
963.000000	 98.963211 
962.000000	 98.969701 
961.000000	 98.979117 
960.000000	 98.992319 
959.000000	 99.006664 
958.000000	 99.018856 
957.000000	 99.027487 
956.000000	 99.033592 
955.000000	 99.039856 
954.000000	 99.048924 
953.000000	 99.061111 
952.000000	 99.073507 
951.000000	 99.082349 
950.000000	 99.086781 
949.000000	 99.089578 
948.000000	 99.093948 
947.000000	 99.100642 
946.000000	 99.108710 
945.000000	 99.117839 
944.000000	 99.128424 
943.000000	 99.139715 
942.000000	 99.149442 
941.000000	 99.155745 
940.000000	 99.158735 
939.000000	 99.160021 
938.000000	 99.161324 
937.000000	 99.163473 
936.000000	 99.165960 
935.000000	 99.167213 
934.000000	 99.166047 
933.000000	 99.163164 
932.000000	 99.160805 
931.000000	 99.160893 
930.000000	 99.163833 
929.000000	 99.168948 
928.000000	 99.175238 
927.000000	 99.181582 
926.000000	 99.187054 
925.000000	 99.191482 
924.000000	 99.195062 
923.000000	 99.197026 
922.000000	 99.195447 
921.000000	 99.189113 
920.000000	 99.179481 
919.000000	 99.170325 
918.000000	 99.165243 
917.000000	 99.165225 
916.000000	 99.168049 
915.000000	 99.169986 
914.000000	 99.168852 
913.000000	 99.165892 
912.000000	 99.164370 
911.000000	 99.166041 
910.000000	 99.169297 
909.000000	 99.170928 
908.000000	 99.169199 
907.000000	 99.164957 
906.000000	 99.160405 
905.000000	 99.157360 
904.000000	 99.156438 
903.000000	 99.157448 
902.000000	 99.160370 
901.000000	 99.165731 
900.000000	 99.173763 
899.000000	 99.183445 
898.000000	 99.193030 
897.000000	 99.201278 
896.000000	 99.207478 
895.000000	 99.210986 
894.000000	 99.212500 
893.000000	 99.215567 
892.000000	 99.224559 
891.000000	 99.240234 
890.000000	 99.258560 
889.000000	 99.274881 
888.000000	 99.287957 
887.000000	 99.298632 
886.000000	 99.306493 
885.000000	 99.310326 
884.000000	 99.311198 
883.000000	 99.312452 
882.000000	 99.315980 
881.000000	 99.320411 
880.000000	 99.324161 
879.000000	 99.328816 
878.000000	 99.337699 
877.000000	 99.351309 
876.000000	 99.365439 
875.000000	 99.374416 
874.000000	 99.376134 
873.000000	 99.373883 
872.000000	 99.373546 
871.000000	 99.378470 
870.000000	 99.386818 
869.000000	 99.393793 
868.000000	 99.396618 
867.000000	 99.397175 
866.000000	 99.399780 
865.000000	 99.406932 
864.000000	 99.417732 
863.000000	 99.429966 
862.000000	 99.442541 
861.000000	 99.455283 
860.000000	 99.467367 
859.000000	 99.477615 
858.000000	 99.486658 
857.000000	 99.497220 
856.000000	 99.510760 
855.000000	 99.524401 
854.000000	 99.532927 
853.000000	 99.534001 
852.000000	 99.530482 
851.000000	 99.527614 
850.000000	 99.528707 
849.000000	 99.533928 
848.000000	 99.541787 
847.000000	 99.550451 
846.000000	 99.558229 
845.000000	 99.564294 
844.000000	 99.569385 
843.000000	 99.575108 
842.000000	 99.581770 
841.000000	 99.587015 
840.000000	 99.587674 
839.000000	 99.583706 
838.000000	 99.579505 
837.000000	 99.579550 
836.000000	 99.582827 
835.000000	 99.584078 
834.000000	 99.581421 
833.000000	 99.579585 
832.000000	 99.582699 
831.000000	 99.586378 
830.000000	 99.582349 
829.000000	 99.570862 
828.000000	 99.562789 
827.000000	 99.566243 
826.000000	 99.575629 
825.000000	 99.579359 
824.000000	 99.575386 
823.000000	 99.572384 
822.000000	 99.576584 
821.000000	 99.584302 
820.000000	 99.588559 
819.000000	 99.587226 
818.000000	 99.583057 
817.000000	 99.579670 
816.000000	 99.578935 
815.000000	 99.579486 
814.000000	 99.576232 
813.000000	 99.563707 
812.000000	 99.542134 
811.000000	 99.519178 
810.000000	 99.503386 
809.000000	 99.495945 
808.000000	 99.490550 
807.000000	 99.480429 
806.000000	 99.463575 
805.000000	 99.441513 
804.000000	 99.416002 
803.000000	 99.388970 
802.000000	 99.364181 
801.000000	 99.346153 
800.000000	 99.336428 
799.000000	 99.331952 
798.000000	 99.328320 
797.000000	 99.324715 
796.000000	 99.324485 
795.000000	 99.330655 
794.000000	 99.342437 
793.000000	 99.356715 
792.000000	 99.370877 
791.000000	 99.382229 
790.000000	 99.386508 
789.000000	 99.380663 
788.000000	 99.367499 
787.000000	 99.354638 
786.000000	 99.347224 
785.000000	 99.343563 
784.000000	 99.339419 
783.000000	 99.334633 
782.000000	 99.333121 
781.000000	 99.337139 
780.000000	 99.343892 
779.000000	 99.347829 
778.000000	 99.345445 
777.000000	 99.338719 
776.000000	 99.334668 
775.000000	 99.340138 
774.000000	 99.355363 
773.000000	 99.373253 
772.000000	 99.386495 
771.000000	 99.394471 
770.000000	 99.401051 
769.000000	 99.407432 
768.000000	 99.411039 
767.000000	 99.411336 
766.000000	 99.412363 
765.000000	 99.417567 
764.000000	 99.425190 
763.000000	 99.431022 
762.000000	 99.433628 
761.000000	 99.434653 
760.000000	 99.435746 
759.000000	 99.437555 
758.000000	 99.440480 
757.000000	 99.444232 
756.000000	 99.447383 
755.000000	 99.449143 
754.000000	 99.451001 
753.000000	 99.455166 
752.000000	 99.461969 
751.000000	 99.469711 
750.000000	 99.476414 
749.000000	 99.480765 
748.000000	 99.482135 
747.000000	 99.481283 
746.000000	 99.481017 
745.000000	 99.484093 
744.000000	 99.490129 
743.000000	 99.495874 
742.000000	 99.498888 
741.000000	 99.499941 
740.000000	 99.501397 
739.000000	 99.504292 
738.000000	 99.507686 
737.000000	 99.510225 
736.000000	 99.511409 
735.000000	 99.511818 
734.000000	 99.513024 
733.000000	 99.516909 
732.000000	 99.523940 
731.000000	 99.531735 
730.000000	 99.536757 
729.000000	 99.537302 
728.000000	 99.534870 
727.000000	 99.532766 
726.000000	 99.532985 
725.000000	 99.535435 
724.000000	 99.539510 
723.000000	 99.544974 
722.000000	 99.551070 
721.000000	 99.555765 
720.000000	 99.556746 
719.000000	 99.553273 
718.000000	 99.546597 
717.000000	 99.539099 
716.000000	 99.533701 
715.000000	 99.532706 
714.000000	 99.535834 
713.000000	 99.539524 
712.000000	 99.540207 
711.000000	 99.538355 
710.000000	 99.538167 
709.000000	 99.541761 
708.000000	 99.545286 
707.000000	 99.544124 
706.000000	 99.538260 
705.000000	 99.531640 
704.000000	 99.527761 
703.000000	 99.526535 
702.000000	 99.525993 
701.000000	 99.525129 
700.000000	 99.523531 
699.000000	 99.521164 
698.000000	 99.517962 
697.000000	 99.513159 
696.000000	 99.505621 
695.000000	 99.495089 
694.000000	 99.485448 
693.000000	 99.483451 
692.000000	 99.491621 
691.000000	 99.505448 
690.000000	 99.517377 
689.000000	 99.523776 
688.000000	 99.526693 
687.000000	 99.529363 
686.000000	 99.533720 
685.000000	 99.540039 
684.000000	 99.545935 
683.000000	 99.547959 
682.000000	 99.545829 
681.000000	 99.543997 
680.000000	 99.546917 
679.000000	 99.554098 
678.000000	 99.560554 
677.000000	 99.559352 
676.000000	 99.549113 
675.000000	 99.538133 
674.000000	 99.536922 
673.000000	 99.547535 
672.000000	 99.564689 
671.000000	 99.585790 
670.000000	 99.615977 
669.000000	 99.653726 
668.000000	 99.667342 
667.000000	 99.639177 
666.000000	 99.606158 
665.000000	 99.588283 
664.000000	 99.579654 
663.000000	 99.574536 
662.000000	 99.571949 
661.000000	 99.573262 
660.000000	 99.580023 
659.000000	 99.590866 
658.000000	 99.599202 
657.000000	 99.596428 
656.000000	 99.583757 
655.000000	 99.574292 
654.000000	 99.576123 
653.000000	 99.581327 
652.000000	 99.579183 
651.000000	 99.570287 
650.000000	 99.564038 

