4000.000000	98.885598 
3999.000000	98.885084 
3998.000000	98.884556 
3997.000000	98.884033 
3996.000000	98.883516 
3995.000000	98.882999 
3994.000000	98.882484 
3993.000000	98.881983 
3992.000000	98.881492 
3991.000000	98.881004 
3990.000000	98.880526 
3989.000000	98.880064 
3988.000000	98.879602 
3987.000000	98.879137 
3986.000000	98.878710 
3985.000000	98.878336 
3984.000000	98.877986 
3983.000000	98.877624 
3982.000000	98.877230 
3981.000000	98.876814 
3980.000000	98.876386 
3979.000000	98.875961 
3978.000000	98.875547 
3977.000000	98.875145 
3976.000000	98.874750 
3975.000000	98.874361 
3974.000000	98.873978 
3973.000000	98.873604 
3972.000000	98.873243 
3971.000000	98.872894 
3970.000000	98.872553 
3969.000000	98.872219 
3968.000000	98.871894 
3967.000000	98.871578 
3966.000000	98.871272 
3965.000000	98.870976 
3964.000000	98.870690 
3963.000000	98.870415 
3962.000000	98.870152 
3961.000000	98.869898 
3960.000000	98.869655 
3959.000000	98.869424 
3958.000000	98.869201 
3957.000000	98.868987 
3956.000000	98.868783 
3955.000000	98.868589 
3954.000000	98.868399 
3953.000000	98.868208 
3952.000000	98.868016 
3951.000000	98.867823 
3950.000000	98.867638 
3949.000000	98.867469 
3948.000000	98.867323 
3947.000000	98.867203 
3946.000000	98.867103 
3945.000000	98.867016 
3944.000000	98.866938 
3943.000000	98.866868 
3942.000000	98.866810 
3941.000000	98.866766 
3940.000000	98.866732 
3939.000000	98.866705 
3938.000000	98.866684 
3937.000000	98.866669 
3936.000000	98.866659 
3935.000000	98.866654 
3934.000000	98.866652 
3933.000000	98.866654 
3932.000000	98.866661 
3931.000000	98.866676 
3930.000000	98.866699 
3929.000000	98.866729 
3928.000000	98.866761 
3927.000000	98.866790 
3926.000000	98.866821 
3925.000000	98.866863 
3924.000000	98.866924 
3923.000000	98.867000 
3922.000000	98.867078 
3921.000000	98.867150 
3920.000000	98.867219 
3919.000000	98.867299 
3918.000000	98.867397 
3917.000000	98.867506 
3916.000000	98.867617 
3915.000000	98.867727 
3914.000000	98.867835 
3913.000000	98.867943 
3912.000000	98.868044 
3911.000000	98.868135 
3910.000000	98.868221 
3909.000000	98.868310 
3908.000000	98.868399 
3907.000000	98.868472 
3906.000000	98.868516 
3905.000000	98.868534 
3904.000000	98.868539 
3903.000000	98.868546 
3902.000000	98.868555 
3901.000000	98.868553 
3900.000000	98.868528 
3899.000000	98.868483 
3898.000000	98.868434 
3897.000000	98.868392 
3896.000000	98.868353 
3895.000000	98.868304 
3894.000000	98.868241 
3893.000000	98.868163 
3892.000000	98.868070 
3891.000000	98.867965 
3890.000000	98.867854 
3889.000000	98.867746 
3888.000000	98.867641 
3887.000000	98.867533 
3886.000000	98.867425 
3885.000000	98.867334 
3884.000000	98.867270 
3883.000000	98.867217 
3882.000000	98.867149 
3881.000000	98.867054 
3880.000000	98.866945 
3879.000000	98.866845 
3878.000000	98.866762 
3877.000000	98.866684 
3876.000000	98.866593 
3875.000000	98.866481 
3874.000000	98.866359 
3873.000000	98.866247 
3872.000000	98.866150 
3871.000000	98.866061 
3870.000000	98.865981 
3869.000000	98.865925 
3868.000000	98.865900 
3867.000000	98.865892 
3866.000000	98.865890 
3865.000000	98.865905 
3864.000000	98.865958 
3863.000000	98.866049 
3862.000000	98.866154 
3861.000000	98.866254 
3860.000000	98.866352 
3859.000000	98.866455 
3858.000000	98.866567 
3857.000000	98.866691 
3856.000000	98.866823 
3855.000000	98.866958 
3854.000000	98.867103 
3853.000000	98.867283 
3852.000000	98.867515 
3851.000000	98.867797 
3850.000000	98.868111 
3849.000000	98.868439 
3848.000000	98.868769 
3847.000000	98.869093 
3846.000000	98.869407 
3845.000000	98.869702 
3844.000000	98.869968 
3843.000000	98.870191 
3842.000000	98.870373 
3841.000000	98.870528 
3840.000000	98.870681 
3839.000000	98.870847 
3838.000000	98.871028 
3837.000000	98.871211 
3836.000000	98.871384 
3835.000000	98.871541 
3834.000000	98.871689 
3833.000000	98.871834 
3832.000000	98.871980 
3831.000000	98.872123 
3830.000000	98.872257 
3829.000000	98.872376 
3828.000000	98.872479 
3827.000000	98.872562 
3826.000000	98.872627 
3825.000000	98.872685 
3824.000000	98.872743 
3823.000000	98.872790 
3822.000000	98.872805 
3821.000000	98.872785 
3820.000000	98.872752 
3819.000000	98.872724 
3818.000000	98.872697 
3817.000000	98.872657 
3816.000000	98.872608 
3815.000000	98.872574 
3814.000000	98.872567 
3813.000000	98.872576 
3812.000000	98.872577 
3811.000000	98.872561 
3810.000000	98.872525 
3809.000000	98.872468 
3808.000000	98.872389 
3807.000000	98.872295 
3806.000000	98.872206 
3805.000000	98.872140 
3804.000000	98.872101 
3803.000000	98.872078 
3802.000000	98.872074 
3801.000000	98.872110 
3800.000000	98.872200 
3799.000000	98.872330 
3798.000000	98.872465 
3797.000000	98.872592 
3796.000000	98.872715 
3795.000000	98.872847 
3794.000000	98.872987 
3793.000000	98.873130 
3792.000000	98.873275 
3791.000000	98.873419 
3790.000000	98.873562 
3789.000000	98.873706 
3788.000000	98.873860 
3787.000000	98.874021 
3786.000000	98.874181 
3785.000000	98.874336 
3784.000000	98.874486 
3783.000000	98.874629 
3782.000000	98.874753 
3781.000000	98.874846 
3780.000000	98.874913 
3779.000000	98.874967 
3778.000000	98.875005 
3777.000000	98.875019 
3776.000000	98.875010 
3775.000000	98.874989 
3774.000000	98.874962 
3773.000000	98.874923 
3772.000000	98.874857 
3771.000000	98.874760 
3770.000000	98.874644 
3769.000000	98.874515 
3768.000000	98.874368 
3767.000000	98.874188 
3766.000000	98.873971 
3765.000000	98.873727 
3764.000000	98.873467 
3763.000000	98.873188 
3762.000000	98.872882 
3761.000000	98.872548 
3760.000000	98.872197 
3759.000000	98.871832 
3758.000000	98.871443 
3757.000000	98.871019 
3756.000000	98.870564 
3755.000000	98.870078 
3754.000000	98.869552 
3753.000000	98.868979 
3752.000000	98.868281 
3751.000000	98.867497 
3750.000000	98.866607 
3749.000000	98.865452 
3748.000000	98.864465 
3747.000000	98.864422 
3746.000000	98.864716 
3745.000000	98.863268 
3744.000000	98.860201 
3743.000000	98.858298 
3742.000000	98.857944 
3741.000000	98.856701 
3740.000000	98.853349 
3739.000000	98.850333 
3738.000000	98.849720 
3737.000000	98.849371 
3736.000000	98.847285 
3735.000000	98.845876 
3734.000000	98.847174 
3733.000000	98.847773 
3732.000000	98.844819 
3731.000000	98.841308 
3730.000000	98.841241 
3729.000000	98.843231 
3728.000000	98.841713 
3727.000000	98.834534 
3726.000000	98.827115 
3725.000000	98.824803 
3724.000000	98.825513 
3723.000000	98.824505 
3722.000000	98.821774 
3721.000000	98.820561 
3720.000000	98.821538 
3719.000000	98.822295 
3718.000000	98.819444 
3717.000000	98.813116 
3716.000000	98.806825 
3715.000000	98.801367 
3714.000000	98.793177 
3713.000000	98.780604 
3712.000000	98.768804 
3711.000000	98.762437 
3710.000000	98.758043 
3709.000000	98.750462 
3708.000000	98.738667 
3707.000000	98.725093 
3706.000000	98.713134 
3705.000000	98.703539 
3704.000000	98.693517 
3703.000000	98.679993 
3702.000000	98.663483 
3701.000000	98.647347 
3700.000000	98.634661 
3699.000000	98.625792 
3698.000000	98.617085 
3697.000000	98.605496 
3696.000000	98.594459 
3695.000000	98.588634 
3694.000000	98.586124 
3693.000000	98.582534 
3692.000000	98.578669 
3691.000000	98.579356 
3690.000000	98.583879 
3689.000000	98.585319 
3688.000000	98.581917 
3687.000000	98.580157 
3686.000000	98.582988 
3685.000000	98.584371 
3684.000000	98.579406 
3683.000000	98.571892 
3682.000000	98.567000 
3681.000000	98.561040 
3680.000000	98.548322 
3679.000000	98.532142 
3678.000000	98.519481 
3677.000000	98.505638 
3676.000000	98.484552 
3675.000000	98.464351 
3674.000000	98.453132 
3673.000000	98.447663 
3672.000000	98.437521 
3671.000000	98.417728 
3670.000000	98.399742 
3669.000000	98.393727 
3668.000000	98.390663 
3667.000000	98.378662 
3666.000000	98.357321 
3665.000000	98.333107 
3664.000000	98.311492 
3663.000000	98.293369 
3662.000000	98.275728 
3661.000000	98.255983 
3660.000000	98.235671 
3659.000000	98.217410 
3658.000000	98.200996 
3657.000000	98.182577 
3656.000000	98.161588 
3655.000000	98.142119 
3654.000000	98.126172 
3653.000000	98.109455 
3652.000000	98.085479 
3651.000000	98.058172 
3650.000000	98.043781 
3649.000000	98.044923 
3648.000000	98.042107 
3647.000000	98.023769 
3646.000000	97.997359 
3645.000000	97.972984 
3644.000000	97.952960 
3643.000000	97.935465 
3642.000000	97.919759 
3641.000000	97.906387 
3640.000000	97.892960 
3639.000000	97.874982 
3638.000000	97.852654 
3637.000000	97.830953 
3636.000000	97.812062 
3635.000000	97.791252 
3634.000000	97.765692 
3633.000000	97.740538 
3632.000000	97.720967 
3631.000000	97.701941 
3630.000000	97.676771 
3629.000000	97.656582 
3628.000000	97.653370 
3627.000000	97.657739 
3626.000000	97.654067 
3625.000000	97.638457 
3624.000000	97.618933 
3623.000000	97.605992 
3622.000000	97.602154 
3621.000000	97.602591 
3620.000000	97.605820 
3619.000000	97.615193 
3618.000000	97.629467 
3617.000000	97.644665 
3616.000000	97.660930 
3615.000000	97.679185 
3614.000000	97.698489 
3613.000000	97.717625 
3612.000000	97.736031 
3611.000000	97.753710 
3610.000000	97.771632 
3609.000000	97.791815 
3608.000000	97.814360 
3607.000000	97.833814 
3606.000000	97.843183 
3605.000000	97.842706 
3604.000000	97.840287 
3603.000000	97.843883 
3602.000000	97.854695 
3601.000000	97.867343 
3600.000000	97.877937 
3599.000000	97.887076 
3598.000000	97.896853 
3597.000000	97.908412 
3596.000000	97.921575 
3595.000000	97.932898 
3594.000000	97.938514 
3593.000000	97.937939 
3592.000000	97.934975 
3591.000000	97.934552 
3590.000000	97.937875 
3589.000000	97.943145 
3588.000000	97.950202 
3587.000000	97.958991 
3586.000000	97.966219 
3585.000000	97.968969 
3584.000000	97.967576 
3583.000000	97.963679 
3582.000000	97.958692 
3581.000000	97.953145 
3580.000000	97.947724 
3579.000000	97.943912 
3578.000000	97.943167 
3577.000000	97.945254 
3576.000000	97.947708 
3575.000000	97.947378 
3574.000000	97.942829 
3573.000000	97.935863 
3572.000000	97.929491 
3571.000000	97.925134 
3570.000000	97.920961 
3569.000000	97.914191 
3568.000000	97.906746 
3567.000000	97.904075 
3566.000000	97.906340 
3565.000000	97.908400 
3564.000000	97.907343 
3563.000000	97.904730 
3562.000000	97.903506 
3561.000000	97.904404 
3560.000000	97.905005 
3559.000000	97.902572 
3558.000000	97.896821 
3557.000000	97.890036 
3556.000000	97.884827 
3555.000000	97.882156 
3554.000000	97.881028 
3553.000000	97.880071 
3552.000000	97.878708 
3551.000000	97.876674 
3550.000000	97.873265 
3549.000000	97.867889 
3548.000000	97.861606 
3547.000000	97.857023 
3546.000000	97.855597 
3545.000000	97.856121 
3544.000000	97.856397 
3543.000000	97.855275 
3542.000000	97.852858 
3541.000000	97.849757 
3540.000000	97.846573 
3539.000000	97.843696 
3538.000000	97.841238 
3537.000000	97.839092 
3536.000000	97.837069 
3535.000000	97.834989 
3534.000000	97.832800 
3533.000000	97.830564 
3532.000000	97.828367 
3531.000000	97.826262 
3530.000000	97.824255 
3529.000000	97.822317 
3528.000000	97.820396 
3527.000000	97.818470 
3526.000000	97.816571 
3525.000000	97.814744 
3524.000000	97.812996 
3523.000000	97.811274 
3522.000000	97.809507 
3521.000000	97.807672 
3520.000000	97.805831 
3519.000000	97.804067 
3518.000000	97.802392 
3517.000000	97.800705 
3516.000000	97.798872 
3515.000000	97.796842 
3514.000000	97.794709 
3513.000000	97.792676 
3512.000000	97.790919 
3511.000000	97.789496 
3510.000000	97.788317 
3509.000000	97.787118 
3508.000000	97.785588 
3507.000000	97.783574 
3506.000000	97.781215 
3505.000000	97.778914 
3504.000000	97.777092 
3503.000000	97.775874 
3502.000000	97.774947 
3501.000000	97.773761 
3500.000000	97.771919 
3499.000000	97.769340 
3498.000000	97.766293 
3497.000000	97.763371 
3496.000000	97.761200 
3495.000000	97.760028 
3494.000000	97.759553 
3493.000000	97.759205 
3492.000000	97.758576 
3491.000000	97.757543 
3490.000000	97.756148 
3489.000000	97.754447 
3488.000000	97.752450 
3487.000000	97.750121 
3486.000000	97.747388 
3485.000000	97.744197 
3484.000000	97.740593 
3483.000000	97.736784 
3482.000000	97.733144 
3481.000000	97.730037 
3480.000000	97.727546 
3479.000000	97.725378 
3478.000000	97.723097 
3477.000000	97.720504 
3476.000000	97.717701 
3475.000000	97.714808 
3474.000000	97.711778 
3473.000000	97.708610 
3472.000000	97.705477 
3471.000000	97.702447 
3470.000000	97.699276 
3469.000000	97.695659 
3468.000000	97.691608 
3467.000000	97.687531 
3466.000000	97.683925 
3465.000000	97.681000 
3464.000000	97.678500 
3463.000000	97.675845 
3462.000000	97.672505 
3461.000000	97.668347 
3460.000000	97.663743 
3459.000000	97.659357 
3458.000000	97.655751 
3457.000000	97.653016 
3456.000000	97.650648 
3455.000000	97.647919 
3454.000000	97.644515 
3453.000000	97.640693 
3452.000000	97.636912 
3451.000000	97.633318 
3450.000000	97.629637 
3449.000000	97.625552 
3448.000000	97.621050 
3447.000000	97.616411 
3446.000000	97.611967 
3445.000000	97.608053 
3444.000000	97.604982 
3443.000000	97.602758 
3442.000000	97.600728 
3441.000000	97.597846 
3440.000000	97.593553 
3439.000000	97.588314 
3438.000000	97.583282 
3437.000000	97.579191 
3436.000000	97.575865 
3435.000000	97.572800 
3434.000000	97.569880 
3433.000000	97.567259 
3432.000000	97.564841 
3431.000000	97.562167 
3430.000000	97.558777 
3429.000000	97.554686 
3428.000000	97.550487 
3427.000000	97.546938 
3426.000000	97.544288 
3425.000000	97.542087 
3424.000000	97.539733 
3423.000000	97.537178 
3422.000000	97.534955 
3421.000000	97.533497 
3420.000000	97.532546 
3419.000000	97.531298 
3418.000000	97.529174 
3417.000000	97.526403 
3416.000000	97.523821 
3415.000000	97.522013 
3414.000000	97.520558 
3413.000000	97.518253 
3412.000000	97.514293 
3411.000000	97.509323 
3410.000000	97.505236 
3409.000000	97.503692 
3408.000000	97.504798 
3407.000000	97.506973 
3406.000000	97.508162 
3405.000000	97.507421 
3404.000000	97.505178 
3403.000000	97.502270 
3402.000000	97.499216 
3401.000000	97.496361 
3400.000000	97.494145 
3399.000000	97.492717 
3398.000000	97.491634 
3397.000000	97.490395 
3396.000000	97.489194 
3395.000000	97.488876 
3394.000000	97.490076 
3393.000000	97.492541 
3392.000000	97.495207 
3391.000000	97.496853 
3390.000000	97.497008 
3389.000000	97.496364 
3388.000000	97.496138 
3387.000000	97.496832 
3386.000000	97.497732 
3385.000000	97.497736 
3384.000000	97.496476 
3383.000000	97.494537 
3382.000000	97.492907 
3381.000000	97.492296 
3380.000000	97.492717 
3379.000000	97.493470 
3378.000000	97.493764 
3377.000000	97.493517 
3376.000000	97.493317 
3375.000000	97.493599 
3374.000000	97.494198 
3373.000000	97.494787 
3372.000000	97.495319 
3371.000000	97.495907 
3370.000000	97.496700 
3369.000000	97.498061 
3368.000000	97.500437 
3367.000000	97.503776 
3366.000000	97.507277 
3365.000000	97.510020 
3364.000000	97.511726 
3363.000000	97.512684 
3362.000000	97.513313 
3361.000000	97.514037 
3360.000000	97.515232 
3359.000000	97.516894 
3358.000000	97.518508 
3357.000000	97.519628 
3356.000000	97.520546 
3355.000000	97.522027 
3354.000000	97.524337 
3353.000000	97.526882 
3352.000000	97.528867 
3351.000000	97.530186 
3350.000000	97.531463 
3349.000000	97.533330 
3348.000000	97.535798 
3347.000000	97.538354 
3346.000000	97.540503 
3345.000000	97.542184 
3344.000000	97.543638 
3343.000000	97.545130 
3342.000000	97.546800 
3341.000000	97.548699 
3340.000000	97.550807 
3339.000000	97.553023 
3338.000000	97.555201 
3337.000000	97.557261 
3336.000000	97.559220 
3335.000000	97.561141 
3334.000000	97.563073 
3333.000000	97.565052 
3332.000000	97.567105 
3331.000000	97.569231 
3330.000000	97.571403 
3329.000000	97.573581 
3328.000000	97.575747 
3327.000000	97.577903 
3326.000000	97.580054 
3325.000000	97.582203 
3324.000000	97.584348 
3323.000000	97.586480 
3322.000000	97.588593 
3321.000000	97.590685 
3320.000000	97.592757 
3319.000000	97.594808 
3318.000000	97.596844 
3317.000000	97.598892 
3316.000000	97.601001 
3315.000000	97.603203 
3314.000000	97.605483 
3313.000000	97.607775 
3312.000000	97.609993 
3311.000000	97.612083 
3310.000000	97.614060 
3309.000000	97.616017 
3308.000000	97.618043 
3307.000000	97.620138 
3306.000000	97.622242 
3305.000000	97.624349 
3304.000000	97.626544 
3303.000000	97.628899 
3302.000000	97.631376 
3301.000000	97.633852 
3300.000000	97.636222 
3299.000000	97.638447 
3298.000000	97.640558 
3297.000000	97.642647 
3296.000000	97.644817 
3295.000000	97.647093 
3294.000000	97.649394 
3293.000000	97.651618 
3292.000000	97.653774 
3291.000000	97.655989 
3290.000000	97.658359 
3289.000000	97.660854 
3288.000000	97.663348 
3287.000000	97.665726 
3286.000000	97.667975 
3285.000000	97.670183 
3284.000000	97.672461 
3283.000000	97.674815 
3282.000000	97.677142 
3281.000000	97.679319 
3280.000000	97.681304 
3279.000000	97.683175 
3278.000000	97.685142 
3277.000000	97.687440 
3276.000000	97.690167 
3275.000000	97.693169 
3274.000000	97.696121 
3273.000000	97.698831 
3272.000000	97.701351 
3271.000000	97.703836 
3270.000000	97.706360 
3269.000000	97.708909 
3268.000000	97.711483 
3267.000000	97.714097 
3266.000000	97.716705 
3265.000000	97.719249 
3264.000000	97.721754 
3263.000000	97.724297 
3262.000000	97.726894 
3261.000000	97.729500 
3260.000000	97.732103 
3259.000000	97.734755 
3258.000000	97.737458 
3257.000000	97.740115 
3256.000000	97.742643 
3255.000000	97.745115 
3254.000000	97.747735 
3253.000000	97.750653 
3252.000000	97.753846 
3251.000000	97.757137 
3250.000000	97.760321 
3249.000000	97.763284 
3248.000000	97.766055 
3247.000000	97.768808 
3246.000000	97.771760 
3245.000000	97.774993 
3244.000000	97.778389 
3243.000000	97.781709 
3242.000000	97.784805 
3241.000000	97.787715 
3240.000000	97.790613 
3239.000000	97.793659 
3238.000000	97.796911 
3237.000000	97.800345 
3236.000000	97.803905 
3235.000000	97.807515 
3234.000000	97.811065 
3233.000000	97.814458 
3232.000000	97.817673 
3231.000000	97.820776 
3230.000000	97.823893 
3229.000000	97.827129 
3228.000000	97.830515 
3227.000000	97.834002 
3226.000000	97.837501 
3225.000000	97.840951 
3224.000000	97.844357 
3223.000000	97.847723 
3222.000000	97.851013 
3221.000000	97.854217 
3220.000000	97.857410 
3219.000000	97.860692 
3218.000000	97.864083 
3217.000000	97.867542 
3216.000000	97.871038 
3215.000000	97.874549 
3214.000000	97.877985 
3213.000000	97.881197 
3212.000000	97.884153 
3211.000000	97.887052 
3210.000000	97.890211 
3209.000000	97.893789 
3208.000000	97.897635 
3207.000000	97.901412 
3206.000000	97.904897 
3205.000000	97.908102 
3204.000000	97.911096 
3203.000000	97.913806 
3202.000000	97.916173 
3201.000000	97.918465 
3200.000000	97.921246 
3199.000000	97.924941 
3198.000000	97.929457 
3197.000000	97.934245 
3196.000000	97.938669 
3195.000000	97.942311 
3194.000000	97.945071 
3193.000000	97.947201 
3192.000000	97.949196 
3191.000000	97.951421 
3190.000000	97.953794 
3189.000000	97.955987 
3188.000000	97.957989 
3187.000000	97.960395 
3186.000000	97.963925 
3185.000000	97.968672 
3184.000000	97.973839 
3183.000000	97.978335 
3182.000000	97.981678 
3181.000000	97.984326 
3180.000000	97.987220 
3179.000000	97.990983 
3178.000000	97.995504 
3177.000000	98.000183 
3176.000000	98.004466 
3175.000000	98.008192 
3174.000000	98.011546 
3173.000000	98.014813 
3172.000000	98.018188 
3171.000000	98.021730 
3170.000000	98.025433 
3169.000000	98.029255 
3168.000000	98.033019 
3167.000000	98.036392 
3166.000000	98.039132 
3165.000000	98.041397 
3164.000000	98.043711 
3163.000000	98.046616 
3162.000000	98.050266 
3161.000000	98.054307 
3160.000000	98.058093 
3159.000000	98.061132 
3158.000000	98.063471 
3157.000000	98.065664 
3156.000000	98.068324 
3155.000000	98.071579 
3154.000000	98.075014 
3153.000000	98.078111 
3152.000000	98.080699 
3151.000000	98.083018 
3150.000000	98.085445 
3149.000000	98.088198 
3148.000000	98.091256 
3147.000000	98.094476 
3146.000000	98.097732 
3145.000000	98.100954 
3144.000000	98.104074 
3143.000000	98.107020 
3142.000000	98.109791 
3141.000000	98.112516 
3140.000000	98.115342 
3139.000000	98.118255 
3138.000000	98.121083 
3137.000000	98.123712 
3136.000000	98.126207 
3135.000000	98.128741 
3134.000000	98.131429 
3133.000000	98.134253 
3132.000000	98.137120 
3131.000000	98.139932 
3130.000000	98.142649 
3129.000000	98.145285 
3128.000000	98.147890 
3127.000000	98.150507 
3126.000000	98.153147 
3125.000000	98.155795 
3124.000000	98.158437 
3123.000000	98.161072 
3122.000000	98.163712 
3121.000000	98.166359 
3120.000000	98.169002 
3119.000000	98.171626 
3118.000000	98.174244 
3117.000000	98.176886 
3116.000000	98.179565 
3115.000000	98.182260 
3114.000000	98.184927 
3113.000000	98.187542 
3112.000000	98.190121 
3111.000000	98.192688 
3110.000000	98.195231 
3109.000000	98.197711 
3108.000000	98.200117 
3107.000000	98.202491 
3106.000000	98.204909 
3105.000000	98.207415 
3104.000000	98.209961 
3103.000000	98.212426 
3102.000000	98.214746 
3101.000000	98.216984 
3100.000000	98.219264 
3099.000000	98.221603 
3098.000000	98.223904 
3097.000000	98.226094 
3096.000000	98.228225 
3095.000000	98.230409 
3094.000000	98.232721 
3093.000000	98.235174 
3092.000000	98.237702 
3091.000000	98.240155 
3090.000000	98.242397 
3089.000000	98.244440 
3088.000000	98.246470 
3087.000000	98.248689 
3086.000000	98.251118 
3085.000000	98.253593 
3084.000000	98.255965 
3083.000000	98.258208 
3082.000000	98.260324 
3081.000000	98.262319 
3080.000000	98.264309 
3079.000000	98.266512 
3078.000000	98.269041 
3077.000000	98.271744 
3076.000000	98.274266 
3075.000000	98.276262 
3074.000000	98.277638 
3073.000000	98.278659 
3072.000000	98.279793 
3071.000000	98.281315 
3070.000000	98.283126 
3069.000000	98.284990 
3068.000000	98.286826 
3067.000000	98.288666 
3066.000000	98.290480 
3065.000000	98.292248 
3064.000000	98.294117 
3063.000000	98.296283 
3062.000000	98.298740 
3061.000000	98.301258 
3060.000000	98.303570 
3059.000000	98.305560 
3058.000000	98.307426 
3057.000000	98.309623 
3056.000000	98.312355 
3055.000000	98.315093 
3054.000000	98.316997 
3053.000000	98.317962 
3052.000000	98.318952 
3051.000000	98.321036 
3050.000000	98.324371 
3049.000000	98.328351 
3048.000000	98.332313 
3047.000000	98.335761 
3046.000000	98.338215 
3045.000000	98.339438 
3044.000000	98.339801 
3043.000000	98.340063 
3042.000000	98.340764 
3041.000000	98.342036 
3040.000000	98.343660 
3039.000000	98.345059 
3038.000000	98.345561 
3037.000000	98.345158 
3036.000000	98.344832 
3035.000000	98.345644 
3034.000000	98.347591 
3033.000000	98.349694 
3032.000000	98.351083 
3031.000000	98.351728 
3030.000000	98.352200 
3029.000000	98.353121 
3028.000000	98.354818 
3027.000000	98.357146 
3026.000000	98.359512 
3025.000000	98.361294 
3024.000000	98.362306 
3023.000000	98.362711 
3022.000000	98.362590 
3021.000000	98.361921 
3020.000000	98.360997 
3019.000000	98.360537 
3018.000000	98.361158 
3017.000000	98.362839 
3016.000000	98.364890 
3015.000000	98.366396 
3014.000000	98.366850 
3013.000000	98.366519 
3012.000000	98.366203 
3011.000000	98.366396 
3010.000000	98.366752 
3009.000000	98.366561 
3008.000000	98.365654 
3007.000000	98.364626 
3006.000000	98.364171 
3005.000000	98.364416 
3004.000000	98.364904 
3003.000000	98.365005 
3002.000000	98.364349 
3001.000000	98.363061 
3000.000000	98.361734 
2999.000000	98.361000 
2998.000000	98.361001 
2997.000000	98.361357 
2996.000000	98.361628 
2995.000000	98.361717 
2994.000000	98.361714 
2993.000000	98.361491 
2992.000000	98.360707 
2991.000000	98.359235 
2990.000000	98.357490 
2989.000000	98.356259 
2988.000000	98.356120 
2987.000000	98.357077 
2986.000000	98.358680 
2985.000000	98.360337 
2984.000000	98.361514 
2983.000000	98.361803 
2982.000000	98.361133 
2981.000000	98.359966 
2980.000000	98.359002 
2979.000000	98.358534 
2978.000000	98.358250 
2977.000000	98.357709 
2976.000000	98.356685 
2975.000000	98.355015 
2974.000000	98.352605 
2973.000000	98.349895 
2972.000000	98.347922 
2971.000000	98.347429 
2970.000000	98.348148 
2969.000000	98.349261 
2968.000000	98.350215 
2967.000000	98.350693 
2966.000000	98.350209 
2965.000000	98.348520 
2964.000000	98.346353 
2963.000000	98.344990 
2962.000000	98.344880 
2961.000000	98.345113 
2960.000000	98.344450 
2959.000000	98.342648 
2958.000000	98.340764 
2957.000000	98.340416 
2956.000000	98.342613 
2955.000000	98.346935 
2954.000000	98.351885 
2953.000000	98.356348 
2952.000000	98.360430 
2951.000000	98.364432 
2950.000000	98.367455 
2949.000000	98.367977 
2948.000000	98.365923 
2947.000000	98.363411 
2946.000000	98.363007 
2945.000000	98.365442 
2944.000000	98.369090 
2943.000000	98.371374 
2942.000000	98.370665 
2941.000000	98.367258 
2940.000000	98.362724 
2939.000000	98.358165 
2938.000000	98.353255 
2937.000000	98.347334 
2936.000000	98.341028 
2935.000000	98.335909 
2934.000000	98.332492 
2933.000000	98.329447 
2932.000000	98.325139 
2931.000000	98.319294 
2930.000000	98.312675 
2929.000000	98.305760 
2928.000000	98.298575 
2927.000000	98.291685 
2926.000000	98.286469 
2925.000000	98.283898 
2924.000000	98.283328 
2923.000000	98.283005 
2922.000000	98.281847 
2921.000000	98.280313 
2920.000000	98.279174 
2919.000000	98.278040 
2918.000000	98.276154 
2917.000000	98.274753 
2916.000000	98.277325 
2915.000000	98.286486 
2914.000000	98.300929 
2913.000000	98.316250 
2912.000000	98.328967 
2911.000000	98.338975 
2910.000000	98.347913 
2909.000000	98.356360 
2908.000000	98.363372 
2907.000000	98.368131 
2906.000000	98.371102 
2905.000000	98.373475 
2904.000000	98.376061 
2903.000000	98.379169 
2902.000000	98.383193 
2901.000000	98.388732 
2900.000000	98.395888 
2899.000000	98.403530 
2898.000000	98.409842 
2897.000000	98.413767 
2896.000000	98.415730 
2895.000000	98.416795 
2894.000000	98.417454 
2893.000000	98.417633 
2892.000000	98.417718 
2891.000000	98.418965 
2890.000000	98.422610 
2889.000000	98.428678 
2888.000000	98.435746 
2887.000000	98.441839 
2886.000000	98.445678 
2885.000000	98.447349 
2884.000000	98.447934 
2883.000000	98.448590 
2882.000000	98.450072 
2881.000000	98.452776 
2880.000000	98.456553 
2879.000000	98.460243 
2878.000000	98.462101 
2877.000000	98.461429 
2876.000000	98.459652 
2875.000000	98.459180 
2874.000000	98.461172 
2873.000000	98.464777 
2872.000000	98.468378 
2871.000000	98.470990 
2870.000000	98.472450 
2869.000000	98.473022 
2868.000000	98.473231 
2867.000000	98.473694 
2866.000000	98.474720 
2865.000000	98.476168 
2864.000000	98.477696 
2863.000000	98.478914 
2862.000000	98.479380 
2861.000000	98.478945 
2860.000000	98.478140 
2859.000000	98.477628 
2858.000000	98.477076 
2857.000000	98.475180 
2856.000000	98.471215 
2855.000000	98.466054 
2854.000000	98.461180 
2853.000000	98.457105 
2852.000000	98.453530 
2851.000000	98.450908 
2850.000000	98.450985 
2849.000000	98.455383 
2848.000000	98.464072 
2847.000000	98.475525 
2846.000000	98.488054 
2845.000000	98.500533 
2844.000000	98.511949 
2843.000000	98.521174 
2842.000000	98.527887 
2841.000000	98.533290 
2840.000000	98.539005 
2839.000000	98.545073 
2838.000000	98.549766 
2837.000000	98.551771 
2836.000000	98.551965 
2835.000000	98.552502 
2834.000000	98.554576 
2833.000000	98.557787 
2832.000000	98.561398 
2831.000000	98.565223 
2830.000000	98.569075 
2829.000000	98.572237 
2828.000000	98.574049 
2827.000000	98.574725 
2826.000000	98.575151 
2825.000000	98.576072 
2824.000000	98.577676 
2823.000000	98.579751 
2822.000000	98.581941 
2821.000000	98.583955 
2820.000000	98.585724 
2819.000000	98.587355 
2818.000000	98.588911 
2817.000000	98.590396 
2816.000000	98.591985 
2815.000000	98.594007 
2814.000000	98.596550 
2813.000000	98.599276 
2812.000000	98.601828 
2811.000000	98.604279 
2810.000000	98.606972 
2809.000000	98.609974 
2808.000000	98.612824 
2807.000000	98.614863 
2806.000000	98.615765 
2805.000000	98.615750 
2804.000000	98.615301 
2803.000000	98.614680 
2802.000000	98.613809 
2801.000000	98.612707 
2800.000000	98.611902 
2799.000000	98.612140 
2798.000000	98.613607 
2797.000000	98.615659 
2796.000000	98.617480 
2795.000000	98.618868 
2794.000000	98.620190 
2793.000000	98.621607 
2792.000000	98.622637 
2791.000000	98.622598 
2790.000000	98.621367 
2789.000000	98.619571 
2788.000000	98.618165 
2787.000000	98.617912 
2786.000000	98.619171 
2785.000000	98.621800 
2784.000000	98.625064 
2783.000000	98.627915 
2782.000000	98.629741 
2781.000000	98.630776 
2780.000000	98.631632 
2779.000000	98.632534 
2778.000000	98.633250 
2777.000000	98.633691 
2776.000000	98.634172 
2775.000000	98.634974 
2774.000000	98.635978 
2773.000000	98.636901 
2772.000000	98.637669 
2771.000000	98.638395 
2770.000000	98.639135 
2769.000000	98.639861 
2768.000000	98.640580 
2767.000000	98.641311 
2766.000000	98.642022 
2765.000000	98.642669 
2764.000000	98.643285 
2763.000000	98.643956 
2762.000000	98.644737 
2761.000000	98.645621 
2760.000000	98.646553 
2759.000000	98.647468 
2758.000000	98.648337 
2757.000000	98.649175 
2756.000000	98.650017 
2755.000000	98.650867 
2754.000000	98.651688 
2753.000000	98.652460 
2752.000000	98.653217 
2751.000000	98.654021 
2750.000000	98.654894 
2749.000000	98.655807 
2748.000000	98.656712 
2747.000000	98.657598 
2746.000000	98.658482 
2745.000000	98.659363 
2744.000000	98.660214 
2743.000000	98.661011 
2742.000000	98.661756 
2741.000000	98.662469 
2740.000000	98.663186 
2739.000000	98.663952 
2738.000000	98.664800 
2737.000000	98.665698 
2736.000000	98.666536 
2735.000000	98.667210 
2734.000000	98.667718 
2733.000000	98.668186 
2732.000000	98.668754 
2731.000000	98.669457 
2730.000000	98.670242 
2729.000000	98.671066 
2728.000000	98.671943 
2727.000000	98.672845 
2726.000000	98.673649 
2725.000000	98.674226 
2724.000000	98.674604 
2723.000000	98.674970 
2722.000000	98.675485 
2721.000000	98.676134 
2720.000000	98.676811 
2719.000000	98.677508 
2718.000000	98.678340 
2717.000000	98.679387 
2716.000000	98.680517 
2715.000000	98.681409 
2714.000000	98.681768 
2713.000000	98.681604 
2712.000000	98.681365 
2711.000000	98.681677 
2710.000000	98.682799 
2709.000000	98.684269 
2708.000000	98.685189 
2707.000000	98.685013 
2706.000000	98.683982 
2705.000000	98.682808 
2704.000000	98.682027 
2703.000000	98.681734 
2702.000000	98.681802 
2701.000000	98.682113 
2700.000000	98.682601 
2699.000000	98.683234 
2698.000000	98.683992 
2697.000000	98.684746 
2696.000000	98.685197 
2695.000000	98.685095 
2694.000000	98.684585 
2693.000000	98.684191 
2692.000000	98.684366 
2691.000000	98.685106 
2690.000000	98.685936 
2689.000000	98.686126 
2688.000000	98.685048 
2687.000000	98.682719 
2686.000000	98.680130 
2685.000000	98.678600 
2684.000000	98.678489 
2683.000000	98.678850 
2682.000000	98.678728 
2681.000000	98.678509 
2680.000000	98.679406 
2679.000000	98.681815 
2678.000000	98.684925 
2677.000000	98.687940 
2676.000000	98.690799 
2675.000000	98.693304 
2674.000000	98.694439 
2673.000000	98.693434 
2672.000000	98.691060 
2671.000000	98.689041 
2670.000000	98.688096 
2669.000000	98.687262 
2668.000000	98.685382 
2667.000000	98.682536 
2666.000000	98.679704 
2665.000000	98.677444 
2664.000000	98.675291 
2663.000000	98.672395 
2662.000000	98.668544 
2661.000000	98.664577 
2660.000000	98.661835 
2659.000000	98.661081 
2658.000000	98.661759 
2657.000000	98.662345 
2656.000000	98.661527 
2655.000000	98.659097 
2654.000000	98.655819 
2653.000000	98.652719 
2652.000000	98.650553 
2651.000000	98.649649 
2650.000000	98.649826 
2649.000000	98.650354 
2648.000000	98.650282 
2647.000000	98.649041 
2646.000000	98.646779 
2645.000000	98.644094 
2644.000000	98.641514 
2643.000000	98.639302 
2642.000000	98.637637 
2641.000000	98.636728 
2640.000000	98.636727 
2639.000000	98.637589 
2638.000000	98.639023 
2637.000000	98.640449 
2636.000000	98.641093 
2635.000000	98.640422 
2634.000000	98.638610 
2633.000000	98.636431 
2632.000000	98.634602 
2631.000000	98.633373 
2630.000000	98.632795 
2629.000000	98.632959 
2628.000000	98.633662 
2627.000000	98.634161 
2626.000000	98.633812 
2625.000000	98.633006 
2624.000000	98.632965 
2623.000000	98.634439 
2622.000000	98.636889 
2621.000000	98.638999 
2620.000000	98.639855 
2619.000000	98.639497 
2618.000000	98.638673 
2617.000000	98.638306 
2616.000000	98.638867 
2615.000000	98.640046 
2614.000000	98.641030 
2613.000000	98.641315 
2612.000000	98.641200 
2611.000000	98.641349 
2610.000000	98.641968 
2609.000000	98.642637 
2608.000000	98.642931 
2607.000000	98.642943 
2606.000000	98.643074 
2605.000000	98.643493 
2604.000000	98.644003 
2603.000000	98.644371 
2602.000000	98.644606 
2601.000000	98.644878 
2600.000000	98.645296 
2599.000000	98.645853 
2598.000000	98.646501 
2597.000000	98.647207 
2596.000000	98.647926 
2595.000000	98.648609 
2594.000000	98.649247 
2593.000000	98.649878 
2592.000000	98.650535 
2591.000000	98.651215 
2590.000000	98.651899 
2589.000000	98.652578 
2588.000000	98.653250 
2587.000000	98.653905 
2586.000000	98.654543 
2585.000000	98.655169 
2584.000000	98.655791 
2583.000000	98.656412 
2582.000000	98.657029 
2581.000000	98.657632 
2580.000000	98.658220 
2579.000000	98.658798 
2578.000000	98.659378 
2577.000000	98.659969 
2576.000000	98.660573 
2575.000000	98.661183 
2574.000000	98.661790 
2573.000000	98.662391 
2572.000000	98.662987 
2571.000000	98.663585 
2570.000000	98.664183 
2569.000000	98.664780 
2568.000000	98.665372 
2567.000000	98.665962 
2566.000000	98.666558 
2565.000000	98.667163 
2564.000000	98.667774 
2563.000000	98.668383 
2562.000000	98.668980 
2561.000000	98.669563 
2560.000000	98.670135 
2559.000000	98.670701 
2558.000000	98.671262 
2557.000000	98.671814 
2556.000000	98.672354 
2555.000000	98.672880 
2554.000000	98.673402 
2553.000000	98.673933 
2552.000000	98.674481 
2551.000000	98.675017 
2550.000000	98.675494 
2549.000000	98.675880 
2548.000000	98.676204 
2547.000000	98.676525 
2546.000000	98.676864 
2545.000000	98.677202 
2544.000000	98.677548 
2543.000000	98.677955 
2542.000000	98.678436 
2541.000000	98.678934 
2540.000000	98.679396 
2539.000000	98.679845 
2538.000000	98.680320 
2537.000000	98.680797 
2536.000000	98.681204 
2535.000000	98.681500 
2534.000000	98.681716 
2533.000000	98.681942 
2532.000000	98.682276 
2531.000000	98.682756 
2530.000000	98.683346 
2529.000000	98.683923 
2528.000000	98.684367 
2527.000000	98.684666 
2526.000000	98.684911 
2525.000000	98.685183 
2524.000000	98.685445 
2523.000000	98.685598 
2522.000000	98.685619 
2521.000000	98.685609 
2520.000000	98.685692 
2519.000000	98.685905 
2518.000000	98.686192 
2517.000000	98.686473 
2516.000000	98.686709 
2515.000000	98.686908 
2514.000000	98.687088 
2513.000000	98.687262 
2512.000000	98.687435 
2511.000000	98.687582 
2510.000000	98.687648 
2509.000000	98.687630 
2508.000000	98.687638 
2507.000000	98.687827 
2506.000000	98.688232 
2505.000000	98.688714 
2504.000000	98.689099 
2503.000000	98.689327 
2502.000000	98.689469 
2501.000000	98.689633 
2500.000000	98.689872 
2499.000000	98.690163 
2498.000000	98.690452 
2497.000000	98.690694 
2496.000000	98.690896 
2495.000000	98.691078 
2494.000000	98.691211 
2493.000000	98.691235 
2492.000000	98.691148 
2491.000000	98.691052 
2490.000000	98.691057 
2489.000000	98.691175 
2488.000000	98.691330 
2487.000000	98.691442 
2486.000000	98.691494 
2485.000000	98.691506 
2484.000000	98.691508 
2483.000000	98.691545 
2482.000000	98.691684 
2481.000000	98.691966 
2480.000000	98.692328 
2479.000000	98.692616 
2478.000000	98.692736 
2477.000000	98.692772 
2476.000000	98.692900 
2475.000000	98.693152 
2474.000000	98.693348 
2473.000000	98.693296 
2472.000000	98.693031 
2471.000000	98.692823 
2470.000000	98.692929 
2469.000000	98.693355 
2468.000000	98.693802 
2467.000000	98.693910 
2466.000000	98.693615 
2465.000000	98.693250 
2464.000000	98.693224 
2463.000000	98.693538 
2462.000000	98.693714 
2461.000000	98.693293 
2460.000000	98.692329 
2459.000000	98.691444 
2458.000000	98.691221 
2457.000000	98.691700 
2456.000000	98.692389 
2455.000000	98.692760 
2454.000000	98.692719 
2453.000000	98.692593 
2452.000000	98.692807 
2451.000000	98.693486 
2450.000000	98.694271 
2449.000000	98.694571 
2448.000000	98.694128 
2447.000000	98.693338 
2446.000000	98.692895 
2445.000000	98.693096 
2444.000000	98.693682 
2443.000000	98.694354 
2442.000000	98.695222 
2441.000000	98.696594 
2440.000000	98.698482 
2439.000000	98.700501 
2438.000000	98.702164 
2437.000000	98.703213 
2436.000000	98.703709 
2435.000000	98.704007 
2434.000000	98.704611 
2433.000000	98.705878 
2432.000000	98.707747 
2431.000000	98.709736 
2430.000000	98.711297 
2429.000000	98.712248 
2428.000000	98.712885 
2427.000000	98.713667 
2426.000000	98.714746 
2425.000000	98.715824 
2424.000000	98.716472 
2423.000000	98.716608 
2422.000000	98.716674 
2421.000000	98.717364 
2420.000000	98.719069 
2419.000000	98.721641 
2418.000000	98.724632 
2417.000000	98.727682 
2416.000000	98.730608 
2415.000000	98.733104 
2414.000000	98.734676 
2413.000000	98.734959 
2412.000000	98.734158 
2411.000000	98.733323 
2410.000000	98.734061 
2409.000000	98.737494 
2408.000000	98.742942 
2407.000000	98.747882 
2406.000000	98.750113 
2405.000000	98.749972 
2404.000000	98.749781 
2403.000000	98.751111 
2402.000000	98.753522 
2401.000000	98.756097 
2400.000000	98.758990 
2399.000000	98.762614 
2398.000000	98.766204 
2397.000000	98.768425 
2396.000000	98.769121 
2395.000000	98.769346 
2394.000000	98.769669 
2393.000000	98.769419 
2392.000000	98.767934 
2391.000000	98.765869 
2390.000000	98.764876 
2389.000000	98.766172 
2388.000000	98.769559 
2387.000000	98.773859 
2386.000000	98.778215 
2385.000000	98.783086 
2384.000000	98.789859 
2383.000000	98.799377 
2382.000000	98.811062 
2381.000000	98.823327 
2380.000000	98.834364 
2379.000000	98.842422 
2378.000000	98.846258 
2377.000000	98.846177 
2376.000000	98.844151 
2375.000000	98.842349 
2374.000000	98.841574 
2373.000000	98.841417 
2372.000000	98.841534 
2371.000000	98.842096 
2370.000000	98.843620 
2369.000000	98.846856 
2368.000000	98.851930 
2367.000000	98.856833 
2366.000000	98.858301 
2365.000000	98.855739 
2364.000000	98.852079 
2363.000000	98.849885 
2362.000000	98.850008 
2361.000000	98.851541 
2360.000000	98.852942 
2359.000000	98.854236 
2358.000000	98.855313 
2357.000000	98.856801 
2356.000000	98.858832 
2355.000000	98.860451 
2354.000000	98.861791 
2353.000000	98.863418 
2352.000000	98.867453 
2351.000000	98.871601 
2350.000000	98.870111 
2349.000000	98.861009 
2348.000000	98.848110 
2347.000000	98.839465 
2346.000000	98.836671 
2345.000000	98.835571 
2344.000000	98.832177 
2343.000000	98.826271 
2342.000000	98.821830 
2341.000000	98.819026 
2340.000000	98.816849 
2339.000000	98.814582 
2338.000000	98.813701 
2337.000000	98.814705 
2336.000000	98.815938 
2335.000000	98.815372 
2334.000000	98.813102 
2333.000000	98.810093 
2332.000000	98.807349 
2331.000000	98.804504 
2330.000000	98.799684 
2329.000000	98.791687 
2328.000000	98.777009 
2327.000000	98.756184 
2326.000000	98.731191 
2325.000000	98.708876 
2324.000000	98.695250 
2323.000000	98.692244 
2322.000000	98.696860 
2321.000000	98.702478 
2320.000000	98.705995 
2319.000000	98.707788 
2318.000000	98.709761 
2317.000000	98.711707 
2316.000000	98.712809 
2315.000000	98.714130 
2314.000000	98.716821 
2313.000000	98.720599 
2312.000000	98.722089 
2311.000000	98.719582 
2310.000000	98.713575 
2309.000000	98.707730 
2308.000000	98.704233 
2307.000000	98.703435 
2306.000000	98.702954 
2305.000000	98.701119 
2304.000000	98.697739 
2303.000000	98.694344 
2302.000000	98.691695 
2301.000000	98.689498 
2300.000000	98.686479 
2299.000000	98.682100 
2298.000000	98.676194 
2297.000000	98.669984 
2296.000000	98.664613 
2295.000000	98.660614 
2294.000000	98.655978 
2293.000000	98.648616 
2292.000000	98.638434 
2291.000000	98.628291 
2290.000000	98.620787 
2289.000000	98.616461 
2288.000000	98.614421 
2287.000000	98.614202 
2286.000000	98.615842 
2285.000000	98.618932 
2284.000000	98.622407 
2283.000000	98.624645 
2282.000000	98.624155 
2281.000000	98.620990 
2280.000000	98.618244 
2279.000000	98.620113 
2278.000000	98.628226 
2277.000000	98.640185 
2276.000000	98.652213 
2275.000000	98.662075 
2274.000000	98.668987 
2273.000000	98.672461 
2272.000000	98.672564 
2271.000000	98.670494 
2270.000000	98.667342 
2269.000000	98.663150 
2268.000000	98.658222 
2267.000000	98.654498 
2266.000000	98.654076 
2265.000000	98.656829 
2264.000000	98.660490 
2263.000000	98.662883 
2262.000000	98.663063 
2261.000000	98.661044 
2260.000000	98.657680 
2259.000000	98.654613 
2258.000000	98.653307 
2257.000000	98.653799 
2256.000000	98.655189 
2255.000000	98.656994 
2254.000000	98.659413 
2253.000000	98.662264 
2252.000000	98.664762 
2251.000000	98.666630 
2250.000000	98.668470 
2249.000000	98.670646 
2248.000000	98.672408 
2247.000000	98.672814 
2246.000000	98.672120 
2245.000000	98.671540 
2244.000000	98.671848 
2243.000000	98.672759 
2242.000000	98.673603 
2241.000000	98.674130 
2240.000000	98.674569 
2239.000000	98.675194 
2238.000000	98.676073 
2237.000000	98.677165 
2236.000000	98.678406 
2235.000000	98.679656 
2234.000000	98.680639 
2233.000000	98.681143 
2232.000000	98.681228 
2231.000000	98.681140 
2230.000000	98.681117 
2229.000000	98.681270 
2228.000000	98.681617 
2227.000000	98.682111 
2226.000000	98.682642 
2225.000000	98.683087 
2224.000000	98.683414 
2223.000000	98.683677 
2222.000000	98.683916 
2221.000000	98.684092 
2220.000000	98.684216 
2219.000000	98.684418 
2218.000000	98.684793 
2217.000000	98.685292 
2216.000000	98.685829 
2215.000000	98.686372 
2214.000000	98.686864 
2213.000000	98.687182 
2212.000000	98.687326 
2211.000000	98.687570 
2210.000000	98.688186 
2209.000000	98.688934 
2208.000000	98.689081 
2207.000000	98.688130 
2206.000000	98.686571 
2205.000000	98.685553 
2204.000000	98.685970 
2203.000000	98.687879 
2202.000000	98.690331 
2201.000000	98.692163 
2200.000000	98.692618 
2199.000000	98.691538 
2198.000000	98.689085 
2197.000000	98.685526 
2196.000000	98.681806 
2195.000000	98.679767 
2194.000000	98.680770 
2193.000000	98.684033 
2192.000000	98.687273 
2191.000000	98.689114 
2190.000000	98.689805 
2189.000000	98.689728 
2188.000000	98.688706 
2187.000000	98.687085 
2186.000000	98.686056 
2185.000000	98.686091 
2184.000000	98.686221 
2183.000000	98.685946 
2182.000000	98.687140 
2181.000000	98.692653 
2180.000000	98.702823 
2179.000000	98.714087 
2178.000000	98.721449 
2177.000000	98.722404 
2176.000000	98.718553 
2175.000000	98.713702 
2174.000000	98.710668 
2173.000000	98.710110 
2172.000000	98.711508 
2171.000000	98.713837 
2170.000000	98.715403 
2169.000000	98.714912 
2168.000000	98.713648 
2167.000000	98.714952 
2166.000000	98.719788 
2165.000000	98.723748 
2164.000000	98.720961 
2163.000000	98.711946 
2162.000000	98.706039 
2161.000000	98.714433 
2160.000000	98.741006 
2159.000000	98.778972 
2158.000000	98.815218 
2157.000000	98.840068 
2156.000000	98.851986 
2155.000000	98.854077 
2154.000000	98.849590 
2153.000000	98.841321 
2152.000000	98.832715 
2151.000000	98.826747 
2150.000000	98.824192 
2149.000000	98.824801 
2148.000000	98.829585 
2147.000000	98.839421 
2146.000000	98.851057 
2145.000000	98.857434 
2144.000000	98.854050 
2143.000000	98.843495 
2142.000000	98.832635 
2141.000000	98.826432 
2140.000000	98.825516 
2139.000000	98.828456 
2138.000000	98.834215 
2137.000000	98.842482 
2136.000000	98.852940 
2135.000000	98.864421 
2134.000000	98.874394 
2133.000000	98.879914 
2132.000000	98.879804 
2131.000000	98.875494 
2130.000000	98.869371 
2129.000000	98.862749 
2128.000000	98.855686 
2127.000000	98.848162 
2126.000000	98.840878 
2125.000000	98.835058 
2124.000000	98.831410 
2123.000000	98.828911 
2122.000000	98.824909 
2121.000000	98.817497 
2120.000000	98.807959 
2119.000000	98.799933 
2118.000000	98.796131 
2117.000000	98.796404 
2116.000000	98.798868 
2115.000000	98.801283 
2114.000000	98.800770 
2113.000000	98.795206 
2112.000000	98.786467 
2111.000000	98.779892 
2110.000000	98.778872 
2109.000000	98.781482 
2108.000000	98.783672 
2107.000000	98.784229 
2106.000000	98.784379 
2105.000000	98.784125 
2104.000000	98.782292 
2103.000000	98.779683 
2102.000000	98.778844 
2101.000000	98.780164 
2100.000000	98.781003 
2099.000000	98.779786 
2098.000000	98.778744 
2097.000000	98.781118 
2096.000000	98.786972 
2095.000000	98.793041 
2094.000000	98.795874 
2093.000000	98.794046 
2092.000000	98.788448 
2091.000000	98.781643 
2090.000000	98.776273 
2089.000000	98.773556 
2088.000000	98.772821 
2087.000000	98.772540 
2086.000000	98.771744 
2085.000000	98.770303 
2084.000000	98.768313 
2083.000000	98.765818 
2082.000000	98.763268 
2081.000000	98.761708 
2080.000000	98.761968 
2079.000000	98.763753 
2078.000000	98.765789 
2077.000000	98.766964 
2076.000000	98.767185 
2075.000000	98.767067 
2074.000000	98.767163 
2073.000000	98.767662 
2072.000000	98.768456 
2071.000000	98.769154 
2070.000000	98.769236 
2069.000000	98.768502 
2068.000000	98.767356 
2067.000000	98.766510 
2066.000000	98.766434 
2065.000000	98.767242 
2064.000000	98.768854 
2063.000000	98.770947 
2062.000000	98.772892 
2061.000000	98.774157 
2060.000000	98.774847 
2059.000000	98.775567 
2058.000000	98.776711 
2057.000000	98.778163 
2056.000000	98.779640 
2055.000000	98.780866 
2054.000000	98.781332 
2053.000000	98.780489 
2052.000000	98.778738 
2051.000000	98.777973 
2050.000000	98.780080 
2049.000000	98.785243 
2048.000000	98.791817 
2047.000000	98.797522 
2046.000000	98.801281 
2045.000000	98.803301 
2044.000000	98.804441 
2043.000000	98.805630 
2042.000000	98.807375 
2041.000000	98.809663 
2040.000000	98.812107 
2039.000000	98.814262 
2038.000000	98.816009 
2037.000000	98.817877 
2036.000000	98.820840 
2035.000000	98.825321 
2034.000000	98.830308 
2033.000000	98.833964 
2032.000000	98.835527 
2031.000000	98.836000 
2030.000000	98.836802 
2029.000000	98.838233 
2028.000000	98.839731 
2027.000000	98.840992 
2026.000000	98.842064 
2025.000000	98.842830 
2024.000000	98.843269 
2023.000000	98.844035 
2022.000000	98.846049 
2021.000000	98.849217 
2020.000000	98.852320 
2019.000000	98.854624 
2018.000000	98.856901 
2017.000000	98.860536 
2016.000000	98.865868 
2015.000000	98.871565 
2014.000000	98.875384 
2013.000000	98.875728 
2012.000000	98.872927 
2011.000000	98.868961 
2010.000000	98.866075 
2009.000000	98.866203 
2008.000000	98.870749 
2007.000000	98.878814 
2006.000000	98.885441 
2005.000000	98.884703 
2004.000000	98.875794 
2003.000000	98.864671 
2002.000000	98.858559 
2001.000000	98.859365 
2000.000000	98.863910 
1999.000000	98.868196 
1998.000000	98.869749 
1997.000000	98.867634 
1996.000000	98.862568 
1995.000000	98.856787 
1994.000000	98.852232 
1993.000000	98.848896 
1992.000000	98.845649 
1991.000000	98.842428 
1990.000000	98.840393 
1989.000000	98.839847 
1988.000000	98.839153 
1987.000000	98.836224 
1986.000000	98.830847 
1985.000000	98.824942 
1984.000000	98.819972 
1983.000000	98.814359 
1982.000000	98.805538 
1981.000000	98.795627 
1980.000000	98.793254 
1979.000000	98.806074 
1978.000000	98.832246 
1977.000000	98.860900 
1976.000000	98.882289 
1975.000000	98.894417 
1974.000000	98.898740 
1973.000000	98.896056 
1972.000000	98.888360 
1971.000000	98.880086 
1970.000000	98.874666 
1969.000000	98.872249 
1968.000000	98.872115 
1967.000000	98.874634 
1966.000000	98.879099 
1965.000000	98.882309 
1964.000000	98.881815 
1963.000000	98.878853 
1962.000000	98.876666 
1961.000000	98.877344 
1960.000000	98.881123 
1959.000000	98.886869 
1958.000000	98.891915 
1957.000000	98.893215 
1956.000000	98.890156 
1955.000000	98.885314 
1954.000000	98.881520 
1953.000000	98.879649 
1952.000000	98.879473 
1951.000000	98.880850 
1950.000000	98.882721 
1949.000000	98.882302 
1948.000000	98.877866 
1947.000000	98.871455 
1946.000000	98.867037 
1945.000000	98.866329 
1944.000000	98.867606 
1943.000000	98.868094 
1942.000000	98.866608 
1941.000000	98.864087 
1940.000000	98.862291 
1939.000000	98.862068 
1938.000000	98.862765 
1937.000000	98.863255 
1936.000000	98.863162 
1935.000000	98.862829 
1934.000000	98.862133 
1933.000000	98.860268 
1932.000000	98.857065 
1931.000000	98.853681 
1930.000000	98.851454 
1929.000000	98.850521 
1928.000000	98.850206 
1927.000000	98.849799 
1926.000000	98.849012 
1925.000000	98.847728 
1924.000000	98.845787 
1923.000000	98.843357 
1922.000000	98.840959 
1921.000000	98.838970 
1920.000000	98.837339 
1919.000000	98.835816 
1918.000000	98.834241 
1917.000000	98.832608 
1916.000000	98.830991 
1915.000000	98.829447 
1914.000000	98.827976 
1913.000000	98.826555 
1912.000000	98.825154 
1911.000000	98.823750 
1910.000000	98.822333 
1909.000000	98.820902 
1908.000000	98.819479 
1907.000000	98.818100 
1906.000000	98.816798 
1905.000000	98.815557 
1904.000000	98.814306 
1903.000000	98.813023 
1902.000000	98.811744 
1901.000000	98.810443 
1900.000000	98.809095 
1899.000000	98.807778 
1898.000000	98.806572 
1897.000000	98.805389 
1896.000000	98.804110 
1895.000000	98.802935 
1894.000000	98.802122 
1893.000000	98.801330 
1892.000000	98.799821 
1891.000000	98.797382 
1890.000000	98.794795 
1889.000000	98.793118 
1888.000000	98.792710 
1887.000000	98.793380 
1886.000000	98.794598 
1885.000000	98.795577 
1884.000000	98.795790 
1883.000000	98.795527 
1882.000000	98.795367 
1881.000000	98.795313 
1880.000000	98.795218 
1879.000000	98.795268 
1878.000000	98.795449 
1877.000000	98.795198 
1876.000000	98.793954 
1875.000000	98.792212 
1874.000000	98.791410 
1873.000000	98.792230 
1872.000000	98.793700 
1871.000000	98.794109 
1870.000000	98.792537 
1869.000000	98.789722 
1868.000000	98.787541 
1867.000000	98.787429 
1866.000000	98.789279 
1865.000000	98.791716 
1864.000000	98.793578 
1863.000000	98.794969 
1862.000000	98.796558 
1861.000000	98.798423 
1860.000000	98.800176 
1859.000000	98.801673 
1858.000000	98.802919 
1857.000000	98.803762 
1856.000000	98.804375 
1855.000000	98.805275 
1854.000000	98.806522 
1853.000000	98.807243 
1852.000000	98.807490 
1851.000000	98.808649 
1850.000000	98.811454 
1849.000000	98.815153 
1848.000000	98.818506 
1847.000000	98.821054 
1846.000000	98.822455 
1845.000000	98.822092 
1844.000000	98.820454 
1843.000000	98.819461 
1842.000000	98.820334 
1841.000000	98.822362 
1840.000000	98.824250 
1839.000000	98.825469 
1838.000000	98.826409 
1837.000000	98.827229 
1836.000000	98.827686 
1835.000000	98.828188 
1834.000000	98.829350 
1833.000000	98.830797 
1832.000000	98.831632 
1831.000000	98.831245 
1830.000000	98.830046 
1829.000000	98.829310 
1828.000000	98.829666 
1827.000000	98.830609 
1826.000000	98.831106 
1825.000000	98.830932 
1824.000000	98.830868 
1823.000000	98.831582 
1822.000000	98.832876 
1821.000000	98.833945 
1820.000000	98.834513 
1819.000000	98.835304 
1818.000000	98.837408 
1817.000000	98.840533 
1816.000000	98.842817 
1815.000000	98.843584 
1814.000000	98.843884 
1813.000000	98.844665 
1812.000000	98.845098 
1811.000000	98.843876 
1810.000000	98.841857 
1809.000000	98.840660 
1808.000000	98.840343 
1807.000000	98.840368 
1806.000000	98.840672 
1805.000000	98.840880 
1804.000000	98.839803 
1803.000000	98.837477 
1802.000000	98.835413 
1801.000000	98.835082 
1800.000000	98.835909 
1799.000000	98.836363 
1798.000000	98.836664 
1797.000000	98.837753 
1796.000000	98.839592 
1795.000000	98.841429 
1794.000000	98.841875 
1793.000000	98.839880 
1792.000000	98.835909 
1791.000000	98.832345 
1790.000000	98.831873 
1789.000000	98.834738 
1788.000000	98.838787 
1787.000000	98.841734 
1786.000000	98.842899 
1785.000000	98.842911 
1784.000000	98.842666 
1783.000000	98.843719 
1782.000000	98.845958 
1781.000000	98.848171 
1780.000000	98.850013 
1779.000000	98.851975 
1778.000000	98.854716 
1777.000000	98.857524 
1776.000000	98.859712 
1775.000000	98.861270 
1774.000000	98.861653 
1773.000000	98.860947 
1772.000000	98.860647 
1771.000000	98.860751 
1770.000000	98.860776 
1769.000000	98.860638 
1768.000000	98.859708 
1767.000000	98.858157 
1766.000000	98.856930 
1765.000000	98.857000 
1764.000000	98.858155 
1763.000000	98.859198 
1762.000000	98.858878 
1761.000000	98.857190 
1760.000000	98.854906 
1759.000000	98.853125 
1758.000000	98.852475 
1757.000000	98.852826 
1756.000000	98.854241 
1755.000000	98.855919 
1754.000000	98.856709 
1753.000000	98.856009 
1752.000000	98.854421 
1751.000000	98.853101 
1750.000000	98.852535 
1749.000000	98.852429 
1748.000000	98.852652 
1747.000000	98.853284 
1746.000000	98.853277 
1745.000000	98.852005 
1744.000000	98.850009 
1743.000000	98.848039 
1742.000000	98.846445 
1741.000000	98.845140 
1740.000000	98.843538 
1739.000000	98.841599 
1738.000000	98.839950 
1737.000000	98.838823 
1736.000000	98.836633 
1735.000000	98.832485 
1734.000000	98.830230 
1733.000000	98.830933 
1732.000000	98.831412 
1731.000000	98.830340 
1730.000000	98.828022 
1729.000000	98.825510 
1728.000000	98.824549 
1727.000000	98.825545 
1726.000000	98.826264 
1725.000000	98.824593 
1724.000000	98.819965 
1723.000000	98.814014 
1722.000000	98.810124 
1721.000000	98.809847 
1720.000000	98.811456 
1719.000000	98.811400 
1718.000000	98.808720 
1717.000000	98.804177 
1716.000000	98.796834 
1715.000000	98.788439 
1714.000000	98.782783 
1713.000000	98.779998 
1712.000000	98.777141 
1711.000000	98.773463 
1710.000000	98.770812 
1709.000000	98.769559 
1708.000000	98.767781 
1707.000000	98.763436 
1706.000000	98.756848 
1705.000000	98.749814 
1704.000000	98.742783 
1703.000000	98.735864 
1702.000000	98.727343 
1701.000000	98.716997 
1700.000000	98.709233 
1699.000000	98.704031 
1698.000000	98.701375 
1697.000000	98.698667 
1696.000000	98.690964 
1695.000000	98.679662 
1694.000000	98.669635 
1693.000000	98.663023 
1692.000000	98.658298 
1691.000000	98.653364 
1690.000000	98.648134 
1689.000000	98.643040 
1688.000000	98.638967 
1687.000000	98.635497 
1686.000000	98.629932 
1685.000000	98.620794 
1684.000000	98.609766 
1683.000000	98.597479 
1682.000000	98.585397 
1681.000000	98.574742 
1680.000000	98.566180 
1679.000000	98.560069 
1678.000000	98.554430 
1677.000000	98.545827 
1676.000000	98.533879 
1675.000000	98.522968 
1674.000000	98.513795 
1673.000000	98.505659 
1672.000000	98.499277 
1671.000000	98.494231 
1670.000000	98.488830 
1669.000000	98.480684 
1668.000000	98.470828 
1667.000000	98.462157 
1666.000000	98.454243 
1665.000000	98.445747 
1664.000000	98.437081 
1663.000000	98.431828 
1662.000000	98.429104 
1661.000000	98.422991 
1660.000000	98.413711 
1659.000000	98.404058 
1658.000000	98.394176 
1657.000000	98.384472 
1656.000000	98.378047 
1655.000000	98.372911 
1654.000000	98.367238 
1653.000000	98.370089 
1652.000000	98.366477 
1651.000000	98.352014 
1650.000000	98.340955 
1649.000000	98.337737 
1648.000000	98.337821 
1647.000000	98.338334 
1646.000000	98.337315 
1645.000000	98.332952 
1644.000000	98.326794 
1643.000000	98.322508 
1642.000000	98.320553 
1641.000000	98.318186 
1640.000000	98.315973 
1639.000000	98.315633 
1638.000000	98.317746 
1637.000000	98.319153 
1636.000000	98.319194 
1635.000000	98.318306 
1634.000000	98.315557 
1633.000000	98.313978 
1632.000000	98.314552 
1631.000000	98.316785 
1630.000000	98.320572 
1629.000000	98.325814 
1628.000000	98.331949 
1627.000000	98.339014 
1626.000000	98.345789 
1625.000000	98.351225 
1624.000000	98.356878 
1623.000000	98.364890 
1622.000000	98.372677 
1621.000000	98.377669 
1620.000000	98.383942 
1619.000000	98.394166 
1618.000000	98.405198 
1617.000000	98.413788 
1616.000000	98.421943 
1615.000000	98.432740 
1614.000000	98.445733 
1613.000000	98.457470 
1612.000000	98.466229 
1611.000000	98.474978 
1610.000000	98.484954 
1609.000000	98.494434 
1608.000000	98.504992 
1607.000000	98.520452 
1606.000000	98.537878 
1605.000000	98.551050 
1604.000000	98.560492 
1603.000000	98.569823 
1602.000000	98.579238 
1601.000000	98.587022 
1600.000000	98.594101 
1599.000000	98.602868 
1598.000000	98.613036 
1597.000000	98.623065 
1596.000000	98.632687 
1595.000000	98.641884 
1594.000000	98.648796 
1593.000000	98.651877 
1592.000000	98.653340 
1591.000000	98.657258 
1590.000000	98.664501 
1589.000000	98.672462 
1588.000000	98.679597 
1587.000000	98.686192 
1586.000000	98.691777 
1585.000000	98.694045 
1584.000000	98.694853 
1583.000000	98.698586 
1582.000000	98.704993 
1581.000000	98.711229 
1580.000000	98.717988 
1579.000000	98.726989 
1578.000000	98.735242 
1577.000000	98.739191 
1576.000000	98.740506 
1575.000000	98.741114 
1574.000000	98.740446 
1573.000000	98.739907 
1572.000000	98.740664 
1571.000000	98.742093 
1570.000000	98.743691 
1569.000000	98.743583 
1568.000000	98.743537 
1567.000000	98.745718 
1566.000000	98.748160 
1565.000000	98.747970 
1564.000000	98.747168 
1563.000000	98.747044 
1562.000000	98.745933 
1561.000000	98.737975 
1560.000000	98.729886 
1559.000000	98.734051 
1558.000000	98.737574 
1557.000000	98.732484 
1556.000000	98.728406 
1555.000000	98.728150 
1554.000000	98.728443 
1553.000000	98.727941 
1552.000000	98.727599 
1551.000000	98.726107 
1550.000000	98.722828 
1549.000000	98.719521 
1548.000000	98.718310 
1547.000000	98.719356 
1546.000000	98.720602 
1545.000000	98.720601 
1544.000000	98.720037 
1543.000000	98.719029 
1542.000000	98.717258 
1541.000000	98.715083 
1540.000000	98.713524 
1539.000000	98.713160 
1538.000000	98.712908 
1537.000000	98.712899 
1536.000000	98.713656 
1535.000000	98.714834 
1534.000000	98.715505 
1533.000000	98.715380 
1532.000000	98.714994 
1531.000000	98.715245 
1530.000000	98.716463 
1529.000000	98.717773 
1528.000000	98.717879 
1527.000000	98.716589 
1526.000000	98.714837 
1525.000000	98.713679 
1524.000000	98.713726 
1523.000000	98.715029 
1522.000000	98.717401 
1521.000000	98.719560 
1520.000000	98.719312 
1519.000000	98.717386 
1518.000000	98.716163 
1517.000000	98.716428 
1516.000000	98.717209 
1515.000000	98.717966 
1514.000000	98.718969 
1513.000000	98.720393 
1512.000000	98.721038 
1511.000000	98.719908 
1510.000000	98.718481 
1509.000000	98.718065 
1508.000000	98.717218 
1507.000000	98.715501 
1506.000000	98.716887 
1505.000000	98.718604 
1504.000000	98.718159 
1503.000000	98.716621 
1502.000000	98.714346 
1501.000000	98.711600 
1500.000000	98.709133 
1499.000000	98.706397 
1498.000000	98.703010 
1497.000000	98.702587 
1496.000000	98.706384 
1495.000000	98.711815 
1494.000000	98.717577 
1493.000000	98.722947 
1492.000000	98.725424 
1491.000000	98.724196 
1490.000000	98.722662 
1489.000000	98.723469 
1488.000000	98.723430 
1487.000000	98.720435 
1486.000000	98.717774 
1485.000000	98.715177 
1484.000000	98.711543 
1483.000000	98.707507 
1482.000000	98.703707 
1481.000000	98.700235 
1480.000000	98.695965 
1479.000000	98.690767 
1478.000000	98.685163 
1477.000000	98.679301 
1476.000000	98.671716 
1475.000000	98.663046 
1474.000000	98.655023 
1473.000000	98.647888 
1472.000000	98.640575 
1471.000000	98.632510 
1470.000000	98.625599 
1469.000000	98.620371 
1468.000000	98.614475 
1467.000000	98.607046 
1466.000000	98.599824 
1465.000000	98.593884 
1464.000000	98.588841 
1463.000000	98.583166 
1462.000000	98.577985 
1461.000000	98.574982 
1460.000000	98.573415 
1459.000000	98.569073 
1458.000000	98.558844 
1457.000000	98.548432 
1456.000000	98.542603 
1455.000000	98.538291 
1454.000000	98.533881 
1453.000000	98.531562 
1452.000000	98.532418 
1451.000000	98.534251 
1450.000000	98.534082 
1449.000000	98.532093 
1448.000000	98.529383 
1447.000000	98.526994 
1446.000000	98.524260 
1445.000000	98.520851 
1444.000000	98.517545 
1443.000000	98.513038 
1442.000000	98.507283 
1441.000000	98.502773 
1440.000000	98.500989 
1439.000000	98.498387 
1438.000000	98.491424 
1437.000000	98.484208 
1436.000000	98.482939 
1435.000000	98.485026 
1434.000000	98.485773 
1433.000000	98.485063 
1432.000000	98.483901 
1431.000000	98.481870 
1430.000000	98.478154 
1429.000000	98.474547 
1428.000000	98.472325 
1427.000000	98.471078 
1426.000000	98.469086 
1425.000000	98.466613 
1424.000000	98.466560 
1423.000000	98.467109 
1422.000000	98.464217 
1421.000000	98.458122 
1420.000000	98.454244 
1419.000000	98.454952 
1418.000000	98.455638 
1417.000000	98.455072 
1416.000000	98.456169 
1415.000000	98.458394 
1414.000000	98.458955 
1413.000000	98.458127 
1412.000000	98.458610 
1411.000000	98.460004 
1410.000000	98.459789 
1409.000000	98.458833 
1408.000000	98.459109 
1407.000000	98.460916 
1406.000000	98.463421 
1405.000000	98.467980 
1404.000000	98.477387 
1403.000000	98.488678 
1402.000000	98.496088 
1401.000000	98.498927 
1400.000000	98.501943 
1399.000000	98.508155 
1398.000000	98.514558 
1397.000000	98.517868 
1396.000000	98.519016 
1395.000000	98.521545 
1394.000000	98.526809 
1393.000000	98.534216 
1392.000000	98.543472 
1391.000000	98.553058 
1390.000000	98.560683 
1389.000000	98.565707 
1388.000000	98.569215 
1387.000000	98.572201 
1386.000000	98.575125 
1385.000000	98.579354 
1384.000000	98.586548 
1383.000000	98.595396 
1382.000000	98.602794 
1381.000000	98.607406 
1380.000000	98.610297 
1379.000000	98.612957 
1378.000000	98.615700 
1377.000000	98.618695 
1376.000000	98.622885 
1375.000000	98.628953 
1374.000000	98.635724 
1373.000000	98.642201 
1372.000000	98.649117 
1371.000000	98.657483 
1370.000000	98.666395 
1369.000000	98.674143 
1368.000000	98.680904 
1367.000000	98.687470 
1366.000000	98.693843 
1365.000000	98.700042 
1364.000000	98.706463 
1363.000000	98.712851 
1362.000000	98.718500 
1361.000000	98.724135 
1360.000000	98.731684 
1359.000000	98.741571 
1358.000000	98.751504 
1357.000000	98.759069 
1356.000000	98.764403 
1355.000000	98.769159 
1354.000000	98.773958 
1353.000000	98.778726 
1352.000000	98.783267 
1351.000000	98.788193 
1350.000000	98.793783 
1349.000000	98.799657 
1348.000000	98.806227 
1347.000000	98.813559 
1346.000000	98.820221 
1345.000000	98.824443 
1344.000000	98.826185 
1343.000000	98.826856 
1342.000000	98.827447 
1341.000000	98.827892 
1340.000000	98.828021 
1339.000000	98.828226 
1338.000000	98.829342 
1337.000000	98.832704 
1336.000000	98.839403 
1335.000000	98.848547 
1334.000000	98.857155 
1333.000000	98.862768 
1332.000000	98.865494 
1331.000000	98.867211 
1330.000000	98.869346 
1329.000000	98.872409 
1328.000000	98.876432 
1327.000000	98.880833 
1326.000000	98.883936 
1325.000000	98.884438 
1324.000000	98.883276 
1323.000000	98.882229 
1322.000000	98.881840 
1321.000000	98.881699 
1320.000000	98.881689 
1319.000000	98.881677 
1318.000000	98.881178 
1317.000000	98.880405 
1316.000000	98.880409 
1315.000000	98.881347 
1314.000000	98.881981 
1313.000000	98.881869 
1312.000000	98.882224 
1311.000000	98.883597 
1310.000000	98.884530 
1309.000000	98.884230 
1308.000000	98.884368 
1307.000000	98.886770 
1306.000000	98.890268 
1305.000000	98.892024 
1304.000000	98.891185 
1303.000000	98.889039 
1302.000000	98.886964 
1301.000000	98.885732 
1300.000000	98.885935 
1299.000000	98.887160 
1298.000000	98.887604 
1297.000000	98.886043 
1296.000000	98.883656 
1295.000000	98.882641 
1294.000000	98.883607 
1293.000000	98.885728 
1292.000000	98.888330 
1291.000000	98.890733 
1290.000000	98.891560 
1289.000000	98.890001 
1288.000000	98.887259 
1287.000000	98.885299 
1286.000000	98.884569 
1285.000000	98.884291 
1284.000000	98.884184 
1283.000000	98.884345 
1282.000000	98.884365 
1281.000000	98.884039 
1280.000000	98.884350 
1279.000000	98.886071 
1278.000000	98.888082 
1277.000000	98.888814 
1276.000000	98.888589 
1275.000000	98.888608 
1274.000000	98.888088 
1273.000000	98.884988 
1272.000000	98.879827 
1271.000000	98.876477 
1270.000000	98.878007 
1269.000000	98.883041 
1268.000000	98.887202 
1267.000000	98.887208 
1266.000000	98.883388 
1265.000000	98.879293 
1264.000000	98.878790 
1263.000000	98.882580 
1262.000000	98.887656 
1261.000000	98.890620 
1260.000000	98.891136 
1259.000000	98.891142 
1258.000000	98.891573 
1257.000000	98.891555 
1256.000000	98.890290 
1255.000000	98.888198 
1254.000000	98.886329 
1253.000000	98.885705 
1252.000000	98.886925 
1251.000000	98.889217 
1250.000000	98.890124 
1249.000000	98.887450 
1248.000000	98.881686 
1247.000000	98.875612 
1246.000000	98.871637 
1245.000000	98.870120 
1244.000000	98.869595 
1243.000000	98.867867 
1242.000000	98.863659 
1241.000000	98.858120 
1240.000000	98.853981 
1239.000000	98.852431 
1238.000000	98.851742 
1237.000000	98.849678 
1236.000000	98.845901 
1235.000000	98.840906 
1234.000000	98.834163 
1233.000000	98.824897 
1232.000000	98.813452 
1231.000000	98.800309 
1230.000000	98.785190 
1229.000000	98.768782 
1228.000000	98.753600 
1227.000000	98.740801 
1226.000000	98.727329 
1225.000000	98.708623 
1224.000000	98.683169 
1223.000000	98.652202 
1222.000000	98.616391 
1221.000000	98.575747 
1220.000000	98.531996 
1219.000000	98.487675 
1218.000000	98.442903 
1217.000000	98.396046 
1216.000000	98.347332 
1215.000000	98.298629 
1214.000000	98.249610 
1213.000000	98.197744 
1212.000000	98.142616 
1211.000000	98.086768 
1210.000000	98.031244 
1209.000000	97.973518 
1208.000000	97.911277 
1207.000000	97.845587 
1206.000000	97.779219 
1205.000000	97.714180 
1204.000000	97.651603 
1203.000000	97.591377 
1202.000000	97.531012 
1201.000000	97.467458 
1200.000000	97.400866 
1199.000000	97.334250 
1198.000000	97.269171 
1197.000000	97.204600 
1196.000000	97.139987 
1195.000000	97.075808 
1194.000000	97.010554 
1193.000000	96.941068 
1192.000000	96.867217 
1191.000000	96.793000 
1190.000000	96.721715 
1189.000000	96.652777 
1188.000000	96.584040 
1187.000000	96.513932 
1186.000000	96.440562 
1185.000000	96.362591 
1184.000000	96.282381 
1183.000000	96.204715 
1182.000000	96.130590 
1181.000000	96.055371 
1180.000000	95.974657 
1179.000000	95.888712 
1178.000000	95.799666 
1177.000000	95.708035 
1176.000000	95.614173 
1175.000000	95.519798 
1174.000000	95.425404 
1173.000000	95.328597 
1172.000000	95.227151 
1171.000000	95.121476 
1170.000000	95.012832 
1169.000000	94.902119 
1168.000000	94.792154 
1167.000000	94.688370 
1166.000000	94.595792 
1165.000000	94.518132 
1164.000000	94.460874 
1163.000000	94.431418 
1162.000000	94.433838 
1161.000000	94.464968 
1160.000000	94.515023 
1159.000000	94.568960 
1158.000000	94.608881 
1157.000000	94.621074 
1156.000000	94.602670 
1155.000000	94.559658 
1154.000000	94.498992 
1153.000000	94.425019 
1152.000000	94.342120 
1151.000000	94.255820 
1150.000000	94.170131 
1149.000000	94.086880 
1148.000000	94.007508 
1147.000000	93.931754 
1146.000000	93.855188 
1145.000000	93.772825 
1144.000000	93.685322 
1143.000000	93.597404 
1142.000000	93.510669 
1141.000000	93.422710 
1140.000000	93.332752 
1139.000000	93.242652 
1138.000000	93.152490 
1137.000000	93.060538 
1136.000000	92.967225 
1135.000000	92.873615 
1134.000000	92.776803 
1133.000000	92.673098 
1132.000000	92.565060 
1131.000000	92.458593 
1130.000000	92.353478 
1129.000000	92.243964 
1128.000000	92.128461 
1127.000000	92.011147 
1126.000000	91.894233 
1125.000000	91.776502 
1124.000000	91.659293 
1123.000000	91.545171 
1122.000000	91.430431 
1121.000000	91.308407 
1120.000000	91.181214 
1119.000000	91.058605 
1118.000000	90.943885 
1117.000000	90.831169 
1116.000000	90.718108 
1115.000000	90.610145 
1114.000000	90.509126 
1113.000000	90.408562 
1112.000000	90.304362 
1111.000000	90.200519 
1110.000000	90.100277 
1109.000000	90.001215 
1108.000000	89.902158 
1107.000000	89.805713 
1106.000000	89.711187 
1105.000000	89.613758 
1104.000000	89.512817 
1103.000000	89.412177 
1102.000000	89.310606 
1101.000000	89.202529 
1100.000000	89.089266 
1099.000000	88.979018 
1098.000000	88.874023 
1097.000000	88.768274 
1096.000000	88.659918 
1095.000000	88.554332 
1094.000000	88.452921 
1093.000000	88.350799 
1092.000000	88.248157 
1091.000000	88.151885 
1090.000000	88.063081 
1089.000000	87.974921 
1088.000000	87.885634 
1087.000000	87.801433 
1086.000000	87.723916 
1085.000000	87.647039 
1084.000000	87.569415 
1083.000000	87.496742 
1082.000000	87.428757 
1081.000000	87.356657 
1080.000000	87.277302 
1079.000000	87.197790 
1078.000000	87.122402 
1077.000000	87.046772 
1076.000000	86.967893 
1075.000000	86.887395 
1074.000000	86.802112 
1073.000000	86.703960 
1072.000000	86.591640 
1071.000000	86.469914 
1070.000000	86.335542 
1069.000000	86.178006 
1068.000000	85.997246 
1067.000000	85.807203 
1066.000000	85.618138 
1065.000000	85.428614 
1064.000000	85.238411 
1063.000000	85.054188 
1062.000000	84.877133 
1061.000000	84.699208 
1060.000000	84.517295 
1059.000000	84.338068 
1058.000000	84.164223 
1057.000000	83.988901 
1056.000000	83.808141 
1055.000000	83.625934 
1054.000000	83.442979 
1053.000000	83.253149 
1052.000000	83.054789 
1051.000000	82.851894 
1050.000000	82.641023 
1049.000000	82.413070 
1048.000000	82.170605 
1047.000000	81.925975 
1046.000000	81.681048 
1045.000000	81.426980 
1044.000000	81.164143 
1043.000000	80.903549 
1042.000000	80.647233 
1041.000000	80.386148 
1040.000000	80.120377 
1039.000000	79.862488 
1038.000000	79.617169 
1037.000000	79.377058 
1036.000000	79.142967 
1035.000000	78.928169 
1034.000000	78.737150 
1033.000000	78.559331 
1032.000000	78.389096 
1031.000000	78.233348 
1030.000000	78.094520 
1029.000000	77.965444 
1028.000000	77.845601 
1027.000000	77.742945 
1026.000000	77.655173 
1025.000000	77.568965 
1024.000000	77.481939 
1023.000000	77.404870 
1022.000000	77.337955 
1021.000000	77.266127 
1020.000000	77.182893 
1019.000000	77.097906 
1018.000000	77.015831 
1017.000000	76.928868 
1016.000000	76.835535 
1015.000000	76.745578 
1014.000000	76.660172 
1013.000000	76.568106 
1012.000000	76.468034 
1011.000000	76.374251 
1010.000000	76.293942 
1009.000000	76.218566 
1008.000000	76.143746 
1007.000000	76.077869 
1006.000000	76.024783 
1005.000000	75.977548 
1004.000000	75.935201 
1003.000000	75.906424 
1002.000000	75.891231 
1001.000000	75.878461 
1000.000000	75.866544 
999.000000	 75.867182 
998.000000	 75.883377 
997.000000	 75.903405 
996.000000	 75.921400 
995.000000	 75.944412 
994.000000	 75.974407 
993.000000	 76.003271 
992.000000	 76.030574 
991.000000	 76.066574 
990.000000	 76.112845 
989.000000	 76.159536 
988.000000	 76.206326 
987.000000	 76.266150 
986.000000	 76.343408 
985.000000	 76.428354 
984.000000	 76.517745 
983.000000	 76.621394 
982.000000	 76.743502 
981.000000	 76.877131 
980.000000	 77.021647 
979.000000	 77.185942 
978.000000	 77.369647 
977.000000	 77.560539 
976.000000	 77.755270 
975.000000	 77.963808 
974.000000	 78.189139 
973.000000	 78.421608 
972.000000	 78.657341 
971.000000	 78.903101 
970.000000	 79.158354 
969.000000	 79.411393 
968.000000	 79.658312 
967.000000	 79.908256 
966.000000	 80.165331 
965.000000	 80.422178 
964.000000	 80.675086 
963.000000	 80.928475 
962.000000	 81.180804 
961.000000	 81.422899 
960.000000	 81.654071 
959.000000	 81.883945 
958.000000	 82.115058 
957.000000	 82.339342 
956.000000	 82.554430 
955.000000	 82.767002 
954.000000	 82.976816 
953.000000	 83.173426 
952.000000	 83.352269 
951.000000	 83.519225 
950.000000	 83.677155 
949.000000	 83.822840 
948.000000	 83.958824 
947.000000	 84.092424 
946.000000	 84.220966 
945.000000	 84.334141 
944.000000	 84.433083 
943.000000	 84.530882 
942.000000	 84.631743 
941.000000	 84.726449 
940.000000	 84.811660 
939.000000	 84.896393 
938.000000	 84.984971 
937.000000	 85.070024 
936.000000	 85.147846 
935.000000	 85.225548 
934.000000	 85.308125 
933.000000	 85.392805 
932.000000	 85.480133 
931.000000	 85.575648 
930.000000	 85.676363 
929.000000	 85.770497 
928.000000	 85.854952 
927.000000	 85.938800 
926.000000	 86.025686 
925.000000	 86.107502 
924.000000	 86.179807 
923.000000	 86.249118 
922.000000	 86.319976 
921.000000	 86.387690 
920.000000	 86.447959 
919.000000	 86.501406 
918.000000	 86.546110 
917.000000	 86.578857 
916.000000	 86.606265 
915.000000	 86.641628 
914.000000	 86.689284 
913.000000	 86.745857 
912.000000	 86.817112 
911.000000	 86.916837 
910.000000	 87.047071 
909.000000	 87.196379 
908.000000	 87.360429 
907.000000	 87.547315 
906.000000	 87.759420 
905.000000	 87.987438 
904.000000	 88.225799 
903.000000	 88.477381 
902.000000	 88.739896 
901.000000	 89.004474 
900.000000	 89.270711 
899.000000	 89.546020 
898.000000	 89.826723 
897.000000	 90.096861 
896.000000	 90.349861 
895.000000	 90.595000 
894.000000	 90.837863 
893.000000	 91.070361 
892.000000	 91.286034 
891.000000	 91.490823 
890.000000	 91.691958 
889.000000	 91.887912 
888.000000	 92.074856 
887.000000	 92.252361 
886.000000	 92.418599 
885.000000	 92.570783 
884.000000	 92.714008 
883.000000	 92.858946 
882.000000	 93.007571 
881.000000	 93.151952 
880.000000	 93.289270 
879.000000	 93.425667 
878.000000	 93.562982 
877.000000	 93.695470 
876.000000	 93.823525 
875.000000	 93.957534 
874.000000	 94.104319 
873.000000	 94.261927 
872.000000	 94.429884 
871.000000	 94.610735 
870.000000	 94.798926 
869.000000	 94.982559 
868.000000	 95.159987 
867.000000	 95.341960 
866.000000	 95.533382 
865.000000	 95.724124 
864.000000	 95.901825 
863.000000	 96.063987 
862.000000	 96.214671 
861.000000	 96.358982 
860.000000	 96.503649 
859.000000	 96.653277 
858.000000	 96.802123 
857.000000	 96.937527 
856.000000	 97.054177 
855.000000	 97.157986 
854.000000	 97.255502 
853.000000	 97.348127 
852.000000	 97.437651 
851.000000	 97.527674 
850.000000	 97.616981 
849.000000	 97.699748 
848.000000	 97.773635 
847.000000	 97.839226 
846.000000	 97.891378 
845.000000	 97.921946 
844.000000	 97.933143 
843.000000	 97.937844 
842.000000	 97.942880 
841.000000	 97.940459 
840.000000	 97.918989 
839.000000	 97.874120 
838.000000	 97.807638 
837.000000	 97.725465 
836.000000	 97.640098 
835.000000	 97.565524 
834.000000	 97.504782 
833.000000	 97.449945 
832.000000	 97.397538 
831.000000	 97.355492 
830.000000	 97.331969 
829.000000	 97.327303 
828.000000	 97.341298 
827.000000	 97.377785 
826.000000	 97.435806 
825.000000	 97.505262 
824.000000	 97.575918 
823.000000	 97.641993 
822.000000	 97.696744 
821.000000	 97.734662 
820.000000	 97.760414 
819.000000	 97.783263 
818.000000	 97.800793 
817.000000	 97.798907 
816.000000	 97.769476 
815.000000	 97.717287 
814.000000	 97.646513 
813.000000	 97.549918 
812.000000	 97.415111 
811.000000	 97.232363 
810.000000	 96.992566 
809.000000	 96.687206 
808.000000	 96.316644 
807.000000	 95.892227 
806.000000	 95.426690 
805.000000	 94.930578 
804.000000	 94.421921 
803.000000	 93.928640 
802.000000	 93.474756 
801.000000	 93.073712 
800.000000	 92.739045 
799.000000	 92.487554 
798.000000	 92.325436 
797.000000	 92.244420 
796.000000	 92.236184 
795.000000	 92.295974 
794.000000	 92.408080 
793.000000	 92.544124 
792.000000	 92.681319 
791.000000	 92.808892 
790.000000	 92.914775 
789.000000	 92.982926 
788.000000	 93.008210 
787.000000	 92.998360 
786.000000	 92.955669 
785.000000	 92.870570 
784.000000	 92.738823 
783.000000	 92.572210 
782.000000	 92.388130 
781.000000	 92.203099 
780.000000	 92.041211 
779.000000	 91.931929 
778.000000	 91.890125 
777.000000	 91.910454 
776.000000	 91.985507 
775.000000	 92.113238 
774.000000	 92.281337 
773.000000	 92.463007 
772.000000	 92.638040 
771.000000	 92.804760 
770.000000	 92.964505 
769.000000	 93.108429 
768.000000	 93.227085 
767.000000	 93.320688 
766.000000	 93.393351 
765.000000	 93.448930 
764.000000	 93.498052 
763.000000	 93.556020 
762.000000	 93.625735 
761.000000	 93.693397 
760.000000	 93.748111 
759.000000	 93.795709 
758.000000	 93.847850 
757.000000	 93.908498 
756.000000	 93.976881 
755.000000	 94.053222 
754.000000	 94.135738 
753.000000	 94.220885 
752.000000	 94.309648 
751.000000	 94.403391 
750.000000	 94.492479 
749.000000	 94.563110 
748.000000	 94.619511 
747.000000	 94.685674 
746.000000	 94.779115 
745.000000	 94.894543 
744.000000	 95.018188 
743.000000	 95.145586 
742.000000	 95.279234 
741.000000	 95.420692 
740.000000	 95.571581 
739.000000	 95.732006 
738.000000	 95.892471 
737.000000	 96.037445 
736.000000	 96.161971 
735.000000	 96.275575 
734.000000	 96.386409 
733.000000	 96.491612 
732.000000	 96.586210 
731.000000	 96.670279 
730.000000	 96.743152 
729.000000	 96.800949 
728.000000	 96.844909 
727.000000	 96.882345 
726.000000	 96.915605 
725.000000	 96.941308 
724.000000	 96.964217 
723.000000	 97.000450 
722.000000	 97.061972 
721.000000	 97.146843 
720.000000	 97.246758 
719.000000	 97.352309 
718.000000	 97.448507 
717.000000	 97.520393 
716.000000	 97.569747 
715.000000	 97.615102 
714.000000	 97.669002 
713.000000	 97.724703 
712.000000	 97.770493 
711.000000	 97.805446 
710.000000	 97.833766 
709.000000	 97.853203 
708.000000	 97.857603 
707.000000	 97.844506 
706.000000	 97.814156 
705.000000	 97.767823 
704.000000	 97.708984 
703.000000	 97.635914 
702.000000	 97.531879 
701.000000	 97.374547 
700.000000	 97.158996 
699.000000	 96.903022 
698.000000	 96.629508 
697.000000	 96.360369 
696.000000	 96.130714 
695.000000	 95.985716 
694.000000	 95.950900 
693.000000	 96.016056 
692.000000	 96.153592 
691.000000	 96.339680 
690.000000	 96.549735 
689.000000	 96.750599 
688.000000	 96.914803 
687.000000	 97.038328 
686.000000	 97.136064 
685.000000	 97.225605 
684.000000	 97.320668 
683.000000	 97.427989 
682.000000	 97.539043 
681.000000	 97.633056 
680.000000	 97.698312 
679.000000	 97.746416 
678.000000	 97.796908 
677.000000	 97.855188 
676.000000	 97.918391 
675.000000	 97.992044 
674.000000	 98.085085 
673.000000	 98.191135 
672.000000	 98.288906 
671.000000	 98.363719 
670.000000	 98.422671 
669.000000	 98.479116 
668.000000	 98.532958 
667.000000	 98.590996 
666.000000	 98.648971 
665.000000	 98.684193 
664.000000	 98.702530 
663.000000	 98.722842 
662.000000	 98.754862 
661.000000	 98.796055 
660.000000	 98.847050 
659.000000	 98.906589 
658.000000	 98.952896 
657.000000	 98.957811 
656.000000	 98.925428 
655.000000	 98.889479 
654.000000	 98.867654 
653.000000	 98.848351 
652.000000	 98.829876 
651.000000	 98.835928 
650.000000	 98.877060 

