4000.000000	99.358153 
3999.000000	99.358388 
3998.000000	99.358489 
3997.000000	99.358503 
3996.000000	99.358292 
3995.000000	99.357677 
3994.000000	99.356788 
3993.000000	99.356085 
3992.000000	99.355881 
3991.000000	99.355969 
3990.000000	99.355903 
3989.000000	99.355603 
3988.000000	99.355516 
3987.000000	99.356085 
3986.000000	99.357163 
3985.000000	99.357984 
3984.000000	99.357745 
3983.000000	99.356245 
3982.000000	99.354073 
3981.000000	99.352144 
3980.000000	99.350865 
3979.000000	99.349857 
3978.000000	99.348546 
3977.000000	99.347017 
3976.000000	99.346090 
3975.000000	99.346524 
3974.000000	99.348368 
3973.000000	99.350944 
3972.000000	99.353282 
3971.000000	99.354596 
3970.000000	99.354537 
3969.000000	99.353326 
3968.000000	99.351728 
3967.000000	99.350622 
3966.000000	99.350443 
3965.000000	99.351011 
3964.000000	99.351790 
3963.000000	99.352225 
3962.000000	99.351935 
3961.000000	99.350815 
3960.000000	99.349102 
3959.000000	99.347275 
3958.000000	99.345741 
3957.000000	99.344607 
3956.000000	99.343784 
3955.000000	99.343231 
3954.000000	99.343052 
3953.000000	99.343326 
3952.000000	99.343840 
3951.000000	99.344120 
3950.000000	99.343840 
3949.000000	99.343174 
3948.000000	99.342511 
3947.000000	99.341852 
3946.000000	99.340811 
3945.000000	99.339249 
3944.000000	99.337522 
3943.000000	99.335997 
3942.000000	99.334793 
3941.000000	99.334194 
3940.000000	99.334653 
3939.000000	99.336088 
3938.000000	99.337500 
3937.000000	99.337744 
3936.000000	99.336806 
3935.000000	99.335902 
3934.000000	99.336218 
3933.000000	99.337757 
3932.000000	99.339433 
3931.000000	99.340143 
3930.000000	99.339365 
3929.000000	99.337077 
3928.000000	99.333873 
3927.000000	99.331294 
3926.000000	99.330996 
3925.000000	99.333060 
3924.000000	99.335852 
3923.000000	99.338016 
3922.000000	99.339748 
3921.000000	99.341757 
3920.000000	99.343904 
3919.000000	99.345495 
3918.000000	99.346349 
3917.000000	99.346834 
3916.000000	99.347105 
3915.000000	99.347111 
3914.000000	99.347003 
3913.000000	99.347120 
3912.000000	99.347590 
3911.000000	99.348289 
3910.000000	99.349177 
3909.000000	99.350242 
3908.000000	99.351263 
3907.000000	99.351639 
3906.000000	99.350711 
3905.000000	99.348018 
3904.000000	99.343555 
3903.000000	99.338389 
3902.000000	99.334442 
3901.000000	99.333229 
3900.000000	99.334799 
3899.000000	99.337959 
3898.000000	99.341379 
3897.000000	99.344311 
3896.000000	99.346196 
3895.000000	99.346437 
3894.000000	99.344884 
3893.000000	99.342318 
3892.000000	99.339832 
3891.000000	99.337755 
3890.000000	99.335852 
3889.000000	99.334123 
3888.000000	99.333189 
3887.000000	99.333626 
3886.000000	99.334698 
3885.000000	99.335044 
3884.000000	99.334571 
3883.000000	99.334316 
3882.000000	99.334989 
3881.000000	99.336161 
3880.000000	99.336852 
3879.000000	99.336884 
3878.000000	99.336857 
3877.000000	99.337248 
3876.000000	99.338074 
3875.000000	99.338854 
3874.000000	99.338946 
3873.000000	99.338252 
3872.000000	99.337439 
3871.000000	99.337304 
3870.000000	99.337765 
3869.000000	99.338124 
3868.000000	99.338206 
3867.000000	99.338577 
3866.000000	99.339693 
3865.000000	99.341114 
3864.000000	99.341898 
3863.000000	99.341811 
3862.000000	99.341462 
3861.000000	99.341395 
3860.000000	99.341615 
3859.000000	99.341806 
3858.000000	99.341708 
3857.000000	99.341309 
3856.000000	99.341114 
3855.000000	99.342125 
3854.000000	99.344198 
3853.000000	99.345733 
3852.000000	99.346385 
3851.000000	99.346971 
3850.000000	99.347805 
3849.000000	99.348593 
3848.000000	99.348916 
3847.000000	99.348690 
3846.000000	99.348141 
3845.000000	99.347568 
3844.000000	99.347110 
3843.000000	99.346741 
3842.000000	99.346489 
3841.000000	99.346727 
3840.000000	99.347921 
3839.000000	99.349916 
3838.000000	99.351852 
3837.000000	99.352991 
3836.000000	99.353360 
3835.000000	99.353486 
3834.000000	99.353929 
3833.000000	99.354889 
3832.000000	99.355946 
3831.000000	99.356435 
3830.000000	99.356122 
3829.000000	99.355345 
3828.000000	99.354554 
3827.000000	99.353812 
3826.000000	99.352837 
3825.000000	99.351576 
3824.000000	99.350456 
3823.000000	99.350023 
3822.000000	99.350169 
3821.000000	99.350017 
3820.000000	99.349224 
3819.000000	99.348351 
3818.000000	99.348011 
3817.000000	99.348217 
3816.000000	99.348353 
3815.000000	99.347927 
3814.000000	99.347122 
3813.000000	99.346380 
3812.000000	99.345859 
3811.000000	99.345398 
3810.000000	99.344827 
3809.000000	99.344199 
3808.000000	99.343657 
3807.000000	99.343147 
3806.000000	99.342501 
3805.000000	99.341719 
3804.000000	99.341036 
3803.000000	99.340686 
3802.000000	99.340596 
3801.000000	99.340442 
3800.000000	99.340124 
3799.000000	99.339784 
3798.000000	99.339511 
3797.000000	99.339275 
3796.000000	99.338998 
3795.000000	99.338649 
3794.000000	99.338268 
3793.000000	99.337905 
3792.000000	99.337585 
3791.000000	99.337316 
3790.000000	99.337098 
3789.000000	99.336926 
3788.000000	99.336799 
3787.000000	99.336720 
3786.000000	99.336691 
3785.000000	99.336709 
3784.000000	99.336763 
3783.000000	99.336790 
3782.000000	99.336759 
3781.000000	99.336815 
3780.000000	99.337192 
3779.000000	99.337832 
3778.000000	99.338329 
3777.000000	99.338363 
3776.000000	99.337978 
3775.000000	99.337364 
3774.000000	99.336612 
3773.000000	99.335832 
3772.000000	99.335375 
3771.000000	99.335436 
3770.000000	99.335523 
3769.000000	99.334992 
3768.000000	99.334030 
3767.000000	99.333523 
3766.000000	99.333968 
3765.000000	99.334755 
3764.000000	99.334780 
3763.000000	99.333792 
3762.000000	99.332701 
3761.000000	99.332594 
3760.000000	99.333736 
3759.000000	99.335911 
3758.000000	99.339067 
3757.000000	99.342254 
3756.000000	99.343271 
3755.000000	99.340596 
3754.000000	99.335483 
3753.000000	99.331606 
3752.000000	99.332003 
3751.000000	99.336160 
3750.000000	99.340798 
3749.000000	99.342952 
3748.000000	99.341960 
3747.000000	99.340889 
3746.000000	99.345614 
3745.000000	99.354168 
3744.000000	99.354561 
3743.000000	99.343838 
3742.000000	99.331104 
3741.000000	99.323398 
3740.000000	99.319861 
3739.000000	99.315540 
3738.000000	99.308493 
3737.000000	99.301264 
3736.000000	99.296141 
3735.000000	99.293121 
3734.000000	99.292885 
3733.000000	99.296292 
3732.000000	99.300390 
3731.000000	99.300322 
3730.000000	99.294946 
3729.000000	99.288060 
3728.000000	99.284369 
3727.000000	99.284309 
3726.000000	99.284306 
3725.000000	99.282572 
3724.000000	99.280913 
3723.000000	99.281010 
3722.000000	99.282087 
3721.000000	99.282592 
3720.000000	99.281799 
3719.000000	99.279484 
3718.000000	99.275061 
3717.000000	99.266935 
3716.000000	99.253551 
3715.000000	99.235004 
3714.000000	99.213951 
3713.000000	99.195346 
3712.000000	99.183079 
3711.000000	99.175762 
3710.000000	99.167064 
3709.000000	99.151298 
3708.000000	99.128522 
3707.000000	99.103674 
3706.000000	99.081970 
3705.000000	99.065542 
3704.000000	99.053049 
3703.000000	99.041139 
3702.000000	99.026518 
3701.000000	99.008217 
3700.000000	98.988112 
3699.000000	98.969131 
3698.000000	98.953415 
3697.000000	98.941122 
3696.000000	98.930981 
3695.000000	98.922638 
3694.000000	98.916653 
3693.000000	98.912443 
3692.000000	98.908292 
3691.000000	98.903810 
3690.000000	98.899821 
3689.000000	98.895224 
3688.000000	98.888348 
3687.000000	98.880107 
3686.000000	98.873249 
3685.000000	98.869707 
3684.000000	98.868314 
3683.000000	98.865020 
3682.000000	98.856767 
3681.000000	98.843469 
3680.000000	98.825252 
3679.000000	98.801559 
3678.000000	98.775630 
3677.000000	98.756857 
3676.000000	98.747841 
3675.000000	98.737948 
3674.000000	98.719785 
3673.000000	98.696585 
3672.000000	98.675862 
3671.000000	98.661649 
3670.000000	98.648975 
3669.000000	98.632564 
3668.000000	98.615223 
3667.000000	98.600875 
3666.000000	98.588344 
3665.000000	98.573411 
3664.000000	98.553260 
3663.000000	98.528765 
3662.000000	98.503092 
3661.000000	98.477937 
3660.000000	98.452319 
3659.000000	98.425152 
3658.000000	98.398041 
3657.000000	98.373769 
3656.000000	98.352720 
3655.000000	98.333900 
3654.000000	98.316566 
3653.000000	98.299515 
3652.000000	98.280363 
3651.000000	98.255471 
3650.000000	98.222576 
3649.000000	98.186673 
3648.000000	98.157038 
3647.000000	98.136534 
3646.000000	98.121034 
3645.000000	98.106757 
3644.000000	98.093052 
3643.000000	98.080354 
3642.000000	98.068584 
3641.000000	98.057541 
3640.000000	98.047404 
3639.000000	98.036812 
3638.000000	98.021853 
3637.000000	97.999313 
3636.000000	97.970546 
3635.000000	97.940395 
3634.000000	97.911617 
3633.000000	97.882812 
3632.000000	97.851819 
3631.000000	97.820231 
3630.000000	97.791758 
3629.000000	97.765003 
3628.000000	97.739103 
3627.000000	97.720544 
3626.000000	97.714495 
3625.000000	97.718659 
3624.000000	97.725329 
3623.000000	97.726410 
3622.000000	97.719709 
3621.000000	97.711008 
3620.000000	97.709193 
3619.000000	97.718880 
3618.000000	97.738480 
3617.000000	97.764313 
3616.000000	97.794689 
3615.000000	97.829370 
3614.000000	97.865568 
3613.000000	97.897837 
3612.000000	97.923962 
3611.000000	97.947749 
3610.000000	97.973280 
3609.000000	97.998253 
3608.000000	98.016062 
3607.000000	98.025111 
3606.000000	98.031891 
3605.000000	98.043555 
3604.000000	98.061623 
3603.000000	98.082768 
3602.000000	98.103247 
3601.000000	98.120998 
3600.000000	98.135121 
3599.000000	98.145513 
3598.000000	98.152708 
3597.000000	98.157707 
3596.000000	98.162509 
3595.000000	98.169870 
3594.000000	98.181139 
3593.000000	98.194657 
3592.000000	98.206211 
3591.000000	98.211742 
3590.000000	98.210392 
3589.000000	98.205157 
3588.000000	98.199801 
3587.000000	98.195834 
3586.000000	98.194058 
3585.000000	98.196174 
3584.000000	98.203083 
3583.000000	98.212928 
3582.000000	98.221723 
3581.000000	98.226169 
3580.000000	98.225740 
3579.000000	98.222034 
3578.000000	98.216303 
3577.000000	98.208456 
3576.000000	98.198520 
3575.000000	98.188068 
3574.000000	98.179295 
3573.000000	98.173034 
3572.000000	98.168051 
3571.000000	98.162026 
3570.000000	98.153443 
3569.000000	98.142966 
3568.000000	98.132979 
3567.000000	98.125640 
3566.000000	98.121941 
3565.000000	98.121816 
3564.000000	98.124287 
3563.000000	98.127925 
3562.000000	98.131153 
3561.000000	98.132473 
3560.000000	98.131148 
3559.000000	98.127926 
3558.000000	98.124516 
3557.000000	98.121640 
3556.000000	98.117883 
3555.000000	98.111216 
3554.000000	98.101572 
3553.000000	98.091325 
3552.000000	98.083286 
3551.000000	98.078470 
3550.000000	98.075567 
3549.000000	98.071937 
3548.000000	98.065362 
3547.000000	98.055875 
3546.000000	98.046019 
3545.000000	98.038521 
3544.000000	98.033979 
3543.000000	98.031537 
3542.000000	98.030989 
3541.000000	98.032949 
3540.000000	98.036949 
3539.000000	98.040375 
3538.000000	98.040368 
3537.000000	98.036374 
3536.000000	98.030474 
3535.000000	98.025439 
3534.000000	98.022528 
3533.000000	98.021195 
3532.000000	98.020308 
3531.000000	98.019300 
3530.000000	98.018165 
3529.000000	98.016713 
3528.000000	98.014337 
3527.000000	98.010805 
3526.000000	98.006884 
3525.000000	98.003702 
3524.000000	98.001565 
3523.000000	97.999745 
3522.000000	97.997441 
3521.000000	97.994583 
3520.000000	97.991651 
3519.000000	97.989022 
3518.000000	97.986675 
3517.000000	97.984280 
3516.000000	97.981419 
3515.000000	97.977792 
3514.000000	97.973417 
3513.000000	97.968722 
3512.000000	97.964366 
3511.000000	97.960933 
3510.000000	97.958678 
3509.000000	97.957412 
3508.000000	97.956540 
3507.000000	97.955377 
3506.000000	97.953541 
3505.000000	97.951028 
3504.000000	97.947982 
3503.000000	97.944575 
3502.000000	97.941169 
3501.000000	97.938304 
3500.000000	97.936254 
3499.000000	97.934518 
3498.000000	97.931971 
3497.000000	97.927874 
3496.000000	97.922507 
3495.000000	97.917040 
3494.000000	97.912481 
3493.000000	97.908906 
3492.000000	97.905818 
3491.000000	97.902795 
3490.000000	97.899787 
3489.000000	97.896865 
3488.000000	97.893887 
3487.000000	97.890563 
3486.000000	97.886754 
3485.000000	97.882563 
3484.000000	97.878183 
3483.000000	97.873778 
3482.000000	97.869507 
3481.000000	97.865495 
3480.000000	97.861653 
3479.000000	97.857612 
3478.000000	97.853046 
3477.000000	97.848074 
3476.000000	97.843271 
3475.000000	97.839180 
3474.000000	97.835845 
3473.000000	97.832791 
3472.000000	97.829381 
3471.000000	97.825229 
3470.000000	97.820300 
3469.000000	97.814836 
3468.000000	97.809239 
3467.000000	97.803862 
3466.000000	97.798814 
3465.000000	97.793957 
3464.000000	97.789132 
3463.000000	97.784334 
3462.000000	97.779689 
3461.000000	97.775333 
3460.000000	97.771366 
3459.000000	97.767791 
3458.000000	97.764455 
3457.000000	97.761094 
3456.000000	97.757487 
3455.000000	97.753378 
3454.000000	97.748452 
3453.000000	97.742690 
3452.000000	97.736499 
3451.000000	97.730409 
3450.000000	97.724482 
3449.000000	97.718220 
3448.000000	97.711392 
3447.000000	97.704719 
3446.000000	97.699378 
3445.000000	97.695776 
3444.000000	97.693102 
3443.000000	97.690055 
3442.000000	97.685899 
3441.000000	97.680785 
3440.000000	97.675288 
3439.000000	97.669791 
3438.000000	97.664178 
3437.000000	97.657993 
3436.000000	97.651006 
3435.000000	97.643807 
3434.000000	97.637776 
3433.000000	97.634107 
3432.000000	97.632587 
3431.000000	97.631369 
3430.000000	97.628348 
3429.000000	97.622898 
3428.000000	97.616334 
3427.000000	97.610686 
3426.000000	97.606871 
3425.000000	97.603955 
3424.000000	97.600112 
3423.000000	97.594382 
3422.000000	97.587644 
3421.000000	97.581943 
3420.000000	97.578882 
3419.000000	97.578569 
3418.000000	97.579845 
3417.000000	97.581335 
3416.000000	97.582291 
3415.000000	97.582538 
3414.000000	97.581876 
3413.000000	97.579843 
3412.000000	97.576188 
3411.000000	97.571351 
3410.000000	97.566165 
3409.000000	97.561045 
3408.000000	97.555752 
3407.000000	97.550055 
3406.000000	97.544382 
3405.000000	97.539609 
3404.000000	97.536267 
3403.000000	97.534080 
3402.000000	97.532355 
3401.000000	97.530879 
3400.000000	97.530319 
3399.000000	97.531466 
3398.000000	97.534004 
3397.000000	97.536309 
3396.000000	97.536710 
3395.000000	97.534756 
3394.000000	97.531059 
3393.000000	97.526391 
3392.000000	97.521487 
3391.000000	97.517470 
3390.000000	97.515806 
3389.000000	97.517551 
3388.000000	97.522822 
3387.000000	97.530662 
3386.000000	97.539011 
3385.000000	97.545243 
3384.000000	97.547661 
3383.000000	97.546721 
3382.000000	97.544471 
3381.000000	97.542622 
3380.000000	97.541414 
3379.000000	97.540379 
3378.000000	97.539483 
3377.000000	97.539154 
3376.000000	97.539649 
3375.000000	97.540940 
3374.000000	97.542997 
3373.000000	97.545752 
3372.000000	97.548846 
3371.000000	97.551658 
3370.000000	97.553599 
3369.000000	97.554363 
3368.000000	97.554182 
3367.000000	97.554029 
3366.000000	97.555224 
3365.000000	97.558405 
3364.000000	97.562825 
3363.000000	97.566846 
3362.000000	97.569226 
3361.000000	97.569929 
3360.000000	97.569866 
3359.000000	97.570021 
3358.000000	97.570746 
3357.000000	97.571749 
3356.000000	97.572712 
3355.000000	97.573804 
3354.000000	97.575401 
3353.000000	97.577413 
3352.000000	97.579330 
3351.000000	97.581055 
3350.000000	97.583269 
3349.000000	97.586662 
3348.000000	97.591035 
3347.000000	97.595389 
3346.000000	97.598791 
3345.000000	97.600992 
3344.000000	97.602362 
3343.000000	97.603574 
3342.000000	97.605240 
3341.000000	97.607497 
3340.000000	97.609897 
3339.000000	97.611890 
3338.000000	97.613408 
3337.000000	97.614821 
3336.000000	97.616390 
3335.000000	97.618027 
3334.000000	97.619609 
3333.000000	97.621247 
3332.000000	97.623063 
3331.000000	97.624794 
3330.000000	97.625846 
3329.000000	97.625873 
3328.000000	97.625386 
3327.000000	97.625698 
3326.000000	97.627951 
3325.000000	97.632120 
3324.000000	97.637001 
3323.000000	97.641286 
3322.000000	97.644658 
3321.000000	97.647761 
3320.000000	97.651382 
3319.000000	97.655823 
3318.000000	97.660796 
3317.000000	97.665571 
3316.000000	97.669289 
3315.000000	97.671516 
3314.000000	97.672651 
3313.000000	97.673755 
3312.000000	97.675786 
3311.000000	97.678959 
3310.000000	97.682776 
3309.000000	97.686441 
3308.000000	97.689331 
3307.000000	97.691312 
3306.000000	97.692837 
3305.000000	97.694705 
3304.000000	97.697443 
3303.000000	97.700838 
3302.000000	97.704093 
3301.000000	97.706543 
3300.000000	97.708174 
3299.000000	97.709524 
3298.000000	97.711238 
3297.000000	97.713699 
3296.000000	97.716978 
3295.000000	97.720843 
3294.000000	97.724776 
3293.000000	97.728229 
3292.000000	97.731071 
3291.000000	97.733714 
3290.000000	97.736691 
3289.000000	97.740057 
3288.000000	97.743328 
3287.000000	97.746047 
3286.000000	97.748240 
3285.000000	97.750269 
3284.000000	97.752406 
3283.000000	97.754668 
3282.000000	97.757008 
3281.000000	97.759499 
3280.000000	97.762289 
3279.000000	97.765409 
3278.000000	97.768697 
3277.000000	97.771900 
3276.000000	97.774820 
3275.000000	97.777351 
3274.000000	97.779438 
3273.000000	97.781143 
3272.000000	97.782810 
3271.000000	97.784974 
3270.000000	97.787937 
3269.000000	97.791463 
3268.000000	97.794969 
3267.000000	97.798081 
3266.000000	97.800875 
3265.000000	97.803637 
3264.000000	97.806663 
3263.000000	97.810219 
3262.000000	97.814365 
3261.000000	97.818656 
3260.000000	97.822367 
3259.000000	97.825220 
3258.000000	97.827712 
3257.000000	97.830598 
3256.000000	97.834050 
3255.000000	97.837608 
3254.000000	97.840849 
3253.000000	97.843826 
3252.000000	97.846868 
3251.000000	97.850177 
3250.000000	97.853706 
3249.000000	97.857264 
3248.000000	97.860654 
3247.000000	97.863801 
3246.000000	97.866849 
3245.000000	97.870054 
3244.000000	97.873499 
3243.000000	97.876978 
3242.000000	97.880202 
3241.000000	97.883119 
3240.000000	97.885984 
3239.000000	97.889122 
3238.000000	97.892660 
3237.000000	97.896533 
3236.000000	97.900603 
3235.000000	97.904708 
3234.000000	97.908616 
3233.000000	97.912122 
3232.000000	97.915266 
3231.000000	97.918320 
3230.000000	97.921484 
3229.000000	97.924672 
3228.000000	97.927727 
3227.000000	97.930770 
3226.000000	97.934136 
3225.000000	97.937947 
3224.000000	97.941944 
3223.000000	97.945812 
3222.000000	97.949543 
3221.000000	97.953285 
3220.000000	97.956996 
3219.000000	97.960455 
3218.000000	97.963675 
3217.000000	97.967086 
3216.000000	97.971125 
3215.000000	97.975779 
3214.000000	97.980572 
3213.000000	97.984959 
3212.000000	97.988742 
3211.000000	97.992094 
3210.000000	97.995391 
3209.000000	97.998972 
3208.000000	98.003014 
3207.000000	98.007430 
3206.000000	98.011745 
3205.000000	98.015310 
3204.000000	98.017909 
3203.000000	98.020119 
3202.000000	98.022821 
3201.000000	98.026332 
3200.000000	98.030291 
3199.000000	98.034284 
3198.000000	98.038208 
3197.000000	98.042040 
3196.000000	98.045777 
3195.000000	98.049822 
3194.000000	98.054856 
3193.000000	98.060871 
3192.000000	98.066649 
3191.000000	98.070829 
3190.000000	98.073425 
3189.000000	98.075867 
3188.000000	98.079534 
3187.000000	98.084597 
3186.000000	98.090277 
3185.000000	98.095688 
3184.000000	98.100276 
3183.000000	98.103924 
3182.000000	98.106967 
3181.000000	98.109915 
3180.000000	98.113004 
3179.000000	98.116182 
3178.000000	98.119632 
3177.000000	98.123985 
3176.000000	98.129790 
3175.000000	98.136954 
3174.000000	98.144784 
3173.000000	98.152351 
3172.000000	98.158794 
3171.000000	98.163562 
3170.000000	98.166751 
3169.000000	98.169118 
3168.000000	98.171436 
3167.000000	98.173833 
3166.000000	98.175890 
3165.000000	98.177383 
3164.000000	98.178772 
3163.000000	98.180938 
3162.000000	98.184513 
3161.000000	98.189498 
3160.000000	98.195403 
3159.000000	98.201509 
3158.000000	98.206960 
3157.000000	98.210900 
3156.000000	98.212949 
3155.000000	98.213675 
3154.000000	98.214413 
3153.000000	98.216200 
3152.000000	98.218992 
3151.000000	98.222131 
3150.000000	98.225399 
3149.000000	98.229300 
3148.000000	98.234234 
3147.000000	98.239729 
3146.000000	98.244665 
3145.000000	98.248220 
3144.000000	98.250506 
3143.000000	98.252459 
3142.000000	98.255132 
3141.000000	98.258906 
3140.000000	98.263337 
3139.000000	98.267624 
3138.000000	98.271217 
3137.000000	98.274027 
3136.000000	98.276329 
3135.000000	98.278620 
3134.000000	98.281347 
3133.000000	98.284490 
3132.000000	98.287474 
3131.000000	98.289831 
3130.000000	98.291914 
3129.000000	98.294679 
3128.000000	98.298660 
3127.000000	98.303406 
3126.000000	98.307883 
3125.000000	98.311450 
3124.000000	98.314280 
3123.000000	98.316993 
3122.000000	98.319961 
3121.000000	98.323048 
3120.000000	98.325991 
3119.000000	98.328884 
3118.000000	98.332083 
3117.000000	98.335601 
3116.000000	98.338859 
3115.000000	98.341289 
3114.000000	98.343000 
3113.000000	98.344606 
3112.000000	98.346484 
3111.000000	98.348558 
3110.000000	98.350772 
3109.000000	98.353181 
3108.000000	98.355519 
3107.000000	98.357263 
3106.000000	98.358452 
3105.000000	98.359972 
3104.000000	98.362552 
3103.000000	98.365859 
3102.000000	98.368972 
3101.000000	98.371613 
3100.000000	98.374400 
3099.000000	98.377973 
3098.000000	98.382333 
3097.000000	98.386940 
3096.000000	98.391054 
3095.000000	98.394092 
3094.000000	98.395984 
3093.000000	98.397291 
3092.000000	98.398865 
3091.000000	98.401247 
3090.000000	98.404398 
3089.000000	98.407841 
3088.000000	98.410983 
3087.000000	98.413464 
3086.000000	98.415446 
3085.000000	98.417580 
3084.000000	98.420428 
3083.000000	98.423771 
3082.000000	98.426637 
3081.000000	98.428217 
3080.000000	98.428694 
3079.000000	98.429206 
3078.000000	98.430890 
3077.000000	98.434091 
3076.000000	98.438413 
3075.000000	98.443378 
3074.000000	98.448833 
3073.000000	98.454505 
3072.000000	98.459240 
3071.000000	98.461325 
3070.000000	98.460068 
3069.000000	98.456918 
3068.000000	98.454368 
3067.000000	98.453713 
3066.000000	98.454616 
3065.000000	98.456772 
3064.000000	98.460863 
3063.000000	98.467085 
3062.000000	98.473448 
3061.000000	98.476706 
3060.000000	98.475217 
3059.000000	98.470464 
3058.000000	98.465819 
3057.000000	98.464027 
3056.000000	98.465859 
3055.000000	98.470606 
3054.000000	98.477081 
3053.000000	98.483753 
3052.000000	98.488489 
3051.000000	98.489412 
3050.000000	98.486776 
3049.000000	98.483468 
3048.000000	98.482705 
3047.000000	98.485170 
3046.000000	98.488986 
3045.000000	98.492028 
3044.000000	98.493461 
3043.000000	98.493433 
3042.000000	98.492567 
3041.000000	98.491876 
3040.000000	98.491987 
3039.000000	98.492077 
3038.000000	98.490550 
3037.000000	98.486898 
3036.000000	98.481798 
3035.000000	98.475417 
3034.000000	98.467065 
3033.000000	98.456931 
3032.000000	98.446690 
3031.000000	98.437639 
3030.000000	98.429669 
3029.000000	98.423182 
3028.000000	98.420434 
3027.000000	98.423012 
3026.000000	98.428419 
3025.000000	98.431017 
3024.000000	98.427014 
3023.000000	98.417741 
3022.000000	98.407957 
3021.000000	98.401181 
3020.000000	98.396316 
3019.000000	98.388623 
3018.000000	98.374501 
3017.000000	98.355769 
3016.000000	98.338605 
3015.000000	98.327508 
3014.000000	98.321258 
3013.000000	98.315418 
3012.000000	98.307487 
3011.000000	98.298221 
3010.000000	98.289090 
3009.000000	98.280743 
3008.000000	98.273857 
3007.000000	98.269379 
3006.000000	98.267140 
3005.000000	98.265271 
3004.000000	98.261324 
3003.000000	98.253253 
3002.000000	98.239584 
3001.000000	98.220212 
3000.000000	98.197445 
2999.000000	98.174955 
2998.000000	98.155149 
2997.000000	98.138511 
2996.000000	98.125479 
2995.000000	98.117131 
2994.000000	98.112971 
2993.000000	98.109387 
2992.000000	98.101890 
2991.000000	98.088794 
2990.000000	98.072356 
2989.000000	98.057108 
2988.000000	98.047433 
2987.000000	98.045411 
2986.000000	98.049529 
2985.000000	98.055785 
2984.000000	98.061017 
2983.000000	98.064946 
2982.000000	98.068618 
2981.000000	98.071972 
2980.000000	98.074198 
2979.000000	98.075673 
2978.000000	98.077744 
2977.000000	98.080512 
2976.000000	98.082137 
2975.000000	98.080679 
2974.000000	98.075851 
2973.000000	98.068865 
2972.000000	98.061517 
2971.000000	98.055756 
2970.000000	98.053174 
2969.000000	98.054097 
2968.000000	98.057474 
2967.000000	98.062232 
2966.000000	98.068425 
2965.000000	98.076563 
2964.000000	98.086232 
2963.000000	98.096065 
2962.000000	98.105015 
2961.000000	98.112998 
2960.000000	98.120111 
2959.000000	98.125937 
2958.000000	98.130187 
2957.000000	98.133538 
2956.000000	98.137027 
2955.000000	98.140816 
2954.000000	98.144612 
2953.000000	98.149406 
2952.000000	98.157390 
2951.000000	98.169006 
2950.000000	98.180815 
2949.000000	98.187825 
2948.000000	98.188155 
2947.000000	98.184712 
2946.000000	98.182454 
2945.000000	98.184559 
2944.000000	98.190946 
2943.000000	98.199082 
2942.000000	98.205529 
2941.000000	98.207618 
2940.000000	98.204741 
2939.000000	98.198556 
2938.000000	98.192050 
2937.000000	98.188169 
2936.000000	98.188385 
2935.000000	98.191501 
2934.000000	98.194090 
2933.000000	98.193314 
2932.000000	98.189430 
2931.000000	98.184554 
2930.000000	98.179323 
2929.000000	98.172719 
2928.000000	98.165538 
2927.000000	98.161580 
2926.000000	98.163578 
2925.000000	98.169228 
2924.000000	98.173150 
2923.000000	98.172351 
2922.000000	98.168191 
2921.000000	98.163586 
2920.000000	98.160192 
2919.000000	98.158414 
2918.000000	98.158252 
2917.000000	98.159238 
2916.000000	98.160397 
2915.000000	98.161037 
2914.000000	98.161396 
2913.000000	98.162370 
2912.000000	98.164841 
2911.000000	98.169128 
2910.000000	98.174638 
2909.000000	98.180121 
2908.000000	98.184568 
2907.000000	98.187577 
2906.000000	98.188668 
2905.000000	98.187081 
2904.000000	98.183129 
2903.000000	98.179215 
2902.000000	98.178514 
2901.000000	98.182849 
2900.000000	98.192356 
2899.000000	98.206083 
2898.000000	98.221526 
2897.000000	98.234537 
2896.000000	98.241950 
2895.000000	98.244662 
2894.000000	98.246743 
2893.000000	98.251093 
2892.000000	98.257231 
2891.000000	98.263502 
2890.000000	98.269693 
2889.000000	98.276469 
2888.000000	98.283612 
2887.000000	98.290332 
2886.000000	98.296813 
2885.000000	98.304260 
2884.000000	98.313401 
2883.000000	98.323645 
2882.000000	98.333675 
2881.000000	98.342552 
2880.000000	98.350352 
2879.000000	98.357981 
2878.000000	98.366062 
2877.000000	98.373999 
2876.000000	98.380711 
2875.000000	98.386387 
2874.000000	98.392717 
2873.000000	98.400923 
2872.000000	98.410205 
2871.000000	98.418625 
2870.000000	98.425005 
2869.000000	98.429541 
2868.000000	98.433245 
2867.000000	98.437436 
2866.000000	98.443145 
2865.000000	98.450111 
2864.000000	98.456676 
2863.000000	98.461483 
2862.000000	98.465133 
2861.000000	98.469472 
2860.000000	98.475567 
2859.000000	98.483235 
2858.000000	98.492139 
2857.000000	98.502130 
2856.000000	98.512452 
2855.000000	98.521774 
2854.000000	98.529559 
2853.000000	98.536726 
2852.000000	98.544518 
2851.000000	98.553260 
2850.000000	98.562704 
2849.000000	98.572884 
2848.000000	98.583800 
2847.000000	98.594477 
2846.000000	98.603245 
2845.000000	98.609271 
2844.000000	98.613441 
2843.000000	98.617507 
2842.000000	98.622551 
2841.000000	98.628615 
2840.000000	98.635562 
2839.000000	98.643589 
2838.000000	98.652525 
2837.000000	98.661091 
2836.000000	98.667618 
2835.000000	98.671669 
2834.000000	98.674504 
2833.000000	98.677605 
2832.000000	98.680945 
2831.000000	98.683233 
2830.000000	98.683890 
2829.000000	98.684361 
2828.000000	98.687057 
2827.000000	98.692942 
2826.000000	98.700410 
2825.000000	98.706708 
2824.000000	98.710331 
2823.000000	98.711803 
2822.000000	98.712440 
2821.000000	98.713074 
2820.000000	98.714242 
2819.000000	98.716847 
2818.000000	98.721708 
2817.000000	98.728581 
2816.000000	98.736254 
2815.000000	98.743567 
2814.000000	98.749779 
2813.000000	98.754147 
2812.000000	98.756175 
2811.000000	98.756487 
2810.000000	98.756527 
2809.000000	98.756888 
2808.000000	98.756666 
2807.000000	98.755037 
2806.000000	98.752829 
2805.000000	98.751793 
2804.000000	98.752735 
2803.000000	98.755054 
2802.000000	98.757785 
2801.000000	98.760342 
2800.000000	98.762463 
2799.000000	98.764218 
2798.000000	98.766112 
2797.000000	98.768494 
2796.000000	98.770807 
2795.000000	98.772092 
2794.000000	98.772344 
2793.000000	98.772714 
2792.000000	98.774070 
2791.000000	98.775941 
2790.000000	98.777358 
2789.000000	98.778276 
2788.000000	98.779520 
2787.000000	98.781479 
2786.000000	98.783521 
2785.000000	98.784838 
2784.000000	98.785411 
2783.000000	98.785857 
2782.000000	98.786631 
2781.000000	98.787689 
2780.000000	98.788769 
2779.000000	98.789698 
2778.000000	98.790499 
2777.000000	98.791361 
2776.000000	98.792448 
2775.000000	98.793673 
2774.000000	98.794825 
2773.000000	98.795867 
2772.000000	98.796894 
2771.000000	98.797923 
2770.000000	98.798959 
2769.000000	98.800004 
2768.000000	98.801050 
2767.000000	98.802092 
2766.000000	98.803128 
2765.000000	98.804157 
2764.000000	98.805177 
2763.000000	98.806179 
2762.000000	98.807158 
2761.000000	98.808113 
2760.000000	98.809052 
2759.000000	98.809981 
2758.000000	98.810907 
2757.000000	98.811832 
2756.000000	98.812751 
2755.000000	98.813660 
2754.000000	98.814553 
2753.000000	98.815432 
2752.000000	98.816304 
2751.000000	98.817176 
2750.000000	98.818055 
2749.000000	98.818941 
2748.000000	98.819831 
2747.000000	98.820720 
2746.000000	98.821608 
2745.000000	98.822494 
2744.000000	98.823377 
2743.000000	98.824256 
2742.000000	98.825135 
2741.000000	98.826010 
2740.000000	98.826873 
2739.000000	98.827729 
2738.000000	98.828616 
2737.000000	98.829595 
2736.000000	98.830702 
2735.000000	98.831865 
2734.000000	98.832931 
2733.000000	98.833794 
2732.000000	98.834513 
2731.000000	98.835270 
2730.000000	98.836170 
2729.000000	98.837132 
2728.000000	98.837970 
2727.000000	98.838605 
2726.000000	98.839157 
2725.000000	98.839784 
2724.000000	98.840478 
2723.000000	98.841128 
2722.000000	98.841780 
2721.000000	98.842619 
2720.000000	98.843677 
2719.000000	98.844757 
2718.000000	98.845718 
2717.000000	98.846645 
2716.000000	98.847605 
2715.000000	98.848397 
2714.000000	98.848832 
2713.000000	98.849183 
2712.000000	98.850035 
2711.000000	98.851603 
2710.000000	98.853479 
2709.000000	98.855178 
2708.000000	98.856671 
2707.000000	98.858123 
2706.000000	98.859291 
2705.000000	98.859554 
2704.000000	98.858636 
2703.000000	98.857130 
2702.000000	98.856144 
2701.000000	98.856403 
2700.000000	98.857834 
2699.000000	98.859951 
2698.000000	98.862467 
2697.000000	98.865368 
2696.000000	98.868384 
2695.000000	98.870697 
2694.000000	98.871554 
2693.000000	98.871110 
2692.000000	98.870514 
2691.000000	98.870828 
2690.000000	98.871956 
2689.000000	98.873019 
2688.000000	98.873553 
2687.000000	98.873918 
2686.000000	98.874575 
2685.000000	98.875323 
2684.000000	98.875474 
2683.000000	98.874655 
2682.000000	98.873255 
2681.000000	98.872124 
2680.000000	98.871985 
2679.000000	98.872951 
2678.000000	98.874479 
2677.000000	98.875876 
2676.000000	98.876923 
2675.000000	98.877808 
2674.000000	98.878431 
2673.000000	98.878217 
2672.000000	98.876892 
2671.000000	98.875136 
2670.000000	98.874019 
2669.000000	98.873834 
2668.000000	98.873913 
2667.000000	98.873562 
2666.000000	98.872766 
2665.000000	98.871902 
2664.000000	98.871146 
2663.000000	98.870405 
2662.000000	98.869658 
2661.000000	98.869042 
2660.000000	98.868650 
2659.000000	98.868412 
2658.000000	98.868219 
2657.000000	98.868053 
2656.000000	98.867946 
2655.000000	98.867814 
2654.000000	98.867385 
2653.000000	98.866398 
2652.000000	98.865020 
2651.000000	98.864012 
2650.000000	98.864125 
2649.000000	98.865343 
2648.000000	98.866757 
2647.000000	98.867377 
2646.000000	98.867123 
2645.000000	98.866804 
2644.000000	98.867259 
2643.000000	98.868518 
2642.000000	98.869778 
2641.000000	98.870138 
2640.000000	98.869323 
2639.000000	98.867780 
2638.000000	98.866296 
2637.000000	98.865354 
2636.000000	98.865008 
2635.000000	98.865207 
2634.000000	98.865961 
2633.000000	98.867090 
2632.000000	98.868082 
2631.000000	98.868567 
2630.000000	98.868782 
2629.000000	98.869202 
2628.000000	98.869792 
2627.000000	98.870079 
2626.000000	98.869999 
2625.000000	98.870107 
2624.000000	98.870710 
2623.000000	98.871333 
2622.000000	98.871494 
2621.000000	98.871544 
2620.000000	98.872159 
2619.000000	98.873315 
2618.000000	98.874378 
2617.000000	98.875127 
2616.000000	98.876026 
2615.000000	98.877460 
2614.000000	98.879295 
2613.000000	98.881315 
2612.000000	98.883549 
2611.000000	98.885855 
2610.000000	98.887657 
2609.000000	98.888576 
2608.000000	98.889000 
2607.000000	98.889576 
2606.000000	98.890358 
2605.000000	98.890957 
2604.000000	98.891384 
2603.000000	98.892165 
2602.000000	98.893416 
2601.000000	98.894508 
2600.000000	98.895004 
2599.000000	98.895236 
2598.000000	98.895521 
2597.000000	98.895373 
2596.000000	98.894179 
2595.000000	98.892335 
2594.000000	98.891183 
2593.000000	98.891617 
2592.000000	98.893249 
2591.000000	98.895103 
2590.000000	98.896554 
2589.000000	98.897469 
2588.000000	98.897917 
2587.000000	98.898079 
2586.000000	98.898198 
2585.000000	98.898441 
2584.000000	98.898817 
2583.000000	98.899275 
2582.000000	98.899798 
2581.000000	98.900393 
2580.000000	98.901026 
2579.000000	98.901633 
2578.000000	98.902191 
2577.000000	98.902720 
2576.000000	98.903234 
2575.000000	98.903721 
2574.000000	98.904189 
2573.000000	98.904677 
2572.000000	98.905216 
2571.000000	98.905799 
2570.000000	98.906400 
2569.000000	98.906999 
2568.000000	98.907565 
2567.000000	98.908053 
2566.000000	98.908460 
2565.000000	98.908869 
2564.000000	98.909394 
2563.000000	98.910051 
2562.000000	98.910733 
2561.000000	98.911316 
2560.000000	98.911784 
2559.000000	98.912223 
2558.000000	98.912703 
2557.000000	98.913221 
2556.000000	98.913773 
2555.000000	98.914422 
2554.000000	98.915249 
2553.000000	98.916232 
2552.000000	98.917208 
2551.000000	98.917989 
2550.000000	98.918474 
2549.000000	98.918698 
2548.000000	98.918854 
2547.000000	98.919197 
2546.000000	98.919908 
2545.000000	98.921040 
2544.000000	98.922486 
2543.000000	98.923990 
2542.000000	98.925248 
2541.000000	98.925923 
2540.000000	98.925806 
2539.000000	98.925151 
2538.000000	98.924640 
2537.000000	98.924741 
2536.000000	98.925232 
2535.000000	98.925553 
2534.000000	98.925624 
2533.000000	98.925942 
2532.000000	98.926661 
2531.000000	98.927071 
2530.000000	98.926544 
2529.000000	98.925480 
2528.000000	98.924665 
2527.000000	98.924169 
2526.000000	98.923746 
2525.000000	98.923933 
2524.000000	98.925525 
2523.000000	98.927970 
2522.000000	98.929502 
2521.000000	98.929317 
2520.000000	98.928537 
2519.000000	98.928407 
2518.000000	98.928351 
2517.000000	98.926828 
2516.000000	98.923754 
2515.000000	98.921244 
2514.000000	98.921762 
2513.000000	98.925906 
2512.000000	98.931785 
2511.000000	98.936354 
2510.000000	98.937736 
2509.000000	98.936113 
2508.000000	98.932434 
2507.000000	98.926888 
2506.000000	98.919630 
2505.000000	98.912742 
2504.000000	98.909488 
2503.000000	98.910637 
2502.000000	98.912829 
2501.000000	98.912131 
2500.000000	98.908972 
2499.000000	98.907892 
2498.000000	98.912587 
2497.000000	98.922711 
2496.000000	98.934783 
2495.000000	98.945053 
2494.000000	98.951388 
2493.000000	98.953194 
2492.000000	98.950844 
2491.000000	98.945587 
2490.000000	98.939634 
2489.000000	98.935536 
2488.000000	98.934611 
2487.000000	98.935856 
2486.000000	98.936933 
2485.000000	98.936527 
2484.000000	98.935184 
2483.000000	98.933650 
2482.000000	98.931492 
2481.000000	98.928177 
2480.000000	98.924470 
2479.000000	98.921605 
2478.000000	98.919758 
2477.000000	98.918535 
2476.000000	98.918490 
2475.000000	98.920549 
2474.000000	98.923967 
2473.000000	98.926349 
2472.000000	98.926306 
2471.000000	98.924908 
2470.000000	98.923996 
2469.000000	98.924000 
2468.000000	98.924224 
2467.000000	98.924414 
2466.000000	98.924956 
2465.000000	98.925872 
2464.000000	98.926567 
2463.000000	98.926624 
2462.000000	98.926182 
2461.000000	98.925484 
2460.000000	98.924609 
2459.000000	98.923734 
2458.000000	98.923232 
2457.000000	98.923245 
2456.000000	98.923472 
2455.000000	98.923546 
2454.000000	98.923376 
2453.000000	98.923135 
2452.000000	98.922935 
2451.000000	98.922787 
2450.000000	98.922707 
2449.000000	98.922701 
2448.000000	98.922764 
2447.000000	98.922888 
2446.000000	98.923067 
2445.000000	98.923294 
2444.000000	98.923554 
2443.000000	98.923829 
2442.000000	98.924107 
2441.000000	98.924392 
2440.000000	98.924699 
2439.000000	98.925040 
2438.000000	98.925406 
2437.000000	98.925771 
2436.000000	98.926106 
2435.000000	98.926395 
2434.000000	98.926636 
2433.000000	98.926838 
2432.000000	98.927011 
2431.000000	98.927169 
2430.000000	98.927320 
2429.000000	98.927464 
2428.000000	98.927592 
2427.000000	98.927700 
2426.000000	98.927791 
2425.000000	98.927877 
2424.000000	98.927973 
2423.000000	98.928093 
2422.000000	98.928249 
2421.000000	98.928444 
2420.000000	98.928667 
2419.000000	98.928910 
2418.000000	98.929171 
2417.000000	98.929440 
2416.000000	98.929705 
2415.000000	98.929980 
2414.000000	98.930298 
2413.000000	98.930644 
2412.000000	98.930942 
2411.000000	98.931175 
2410.000000	98.931432 
2409.000000	98.931762 
2408.000000	98.932134 
2407.000000	98.932539 
2406.000000	98.933013 
2405.000000	98.933541 
2404.000000	98.934034 
2403.000000	98.934453 
2402.000000	98.934861 
2401.000000	98.935296 
2400.000000	98.935710 
2399.000000	98.936086 
2398.000000	98.936528 
2397.000000	98.937161 
2396.000000	98.937954 
2395.000000	98.938694 
2394.000000	98.939199 
2393.000000	98.939519 
2392.000000	98.939949 
2391.000000	98.940766 
2390.000000	98.941956 
2389.000000	98.943289 
2388.000000	98.944670 
2387.000000	98.946189 
2386.000000	98.947825 
2385.000000	98.949370 
2384.000000	98.950677 
2383.000000	98.951843 
2382.000000	98.953053 
2381.000000	98.954338 
2380.000000	98.955580 
2379.000000	98.956710 
2378.000000	98.957796 
2377.000000	98.958949 
2376.000000	98.960200 
2375.000000	98.961508 
2374.000000	98.962799 
2373.000000	98.964001 
2372.000000	98.965077 
2371.000000	98.966045 
2370.000000	98.966963 
2369.000000	98.967915 
2368.000000	98.968948 
2367.000000	98.970047 
2366.000000	98.971164 
2365.000000	98.972233 
2364.000000	98.973200 
2363.000000	98.974023 
2362.000000	98.974676 
2361.000000	98.975206 
2360.000000	98.975734 
2359.000000	98.976341 
2358.000000	98.976968 
2357.000000	98.977440 
2356.000000	98.977706 
2355.000000	98.977976 
2354.000000	98.978484 
2353.000000	98.979131 
2352.000000	98.979491 
2351.000000	98.979324 
2350.000000	98.978791 
2349.000000	98.978235 
2348.000000	98.977890 
2347.000000	98.977804 
2346.000000	98.977883 
2345.000000	98.977821 
2344.000000	98.977290 
2343.000000	98.976259 
2342.000000	98.974985 
2341.000000	98.973818 
2340.000000	98.972953 
2339.000000	98.972572 
2338.000000	98.972801 
2337.000000	98.973431 
2336.000000	98.973761 
2335.000000	98.973216 
2334.000000	98.972084 
2333.000000	98.971397 
2332.000000	98.971596 
2331.000000	98.971920 
2330.000000	98.971322 
2329.000000	98.969569 
2328.000000	98.967080 
2327.000000	98.963750 
2326.000000	98.959256 
2325.000000	98.953946 
2324.000000	98.949405 
2323.000000	98.947285 
2322.000000	98.947985 
2321.000000	98.950234 
2320.000000	98.951677 
2319.000000	98.950862 
2318.000000	98.948288 
2317.000000	98.945906 
2316.000000	98.945033 
2315.000000	98.945178 
2314.000000	98.945130 
2313.000000	98.944750 
2312.000000	98.944926 
2311.000000	98.945701 
2310.000000	98.945858 
2309.000000	98.944587 
2308.000000	98.942861 
2307.000000	98.942178 
2306.000000	98.942635 
2305.000000	98.942923 
2304.000000	98.942322 
2303.000000	98.941725 
2302.000000	98.942485 
2301.000000	98.944800 
2300.000000	98.947624 
2299.000000	98.949733 
2298.000000	98.950569 
2297.000000	98.950051 
2296.000000	98.948141 
2295.000000	98.944759 
2294.000000	98.940439 
2293.000000	98.936810 
2292.000000	98.935981 
2291.000000	98.938708 
2290.000000	98.943237 
2289.000000	98.946356 
2288.000000	98.946370 
2287.000000	98.944407 
2286.000000	98.942567 
2285.000000	98.941281 
2284.000000	98.939430 
2283.000000	98.936936 
2282.000000	98.935966 
2281.000000	98.938847 
2280.000000	98.945563 
2279.000000	98.953826 
2278.000000	98.961194 
2277.000000	98.966603 
2276.000000	98.969893 
2275.000000	98.970938 
2274.000000	98.969972 
2273.000000	98.968725 
2272.000000	98.970183 
2271.000000	98.976133 
2270.000000	98.984904 
2269.000000	98.992418 
2268.000000	98.996287 
2267.000000	98.997888 
2266.000000	98.999778 
2265.000000	99.001753 
2264.000000	99.001085 
2263.000000	98.996367 
2262.000000	98.989585 
2261.000000	98.984090 
2260.000000	98.981688 
2259.000000	98.982414 
2258.000000	98.985792 
2257.000000	98.991407 
2256.000000	98.998449 
2255.000000	99.005945 
2254.000000	99.013474 
2253.000000	99.020898 
2252.000000	99.027781 
2251.000000	99.033464 
2250.000000	99.037487 
2249.000000	99.039818 
2248.000000	99.041051 
2247.000000	99.042426 
2246.000000	99.045021 
2245.000000	99.048542 
2244.000000	99.051335 
2243.000000	99.052053 
2242.000000	99.051092 
2241.000000	99.050160 
2240.000000	99.050773 
2239.000000	99.053353 
2238.000000	99.057179 
2237.000000	99.060765 
2236.000000	99.062875 
2235.000000	99.063712 
2234.000000	99.064810 
2233.000000	99.067234 
2232.000000	99.070177 
2231.000000	99.072025 
2230.000000	99.072521 
2229.000000	99.073123 
2228.000000	99.075193 
2227.000000	99.078480 
2226.000000	99.081654 
2225.000000	99.083762 
2224.000000	99.084891 
2223.000000	99.085674 
2222.000000	99.086607 
2221.000000	99.087645 
2220.000000	99.088369 
2219.000000	99.088674 
2218.000000	99.089215 
2217.000000	99.090817 
2216.000000	99.093448 
2215.000000	99.096089 
2214.000000	99.097695 
2213.000000	99.098083 
2212.000000	99.098148 
2211.000000	99.098863 
2210.000000	99.100051 
2209.000000	99.100833 
2208.000000	99.101203 
2207.000000	99.101961 
2206.000000	99.103271 
2205.000000	99.104550 
2204.000000	99.105885 
2203.000000	99.108304 
2202.000000	99.112030 
2201.000000	99.115528 
2200.000000	99.116883 
2199.000000	99.115860 
2198.000000	99.114680 
2197.000000	99.116121 
2196.000000	99.120630 
2195.000000	99.125993 
2194.000000	99.130338 
2193.000000	99.134214 
2192.000000	99.139132 
2191.000000	99.145278 
2190.000000	99.151681 
2189.000000	99.157786 
2188.000000	99.163284 
2187.000000	99.166690 
2186.000000	99.166292 
2185.000000	99.163384 
2184.000000	99.162668 
2183.000000	99.167701 
2182.000000	99.177273 
2181.000000	99.187586 
2180.000000	99.196591 
2179.000000	99.204157 
2178.000000	99.209482 
2177.000000	99.211319 
2176.000000	99.209848 
2175.000000	99.205189 
2174.000000	99.194996 
2173.000000	99.178150 
2172.000000	99.161551 
2171.000000	99.157808 
2170.000000	99.173056 
2169.000000	99.199539 
2168.000000	99.222308 
2167.000000	99.233841 
2166.000000	99.238308 
2165.000000	99.242696 
2164.000000	99.248564 
2163.000000	99.254020 
2162.000000	99.260498 
2161.000000	99.274006 
2160.000000	99.299095 
2159.000000	99.331877 
2158.000000	99.359676 
2157.000000	99.369966 
2156.000000	99.360110 
2155.000000	99.338226 
2154.000000	99.316175 
2153.000000	99.301295 
2152.000000	99.293529 
2151.000000	99.288967 
2150.000000	99.284989 
2149.000000	99.282435 
2148.000000	99.283588 
2147.000000	99.288010 
2146.000000	99.290643 
2145.000000	99.285295 
2144.000000	99.270667 
2143.000000	99.252090 
2142.000000	99.236579 
2141.000000	99.226866 
2140.000000	99.221069 
2139.000000	99.216812 
2138.000000	99.213687 
2137.000000	99.211914 
2136.000000	99.210630 
2135.000000	99.208249 
2134.000000	99.203608 
2133.000000	99.196533 
2132.000000	99.188106 
2131.000000	99.180095 
2130.000000	99.172731 
2129.000000	99.163094 
2128.000000	99.147799 
2127.000000	99.128402 
2126.000000	99.112477 
2125.000000	99.107524 
2124.000000	99.114011 
2123.000000	99.125338 
2122.000000	99.134075 
2121.000000	99.136917 
2120.000000	99.134123 
2119.000000	99.126711 
2118.000000	99.115899 
2117.000000	99.104425 
2116.000000	99.096432 
2115.000000	99.095028 
2114.000000	99.099740 
2113.000000	99.106163 
2112.000000	99.109330 
2111.000000	99.108154 
2110.000000	99.106066 
2109.000000	99.106821 
2108.000000	99.110051 
2107.000000	99.112089 
2106.000000	99.111118 
2105.000000	99.109966 
2104.000000	99.112761 
2103.000000	99.119866 
2102.000000	99.127159 
2101.000000	99.130021 
2100.000000	99.127309 
2099.000000	99.121612 
2098.000000	99.117110 
2097.000000	99.117010 
2096.000000	99.121919 
2095.000000	99.129637 
2094.000000	99.136635 
2093.000000	99.140716 
2092.000000	99.142151 
2091.000000	99.142271 
2090.000000	99.141893 
2089.000000	99.141455 
2088.000000	99.141749 
2087.000000	99.143258 
2086.000000	99.145053 
2085.000000	99.145742 
2084.000000	99.145878 
2083.000000	99.148059 
2082.000000	99.153674 
2081.000000	99.160313 
2080.000000	99.163852 
2079.000000	99.163350 
2078.000000	99.162603 
2077.000000	99.165888 
2076.000000	99.172861 
2075.000000	99.178956 
2074.000000	99.180658 
2073.000000	99.178760 
2072.000000	99.176459 
2071.000000	99.175259 
2070.000000	99.174353 
2069.000000	99.173333 
2068.000000	99.173594 
2067.000000	99.176635 
2066.000000	99.181943 
2065.000000	99.187429 
2064.000000	99.191961 
2063.000000	99.196653 
2062.000000	99.203296 
2061.000000	99.211978 
2060.000000	99.220707 
2059.000000	99.227602 
2058.000000	99.232893 
2057.000000	99.238168 
2056.000000	99.243834 
2055.000000	99.248324 
2054.000000	99.250524 
2053.000000	99.252145 
2052.000000	99.256461 
2051.000000	99.264603 
2050.000000	99.274240 
2049.000000	99.281855 
2048.000000	99.285854 
2047.000000	99.287005 
2046.000000	99.286740 
2045.000000	99.286412 
2044.000000	99.287388 
2043.000000	99.290456 
2042.000000	99.295039 
2041.000000	99.299620 
2040.000000	99.303193 
2039.000000	99.305925 
2038.000000	99.308604 
2037.000000	99.312145 
2036.000000	99.317370 
2035.000000	99.324053 
2034.000000	99.329875 
2033.000000	99.331887 
2032.000000	99.330124 
2031.000000	99.328689 
2030.000000	99.331621 
2029.000000	99.338230 
2028.000000	99.343698 
2027.000000	99.344343 
2026.000000	99.340748 
2025.000000	99.336037 
2024.000000	99.332522 
2023.000000	99.330908 
2022.000000	99.331454 
2021.000000	99.333893 
2020.000000	99.336506 
2019.000000	99.337003 
2018.000000	99.334925 
2017.000000	99.332394 
2016.000000	99.331803 
2015.000000	99.333159 
2014.000000	99.334192 
2013.000000	99.332531 
2012.000000	99.327889 
2011.000000	99.323199 
2010.000000	99.323524 
2009.000000	99.332319 
2008.000000	99.347631 
2007.000000	99.362182 
2006.000000	99.369714 
2005.000000	99.369876 
2004.000000	99.366279 
2003.000000	99.361554 
2002.000000	99.356000 
2001.000000	99.350380 
2000.000000	99.346366 
1999.000000	99.343663 
1998.000000	99.339187 
1997.000000	99.330445 
1996.000000	99.318789 
1995.000000	99.308746 
1994.000000	99.304929 
1993.000000	99.309523 
1992.000000	99.320502 
1991.000000	99.331508 
1990.000000	99.336252 
1989.000000	99.334098 
1988.000000	99.330609 
1987.000000	99.332208 
1986.000000	99.340215 
1985.000000	99.350214 
1984.000000	99.356332 
1983.000000	99.356106 
1982.000000	99.351924 
1981.000000	99.348865 
1980.000000	99.350287 
1979.000000	99.355245 
1978.000000	99.360543 
1977.000000	99.364505 
1976.000000	99.367091 
1975.000000	99.367122 
1974.000000	99.362936 
1973.000000	99.356204 
1972.000000	99.351609 
1971.000000	99.351167 
1970.000000	99.351743 
1969.000000	99.349635 
1968.000000	99.345222 
1967.000000	99.341598 
1966.000000	99.340924 
1965.000000	99.344056 
1964.000000	99.351230 
1963.000000	99.360132 
1962.000000	99.365573 
1961.000000	99.364270 
1960.000000	99.358266 
1959.000000	99.351505 
1958.000000	99.344663 
1957.000000	99.336768 
1956.000000	99.329907 
1955.000000	99.327526 
1954.000000	99.328423 
1953.000000	99.326447 
1952.000000	99.317579 
1951.000000	99.304565 
1950.000000	99.293914 
1949.000000	99.289484 
1948.000000	99.290239 
1947.000000	99.292495 
1946.000000	99.293172 
1945.000000	99.291245 
1944.000000	99.286647 
1943.000000	99.279015 
1942.000000	99.268486 
1941.000000	99.257538 
1940.000000	99.249799 
1939.000000	99.246340 
1938.000000	99.244685 
1937.000000	99.242027 
1936.000000	99.238887 
1935.000000	99.237823 
1934.000000	99.239131 
1933.000000	99.240165 
1932.000000	99.239235 
1931.000000	99.237591 
1930.000000	99.236548 
1929.000000	99.234808 
1928.000000	99.229970 
1927.000000	99.221817 
1926.000000	99.212263 
1925.000000	99.203180 
1924.000000	99.195254 
1923.000000	99.188426 
1922.000000	99.182561 
1921.000000	99.177700 
1920.000000	99.174085 
1919.000000	99.171836 
1918.000000	99.169978 
1917.000000	99.166481 
1916.000000	99.160145 
1915.000000	99.151822 
1914.000000	99.143847 
1913.000000	99.138368 
1912.000000	99.135906 
1911.000000	99.135186 
1910.000000	99.134024 
1909.000000	99.130778 
1908.000000	99.125464 
1907.000000	99.119937 
1906.000000	99.116459 
1905.000000	99.115722 
1904.000000	99.116030 
1903.000000	99.114306 
1902.000000	99.108715 
1901.000000	99.100433 
1900.000000	99.092902 
1899.000000	99.088599 
1898.000000	99.087047 
1897.000000	99.086013 
1896.000000	99.084332 
1895.000000	99.082875 
1894.000000	99.082730 
1893.000000	99.083597 
1892.000000	99.084322 
1891.000000	99.084210 
1890.000000	99.083306 
1889.000000	99.081885 
1888.000000	99.080278 
1887.000000	99.078993 
1886.000000	99.078564 
1885.000000	99.078981 
1884.000000	99.079298 
1883.000000	99.078142 
1882.000000	99.074989 
1881.000000	99.070961 
1880.000000	99.067939 
1879.000000	99.066657 
1878.000000	99.065968 
1877.000000	99.064243 
1876.000000	99.061758 
1875.000000	99.060935 
1874.000000	99.063681 
1873.000000	99.069017 
1872.000000	99.073559 
1871.000000	99.074605 
1870.000000	99.072282 
1869.000000	99.069299 
1868.000000	99.068060 
1867.000000	99.067968 
1866.000000	99.066756 
1865.000000	99.063647 
1864.000000	99.060350 
1863.000000	99.059279 
1862.000000	99.061157 
1861.000000	99.064563 
1860.000000	99.067593 
1859.000000	99.069575 
1858.000000	99.071217 
1857.000000	99.073650 
1856.000000	99.077481 
1855.000000	99.082525 
1854.000000	99.087890 
1853.000000	99.092439 
1852.000000	99.095087 
1851.000000	99.095634 
1850.000000	99.095261 
1849.000000	99.095586 
1848.000000	99.097128 
1847.000000	99.098829 
1846.000000	99.099303 
1845.000000	99.098061 
1844.000000	99.095680 
1843.000000	99.093462 
1842.000000	99.092469 
1841.000000	99.092842 
1840.000000	99.094220 
1839.000000	99.096439 
1838.000000	99.099432 
1837.000000	99.102905 
1836.000000	99.106098 
1835.000000	99.108187 
1834.000000	99.109290 
1833.000000	99.110608 
1832.000000	99.112917 
1831.000000	99.115543 
1830.000000	99.116748 
1829.000000	99.115617 
1828.000000	99.113330 
1827.000000	99.111570 
1826.000000	99.111014 
1825.000000	99.111609 
1824.000000	99.113100 
1823.000000	99.115129 
1822.000000	99.117099 
1821.000000	99.118427 
1820.000000	99.118954 
1819.000000	99.119050 
1818.000000	99.119199 
1817.000000	99.119666 
1816.000000	99.120434 
1815.000000	99.121232 
1814.000000	99.121803 
1813.000000	99.122114 
1812.000000	99.122441 
1811.000000	99.123111 
1810.000000	99.124109 
1809.000000	99.125129 
1808.000000	99.125909 
1807.000000	99.126382 
1806.000000	99.126613 
1805.000000	99.126708 
1804.000000	99.126773 
1803.000000	99.126870 
1802.000000	99.127186 
1801.000000	99.127999 
1800.000000	99.129394 
1799.000000	99.131066 
1798.000000	99.132463 
1797.000000	99.133350 
1796.000000	99.133934 
1795.000000	99.134608 
1794.000000	99.135571 
1793.000000	99.136688 
1792.000000	99.137732 
1791.000000	99.138691 
1790.000000	99.139603 
1789.000000	99.140354 
1788.000000	99.140924 
1787.000000	99.141552 
1786.000000	99.142429 
1785.000000	99.143398 
1784.000000	99.144303 
1783.000000	99.145283 
1782.000000	99.146795 
1781.000000	99.148751 
1780.000000	99.150196 
1779.000000	99.150452 
1778.000000	99.150027 
1777.000000	99.150110 
1776.000000	99.151135 
1775.000000	99.152682 
1774.000000	99.154890 
1773.000000	99.158705 
1772.000000	99.163495 
1771.000000	99.166839 
1770.000000	99.167459 
1769.000000	99.166202 
1768.000000	99.165301 
1767.000000	99.166123 
1766.000000	99.167766 
1765.000000	99.168426 
1764.000000	99.167894 
1763.000000	99.167920 
1762.000000	99.170244 
1761.000000	99.173937 
1760.000000	99.176681 
1759.000000	99.177149 
1758.000000	99.175569 
1757.000000	99.173378 
1756.000000	99.171772 
1755.000000	99.171195 
1754.000000	99.171361 
1753.000000	99.171922 
1752.000000	99.172909 
1751.000000	99.174432 
1750.000000	99.175446 
1749.000000	99.174509 
1748.000000	99.171527 
1747.000000	99.167661 
1746.000000	99.164098 
1745.000000	99.160475 
1744.000000	99.156253 
1743.000000	99.152657 
1742.000000	99.151626 
1741.000000	99.153419 
1740.000000	99.156272 
1739.000000	99.157518 
1738.000000	99.155953 
1737.000000	99.151568 
1736.000000	99.144671 
1735.000000	99.136863 
1734.000000	99.129689 
1733.000000	99.124353 
1732.000000	99.122443 
1731.000000	99.123607 
1730.000000	99.126360 
1729.000000	99.129028 
1728.000000	99.129657 
1727.000000	99.126748 
1726.000000	99.119953 
1725.000000	99.109835 
1724.000000	99.099648 
1723.000000	99.094154 
1722.000000	99.094332 
1721.000000	99.096264 
1720.000000	99.095757 
1719.000000	99.093251 
1718.000000	99.090917 
1717.000000	99.086367 
1716.000000	99.077240 
1715.000000	99.065759 
1714.000000	99.055311 
1713.000000	99.047679 
1712.000000	99.042580 
1711.000000	99.038406 
1710.000000	99.033980 
1709.000000	99.029033 
1708.000000	99.022920 
1707.000000	99.015744 
1706.000000	99.009235 
1705.000000	99.004820 
1704.000000	99.001117 
1703.000000	98.993843 
1702.000000	98.980800 
1701.000000	98.967677 
1700.000000	98.961375 
1699.000000	98.959852 
1698.000000	98.954432 
1697.000000	98.940868 
1696.000000	98.924364 
1695.000000	98.911731 
1694.000000	98.903440 
1693.000000	98.894351 
1692.000000	98.880964 
1691.000000	98.864548 
1690.000000	98.848888 
1689.000000	98.837262 
1688.000000	98.828185 
1687.000000	98.816850 
1686.000000	98.799340 
1685.000000	98.777837 
1684.000000	98.759005 
1683.000000	98.745975 
1682.000000	98.736013 
1681.000000	98.724809 
1680.000000	98.712065 
1679.000000	98.699810 
1678.000000	98.688204 
1677.000000	98.675522 
1676.000000	98.662225 
1675.000000	98.650676 
1674.000000	98.642652 
1673.000000	98.635674 
1672.000000	98.625953 
1671.000000	98.612993 
1670.000000	98.598490 
1669.000000	98.583960 
1668.000000	98.570878 
1667.000000	98.559988 
1666.000000	98.549414 
1665.000000	98.535808 
1664.000000	98.519984 
1663.000000	98.506769 
1662.000000	98.499193 
1661.000000	98.494425 
1660.000000	98.486907 
1659.000000	98.475641 
1658.000000	98.464302 
1657.000000	98.454037 
1656.000000	98.439652 
1655.000000	98.418420 
1654.000000	98.401174 
1653.000000	98.394292 
1652.000000	98.391436 
1651.000000	98.392301 
1650.000000	98.392153 
1649.000000	98.385429 
1648.000000	98.373183 
1647.000000	98.360162 
1646.000000	98.351016 
1645.000000	98.349055 
1644.000000	98.354052 
1643.000000	98.361899 
1642.000000	98.369176 
1641.000000	98.374485 
1640.000000	98.376275 
1639.000000	98.373849 
1638.000000	98.367527 
1637.000000	98.360580 
1636.000000	98.355567 
1635.000000	98.351497 
1634.000000	98.350494 
1633.000000	98.354600 
1632.000000	98.362043 
1631.000000	98.369430 
1630.000000	98.374467 
1629.000000	98.378025 
1628.000000	98.383584 
1627.000000	98.392572 
1626.000000	98.403367 
1625.000000	98.413856 
1624.000000	98.424572 
1623.000000	98.437435 
1622.000000	98.453278 
1621.000000	98.470766 
1620.000000	98.485301 
1619.000000	98.493661 
1618.000000	98.499042 
1617.000000	98.509602 
1616.000000	98.527170 
1615.000000	98.545561 
1614.000000	98.559699 
1613.000000	98.569823 
1612.000000	98.579468 
1611.000000	98.590614 
1610.000000	98.602836 
1609.000000	98.615462 
1608.000000	98.628404 
1607.000000	98.641005 
1606.000000	98.653387 
1605.000000	98.666455 
1604.000000	98.679904 
1603.000000	98.693122 
1602.000000	98.706169 
1601.000000	98.719358 
1600.000000	98.732682 
1599.000000	98.746240 
1598.000000	98.760649 
1597.000000	98.775919 
1596.000000	98.791180 
1595.000000	98.805609 
1594.000000	98.819079 
1593.000000	98.831384 
1592.000000	98.841358 
1591.000000	98.847869 
1590.000000	98.851728 
1589.000000	98.855597 
1588.000000	98.861408 
1587.000000	98.868719 
1586.000000	98.875306 
1585.000000	98.880061 
1584.000000	98.882965 
1583.000000	98.885328 
1582.000000	98.889758 
1581.000000	98.897178 
1580.000000	98.904647 
1579.000000	98.909112 
1578.000000	98.912466 
1577.000000	98.920477 
1576.000000	98.934060 
1575.000000	98.946784 
1574.000000	98.955619 
1573.000000	98.960913 
1572.000000	98.962995 
1571.000000	98.964382 
1570.000000	98.969163 
1569.000000	98.978607 
1568.000000	98.988445 
1567.000000	98.994667 
1566.000000	98.997367 
1565.000000	98.999474 
1564.000000	99.002031 
1563.000000	99.004383 
1562.000000	99.005743 
1561.000000	99.007722 
1560.000000	99.013335 
1559.000000	99.020381 
1558.000000	99.020848 
1557.000000	99.020816 
1556.000000	99.024036 
1555.000000	99.027760 
1554.000000	99.031119 
1553.000000	99.032938 
1552.000000	99.031909 
1551.000000	99.029161 
1550.000000	99.028219 
1549.000000	99.031265 
1548.000000	99.036096 
1547.000000	99.038643 
1546.000000	99.037444 
1545.000000	99.034612 
1544.000000	99.033111 
1543.000000	99.034136 
1542.000000	99.037192 
1541.000000	99.042202 
1540.000000	99.048211 
1539.000000	99.052282 
1538.000000	99.054887 
1537.000000	99.057653 
1536.000000	99.060330 
1535.000000	99.062328 
1534.000000	99.063942 
1533.000000	99.065602 
1532.000000	99.067698 
1531.000000	99.070270 
1530.000000	99.072404 
1529.000000	99.073594 
1528.000000	99.074880 
1527.000000	99.077899 
1526.000000	99.083040 
1525.000000	99.088617 
1524.000000	99.092608 
1523.000000	99.094955 
1522.000000	99.097303 
1521.000000	99.100121 
1520.000000	99.102258 
1519.000000	99.102965 
1518.000000	99.102737 
1517.000000	99.103099 
1516.000000	99.105203 
1515.000000	99.108797 
1514.000000	99.113207 
1513.000000	99.117613 
1512.000000	99.121141 
1511.000000	99.122621 
1510.000000	99.120956 
1509.000000	99.116734 
1508.000000	99.115142 
1507.000000	99.122722 
1506.000000	99.132804 
1505.000000	99.136674 
1504.000000	99.136514 
1503.000000	99.135984 
1502.000000	99.136592 
1501.000000	99.138933 
1500.000000	99.143063 
1499.000000	99.149134 
1498.000000	99.156541 
1497.000000	99.162282 
1496.000000	99.164465 
1495.000000	99.165241 
1494.000000	99.166697 
1493.000000	99.167351 
1492.000000	99.164499 
1491.000000	99.157082 
1490.000000	99.146683 
1489.000000	99.136540 
1488.000000	99.129887 
1487.000000	99.127541 
1486.000000	99.126994 
1485.000000	99.126420 
1484.000000	99.125252 
1483.000000	99.123756 
1482.000000	99.122566 
1481.000000	99.121499 
1480.000000	99.119823 
1479.000000	99.116821 
1478.000000	99.112344 
1477.000000	99.106797 
1476.000000	99.101560 
1475.000000	99.097264 
1474.000000	99.093995 
1473.000000	99.091406 
1472.000000	99.087413 
1471.000000	99.080880 
1470.000000	99.073289 
1469.000000	99.066741 
1468.000000	99.062739 
1467.000000	99.060773 
1466.000000	99.058289 
1465.000000	99.053324 
1464.000000	99.046508 
1463.000000	99.040862 
1462.000000	99.037013 
1461.000000	99.032428 
1460.000000	99.024035 
1459.000000	99.010999 
1458.000000	98.996643 
1457.000000	98.986028 
1456.000000	98.980406 
1455.000000	98.976941 
1454.000000	98.972450 
1453.000000	98.966169 
1452.000000	98.959920 
1451.000000	98.955745 
1450.000000	98.953691 
1449.000000	98.951808 
1448.000000	98.948999 
1447.000000	98.945522 
1446.000000	98.942513 
1445.000000	98.940122 
1444.000000	98.936840 
1443.000000	98.932278 
1442.000000	98.927899 
1441.000000	98.925502 
1440.000000	98.924435 
1439.000000	98.921841 
1438.000000	98.914537 
1437.000000	98.902592 
1436.000000	98.891444 
1435.000000	98.886214 
1434.000000	98.885186 
1433.000000	98.884008 
1432.000000	98.881580 
1431.000000	98.879971 
1430.000000	98.881102 
1429.000000	98.884019 
1428.000000	98.886684 
1427.000000	98.887043 
1426.000000	98.884438 
1425.000000	98.880657 
1424.000000	98.878548 
1423.000000	98.879406 
1422.000000	98.880184 
1421.000000	98.875785 
1420.000000	98.864144 
1419.000000	98.850678 
1418.000000	98.843075 
1417.000000	98.841488 
1416.000000	98.841475 
1415.000000	98.840928 
1414.000000	98.839680 
1413.000000	98.836917 
1412.000000	98.832080 
1411.000000	98.827344 
1410.000000	98.825856 
1409.000000	98.827669 
1408.000000	98.830636 
1407.000000	98.833368 
1406.000000	98.837426 
1405.000000	98.846410 
1404.000000	98.861497 
1403.000000	98.879477 
1402.000000	98.895347 
1401.000000	98.906562 
1400.000000	98.914437 
1399.000000	98.921694 
1398.000000	98.927940 
1397.000000	98.929118 
1396.000000	98.923309 
1395.000000	98.916108 
1394.000000	98.918042 
1393.000000	98.933631 
1392.000000	98.957331 
1391.000000	98.980105 
1390.000000	98.996184 
1389.000000	99.004702 
1388.000000	99.008239 
1387.000000	99.010194 
1386.000000	99.012750 
1385.000000	99.016926 
1384.000000	99.023214 
1383.000000	99.031519 
1382.000000	99.040475 
1381.000000	99.048432 
1380.000000	99.055360 
1379.000000	99.062404 
1378.000000	99.069755 
1377.000000	99.076202 
1376.000000	99.081435 
1375.000000	99.087695 
1374.000000	99.097964 
1373.000000	99.112031 
1372.000000	99.126717 
1371.000000	99.139751 
1370.000000	99.151817 
1369.000000	99.164889 
1368.000000	99.179214 
1367.000000	99.192766 
1366.000000	99.203144 
1365.000000	99.209272 
1364.000000	99.212108 
1363.000000	99.214770 
1362.000000	99.220721 
1361.000000	99.230802 
1360.000000	99.243053 
1359.000000	99.255165 
1358.000000	99.266110 
1357.000000	99.275703 
1356.000000	99.283814 
1355.000000	99.290649 
1354.000000	99.297091 
1353.000000	99.303401 
1352.000000	99.308606 
1351.000000	99.311336 
1350.000000	99.312073 
1349.000000	99.313373 
1348.000000	99.317260 
1347.000000	99.323999 
1346.000000	99.332458 
1345.000000	99.340349 
1344.000000	99.344489 
1343.000000	99.342651 
1342.000000	99.335765 
1341.000000	99.327829 
1340.000000	99.322967 
1339.000000	99.322632 
1338.000000	99.326045 
1337.000000	99.332241 
1336.000000	99.340303 
1335.000000	99.348403 
1334.000000	99.354451 
1333.000000	99.357925 
1332.000000	99.360127 
1331.000000	99.362201 
1330.000000	99.363679 
1329.000000	99.363447 
1328.000000	99.361725 
1327.000000	99.360009 
1326.000000	99.359155 
1325.000000	99.358434 
1324.000000	99.356950 
1323.000000	99.355336 
1322.000000	99.354734 
1321.000000	99.354595 
1320.000000	99.353100 
1319.000000	99.350071 
1318.000000	99.347745 
1317.000000	99.347797 
1316.000000	99.349136 
1315.000000	99.349842 
1314.000000	99.350084 
1313.000000	99.351724 
1312.000000	99.355541 
1311.000000	99.360148 
1310.000000	99.363730 
1309.000000	99.365670 
1308.000000	99.366304 
1307.000000	99.365636 
1306.000000	99.362988 
1305.000000	99.358208 
1304.000000	99.353188 
1303.000000	99.351589 
1302.000000	99.355683 
1301.000000	99.363147 
1300.000000	99.368201 
1299.000000	99.367031 
1298.000000	99.361513 
1297.000000	99.357024 
1296.000000	99.356827 
1295.000000	99.359491 
1294.000000	99.361729 
1293.000000	99.362390 
1292.000000	99.363009 
1291.000000	99.365061 
1290.000000	99.367635 
1289.000000	99.368203 
1288.000000	99.365307 
1287.000000	99.359946 
1286.000000	99.354490 
1285.000000	99.350905 
1284.000000	99.350256 
1283.000000	99.352931 
1282.000000	99.358149 
1281.000000	99.363818 
1280.000000	99.367818 
1279.000000	99.369169 
1278.000000	99.367549 
1277.000000	99.362687 
1276.000000	99.355533 
1275.000000	99.349329 
1274.000000	99.347710 
1273.000000	99.351439 
1272.000000	99.358006 
1271.000000	99.364230 
1270.000000	99.368238 
1269.000000	99.369416 
1268.000000	99.367892 
1267.000000	99.364205 
1266.000000	99.358491 
1265.000000	99.350590 
1264.000000	99.342271 
1263.000000	99.338114 
1262.000000	99.341548 
1261.000000	99.350444 
1260.000000	99.359019 
1259.000000	99.363905 
1258.000000	99.365904 
1257.000000	99.366153 
1256.000000	99.363987 
1255.000000	99.359188 
1254.000000	99.353398 
1253.000000	99.348302 
1252.000000	99.344725 
1251.000000	99.344002 
1250.000000	99.347557 
1249.000000	99.354500 
1248.000000	99.362257 
1247.000000	99.369821 
1246.000000	99.376936 
1245.000000	99.379548 
1244.000000	99.371184 
1243.000000	99.352063 
1242.000000	99.333036 
1241.000000	99.325674 
1240.000000	99.329946 
1239.000000	99.335461 
1238.000000	99.333487 
1237.000000	99.323804 
1236.000000	99.310396 
1235.000000	99.295050 
1234.000000	99.277072 
1233.000000	99.256588 
1232.000000	99.235581 
1231.000000	99.216005 
1230.000000	99.198022 
1229.000000	99.180307 
1228.000000	99.161710 
1227.000000	99.142197 
1226.000000	99.121841 
1225.000000	99.099142 
1224.000000	99.071049 
1223.000000	99.034772 
1222.000000	98.989400 
1221.000000	98.936435 
1220.000000	98.879801 
1219.000000	98.824476 
1218.000000	98.772506 
1217.000000	98.719526 
1216.000000	98.657224 
1215.000000	98.580878 
1214.000000	98.494338 
1213.000000	98.407011 
1212.000000	98.325743 
1211.000000	98.249513 
1210.000000	98.171834 
1209.000000	98.088160 
1208.000000	98.000123 
1207.000000	97.911930 
1206.000000	97.824409 
1205.000000	97.735761 
1204.000000	97.647240 
1203.000000	97.563008 
1202.000000	97.482960 
1201.000000	97.400289 
1200.000000	97.309113 
1199.000000	97.211447 
1198.000000	97.114032 
1197.000000	97.021303 
1196.000000	96.934052 
1195.000000	96.851132 
1194.000000	96.768404 
1193.000000	96.678921 
1192.000000	96.578641 
1191.000000	96.470753 
1190.000000	96.361468 
1189.000000	96.253368 
1188.000000	96.145874 
1187.000000	96.039494 
1186.000000	95.935208 
1185.000000	95.831104 
1184.000000	95.723689 
1183.000000	95.611996 
1182.000000	95.497579 
1181.000000	95.381473 
1180.000000	95.263691 
1179.000000	95.144399 
1178.000000	95.023161 
1177.000000	94.898343 
1176.000000	94.769319 
1175.000000	94.637421 
1174.000000	94.502929 
1173.000000	94.363552 
1172.000000	94.218087 
1171.000000	94.069001 
1170.000000	93.919176 
1169.000000	93.768792 
1168.000000	93.617908 
1167.000000	93.470051 
1166.000000	93.332325 
1165.000000	93.215822 
1164.000000	93.136790 
1163.000000	93.110785 
1162.000000	93.140418 
1161.000000	93.210446 
1160.000000	93.295912 
1159.000000	93.372339 
1158.000000	93.419810 
1157.000000	93.425830 
1156.000000	93.389363 
1155.000000	93.319412 
1154.000000	93.226658 
1153.000000	93.117864 
1152.000000	92.998396 
1151.000000	92.874521 
1150.000000	92.749663 
1149.000000	92.622452 
1148.000000	92.491694 
1147.000000	92.359834 
1146.000000	92.229170 
1145.000000	92.098863 
1144.000000	91.968218 
1143.000000	91.838692 
1142.000000	91.710298 
1141.000000	91.580287 
1140.000000	91.447313 
1139.000000	91.312281 
1138.000000	91.173772 
1137.000000	91.028428 
1136.000000	90.877788 
1135.000000	90.728444 
1134.000000	90.582657 
1133.000000	90.434682 
1132.000000	90.278991 
1131.000000	90.116243 
1130.000000	89.948833 
1129.000000	89.776832 
1128.000000	89.600967 
1127.000000	89.423697 
1126.000000	89.245133 
1125.000000	89.063674 
1124.000000	88.881484 
1123.000000	88.702078 
1122.000000	88.521841 
1121.000000	88.332676 
1120.000000	88.134505 
1119.000000	87.936127 
1118.000000	87.742632 
1117.000000	87.552444 
1116.000000	87.367819 
1115.000000	87.195813 
1114.000000	87.035998 
1113.000000	86.879282 
1112.000000	86.722028 
1111.000000	86.569074 
1110.000000	86.420349 
1109.000000	86.267781 
1108.000000	86.108555 
1107.000000	85.948361 
1106.000000	85.788080 
1105.000000	85.620873 
1104.000000	85.446318 
1103.000000	85.273837 
1102.000000	85.108318 
1101.000000	84.945927 
1100.000000	84.787012 
1099.000000	84.637549 
1098.000000	84.493829 
1097.000000	84.342357 
1096.000000	84.180338 
1095.000000	84.020034 
1094.000000	83.867120 
1093.000000	83.711605 
1092.000000	83.546917 
1091.000000	83.381090 
1090.000000	83.221258 
1089.000000	83.063607 
1088.000000	82.907254 
1087.000000	82.761976 
1086.000000	82.632725 
1085.000000	82.510901 
1084.000000	82.389244 
1083.000000	82.270990 
1082.000000	82.156781 
1081.000000	82.037629 
1080.000000	81.909361 
1079.000000	81.780282 
1078.000000	81.656853 
1077.000000	81.534755 
1076.000000	81.410083 
1075.000000	81.284767 
1074.000000	81.154781 
1073.000000	81.007394 
1072.000000	80.835339 
1071.000000	80.639557 
1070.000000	80.415191 
1069.000000	80.152794 
1068.000000	79.859033 
1067.000000	79.558930 
1066.000000	79.269962 
1065.000000	78.989263 
1064.000000	78.711843 
1063.000000	78.441937 
1062.000000	78.178926 
1061.000000	77.911840 
1060.000000	77.637343 
1059.000000	77.366324 
1058.000000	77.104775 
1057.000000	76.844442 
1056.000000	76.577904 
1055.000000	76.304130 
1054.000000	76.013732 
1053.000000	75.690374 
1052.000000	75.335956 
1051.000000	74.973487 
1050.000000	74.614671 
1049.000000	74.247904 
1048.000000	73.867731 
1047.000000	73.487554 
1046.000000	73.112171 
1045.000000	72.725495 
1044.000000	72.317303 
1043.000000	71.899146 
1042.000000	71.483541 
1041.000000	71.068793 
1040.000000	70.654709 
1039.000000	70.252352 
1038.000000	69.867643 
1037.000000	69.495571 
1036.000000	69.139623 
1035.000000	68.815569 
1034.000000	68.527039 
1033.000000	68.258526 
1032.000000	67.999930 
1031.000000	67.756698 
1030.000000	67.530708 
1029.000000	67.316188 
1028.000000	67.120763 
1027.000000	66.963541 
1026.000000	66.843227 
1025.000000	66.732762 
1024.000000	66.613729 
1023.000000	66.492045 
1022.000000	66.373474 
1021.000000	66.250660 
1020.000000	66.122245 
1019.000000	65.998409 
1018.000000	65.878444 
1017.000000	65.747441 
1016.000000	65.603061 
1015.000000	65.461346 
1014.000000	65.329308 
1013.000000	65.196589 
1012.000000	65.060155 
1011.000000	64.931257 
1010.000000	64.811524 
1009.000000	64.688873 
1008.000000	64.564598 
1007.000000	64.458698 
1006.000000	64.380866 
1005.000000	64.320574 
1004.000000	64.271020 
1003.000000	64.237492 
1002.000000	64.217579 
1001.000000	64.199843 
1000.000000	64.187158 
999.000000	 64.195379 
998.000000	 64.224923 
997.000000	 64.260052 
996.000000	 64.298599 
995.000000	 64.353520 
994.000000	 64.421988 
993.000000	 64.483447 
992.000000	 64.533666 
991.000000	 64.591649 
990.000000	 64.667832 
989.000000	 64.754676 
988.000000	 64.852885 
987.000000	 64.976270 
986.000000	 65.124735 
985.000000	 65.282588 
984.000000	 65.450009 
983.000000	 65.646772 
982.000000	 65.878798 
981.000000	 66.130124 
980.000000	 66.393299 
979.000000	 66.678300 
978.000000	 66.985806 
977.000000	 67.302300 
976.000000	 67.628776 
975.000000	 67.984568 
974.000000	 68.374784 
973.000000	 68.781662 
972.000000	 69.194822 
971.000000	 69.622219 
970.000000	 70.064016 
969.000000	 70.503667 
968.000000	 70.933500 
967.000000	 71.363851 
966.000000	 71.799279 
965.000000	 72.229894 
964.000000	 72.652409 
963.000000	 73.075059 
962.000000	 73.495188 
961.000000	 73.896435 
960.000000	 74.275239 
959.000000	 74.646764 
958.000000	 75.017610 
957.000000	 75.375570 
956.000000	 75.713899 
955.000000	 76.042714 
954.000000	 76.367385 
953.000000	 76.676528 
952.000000	 76.960706 
951.000000	 77.224274 
950.000000	 77.471087 
949.000000	 77.696743 
948.000000	 77.902606 
947.000000	 78.100136 
946.000000	 78.293722 
945.000000	 78.474897 
944.000000	 78.639179 
943.000000	 78.792212 
942.000000	 78.934497 
941.000000	 79.057659 
940.000000	 79.162203 
939.000000	 79.263108 
938.000000	 79.372122 
937.000000	 79.489099 
936.000000	 79.613915 
935.000000	 79.749611 
934.000000	 79.889991 
933.000000	 80.022278 
932.000000	 80.146962 
931.000000	 80.278562 
930.000000	 80.423033 
929.000000	 80.571064 
928.000000	 80.716118 
927.000000	 80.860586 
926.000000	 81.001007 
925.000000	 81.126371 
924.000000	 81.235637 
923.000000	 81.339179 
922.000000	 81.438859 
921.000000	 81.524494 
920.000000	 81.593929 
919.000000	 81.658387 
918.000000	 81.723554 
917.000000	 81.783387 
916.000000	 81.837227 
915.000000	 81.895754 
914.000000	 81.966642 
913.000000	 82.052897 
912.000000	 82.168311 
911.000000	 82.333510 
910.000000	 82.550770 
909.000000	 82.801657 
908.000000	 83.074477 
907.000000	 83.375331 
906.000000	 83.708684 
905.000000	 84.068222 
904.000000	 84.451642 
903.000000	 84.863791 
902.000000	 85.299355 
901.000000	 85.741072 
900.000000	 86.179796 
899.000000	 86.618480 
898.000000	 87.053104 
897.000000	 87.468651 
896.000000	 87.858602 
895.000000	 88.231358 
894.000000	 88.593290 
893.000000	 88.941712 
892.000000	 89.278076 
891.000000	 89.610765 
890.000000	 89.939162 
889.000000	 90.250296 
888.000000	 90.536967 
887.000000	 90.805720 
886.000000	 91.062692 
885.000000	 91.305596 
884.000000	 91.535084 
883.000000	 91.760679 
882.000000	 91.989184 
881.000000	 92.218555 
880.000000	 92.448052 
879.000000	 92.682726 
878.000000	 92.923162 
877.000000	 93.162038 
876.000000	 93.394769 
875.000000	 93.623190 
874.000000	 93.847420 
873.000000	 94.066083 
872.000000	 94.285635 
871.000000	 94.516461 
870.000000	 94.757734 
869.000000	 94.998149 
868.000000	 95.232774 
867.000000	 95.467122 
866.000000	 95.703534 
865.000000	 95.935627 
864.000000	 96.158470 
863.000000	 96.373755 
862.000000	 96.582922 
861.000000	 96.784245 
860.000000	 96.977937 
859.000000	 97.165663 
858.000000	 97.345012 
857.000000	 97.513075 
856.000000	 97.673998 
855.000000	 97.832703 
854.000000	 97.982332 
853.000000	 98.109579 
852.000000	 98.212625 
851.000000	 98.302756 
850.000000	 98.388077 
849.000000	 98.467369 
848.000000	 98.540686 
847.000000	 98.612246 
846.000000	 98.678853 
845.000000	 98.727664 
844.000000	 98.750572 
843.000000	 98.750783 
842.000000	 98.731121 
841.000000	 98.686439 
840.000000	 98.613402 
839.000000	 98.518742 
838.000000	 98.411492 
837.000000	 98.294300 
836.000000	 98.168528 
835.000000	 98.041852 
834.000000	 97.925237 
833.000000	 97.826824 
832.000000	 97.751434 
831.000000	 97.699799 
830.000000	 97.666730 
829.000000	 97.648356 
828.000000	 97.652178 
827.000000	 97.689342 
826.000000	 97.755614 
825.000000	 97.833245 
824.000000	 97.913539 
823.000000	 98.001067 
822.000000	 98.092506 
821.000000	 98.169941 
820.000000	 98.220684 
819.000000	 98.248516 
818.000000	 98.261150 
817.000000	 98.258796 
816.000000	 98.237625 
815.000000	 98.191850 
814.000000	 98.107317 
813.000000	 97.963723 
812.000000	 97.749300 
811.000000	 97.465299 
810.000000	 97.111781 
809.000000	 96.678536 
808.000000	 96.156482 
807.000000	 95.549793 
806.000000	 94.871427 
805.000000	 94.138081 
804.000000	 93.379148 
803.000000	 92.640070 
802.000000	 91.964333 
801.000000	 91.379029 
800.000000	 90.904311 
799.000000	 90.562080 
798.000000	 90.363982 
797.000000	 90.301889 
796.000000	 90.356559 
795.000000	 90.503160 
794.000000	 90.706832 
793.000000	 90.931028 
792.000000	 91.154886 
791.000000	 91.367982 
790.000000	 91.548782 
789.000000	 91.667756 
788.000000	 91.714164 
787.000000	 91.700349 
786.000000	 91.634414 
785.000000	 91.506756 
784.000000	 91.311505 
783.000000	 91.065979 
782.000000	 90.800953 
781.000000	 90.545824 
780.000000	 90.330787 
779.000000	 90.187493 
778.000000	 90.135872 
777.000000	 90.179510 
776.000000	 90.316354 
775.000000	 90.538223 
774.000000	 90.817306 
773.000000	 91.112569 
772.000000	 91.396555 
771.000000	 91.662347 
770.000000	 91.903261 
769.000000	 92.103821 
768.000000	 92.255342 
767.000000	 92.364680 
766.000000	 92.442510 
765.000000	 92.496324 
764.000000	 92.537585 
763.000000	 92.579611 
762.000000	 92.623336 
761.000000	 92.660239 
760.000000	 92.693708 
759.000000	 92.741173 
758.000000	 92.809834 
757.000000	 92.887020 
756.000000	 92.961391 
755.000000	 93.038327 
754.000000	 93.127697 
753.000000	 93.230920 
752.000000	 93.346177 
751.000000	 93.471964 
750.000000	 93.599362 
749.000000	 93.714651 
748.000000	 93.816647 
747.000000	 93.920673 
746.000000	 94.041313 
745.000000	 94.182237 
744.000000	 94.344092 
743.000000	 94.527378 
742.000000	 94.725177 
741.000000	 94.928619 
740.000000	 95.141646 
739.000000	 95.374365 
738.000000	 95.619722 
737.000000	 95.853870 
736.000000	 96.063142 
735.000000	 96.253945 
734.000000	 96.433003 
733.000000	 96.595149 
732.000000	 96.734579 
731.000000	 96.851118 
730.000000	 96.940843 
729.000000	 96.997731 
728.000000	 97.030402 
727.000000	 97.061666 
726.000000	 97.105328 
725.000000	 97.157932 
724.000000	 97.218164 
723.000000	 97.297073 
722.000000	 97.401244 
721.000000	 97.520613 
720.000000	 97.641130 
719.000000	 97.756944 
718.000000	 97.863745 
717.000000	 97.954351 
716.000000	 98.029297 
715.000000	 98.099725 
714.000000	 98.172204 
713.000000	 98.240916 
712.000000	 98.299829 
711.000000	 98.350119 
710.000000	 98.390163 
709.000000	 98.411153 
708.000000	 98.408683 
707.000000	 98.386723 
706.000000	 98.345679 
705.000000	 98.279008 
704.000000	 98.185538 
703.000000	 98.069117 
702.000000	 97.918162 
701.000000	 97.701339 
700.000000	 97.394822 
699.000000	 97.006212 
698.000000	 96.571040 
697.000000	 96.141437 
696.000000	 95.782226 
695.000000	 95.555309 
694.000000	 95.489731 
693.000000	 95.571733 
692.000000	 95.763049 
691.000000	 96.015937 
690.000000	 96.276463 
689.000000	 96.500471 
688.000000	 96.678846 
687.000000	 96.831802 
686.000000	 96.972163 
685.000000	 97.094048 
684.000000	 97.199336 
683.000000	 97.307556 
682.000000	 97.430702 
681.000000	 97.558608 
680.000000	 97.676903 
679.000000	 97.782067 
678.000000	 97.873960 
677.000000	 97.954939 
676.000000	 98.039752 
675.000000	 98.143470 
674.000000	 98.259176 
673.000000	 98.365741 
672.000000	 98.458867 
671.000000	 98.550756 
670.000000	 98.640933 
669.000000	 98.708160 
668.000000	 98.744253 
667.000000	 98.789738 
666.000000	 98.880770 
665.000000	 98.992882 
664.000000	 99.090233 
663.000000	 99.169861 
662.000000	 99.239936 
661.000000	 99.298287 
660.000000	 99.341632 
659.000000	 99.380881 
658.000000	 99.418999 
657.000000	 99.434111 
656.000000	 99.410824 
655.000000	 99.374567 
654.000000	 99.366012 
653.000000	 99.382836 
652.000000	 99.380463 
651.000000	 99.336064 
650.000000	 99.286158 

