4000.000000	99.464379 
3999.000000	99.463631 
3998.000000	99.462178 
3997.000000	99.459800 
3996.000000	99.456608 
3995.000000	99.453437 
3994.000000	99.451897 
3993.000000	99.453460 
3992.000000	99.458025 
3991.000000	99.463497 
3990.000000	99.467300 
3989.000000	99.468634 
3988.000000	99.469001 
3987.000000	99.470294 
3986.000000	99.472554 
3985.000000	99.473826 
3984.000000	99.472097 
3983.000000	99.467236 
3982.000000	99.461203 
3981.000000	99.456571 
3980.000000	99.454526 
3979.000000	99.454172 
3978.000000	99.453859 
3977.000000	99.453108 
3976.000000	99.453164 
3975.000000	99.455624 
3974.000000	99.460729 
3973.000000	99.466945 
3972.000000	99.471977 
3971.000000	99.474285 
3970.000000	99.473832 
3969.000000	99.471727 
3968.000000	99.469365 
3967.000000	99.467693 
3966.000000	99.467044 
3965.000000	99.467360 
3964.000000	99.468047 
3963.000000	99.467729 
3962.000000	99.464905 
3961.000000	99.459425 
3960.000000	99.453172 
3959.000000	99.448990 
3958.000000	99.448407 
3957.000000	99.450294 
3956.000000	99.452105 
3955.000000	99.452264 
3954.000000	99.451323 
3953.000000	99.450757 
3952.000000	99.451060 
3951.000000	99.451522 
3950.000000	99.451363 
3949.000000	99.450769 
3948.000000	99.450514 
3947.000000	99.450764 
3946.000000	99.450976 
3945.000000	99.450814 
3944.000000	99.450725 
3943.000000	99.451204 
3942.000000	99.452221 
3941.000000	99.453301 
3940.000000	99.453525 
3939.000000	99.451588 
3938.000000	99.446576 
3937.000000	99.439106 
3936.000000	99.431791 
3935.000000	99.427910 
3934.000000	99.429467 
3933.000000	99.435820 
3932.000000	99.443783 
3931.000000	99.449275 
3930.000000	99.449831 
3929.000000	99.446464 
3928.000000	99.442854 
3927.000000	99.442398 
3926.000000	99.445987 
3925.000000	99.451458 
3924.000000	99.455201 
3923.000000	99.455153 
3922.000000	99.452044 
3921.000000	99.448444 
3920.000000	99.446812 
3919.000000	99.448218 
3918.000000	99.452203 
3917.000000	99.457092 
3916.000000	99.460961 
3915.000000	99.462995 
3914.000000	99.464222 
3913.000000	99.466311 
3912.000000	99.469500 
3911.000000	99.472444 
3910.000000	99.473863 
3909.000000	99.473889 
3908.000000	99.473571 
3907.000000	99.472805 
3906.000000	99.469577 
3905.000000	99.461415 
3904.000000	99.447987 
3903.000000	99.432993 
3902.000000	99.422418 
3901.000000	99.420508 
3900.000000	99.427386 
3899.000000	99.439001 
3898.000000	99.450016 
3897.000000	99.456992 
3896.000000	99.458997 
3895.000000	99.456785 
3894.000000	99.452091 
3893.000000	99.446957 
3892.000000	99.442976 
3891.000000	99.440505 
3890.000000	99.438986 
3889.000000	99.437678 
3888.000000	99.436629 
3887.000000	99.436982 
3886.000000	99.439495 
3885.000000	99.443004 
3884.000000	99.445271 
3883.000000	99.445272 
3882.000000	99.444030 
3881.000000	99.443189 
3880.000000	99.443446 
3879.000000	99.444164 
3878.000000	99.444917 
3877.000000	99.446405 
3876.000000	99.449543 
3875.000000	99.453175 
3874.000000	99.453679 
3873.000000	99.448376 
3872.000000	99.439476 
3871.000000	99.432979 
3870.000000	99.432856 
3869.000000	99.437502 
3868.000000	99.442523 
3867.000000	99.445679 
3866.000000	99.448306 
3865.000000	99.451899 
3864.000000	99.454835 
3863.000000	99.454692 
3862.000000	99.451865 
3861.000000	99.449421 
3860.000000	99.449919 
3859.000000	99.452907 
3858.000000	99.455224 
3857.000000	99.454047 
3856.000000	99.449745 
3855.000000	99.446731 
3854.000000	99.448139 
3853.000000	99.451860 
3852.000000	99.454992 
3851.000000	99.456839 
3850.000000	99.457315 
3849.000000	99.456976 
3848.000000	99.456392 
3847.000000	99.455797 
3846.000000	99.455249 
3845.000000	99.454770 
3844.000000	99.454690 
3843.000000	99.455420 
3842.000000	99.456339 
3841.000000	99.456436 
3840.000000	99.456114 
3839.000000	99.456963 
3838.000000	99.459484 
3837.000000	99.462034 
3836.000000	99.462837 
3835.000000	99.462337 
3834.000000	99.462790 
3833.000000	99.466195 
3832.000000	99.472232 
3831.000000	99.477961 
3830.000000	99.480208 
3829.000000	99.477781 
3828.000000	99.471999 
3827.000000	99.465869 
3826.000000	99.462030 
3825.000000	99.461014 
3824.000000	99.461799 
3823.000000	99.463754 
3822.000000	99.466304 
3821.000000	99.467740 
3820.000000	99.467032 
3819.000000	99.465346 
3818.000000	99.464718 
3817.000000	99.466653 
3816.000000	99.469916 
3815.000000	99.470541 
3814.000000	99.466374 
3813.000000	99.460037 
3812.000000	99.456518 
3811.000000	99.458571 
3810.000000	99.464398 
3809.000000	99.469727 
3808.000000	99.471785 
3807.000000	99.470891 
3806.000000	99.468539 
3805.000000	99.465232 
3804.000000	99.461529 
3803.000000	99.460122 
3802.000000	99.463550 
3801.000000	99.470023 
3800.000000	99.474911 
3799.000000	99.475558 
3798.000000	99.472936 
3797.000000	99.470154 
3796.000000	99.469394 
3795.000000	99.470155 
3794.000000	99.470413 
3793.000000	99.468956 
3792.000000	99.466298 
3791.000000	99.463847 
3790.000000	99.462564 
3789.000000	99.462326 
3788.000000	99.462258 
3787.000000	99.461517 
3786.000000	99.460123 
3785.000000	99.458874 
3784.000000	99.458388 
3783.000000	99.458433 
3782.000000	99.458655 
3781.000000	99.459535 
3780.000000	99.461805 
3779.000000	99.464991 
3778.000000	99.467256 
3777.000000	99.466839 
3776.000000	99.463469 
3775.000000	99.458670 
3774.000000	99.454486 
3773.000000	99.452095 
3772.000000	99.451702 
3771.000000	99.452821 
3770.000000	99.454107 
3769.000000	99.454246 
3768.000000	99.453437 
3767.000000	99.452875 
3766.000000	99.453202 
3765.000000	99.453877 
3764.000000	99.453902 
3763.000000	99.453124 
3762.000000	99.452707 
3761.000000	99.453673 
3760.000000	99.454902 
3759.000000	99.454324 
3758.000000	99.452173 
3757.000000	99.450841 
3756.000000	99.451461 
3755.000000	99.452855 
3754.000000	99.453666 
3753.000000	99.454314 
3752.000000	99.455963 
3751.000000	99.458138 
3750.000000	99.460015 
3749.000000	99.462149 
3748.000000	99.464546 
3747.000000	99.465910 
3746.000000	99.465839 
3745.000000	99.464688 
3744.000000	99.462630 
3743.000000	99.459931 
3742.000000	99.456590 
3741.000000	99.452381 
3740.000000	99.447363 
3739.000000	99.441668 
3738.000000	99.436324 
3737.000000	99.433697 
3736.000000	99.435190 
3735.000000	99.438758 
3734.000000	99.440560 
3733.000000	99.439643 
3732.000000	99.438610 
3731.000000	99.439515 
3730.000000	99.441458 
3729.000000	99.442426 
3728.000000	99.442154 
3727.000000	99.441541 
3726.000000	99.440242 
3725.000000	99.437038 
3724.000000	99.432721 
3723.000000	99.430359 
3722.000000	99.431964 
3721.000000	99.436415 
3720.000000	99.440269 
3719.000000	99.440702 
3718.000000	99.437768 
3717.000000	99.433246 
3716.000000	99.428243 
3715.000000	99.422946 
3714.000000	99.418537 
3713.000000	99.417823 
3712.000000	99.421867 
3711.000000	99.427758 
3710.000000	99.431210 
3709.000000	99.429942 
3708.000000	99.424387 
3707.000000	99.416200 
3706.000000	99.407070 
3705.000000	99.398498 
3704.000000	99.391543 
3703.000000	99.386037 
3702.000000	99.380082 
3701.000000	99.371730 
3700.000000	99.360980 
3699.000000	99.349400 
3698.000000	99.338784 
3697.000000	99.330162 
3696.000000	99.323399 
3695.000000	99.318144 
3694.000000	99.315086 
3693.000000	99.315258 
3692.000000	99.317451 
3691.000000	99.317317 
3690.000000	99.310415 
3689.000000	99.297455 
3688.000000	99.284522 
3687.000000	99.275982 
3686.000000	99.271231 
3685.000000	99.269008 
3684.000000	99.270007 
3683.000000	99.274796 
3682.000000	99.280948 
3681.000000	99.283489 
3680.000000	99.278171 
3679.000000	99.263959 
3678.000000	99.244368 
3677.000000	99.228079 
3676.000000	99.223667 
3675.000000	99.230138 
3674.000000	99.238058 
3673.000000	99.240450 
3672.000000	99.238235 
3671.000000	99.238034 
3670.000000	99.243577 
3669.000000	99.251507 
3668.000000	99.257419 
3667.000000	99.260749 
3666.000000	99.263187 
3665.000000	99.265628 
3664.000000	99.267166 
3663.000000	99.266626 
3662.000000	99.264025 
3661.000000	99.260212 
3660.000000	99.256244 
3659.000000	99.253763 
3658.000000	99.255434 
3657.000000	99.262852 
3656.000000	99.273700 
3655.000000	99.283240 
3654.000000	99.288564 
3653.000000	99.290333 
3652.000000	99.290915 
3651.000000	99.291613 
3650.000000	99.291542 
3649.000000	99.290911 
3648.000000	99.293110 
3647.000000	99.300236 
3646.000000	99.310590 
3645.000000	99.321663 
3644.000000	99.332452 
3643.000000	99.343084 
3642.000000	99.353928 
3641.000000	99.364841 
3640.000000	99.375279 
3639.000000	99.384293 
3638.000000	99.390663 
3637.000000	99.393642 
3636.000000	99.393471 
3635.000000	99.391031 
3634.000000	99.386761 
3633.000000	99.380728 
3632.000000	99.374213 
3631.000000	99.370550 
3630.000000	99.372798 
3629.000000	99.378659 
3628.000000	99.382418 
3627.000000	99.383035 
3626.000000	99.383922 
3625.000000	99.387439 
3624.000000	99.392741 
3623.000000	99.397304 
3622.000000	99.399988 
3621.000000	99.402624 
3620.000000	99.407050 
3619.000000	99.411460 
3618.000000	99.412475 
3617.000000	99.409883 
3616.000000	99.406927 
3615.000000	99.407013 
3614.000000	99.410017 
3613.000000	99.412217 
3612.000000	99.410789 
3611.000000	99.407238 
3610.000000	99.405411 
3609.000000	99.406811 
3608.000000	99.408995 
3607.000000	99.409759 
3606.000000	99.410856 
3605.000000	99.415464 
3604.000000	99.423794 
3603.000000	99.432480 
3602.000000	99.437952 
3601.000000	99.439805 
3600.000000	99.439627 
3599.000000	99.437946 
3598.000000	99.434354 
3597.000000	99.429527 
3596.000000	99.425961 
3595.000000	99.426306 
3594.000000	99.430444 
3593.000000	99.435381 
3592.000000	99.437688 
3591.000000	99.435378 
3590.000000	99.429122 
3589.000000	99.422261 
3588.000000	99.418598 
3587.000000	99.418760 
3586.000000	99.420492 
3585.000000	99.422489 
3584.000000	99.426146 
3583.000000	99.432728 
3582.000000	99.440799 
3581.000000	99.446745 
3580.000000	99.447966 
3579.000000	99.445047 
3578.000000	99.440701 
3577.000000	99.437545 
3576.000000	99.436744 
3575.000000	99.438116 
3574.000000	99.440381 
3573.000000	99.441652 
3572.000000	99.440702 
3571.000000	99.437611 
3570.000000	99.432906 
3569.000000	99.427160 
3568.000000	99.421737 
3567.000000	99.418835 
3566.000000	99.419908 
3565.000000	99.424387 
3564.000000	99.430731 
3563.000000	99.438066 
3562.000000	99.445942 
3561.000000	99.453128 
3560.000000	99.457880 
3559.000000	99.459512 
3558.000000	99.459269 
3557.000000	99.459141 
3556.000000	99.459998 
3555.000000	99.461042 
3554.000000	99.460973 
3553.000000	99.459022 
3552.000000	99.455267 
3551.000000	99.450434 
3550.000000	99.445311 
3549.000000	99.440565 
3548.000000	99.437231 
3547.000000	99.436536 
3546.000000	99.438736 
3545.000000	99.441955 
3544.000000	99.443527 
3543.000000	99.442950 
3542.000000	99.442672 
3541.000000	99.445283 
3540.000000	99.450652 
3539.000000	99.456003 
3538.000000	99.458871 
3537.000000	99.459322 
3536.000000	99.459348 
3535.000000	99.460408 
3534.000000	99.462037 
3533.000000	99.463009 
3532.000000	99.463071 
3531.000000	99.463197 
3530.000000	99.463986 
3529.000000	99.464454 
3528.000000	99.463153 
3527.000000	99.460306 
3526.000000	99.457935 
3525.000000	99.457718 
3524.000000	99.459288 
3523.000000	99.460900 
3522.000000	99.461418 
3521.000000	99.461093 
3520.000000	99.461100 
3519.000000	99.462812 
3518.000000	99.467255 
3517.000000	99.474123 
3516.000000	99.481080 
3515.000000	99.484730 
3514.000000	99.482822 
3513.000000	99.475971 
3512.000000	99.467382 
3511.000000	99.460797 
3510.000000	99.458012 
3509.000000	99.458039 
3508.000000	99.458671 
3507.000000	99.458795 
3506.000000	99.458975 
3505.000000	99.459836 
3504.000000	99.460829 
3503.000000	99.461343 
3502.000000	99.462628 
3501.000000	99.467029 
3500.000000	99.474805 
3499.000000	99.482662 
3498.000000	99.486017 
3497.000000	99.482764 
3496.000000	99.474718 
3495.000000	99.465886 
3494.000000	99.459854 
3493.000000	99.458293 
3492.000000	99.460754 
3491.000000	99.465195 
3490.000000	99.469272 
3489.000000	99.471920 
3488.000000	99.473694 
3487.000000	99.475394 
3486.000000	99.476763 
3485.000000	99.476966 
3484.000000	99.476064 
3483.000000	99.475347 
3482.000000	99.475962 
3481.000000	99.477635 
3480.000000	99.479105 
3479.000000	99.479388 
3478.000000	99.478189 
3477.000000	99.475602 
3476.000000	99.472340 
3475.000000	99.470247 
3474.000000	99.471336 
3473.000000	99.475441 
3472.000000	99.479569 
3471.000000	99.480822 
3470.000000	99.479814 
3469.000000	99.479994 
3468.000000	99.483257 
3467.000000	99.487311 
3466.000000	99.488399 
3465.000000	99.485870 
3464.000000	99.482815 
3463.000000	99.482355 
3462.000000	99.484453 
3461.000000	99.486847 
3460.000000	99.488042 
3459.000000	99.488392 
3458.000000	99.488596 
3457.000000	99.488191 
3456.000000	99.486250 
3455.000000	99.483106 
3454.000000	99.480670 
3453.000000	99.480813 
3452.000000	99.483500 
3451.000000	99.486845 
3450.000000	99.488833 
3449.000000	99.488838 
3448.000000	99.487551 
3447.000000	99.485976 
3446.000000	99.484857 
3445.000000	99.484896 
3444.000000	99.486785 
3443.000000	99.490451 
3442.000000	99.494454 
3441.000000	99.496679 
3440.000000	99.495985 
3439.000000	99.492930 
3438.000000	99.488745 
3437.000000	99.483960 
3436.000000	99.478641 
3435.000000	99.473785 
3434.000000	99.471582 
3433.000000	99.473705 
3432.000000	99.479353 
3431.000000	99.485610 
3430.000000	99.489853 
3429.000000	99.491752 
3428.000000	99.492869 
3427.000000	99.494456 
3426.000000	99.495867 
3425.000000	99.495161 
3424.000000	99.491180 
3423.000000	99.484886 
3422.000000	99.478677 
3421.000000	99.474608 
3420.000000	99.473477 
3419.000000	99.475234 
3418.000000	99.479450 
3417.000000	99.485053 
3416.000000	99.490055 
3415.000000	99.492284 
3414.000000	99.490870 
3413.000000	99.487142 
3412.000000	99.483932 
3411.000000	99.483585 
3410.000000	99.486160 
3409.000000	99.489416 
3408.000000	99.490623 
3407.000000	99.488596 
3406.000000	99.484237 
3405.000000	99.479466 
3404.000000	99.475948 
3403.000000	99.474500 
3402.000000	99.475168 
3401.000000	99.477694 
3400.000000	99.481941 
3399.000000	99.487800 
3398.000000	99.494469 
3397.000000	99.500104 
3396.000000	99.502709 
3395.000000	99.501527 
3394.000000	99.497278 
3393.000000	99.491150 
3392.000000	99.484095 
3391.000000	99.477245 
3390.000000	99.472466 
3389.000000	99.471714 
3388.000000	99.475542 
3387.000000	99.482352 
3386.000000	99.489341 
3385.000000	99.494379 
3384.000000	99.497078 
3383.000000	99.498046 
3382.000000	99.497317 
3381.000000	99.494061 
3380.000000	99.488173 
3379.000000	99.481793 
3378.000000	99.478307 
3377.000000	99.479381 
3376.000000	99.483277 
3375.000000	99.486532 
3374.000000	99.487180 
3373.000000	99.486158 
3372.000000	99.485795 
3371.000000	99.487351 
3370.000000	99.489988 
3369.000000	99.491760 
3368.000000	99.491550 
3367.000000	99.490224 
3366.000000	99.489905 
3365.000000	99.491801 
3364.000000	99.494729 
3363.000000	99.496093 
3362.000000	99.494386 
3361.000000	99.490392 
3360.000000	99.485886 
3359.000000	99.481809 
3358.000000	99.478268 
3357.000000	99.475899 
3356.000000	99.476003 
3355.000000	99.478768 
3354.000000	99.482024 
3353.000000	99.482746 
3352.000000	99.479904 
3351.000000	99.475467 
3350.000000	99.472586 
3349.000000	99.473123 
3348.000000	99.476809 
3347.000000	99.481845 
3346.000000	99.485863 
3345.000000	99.487027 
3344.000000	99.485304 
3343.000000	99.482718 
3342.000000	99.481483 
3341.000000	99.481637 
3340.000000	99.481106 
3339.000000	99.478459 
3338.000000	99.475031 
3337.000000	99.473667 
3336.000000	99.475645 
3335.000000	99.479467 
3334.000000	99.482712 
3333.000000	99.484391 
3332.000000	99.485217 
3331.000000	99.486021 
3330.000000	99.486455 
3329.000000	99.485424 
3328.000000	99.482587 
3327.000000	99.479058 
3326.000000	99.476301 
3325.000000	99.474404 
3324.000000	99.471896 
3323.000000	99.467659 
3322.000000	99.462659 
3321.000000	99.459263 
3320.000000	99.458935 
3319.000000	99.461129 
3318.000000	99.464360 
3317.000000	99.467499 
3316.000000	99.469679 
3315.000000	99.469956 
3314.000000	99.468283 
3313.000000	99.466559 
3312.000000	99.467446 
3311.000000	99.471594 
3310.000000	99.476671 
3309.000000	99.479608 
3308.000000	99.479402 
3307.000000	99.477389 
3306.000000	99.475481 
3305.000000	99.474879 
3304.000000	99.476054 
3303.000000	99.478658 
3302.000000	99.481075 
3301.000000	99.480927 
3300.000000	99.477013 
3299.000000	99.470895 
3298.000000	99.466179 
3297.000000	99.465805 
3296.000000	99.469593 
3295.000000	99.474278 
3294.000000	99.476273 
3293.000000	99.474885 
3292.000000	99.472810 
3291.000000	99.472945 
3290.000000	99.474750 
3289.000000	99.474585 
3288.000000	99.469857 
3287.000000	99.462072 
3286.000000	99.455176 
3285.000000	99.451463 
3284.000000	99.450026 
3283.000000	99.448996 
3282.000000	99.448195 
3281.000000	99.449066 
3280.000000	99.452590 
3279.000000	99.457871 
3278.000000	99.462625 
3277.000000	99.464599 
3276.000000	99.462558 
3275.000000	99.456574 
3274.000000	99.448090 
3273.000000	99.439881 
3272.000000	99.435239 
3271.000000	99.436167 
3270.000000	99.441792 
3269.000000	99.448749 
3268.000000	99.453408 
3267.000000	99.453912 
3266.000000	99.450600 
3265.000000	99.445442 
3264.000000	99.441294 
3263.000000	99.440650 
3262.000000	99.443940 
3261.000000	99.449027 
3260.000000	99.453016 
3259.000000	99.454560 
3258.000000	99.454125 
3257.000000	99.452484 
3256.000000	99.449879 
3255.000000	99.446586 
3254.000000	99.443429 
3253.000000	99.441458 
3252.000000	99.441568 
3251.000000	99.444320 
3250.000000	99.449166 
3249.000000	99.453680 
3248.000000	99.454623 
3247.000000	99.450660 
3246.000000	99.443719 
3245.000000	99.437189 
3244.000000	99.433104 
3243.000000	99.431404 
3242.000000	99.431181 
3241.000000	99.431634 
3240.000000	99.432246 
3239.000000	99.433255 
3238.000000	99.436112 
3237.000000	99.442375 
3236.000000	99.451443 
3235.000000	99.459932 
3234.000000	99.464104 
3233.000000	99.462940 
3232.000000	99.458579 
3231.000000	99.454084 
3230.000000	99.451225 
3229.000000	99.450051 
3228.000000	99.449550 
3227.000000	99.448204 
3226.000000	99.444662 
3225.000000	99.438886 
3224.000000	99.432733 
3223.000000	99.428784 
3222.000000	99.428160 
3221.000000	99.429550 
3220.000000	99.430370 
3219.000000	99.428857 
3218.000000	99.425446 
3217.000000	99.422832 
3216.000000	99.424569 
3215.000000	99.432391 
3214.000000	99.444008 
3213.000000	99.453972 
3212.000000	99.457613 
3211.000000	99.454277 
3210.000000	99.446869 
3209.000000	99.439068 
3208.000000	99.433502 
3207.000000	99.431432 
3206.000000	99.432410 
3205.000000	99.434165 
3204.000000	99.434262 
3203.000000	99.432566 
3202.000000	99.431284 
3201.000000	99.432180 
3200.000000	99.434595 
3199.000000	99.436553 
3198.000000	99.436875 
3197.000000	99.435566 
3196.000000	99.433098 
3195.000000	99.430316 
3194.000000	99.428385 
3193.000000	99.427702 
3192.000000	99.427085 
3191.000000	99.424986 
3190.000000	99.421371 
3189.000000	99.417627 
3188.000000	99.414916 
3187.000000	99.413643 
3186.000000	99.414316 
3185.000000	99.417456 
3184.000000	99.422202 
3183.000000	99.426200 
3182.000000	99.427823 
3181.000000	99.427973 
3180.000000	99.428943 
3179.000000	99.431769 
3178.000000	99.435283 
3177.000000	99.437571 
3176.000000	99.437836 
3175.000000	99.436884 
3174.000000	99.436151 
3173.000000	99.436177 
3172.000000	99.435803 
3171.000000	99.433165 
3170.000000	99.427962 
3169.000000	99.422494 
3168.000000	99.419835 
3167.000000	99.420963 
3166.000000	99.424100 
3165.000000	99.426732 
3164.000000	99.427634 
3163.000000	99.426920 
3162.000000	99.425192 
3161.000000	99.423424 
3160.000000	99.423085 
3159.000000	99.425145 
3158.000000	99.428600 
3157.000000	99.430738 
3156.000000	99.429403 
3155.000000	99.424795 
3154.000000	99.418795 
3153.000000	99.412987 
3152.000000	99.407905 
3151.000000	99.403898 
3150.000000	99.401725 
3149.000000	99.401829 
3148.000000	99.403548 
3147.000000	99.405649 
3146.000000	99.407552 
3145.000000	99.409657 
3144.000000	99.412456 
3143.000000	99.415640 
3142.000000	99.418156 
3141.000000	99.418976 
3140.000000	99.417842 
3139.000000	99.415479 
3138.000000	99.413112 
3137.000000	99.411600 
3136.000000	99.411029 
3135.000000	99.411224 
3134.000000	99.412358 
3133.000000	99.414503 
3132.000000	99.416581 
3131.000000	99.416612 
3130.000000	99.413725 
3129.000000	99.409699 
3128.000000	99.407812 
3127.000000	99.409934 
3126.000000	99.414933 
3125.000000	99.419822 
3124.000000	99.422077 
3123.000000	99.420945 
3122.000000	99.417288 
3121.000000	99.412780 
3120.000000	99.409083 
3119.000000	99.407222 
3118.000000	99.407420 
3117.000000	99.409398 
3116.000000	99.412618 
3115.000000	99.416108 
3114.000000	99.418429 
3113.000000	99.418410 
3112.000000	99.416214 
3111.000000	99.413466 
3110.000000	99.412010 
3109.000000	99.412393 
3108.000000	99.413478 
3107.000000	99.413403 
3106.000000	99.410887 
3105.000000	99.406020 
3104.000000	99.400325 
3103.000000	99.396238 
3102.000000	99.396014 
3101.000000	99.400293 
3100.000000	99.407394 
3099.000000	99.414305 
3098.000000	99.418764 
3097.000000	99.420512 
3096.000000	99.420578 
3095.000000	99.419644 
3094.000000	99.417530 
3093.000000	99.414176 
3092.000000	99.410441 
3091.000000	99.407571 
3090.000000	99.406200 
3089.000000	99.406214 
3088.000000	99.407268 
3087.000000	99.408946 
3086.000000	99.410548 
3085.000000	99.411222 
3084.000000	99.410368 
3083.000000	99.407729 
3082.000000	99.403362 
3081.000000	99.398027 
3080.000000	99.393489 
3079.000000	99.391816 
3078.000000	99.394057 
3077.000000	99.399665 
3076.000000	99.406918 
3075.000000	99.413487 
3074.000000	99.416977 
3073.000000	99.416076 
3072.000000	99.411626 
3071.000000	99.405952 
3070.000000	99.400699 
3069.000000	99.395813 
3068.000000	99.390998 
3067.000000	99.387584 
3066.000000	99.388082 
3065.000000	99.393764 
3064.000000	99.402899 
3063.000000	99.411319 
3062.000000	99.414776 
3061.000000	99.411444 
3060.000000	99.402989 
3059.000000	99.393426 
3058.000000	99.386764 
3057.000000	99.385305 
3056.000000	99.389213 
3055.000000	99.396547 
3054.000000	99.403679 
3053.000000	99.406924 
3052.000000	99.404853 
3051.000000	99.399014 
3050.000000	99.392287 
3049.000000	99.386980 
3048.000000	99.384287 
3047.000000	99.384063 
3046.000000	99.384179 
3045.000000	99.381280 
3044.000000	99.373986 
3043.000000	99.365165 
3042.000000	99.359571 
3041.000000	99.358935 
3040.000000	99.360347 
3039.000000	99.359603 
3038.000000	99.355015 
3037.000000	99.347636 
3036.000000	99.338992 
3035.000000	99.329710 
3034.000000	99.319879 
3033.000000	99.309641 
3032.000000	99.299165 
3031.000000	99.288446 
3030.000000	99.277410 
3029.000000	99.266293 
3028.000000	99.255938 
3027.000000	99.247515 
3026.000000	99.241333 
3025.000000	99.235666 
3024.000000	99.227327 
3023.000000	99.214211 
3022.000000	99.197271 
3021.000000	99.179409 
3020.000000	99.162330 
3019.000000	99.145120 
3018.000000	99.126337 
3017.000000	99.106730 
3016.000000	99.088685 
3015.000000	99.072956 
3014.000000	99.057415 
3013.000000	99.039968 
3012.000000	99.021652 
3011.000000	99.005359 
3010.000000	98.991823 
3009.000000	98.978558 
3008.000000	98.962980 
3007.000000	98.945068 
3006.000000	98.926266 
3005.000000	98.907050 
3004.000000	98.886827 
3003.000000	98.865549 
3002.000000	98.844254 
3001.000000	98.824231 
3000.000000	98.806395 
2999.000000	98.791200 
2998.000000	98.778446 
2997.000000	98.767364 
2996.000000	98.757247 
2995.000000	98.747115 
2994.000000	98.733968 
2993.000000	98.712692 
2992.000000	98.680132 
2991.000000	98.639924 
2990.000000	98.602058 
2989.000000	98.576612 
2988.000000	98.567758 
2987.000000	98.573099 
2986.000000	98.586930 
2985.000000	98.603290 
2984.000000	98.617247 
2983.000000	98.625636 
2982.000000	98.627886 
2981.000000	98.626177 
2980.000000	98.624189 
2979.000000	98.624779 
2978.000000	98.627959 
2977.000000	98.630862 
2976.000000	98.630069 
2975.000000	98.624470 
2974.000000	98.616233 
2973.000000	98.609423 
2972.000000	98.607722 
2971.000000	98.612659 
2970.000000	98.623057 
2969.000000	98.636114 
2968.000000	98.649716 
2967.000000	98.663961 
2966.000000	98.680168 
2965.000000	98.698481 
2964.000000	98.717033 
2963.000000	98.733447 
2962.000000	98.746635 
2961.000000	98.756988 
2960.000000	98.765378 
2959.000000	98.772479 
2958.000000	98.778934 
2957.000000	98.785758 
2956.000000	98.794158 
2955.000000	98.804704 
2954.000000	98.816776 
2953.000000	98.829262 
2952.000000	98.841784 
2951.000000	98.854580 
2950.000000	98.866982 
2949.000000	98.876832 
2948.000000	98.882202 
2947.000000	98.883380 
2946.000000	98.882736 
2945.000000	98.883045 
2944.000000	98.886219 
2943.000000	98.892609 
2942.000000	98.900412 
2941.000000	98.906405 
2940.000000	98.908722 
2939.000000	98.909097 
2938.000000	98.911344 
2937.000000	98.917548 
2936.000000	98.926477 
2935.000000	98.935413 
2934.000000	98.942345 
2933.000000	98.946267 
2932.000000	98.946774 
2931.000000	98.944209 
2930.000000	98.939773 
2929.000000	98.935025 
2928.000000	98.931271 
2927.000000	98.929029 
2926.000000	98.927472 
2925.000000	98.924789 
2924.000000	98.920009 
2923.000000	98.914241 
2922.000000	98.909177 
2921.000000	98.904700 
2920.000000	98.899256 
2919.000000	98.892398 
2918.000000	98.885443 
2917.000000	98.879183 
2916.000000	98.872214 
2915.000000	98.862306 
2914.000000	98.848927 
2913.000000	98.834088 
2912.000000	98.821247 
2911.000000	98.813161 
2910.000000	98.809770 
2909.000000	98.807952 
2908.000000	98.804203 
2907.000000	98.797639 
2906.000000	98.789307 
2905.000000	98.778722 
2904.000000	98.763431 
2903.000000	98.743272 
2902.000000	98.724696 
2901.000000	98.717726 
2900.000000	98.728484 
2899.000000	98.754033 
2898.000000	98.783704 
2897.000000	98.805990 
2896.000000	98.815545 
2895.000000	98.815533 
2894.000000	98.813641 
2893.000000	98.815455 
2892.000000	98.821376 
2891.000000	98.828739 
2890.000000	98.835224 
2889.000000	98.839786 
2888.000000	98.842056 
2887.000000	98.842605 
2886.000000	98.843397 
2885.000000	98.846692 
2884.000000	98.853342 
2883.000000	98.862769 
2882.000000	98.874341 
2881.000000	98.887938 
2880.000000	98.903190 
2879.000000	98.918930 
2878.000000	98.933694 
2877.000000	98.946619 
2876.000000	98.957907 
2875.000000	98.968619 
2874.000000	98.979742 
2873.000000	98.991102 
2872.000000	99.001305 
2871.000000	99.008956 
2870.000000	99.013879 
2869.000000	99.017364 
2868.000000	99.021741 
2867.000000	99.029606 
2866.000000	99.042290 
2865.000000	99.058427 
2864.000000	99.074699 
2863.000000	99.088771 
2862.000000	99.101072 
2861.000000	99.113240 
2860.000000	99.125682 
2859.000000	99.137660 
2858.000000	99.148979 
2857.000000	99.160138 
2856.000000	99.170945 
2855.000000	99.180375 
2854.000000	99.188110 
2853.000000	99.195237 
2852.000000	99.202917 
2851.000000	99.211083 
2850.000000	99.218958 
2849.000000	99.226278 
2848.000000	99.233384 
2847.000000	99.240392 
2846.000000	99.246848 
2845.000000	99.252100 
2844.000000	99.255546 
2843.000000	99.256667 
2842.000000	99.255595 
2841.000000	99.254075 
2840.000000	99.255231 
2839.000000	99.261286 
2838.000000	99.271167 
2837.000000	99.280894 
2836.000000	99.286899 
2835.000000	99.288861 
2834.000000	99.289154 
2833.000000	99.290101 
2832.000000	99.292277 
2831.000000	99.294951 
2830.000000	99.297044 
2829.000000	99.297590 
2828.000000	99.296288 
2827.000000	99.294238 
2826.000000	99.293582 
2825.000000	99.295757 
2824.000000	99.300171 
2823.000000	99.304774 
2822.000000	99.307714 
2821.000000	99.308433 
2820.000000	99.307752 
2819.000000	99.307301 
2818.000000	99.308471 
2817.000000	99.311418 
2816.000000	99.315075 
2815.000000	99.318182 
2814.000000	99.320053 
2813.000000	99.320458 
2812.000000	99.319570 
2811.000000	99.318502 
2810.000000	99.319192 
2809.000000	99.322713 
2808.000000	99.327638 
2807.000000	99.330774 
2806.000000	99.329940 
2805.000000	99.325927 
2804.000000	99.321756 
2803.000000	99.320138 
2802.000000	99.321562 
2801.000000	99.324478 
2800.000000	99.327032 
2799.000000	99.328542 
2798.000000	99.329356 
2797.000000	99.329624 
2796.000000	99.328787 
2795.000000	99.326483 
2794.000000	99.323617 
2793.000000	99.322035 
2792.000000	99.322942 
2791.000000	99.325736 
2790.000000	99.328497 
2789.000000	99.329733 
2788.000000	99.329717 
2787.000000	99.329994 
2786.000000	99.331518 
2785.000000	99.333509 
2784.000000	99.334385 
2783.000000	99.333550 
2782.000000	99.331857 
2781.000000	99.330533 
2780.000000	99.330173 
2779.000000	99.330751 
2778.000000	99.331989 
2777.000000	99.333546 
2776.000000	99.335338 
2775.000000	99.337782 
2774.000000	99.341265 
2773.000000	99.345320 
2772.000000	99.348933 
2771.000000	99.351781 
2770.000000	99.354395 
2769.000000	99.356767 
2768.000000	99.357703 
2767.000000	99.356335 
2766.000000	99.353625 
2765.000000	99.351310 
2764.000000	99.349589 
2763.000000	99.346961 
2762.000000	99.342575 
2761.000000	99.337787 
2760.000000	99.334834 
2759.000000	99.334605 
2758.000000	99.336400 
2757.000000	99.339448 
2756.000000	99.343591 
2755.000000	99.348233 
2754.000000	99.351551 
2753.000000	99.351795 
2752.000000	99.349432 
2751.000000	99.347242 
2750.000000	99.347807 
2749.000000	99.351123 
2748.000000	99.354898 
2747.000000	99.356903 
2746.000000	99.356623 
2745.000000	99.354895 
2744.000000	99.352598 
2743.000000	99.350018 
2742.000000	99.347205 
2741.000000	99.344640 
2740.000000	99.343347 
2739.000000	99.344237 
2738.000000	99.347368 
2737.000000	99.352010 
2736.000000	99.357268 
2735.000000	99.362128 
2734.000000	99.364897 
2733.000000	99.363697 
2732.000000	99.358425 
2731.000000	99.351771 
2730.000000	99.347336 
2729.000000	99.346702 
2728.000000	99.348840 
2727.000000	99.351941 
2726.000000	99.354789 
2725.000000	99.356653 
2724.000000	99.357340 
2723.000000	99.357908 
2722.000000	99.360168 
2721.000000	99.364545 
2720.000000	99.368993 
2719.000000	99.370792 
2718.000000	99.369104 
2717.000000	99.365360 
2716.000000	99.361703 
2715.000000	99.359683 
2714.000000	99.359869 
2713.000000	99.361630 
2712.000000	99.363258 
2711.000000	99.363266 
2710.000000	99.362027 
2709.000000	99.361613 
2708.000000	99.363524 
2707.000000	99.366801 
2706.000000	99.368860 
2705.000000	99.368293 
2704.000000	99.366451 
2703.000000	99.365912 
2702.000000	99.367531 
2701.000000	99.369517 
2700.000000	99.369712 
2699.000000	99.368292 
2698.000000	99.367633 
2697.000000	99.369573 
2696.000000	99.373374 
2695.000000	99.376559 
2694.000000	99.377386 
2693.000000	99.376253 
2692.000000	99.374925 
2691.000000	99.374623 
2690.000000	99.374901 
2689.000000	99.374354 
2688.000000	99.372384 
2687.000000	99.370056 
2686.000000	99.369115 
2685.000000	99.370437 
2684.000000	99.373572 
2683.000000	99.377254 
2682.000000	99.379807 
2681.000000	99.379549 
2680.000000	99.375882 
2679.000000	99.370282 
2678.000000	99.365640 
2677.000000	99.364260 
2676.000000	99.366584 
2675.000000	99.371499 
2674.000000	99.377155 
2673.000000	99.381503 
2672.000000	99.383081 
2671.000000	99.381933 
2670.000000	99.379456 
2669.000000	99.376965 
2668.000000	99.374686 
2667.000000	99.372321 
2666.000000	99.370091 
2665.000000	99.368689 
2664.000000	99.368443 
2663.000000	99.369083 
2662.000000	99.370463 
2661.000000	99.373113 
2660.000000	99.377579 
2659.000000	99.383119 
2658.000000	99.387525 
2657.000000	99.389018 
2656.000000	99.388320 
2655.000000	99.387947 
2654.000000	99.389059 
2653.000000	99.390065 
2652.000000	99.389276 
2651.000000	99.387906 
2650.000000	99.388644 
2649.000000	99.391557 
2648.000000	99.393502 
2647.000000	99.392365 
2646.000000	99.390303 
2645.000000	99.391381 
2644.000000	99.396616 
2643.000000	99.402489 
2642.000000	99.404289 
2641.000000	99.400496 
2640.000000	99.394140 
2639.000000	99.390192 
2638.000000	99.391264 
2637.000000	99.395396 
2636.000000	99.398180 
2635.000000	99.397064 
2634.000000	99.393313 
2633.000000	99.390169 
2632.000000	99.390063 
2631.000000	99.393400 
2630.000000	99.398562 
2629.000000	99.402486 
2628.000000	99.402617 
2627.000000	99.399373 
2626.000000	99.395914 
2625.000000	99.394588 
2624.000000	99.394365 
2623.000000	99.392709 
2622.000000	99.389212 
2621.000000	99.386108 
2620.000000	99.385527 
2619.000000	99.387424 
2618.000000	99.390204 
2617.000000	99.392422 
2616.000000	99.393699 
2615.000000	99.394633 
2614.000000	99.396053 
2613.000000	99.398175 
2612.000000	99.400511 
2611.000000	99.402667 
2610.000000	99.404721 
2609.000000	99.406553 
2608.000000	99.407402 
2607.000000	99.406777 
2606.000000	99.405478 
2605.000000	99.405116 
2604.000000	99.406701 
2603.000000	99.409972 
2602.000000	99.413768 
2601.000000	99.416769 
2600.000000	99.418236 
2599.000000	99.418358 
2598.000000	99.417505 
2597.000000	99.415026 
2596.000000	99.409660 
2595.000000	99.401695 
2594.000000	99.393919 
2593.000000	99.389449 
2592.000000	99.388928 
2591.000000	99.390652 
2590.000000	99.393148 
2589.000000	99.396571 
2588.000000	99.401395 
2587.000000	99.406540 
2586.000000	99.409465 
2585.000000	99.408231 
2584.000000	99.403469 
2583.000000	99.398215 
2582.000000	99.395577 
2581.000000	99.396362 
2580.000000	99.398866 
2579.000000	99.400585 
2578.000000	99.399791 
2577.000000	99.395980 
2576.000000	99.389880 
2575.000000	99.383315 
2574.000000	99.378414 
2573.000000	99.376458 
2572.000000	99.377569 
2571.000000	99.381165 
2570.000000	99.386072 
2569.000000	99.390477 
2568.000000	99.392827 
2567.000000	99.393026 
2566.000000	99.392224 
2565.000000	99.391570 
2564.000000	99.391852 
2563.000000	99.393712 
2562.000000	99.396687 
2561.000000	99.398139 
2560.000000	99.394973 
2559.000000	99.387133 
2558.000000	99.378293 
2557.000000	99.372699 
2556.000000	99.372358 
2555.000000	99.377203 
2554.000000	99.385933 
2553.000000	99.395780 
2552.000000	99.403296 
2551.000000	99.406939 
2550.000000	99.407953 
2549.000000	99.407776 
2548.000000	99.405776 
2547.000000	99.400725 
2546.000000	99.393422 
2545.000000	99.386487 
2544.000000	99.382100 
2543.000000	99.380779 
2542.000000	99.381496 
2541.000000	99.382135 
2540.000000	99.380886 
2539.000000	99.378118 
2538.000000	99.375802 
2537.000000	99.374318 
2536.000000	99.371656 
2535.000000	99.367241 
2534.000000	99.364485 
2533.000000	99.366721 
2532.000000	99.371738 
2531.000000	99.373676 
2530.000000	99.370471 
2529.000000	99.366369 
2528.000000	99.365984 
2527.000000	99.368381 
2526.000000	99.368911 
2525.000000	99.365406 
2524.000000	99.360556 
2523.000000	99.358676 
2522.000000	99.361710 
2521.000000	99.368258 
2520.000000	99.374947 
2519.000000	99.378204 
2518.000000	99.375923 
2517.000000	99.368894 
2516.000000	99.360738 
2515.000000	99.355465 
2514.000000	99.354471 
2513.000000	99.356192 
2512.000000	99.358774 
2511.000000	99.362179 
2510.000000	99.367083 
2509.000000	99.372937 
2508.000000	99.378759 
2507.000000	99.385022 
2506.000000	99.392303 
2505.000000	99.397844 
2504.000000	99.396227 
2503.000000	99.385332 
2502.000000	99.370201 
2501.000000	99.359255 
2500.000000	99.357261 
2499.000000	99.362976 
2498.000000	99.372209 
2497.000000	99.381032 
2496.000000	99.386539 
2495.000000	99.387100 
2494.000000	99.383185 
2493.000000	99.377311 
2492.000000	99.372543 
2491.000000	99.371025 
2490.000000	99.373634 
2489.000000	99.380318 
2488.000000	99.390389 
2487.000000	99.402167 
2486.000000	99.412094 
2485.000000	99.415219 
2484.000000	99.408786 
2483.000000	99.395994 
2482.000000	99.384315 
2481.000000	99.378549 
2480.000000	99.376679 
2479.000000	99.373823 
2478.000000	99.368706 
2477.000000	99.364264 
2476.000000	99.363201 
2475.000000	99.365665 
2474.000000	99.370693 
2473.000000	99.376877 
2472.000000	99.381365 
2471.000000	99.381221 
2470.000000	99.377203 
2469.000000	99.374021 
2468.000000	99.375132 
2467.000000	99.378627 
2466.000000	99.379774 
2465.000000	99.376586 
2464.000000	99.371418 
2463.000000	99.368006 
2462.000000	99.368524 
2461.000000	99.372848 
2460.000000	99.378758 
2459.000000	99.382683 
2458.000000	99.381895 
2457.000000	99.376930 
2456.000000	99.371286 
2455.000000	99.368364 
2454.000000	99.368994 
2453.000000	99.371710 
2452.000000	99.374244 
2451.000000	99.374388 
2450.000000	99.370728 
2449.000000	99.364086 
2448.000000	99.358028 
2447.000000	99.356522 
2446.000000	99.360384 
2445.000000	99.366453 
2444.000000	99.370522 
2443.000000	99.370553 
2442.000000	99.367009 
2441.000000	99.361397 
2440.000000	99.355710 
2439.000000	99.352546 
2438.000000	99.353825 
2437.000000	99.358617 
2436.000000	99.363220 
2435.000000	99.364288 
2434.000000	99.361808 
2433.000000	99.358951 
2432.000000	99.359562 
2431.000000	99.365617 
2430.000000	99.375654 
2429.000000	99.384776 
2428.000000	99.387351 
2427.000000	99.381529 
2426.000000	99.371295 
2425.000000	99.363185 
2424.000000	99.360941 
2423.000000	99.363977 
2422.000000	99.370203 
2421.000000	99.378080 
2420.000000	99.385273 
2419.000000	99.387678 
2418.000000	99.382435 
2417.000000	99.371689 
2416.000000	99.361295 
2415.000000	99.355237 
2414.000000	99.352670 
2413.000000	99.350799 
2412.000000	99.348752 
2411.000000	99.347329 
2410.000000	99.346467 
2409.000000	99.345201 
2408.000000	99.343737 
2407.000000	99.343534 
2406.000000	99.345159 
2405.000000	99.347815 
2404.000000	99.351250 
2403.000000	99.356143 
2402.000000	99.361697 
2401.000000	99.364681 
2400.000000	99.362389 
2399.000000	99.355666 
2398.000000	99.347920 
2397.000000	99.342098 
2396.000000	99.339488 
2395.000000	99.340028 
2394.000000	99.342066 
2393.000000	99.342760 
2392.000000	99.340573 
2391.000000	99.337038 
2390.000000	99.334693 
2389.000000	99.334059 
2388.000000	99.334317 
2387.000000	99.336044 
2386.000000	99.340650 
2385.000000	99.347092 
2384.000000	99.351780 
2383.000000	99.352677 
2382.000000	99.351443 
2381.000000	99.350372 
2380.000000	99.349049 
2379.000000	99.345918 
2378.000000	99.342075 
2377.000000	99.341170 
2376.000000	99.345336 
2375.000000	99.352487 
2374.000000	99.357989 
2373.000000	99.358312 
2372.000000	99.353279 
2371.000000	99.345844 
2370.000000	99.339892 
2369.000000	99.337527 
2368.000000	99.338115 
2367.000000	99.339925 
2366.000000	99.342457 
2365.000000	99.346789 
2364.000000	99.353523 
2363.000000	99.360854 
2362.000000	99.364756 
2361.000000	99.362032 
2360.000000	99.354049 
2359.000000	99.345407 
2358.000000	99.339598 
2357.000000	99.337045 
2356.000000	99.337709 
2355.000000	99.342699 
2354.000000	99.350374 
2353.000000	99.355963 
2352.000000	99.356708 
2351.000000	99.355212 
2350.000000	99.355481 
2349.000000	99.357451 
2348.000000	99.359043 
2347.000000	99.359247 
2346.000000	99.359298 
2345.000000	99.360704 
2344.000000	99.363256 
2343.000000	99.366106 
2342.000000	99.367367 
2341.000000	99.365799 
2340.000000	99.362508 
2339.000000	99.361487 
2338.000000	99.365671 
2337.000000	99.372336 
2336.000000	99.375079 
2335.000000	99.371329 
2334.000000	99.365374 
2333.000000	99.363351 
2332.000000	99.366272 
2331.000000	99.369802 
2330.000000	99.370508 
2329.000000	99.369287 
2328.000000	99.370948 
2327.000000	99.378831 
2326.000000	99.391552 
2325.000000	99.402829 
2324.000000	99.405969 
2323.000000	99.400926 
2322.000000	99.394093 
2321.000000	99.391324 
2320.000000	99.390600 
2319.000000	99.385779 
2318.000000	99.375227 
2317.000000	99.364207 
2316.000000	99.358875 
2315.000000	99.360429 
2314.000000	99.366111 
2313.000000	99.373074 
2312.000000	99.380137 
2311.000000	99.386047 
2310.000000	99.388588 
2309.000000	99.386102 
2308.000000	99.379974 
2307.000000	99.374450 
2306.000000	99.373387 
2305.000000	99.377206 
2304.000000	99.383159 
2303.000000	99.388284 
2302.000000	99.391443 
2301.000000	99.393411 
2300.000000	99.396251 
2299.000000	99.401851 
2298.000000	99.409290 
2297.000000	99.413628 
2296.000000	99.409954 
2295.000000	99.399352 
2294.000000	99.389123 
2293.000000	99.385921 
2292.000000	99.390192 
2291.000000	99.397926 
2290.000000	99.405298 
2289.000000	99.409973 
2288.000000	99.410296 
2287.000000	99.406260 
2286.000000	99.400241 
2285.000000	99.394514 
2284.000000	99.388892 
2283.000000	99.383000 
2282.000000	99.379473 
2281.000000	99.381631 
2280.000000	99.388309 
2279.000000	99.394286 
2278.000000	99.396175 
2277.000000	99.395298 
2276.000000	99.394437 
2275.000000	99.394479 
2274.000000	99.395060 
2273.000000	99.395913 
2272.000000	99.396421 
2271.000000	99.395800 
2270.000000	99.394768 
2269.000000	99.395179 
2268.000000	99.396989 
2267.000000	99.397479 
2266.000000	99.394747 
2265.000000	99.390230 
2264.000000	99.386119 
2263.000000	99.381767 
2262.000000	99.375010 
2261.000000	99.366665 
2260.000000	99.361582 
2259.000000	99.364485 
2258.000000	99.375469 
2257.000000	99.389819 
2256.000000	99.401534 
2255.000000	99.406789 
2254.000000	99.405212 
2253.000000	99.399690 
2252.000000	99.395295 
2251.000000	99.396283 
2250.000000	99.402339 
2249.000000	99.407734 
2248.000000	99.406560 
2247.000000	99.398934 
2246.000000	99.390467 
2245.000000	99.386028 
2244.000000	99.385513 
2243.000000	99.386258 
2242.000000	99.387151 
2241.000000	99.389295 
2240.000000	99.394516 
2239.000000	99.404211 
2238.000000	99.417316 
2237.000000	99.427909 
2236.000000	99.427778 
2235.000000	99.414676 
2234.000000	99.396943 
2233.000000	99.386959 
2232.000000	99.389771 
2231.000000	99.399531 
2230.000000	99.406161 
2229.000000	99.403831 
2228.000000	99.394343 
2227.000000	99.384704 
2226.000000	99.381180 
2225.000000	99.384053 
2224.000000	99.388581 
2223.000000	99.391581 
2222.000000	99.394331 
2221.000000	99.397000 
2220.000000	99.394370 
2219.000000	99.382598 
2218.000000	99.368453 
2217.000000	99.364865 
2216.000000	99.375676 
2215.000000	99.390351 
2214.000000	99.396460 
2213.000000	99.392865 
2212.000000	99.387407 
2211.000000	99.385946 
2210.000000	99.389028 
2209.000000	99.396615 
2208.000000	99.408896 
2207.000000	99.421156 
2206.000000	99.423834 
2205.000000	99.412513 
2204.000000	99.395940 
2203.000000	99.389370 
2202.000000	99.399093 
2201.000000	99.415827 
2200.000000	99.424505 
2199.000000	99.418790 
2198.000000	99.404542 
2197.000000	99.391328 
2196.000000	99.384033 
2195.000000	99.382634 
2194.000000	99.385893 
2193.000000	99.391773 
2192.000000	99.396052 
2191.000000	99.395003 
2190.000000	99.390754 
2189.000000	99.390928 
2188.000000	99.399809 
2187.000000	99.410786 
2186.000000	99.411054 
2185.000000	99.395247 
2184.000000	99.372158 
2183.000000	99.355685 
2182.000000	99.351120 
2181.000000	99.353344 
2180.000000	99.356676 
2179.000000	99.361083 
2178.000000	99.367699 
2177.000000	99.373917 
2176.000000	99.376612 
2175.000000	99.376657 
2174.000000	99.376435 
2173.000000	99.376182 
2172.000000	99.377300 
2171.000000	99.385864 
2170.000000	99.406254 
2169.000000	99.432188 
2168.000000	99.450611 
2167.000000	99.455485 
2166.000000	99.452549 
2165.000000	99.450241 
2164.000000	99.452007 
2163.000000	99.458440 
2162.000000	99.468747 
2161.000000	99.475206 
2160.000000	99.463373 
2159.000000	99.426412 
2158.000000	99.376417 
2157.000000	99.334011 
2156.000000	99.309943 
2155.000000	99.303484 
2154.000000	99.312317 
2153.000000	99.334187 
2152.000000	99.361151 
2151.000000	99.380459 
2150.000000	99.384177 
2149.000000	99.376308 
2148.000000	99.369331 
2147.000000	99.373436 
2146.000000	99.387791 
2145.000000	99.400952 
2144.000000	99.401159 
2143.000000	99.387633 
2142.000000	99.370682 
2141.000000	99.360277 
2140.000000	99.356653 
2139.000000	99.353788 
2138.000000	99.349286 
2137.000000	99.346524 
2136.000000	99.347472 
2135.000000	99.348052 
2134.000000	99.343415 
2133.000000	99.335694 
2132.000000	99.332730 
2131.000000	99.338360 
2130.000000	99.346444 
2129.000000	99.346732 
2128.000000	99.336420 
2127.000000	99.323695 
2126.000000	99.319011 
2125.000000	99.324975 
2124.000000	99.336348 
2123.000000	99.347662 
2122.000000	99.357190 
2121.000000	99.364461 
2120.000000	99.368539 
2119.000000	99.370113 
2118.000000	99.372070 
2117.000000	99.376179 
2116.000000	99.381342 
2115.000000	99.386277 
2114.000000	99.391325 
2113.000000	99.395751 
2112.000000	99.396053 
2111.000000	99.390083 
2110.000000	99.381498 
2109.000000	99.376759 
2108.000000	99.377557 
2107.000000	99.378683 
2106.000000	99.374145 
2105.000000	99.364096 
2104.000000	99.355153 
2103.000000	99.354384 
2102.000000	99.362829 
2101.000000	99.374165 
2100.000000	99.379976 
2099.000000	99.376997 
2098.000000	99.369254 
2097.000000	99.363405 
2096.000000	99.362832 
2095.000000	99.366454 
2094.000000	99.371594 
2093.000000	99.376258 
2092.000000	99.379316 
2091.000000	99.380431 
2090.000000	99.380505 
2089.000000	99.381200 
2088.000000	99.382804 
2087.000000	99.382485 
2086.000000	99.376050 
2085.000000	99.363224 
2084.000000	99.351020 
2083.000000	99.349292 
2082.000000	99.361286 
2081.000000	99.379894 
2080.000000	99.395140 
2079.000000	99.404259 
2078.000000	99.412287 
2077.000000	99.423951 
2076.000000	99.437569 
2075.000000	99.446280 
2074.000000	99.442934 
2073.000000	99.425142 
2072.000000	99.398773 
2071.000000	99.375417 
2070.000000	99.363179 
2069.000000	99.359935 
2068.000000	99.357617 
2067.000000	99.351885 
2066.000000	99.344731 
2065.000000	99.340173 
2064.000000	99.342249 
2063.000000	99.355111 
2062.000000	99.377731 
2061.000000	99.398377 
2060.000000	99.402830 
2059.000000	99.390884 
2058.000000	99.377888 
2057.000000	99.376836 
2056.000000	99.385265 
2055.000000	99.393548 
2054.000000	99.399313 
2053.000000	99.407322 
2052.000000	99.419287 
2051.000000	99.430240 
2050.000000	99.433572 
2049.000000	99.426596 
2048.000000	99.413688 
2047.000000	99.405880 
2046.000000	99.412733 
2045.000000	99.430055 
2044.000000	99.439890 
2043.000000	99.429089 
2042.000000	99.405671 
2041.000000	99.390780 
2040.000000	99.395251 
2039.000000	99.410367 
2038.000000	99.421207 
2037.000000	99.421967 
2036.000000	99.416607 
2035.000000	99.409249 
2034.000000	99.397920 
2033.000000	99.378760 
2032.000000	99.355743 
2031.000000	99.342913 
2030.000000	99.352040 
2029.000000	99.377244 
2028.000000	99.397287 
2027.000000	99.396261 
2026.000000	99.377576 
2025.000000	99.356328 
2024.000000	99.344425 
2023.000000	99.346032 
2022.000000	99.359727 
2021.000000	99.377539 
2020.000000	99.387034 
2019.000000	99.382255 
2018.000000	99.370159 
2017.000000	99.360794 
2016.000000	99.354768 
2015.000000	99.347627 
2014.000000	99.341831 
2013.000000	99.344014 
2012.000000	99.352515 
2011.000000	99.357624 
2010.000000	99.355373 
2009.000000	99.353303 
2008.000000	99.359857 
2007.000000	99.373950 
2006.000000	99.387945 
2005.000000	99.396533 
2004.000000	99.399968 
2003.000000	99.401025 
2002.000000	99.400640 
2001.000000	99.395484 
2000.000000	99.380647 
1999.000000	99.356674 
1998.000000	99.332250 
1997.000000	99.317625 
1996.000000	99.316633 
1995.000000	99.326830 
1994.000000	99.344092 
1993.000000	99.362683 
1992.000000	99.373389 
1991.000000	99.368551 
1990.000000	99.350383 
1989.000000	99.330492 
1988.000000	99.320997 
1987.000000	99.327544 
1986.000000	99.348523 
1985.000000	99.377157 
1984.000000	99.404203 
1983.000000	99.421561 
1982.000000	99.424985 
1981.000000	99.414441 
1980.000000	99.394438 
1979.000000	99.374323 
1978.000000	99.363313 
1977.000000	99.361109 
1976.000000	99.357255 
1975.000000	99.344653 
1974.000000	99.329966 
1973.000000	99.325466 
1972.000000	99.333357 
1971.000000	99.344064 
1970.000000	99.349202 
1969.000000	99.350720 
1968.000000	99.356060 
1967.000000	99.368085 
1966.000000	99.382641 
1965.000000	99.394125 
1964.000000	99.400191 
1963.000000	99.401151 
1962.000000	99.397458 
1961.000000	99.389365 
1960.000000	99.378423 
1959.000000	99.367522 
1958.000000	99.358439 
1957.000000	99.350091 
1956.000000	99.340326 
1955.000000	99.328903 
1954.000000	99.317210 
1953.000000	99.305835 
1952.000000	99.294855 
1951.000000	99.286670 
1950.000000	99.285650 
1949.000000	99.292865 
1948.000000	99.303217 
1947.000000	99.310070 
1946.000000	99.310890 
1945.000000	99.306982 
1944.000000	99.300351 
1943.000000	99.293358 
1942.000000	99.289071 
1941.000000	99.288128 
1940.000000	99.287245 
1939.000000	99.283757 
1938.000000	99.279841 
1937.000000	99.280216 
1936.000000	99.286210 
1935.000000	99.293695 
1934.000000	99.296914 
1933.000000	99.293362 
1932.000000	99.285400 
1931.000000	99.278805 
1930.000000	99.279687 
1929.000000	99.289690 
1928.000000	99.303719 
1927.000000	99.314263 
1926.000000	99.317274 
1925.000000	99.313091 
1924.000000	99.304081 
1923.000000	99.294450 
1922.000000	99.290377 
1921.000000	99.295191 
1920.000000	99.304927 
1919.000000	99.311467 
1918.000000	99.310330 
1917.000000	99.304516 
1916.000000	99.299876 
1915.000000	99.299788 
1914.000000	99.304979 
1913.000000	99.314101 
1912.000000	99.323223 
1911.000000	99.327387 
1910.000000	99.324477 
1909.000000	99.316743 
1908.000000	99.308665 
1907.000000	99.304312 
1906.000000	99.305724 
1905.000000	99.311242 
1904.000000	99.315160 
1903.000000	99.311794 
1902.000000	99.300456 
1901.000000	99.285585 
1900.000000	99.273595 
1899.000000	99.269788 
1898.000000	99.275423 
1897.000000	99.285642 
1896.000000	99.292026 
1895.000000	99.290883 
1894.000000	99.287973 
1893.000000	99.291198 
1892.000000	99.300648 
1891.000000	99.309168 
1890.000000	99.310956 
1889.000000	99.307366 
1888.000000	99.303934 
1887.000000	99.304272 
1886.000000	99.308169 
1885.000000	99.312729 
1884.000000	99.314332 
1883.000000	99.311381 
1882.000000	99.305606 
1881.000000	99.300150 
1880.000000	99.297300 
1879.000000	99.297669 
1878.000000	99.299519 
1877.000000	99.299196 
1876.000000	99.295025 
1875.000000	99.291337 
1874.000000	99.295404 
1873.000000	99.308038 
1872.000000	99.320241 
1871.000000	99.321857 
1870.000000	99.311960 
1869.000000	99.298750 
1868.000000	99.288397 
1867.000000	99.279582 
1866.000000	99.270453 
1865.000000	99.263003 
1864.000000	99.260753 
1863.000000	99.266216 
1862.000000	99.279317 
1861.000000	99.295788 
1860.000000	99.308227 
1859.000000	99.312380 
1858.000000	99.311676 
1857.000000	99.312457 
1856.000000	99.316499 
1855.000000	99.321268 
1854.000000	99.324805 
1853.000000	99.326652 
1852.000000	99.325831 
1851.000000	99.321272 
1850.000000	99.313963 
1849.000000	99.306792 
1848.000000	99.301882 
1847.000000	99.299719 
1846.000000	99.300340 
1845.000000	99.302284 
1844.000000	99.301117 
1843.000000	99.294764 
1842.000000	99.287873 
1841.000000	99.286143 
1840.000000	99.291021 
1839.000000	99.300047 
1838.000000	99.309547 
1837.000000	99.316928 
1836.000000	99.321123 
1835.000000	99.322772 
1834.000000	99.323576 
1833.000000	99.324855 
1832.000000	99.326829 
1831.000000	99.328262 
1830.000000	99.327408 
1829.000000	99.324848 
1828.000000	99.323155 
1827.000000	99.322775 
1826.000000	99.321863 
1825.000000	99.320017 
1824.000000	99.318993 
1823.000000	99.319694 
1822.000000	99.320552 
1821.000000	99.318568 
1820.000000	99.311695 
1819.000000	99.301099 
1818.000000	99.291635 
1817.000000	99.288294 
1816.000000	99.290658 
1815.000000	99.294032 
1814.000000	99.295940 
1813.000000	99.298792 
1812.000000	99.306033 
1811.000000	99.316988 
1810.000000	99.328761 
1809.000000	99.340021 
1808.000000	99.348466 
1807.000000	99.349644 
1806.000000	99.342197 
1805.000000	99.330885 
1804.000000	99.321833 
1803.000000	99.316692 
1802.000000	99.313740 
1801.000000	99.312687 
1800.000000	99.313655 
1799.000000	99.314586 
1798.000000	99.314466 
1797.000000	99.315050 
1796.000000	99.317975 
1795.000000	99.322989 
1794.000000	99.328162 
1793.000000	99.330885 
1792.000000	99.329970 
1791.000000	99.327080 
1790.000000	99.325413 
1789.000000	99.326835 
1788.000000	99.330889 
1787.000000	99.335588 
1786.000000	99.338995 
1785.000000	99.339999 
1784.000000	99.338073 
1783.000000	99.334311 
1782.000000	99.331139 
1781.000000	99.329503 
1780.000000	99.327200 
1779.000000	99.321764 
1778.000000	99.315002 
1777.000000	99.310985 
1776.000000	99.311518 
1775.000000	99.316330 
1774.000000	99.324769 
1773.000000	99.334943 
1772.000000	99.341833 
1771.000000	99.341893 
1770.000000	99.337212 
1769.000000	99.331530 
1768.000000	99.327586 
1767.000000	99.326243 
1766.000000	99.326518 
1765.000000	99.327475 
1764.000000	99.328585 
1763.000000	99.329259 
1762.000000	99.329186 
1761.000000	99.329538 
1760.000000	99.331771 
1759.000000	99.335106 
1758.000000	99.337585 
1757.000000	99.337978 
1756.000000	99.337218 
1755.000000	99.337148 
1754.000000	99.337753 
1753.000000	99.337658 
1752.000000	99.337311 
1751.000000	99.340197 
1750.000000	99.347699 
1749.000000	99.356226 
1748.000000	99.362085 
1747.000000	99.364550 
1746.000000	99.364041 
1745.000000	99.361342 
1744.000000	99.358683 
1743.000000	99.358195 
1742.000000	99.359335 
1741.000000	99.360136 
1740.000000	99.359505 
1739.000000	99.358084 
1738.000000	99.357056 
1737.000000	99.355945 
1736.000000	99.352172 
1735.000000	99.343202 
1734.000000	99.330900 
1733.000000	99.323424 
1732.000000	99.325865 
1731.000000	99.334849 
1730.000000	99.344570 
1729.000000	99.350091 
1728.000000	99.350641 
1727.000000	99.349393 
1726.000000	99.349017 
1725.000000	99.348929 
1724.000000	99.347386 
1723.000000	99.344999 
1722.000000	99.345112 
1721.000000	99.350500 
1720.000000	99.361013 
1719.000000	99.372961 
1718.000000	99.379085 
1717.000000	99.375429 
1716.000000	99.365244 
1715.000000	99.353433 
1714.000000	99.344906 
1713.000000	99.342363 
1712.000000	99.343202 
1711.000000	99.343656 
1710.000000	99.343254 
1709.000000	99.343819 
1708.000000	99.346100 
1707.000000	99.349358 
1706.000000	99.353839 
1705.000000	99.359918 
1704.000000	99.362783 
1703.000000	99.355134 
1702.000000	99.335206 
1701.000000	99.316180 
1700.000000	99.315379 
1699.000000	99.328223 
1698.000000	99.340929 
1697.000000	99.349962 
1696.000000	99.355558 
1695.000000	99.357453 
1694.000000	99.358023 
1693.000000	99.359127 
1692.000000	99.359171 
1691.000000	99.356368 
1690.000000	99.351754 
1689.000000	99.348308 
1688.000000	99.346994 
1687.000000	99.345757 
1686.000000	99.343484 
1685.000000	99.343328 
1684.000000	99.344644 
1683.000000	99.345077 
1682.000000	99.346603 
1681.000000	99.347840 
1680.000000	99.348130 
1679.000000	99.348722 
1678.000000	99.349992 
1677.000000	99.350764 
1676.000000	99.350268 
1675.000000	99.349820 
1674.000000	99.350937 
1673.000000	99.353414 
1672.000000	99.355877 
1671.000000	99.357871 
1670.000000	99.359266 
1669.000000	99.359333 
1668.000000	99.359833 
1667.000000	99.362480 
1666.000000	99.364504 
1665.000000	99.362819 
1664.000000	99.358585 
1663.000000	99.356350 
1662.000000	99.359053 
1661.000000	99.364878 
1660.000000	99.370449 
1659.000000	99.374876 
1658.000000	99.379114 
1657.000000	99.381189 
1656.000000	99.377570 
1655.000000	99.367891 
1654.000000	99.362367 
1653.000000	99.363747 
1652.000000	99.364835 
1651.000000	99.366548 
1650.000000	99.364976 
1649.000000	99.358167 
1648.000000	99.349949 
1647.000000	99.343707 
1646.000000	99.341020 
1645.000000	99.343609 
1644.000000	99.350662 
1643.000000	99.358639 
1642.000000	99.364769 
1641.000000	99.367990 
1640.000000	99.368228 
1639.000000	99.366192 
1638.000000	99.362959 
1637.000000	99.359955 
1636.000000	99.356129 
1635.000000	99.351359 
1634.000000	99.351158 
1633.000000	99.356413 
1632.000000	99.361948 
1631.000000	99.364853 
1630.000000	99.365765 
1629.000000	99.366139 
1628.000000	99.366273 
1627.000000	99.366354 
1626.000000	99.367481 
1625.000000	99.370728 
1624.000000	99.376165 
1623.000000	99.382080 
1622.000000	99.386564 
1621.000000	99.388618 
1620.000000	99.387429 
1619.000000	99.383216 
1618.000000	99.378639 
1617.000000	99.376095 
1616.000000	99.375113 
1615.000000	99.375281 
1614.000000	99.375459 
1613.000000	99.373614 
1612.000000	99.370175 
1611.000000	99.367371 
1610.000000	99.366113 
1609.000000	99.364894 
1608.000000	99.362431 
1607.000000	99.359661 
1606.000000	99.357828 
1605.000000	99.357151 
1604.000000	99.357877 
1603.000000	99.360250 
1602.000000	99.362929 
1601.000000	99.363566 
1600.000000	99.362008 
1599.000000	99.360989 
1598.000000	99.362597 
1597.000000	99.366169 
1596.000000	99.370093 
1595.000000	99.373909 
1594.000000	99.377589 
1593.000000	99.380166 
1592.000000	99.381132 
1591.000000	99.382044 
1590.000000	99.384488 
1589.000000	99.387235 
1588.000000	99.387931 
1587.000000	99.386626 
1586.000000	99.384743 
1585.000000	99.381891 
1584.000000	99.376811 
1583.000000	99.370708 
1582.000000	99.367098 
1581.000000	99.367760 
1580.000000	99.371062 
1579.000000	99.374719 
1578.000000	99.378181 
1577.000000	99.381229 
1576.000000	99.381804 
1575.000000	99.381225 
1574.000000	99.382634 
1573.000000	99.383274 
1572.000000	99.379582 
1571.000000	99.373399 
1570.000000	99.369719 
1569.000000	99.369693 
1568.000000	99.371053 
1567.000000	99.371873 
1566.000000	99.371305 
1565.000000	99.369939 
1564.000000	99.370172 
1563.000000	99.372152 
1562.000000	99.374335 
1561.000000	99.372993 
1560.000000	99.371085 
1559.000000	99.368045 
1558.000000	99.360524 
1557.000000	99.360188 
1556.000000	99.366172 
1555.000000	99.370349 
1554.000000	99.369350 
1553.000000	99.365643 
1552.000000	99.363231 
1551.000000	99.364049 
1550.000000	99.367636 
1549.000000	99.372095 
1548.000000	99.374959 
1547.000000	99.374543 
1546.000000	99.370286 
1545.000000	99.363913 
1544.000000	99.358367 
1543.000000	99.355228 
1542.000000	99.356002 
1541.000000	99.362464 
1540.000000	99.365859 
1539.000000	99.360093 
1538.000000	99.355266 
1537.000000	99.355179 
1536.000000	99.355427 
1535.000000	99.354686 
1534.000000	99.354999 
1533.000000	99.356338 
1532.000000	99.355810 
1531.000000	99.351839 
1530.000000	99.346454 
1529.000000	99.342946 
1528.000000	99.341868 
1527.000000	99.341647 
1526.000000	99.341880 
1525.000000	99.343518 
1524.000000	99.346124 
1523.000000	99.348239 
1522.000000	99.349966 
1521.000000	99.351325 
1520.000000	99.350618 
1519.000000	99.346588 
1518.000000	99.340261 
1517.000000	99.334208 
1516.000000	99.329843 
1515.000000	99.327585 
1514.000000	99.327345 
1513.000000	99.327982 
1512.000000	99.328023 
1511.000000	99.325748 
1510.000000	99.321218 
1509.000000	99.316549 
1508.000000	99.318021 
1507.000000	99.326204 
1506.000000	99.330188 
1505.000000	99.329288 
1504.000000	99.328490 
1503.000000	99.326845 
1502.000000	99.323487 
1501.000000	99.320647 
1500.000000	99.321091 
1499.000000	99.325759 
1498.000000	99.331717 
1497.000000	99.336812 
1496.000000	99.340769 
1495.000000	99.341986 
1494.000000	99.338318 
1493.000000	99.329687 
1492.000000	99.318366 
1491.000000	99.308760 
1490.000000	99.304695 
1489.000000	99.305748 
1488.000000	99.306567 
1487.000000	99.303379 
1486.000000	99.299517 
1485.000000	99.298584 
1484.000000	99.299883 
1483.000000	99.300922 
1482.000000	99.299405 
1481.000000	99.294842 
1480.000000	99.288427 
1479.000000	99.281975 
1478.000000	99.277138 
1477.000000	99.274964 
1476.000000	99.274479 
1475.000000	99.272741 
1474.000000	99.269875 
1473.000000	99.270751 
1472.000000	99.277000 
1471.000000	99.283232 
1470.000000	99.285677 
1469.000000	99.285935 
1468.000000	99.286644 
1467.000000	99.288574 
1466.000000	99.291557 
1465.000000	99.294943 
1464.000000	99.297273 
1463.000000	99.297648 
1462.000000	99.296824 
1461.000000	99.296708 
1460.000000	99.298168 
1459.000000	99.299164 
1458.000000	99.293194 
1457.000000	99.276409 
1456.000000	99.258133 
1455.000000	99.247762 
1454.000000	99.243418 
1453.000000	99.242095 
1452.000000	99.242321 
1451.000000	99.243241 
1450.000000	99.245017 
1449.000000	99.249318 
1448.000000	99.256164 
1447.000000	99.262305 
1446.000000	99.265544 
1445.000000	99.267242 
1444.000000	99.269114 
1443.000000	99.270268 
1442.000000	99.269191 
1441.000000	99.266298 
1440.000000	99.263685 
1439.000000	99.262734 
1438.000000	99.262427 
1437.000000	99.261368 
1436.000000	99.259940 
1435.000000	99.258431 
1434.000000	99.256479 
1433.000000	99.255150 
1432.000000	99.255653 
1431.000000	99.258149 
1430.000000	99.260714 
1429.000000	99.261200 
1428.000000	99.259534 
1427.000000	99.256595 
1426.000000	99.252421 
1425.000000	99.246048 
1424.000000	99.238846 
1423.000000	99.233306 
1422.000000	99.228112 
1421.000000	99.219134 
1420.000000	99.204580 
1419.000000	99.187219 
1418.000000	99.169897 
1417.000000	99.153460 
1416.000000	99.138603 
1415.000000	99.125062 
1414.000000	99.110372 
1413.000000	99.092112 
1412.000000	99.071530 
1411.000000	99.052748 
1410.000000	99.037570 
1409.000000	99.025768 
1408.000000	99.018077 
1407.000000	99.014933 
1406.000000	99.014861 
1405.000000	99.017416 
1404.000000	99.025847 
1403.000000	99.040689 
1402.000000	99.056136 
1401.000000	99.067547 
1400.000000	99.076496 
1399.000000	99.085202 
1398.000000	99.086591 
1397.000000	99.068270 
1396.000000	99.028315 
1395.000000	98.985306 
1394.000000	98.966527 
1393.000000	98.982051 
1392.000000	99.020526 
1391.000000	99.064130 
1390.000000	99.099018 
1389.000000	99.117987 
1388.000000	99.120309 
1387.000000	99.110984 
1386.000000	99.097550 
1385.000000	99.085941 
1384.000000	99.078863 
1383.000000	99.076045 
1382.000000	99.075708 
1381.000000	99.077329 
1380.000000	99.081775 
1379.000000	99.089311 
1378.000000	99.098288 
1377.000000	99.106385 
1376.000000	99.113271 
1375.000000	99.121427 
1374.000000	99.133262 
1373.000000	99.147780 
1372.000000	99.161820 
1371.000000	99.174384 
1370.000000	99.187277 
1369.000000	99.201148 
1368.000000	99.215035 
1367.000000	99.227721 
1366.000000	99.238115 
1365.000000	99.245399 
1364.000000	99.249056 
1363.000000	99.250257 
1362.000000	99.252301 
1361.000000	99.257282 
1360.000000	99.263982 
1359.000000	99.270625 
1358.000000	99.277181 
1357.000000	99.284162 
1356.000000	99.290996 
1355.000000	99.296610 
1354.000000	99.300917 
1353.000000	99.304743 
1352.000000	99.307406 
1351.000000	99.307407 
1350.000000	99.305831 
1349.000000	99.304827 
1348.000000	99.305474 
1347.000000	99.307708 
1346.000000	99.311476 
1345.000000	99.316384 
1344.000000	99.321169 
1343.000000	99.324930 
1342.000000	99.328076 
1341.000000	99.330652 
1340.000000	99.330960 
1339.000000	99.327903 
1338.000000	99.323409 
1337.000000	99.320729 
1336.000000	99.321053 
1335.000000	99.323018 
1334.000000	99.325278 
1333.000000	99.328026 
1332.000000	99.331523 
1331.000000	99.334873 
1330.000000	99.336776 
1329.000000	99.336578 
1328.000000	99.334536 
1327.000000	99.331813 
1326.000000	99.329776 
1325.000000	99.328362 
1324.000000	99.327137 
1323.000000	99.326659 
1322.000000	99.327471 
1321.000000	99.328489 
1320.000000	99.328046 
1319.000000	99.326358 
1318.000000	99.325312 
1317.000000	99.325703 
1316.000000	99.325988 
1315.000000	99.324411 
1314.000000	99.321260 
1313.000000	99.318656 
1312.000000	99.318416 
1311.000000	99.320662 
1310.000000	99.324099 
1309.000000	99.327021 
1308.000000	99.327991 
1307.000000	99.326411 
1306.000000	99.323016 
1305.000000	99.319401 
1304.000000	99.317723 
1303.000000	99.319663 
1302.000000	99.325044 
1301.000000	99.331254 
1300.000000	99.334594 
1299.000000	99.332797 
1298.000000	99.326750 
1297.000000	99.319973 
1296.000000	99.316133 
1295.000000	99.316883 
1294.000000	99.321219 
1293.000000	99.326430 
1292.000000	99.329604 
1291.000000	99.328835 
1290.000000	99.324298 
1289.000000	99.318397 
1288.000000	99.313908 
1287.000000	99.311282 
1286.000000	99.308329 
1285.000000	99.303380 
1284.000000	99.297999 
1283.000000	99.295137 
1282.000000	99.295161 
1281.000000	99.295255 
1280.000000	99.292720 
1279.000000	99.287402 
1278.000000	99.280506 
1277.000000	99.272793 
1276.000000	99.264748 
1275.000000	99.257567 
1274.000000	99.252555 
1273.000000	99.249890 
1272.000000	99.248529 
1271.000000	99.246663 
1270.000000	99.241993 
1269.000000	99.232946 
1268.000000	99.220594 
1267.000000	99.208184 
1266.000000	99.197601 
1265.000000	99.187632 
1264.000000	99.176574 
1263.000000	99.164786 
1262.000000	99.153505 
1261.000000	99.142970 
1260.000000	99.133472 
1259.000000	99.126534 
1258.000000	99.122564 
1257.000000	99.119086 
1256.000000	99.113750 
1255.000000	99.107908 
1254.000000	99.104575 
1253.000000	99.103658 
1252.000000	99.102282 
1251.000000	99.099825 
1250.000000	99.099483 
1249.000000	99.104182 
1248.000000	99.113608 
1247.000000	99.125504 
1246.000000	99.136459 
1245.000000	99.140739 
1244.000000	99.132653 
1243.000000	99.113979 
1242.000000	99.097049 
1241.000000	99.095803 
1240.000000	99.112635 
1239.000000	99.135767 
1238.000000	99.150090 
1237.000000	99.149528 
1236.000000	99.138861 
1235.000000	99.126086 
1234.000000	99.115137 
1233.000000	99.105365 
1232.000000	99.095723 
1231.000000	99.087406 
1230.000000	99.082218 
1229.000000	99.079936 
1228.000000	99.078834 
1227.000000	99.078612 
1226.000000	99.081265 
1225.000000	99.088193 
1224.000000	99.097362 
1223.000000	99.104607 
1222.000000	99.107711 
1221.000000	99.108343 
1220.000000	99.109986 
1219.000000	99.114693 
1218.000000	99.121786 
1217.000000	99.128937 
1216.000000	99.134096 
1215.000000	99.136838 
1214.000000	99.138372 
1213.000000	99.140117 
1212.000000	99.141994 
1211.000000	99.142202 
1210.000000	99.139179 
1209.000000	99.133721 
1208.000000	99.128550 
1207.000000	99.125535 
1206.000000	99.123820 
1205.000000	99.121204 
1204.000000	99.117021 
1203.000000	99.112792 
1202.000000	99.109821 
1201.000000	99.107035 
1200.000000	99.102171 
1199.000000	99.094809 
1198.000000	99.087094 
1197.000000	99.081357 
1196.000000	99.077765 
1195.000000	99.074566 
1194.000000	99.069983 
1193.000000	99.063377 
1192.000000	99.055192 
1191.000000	99.046604 
1190.000000	99.039282 
1189.000000	99.034955 
1188.000000	99.034621 
1187.000000	99.037507 
1186.000000	99.040537 
1185.000000	99.039530 
1184.000000	99.031935 
1183.000000	99.018831 
1182.000000	99.004040 
1181.000000	98.991185 
1180.000000	98.981786 
1179.000000	98.975625 
1178.000000	98.971536 
1177.000000	98.967582 
1176.000000	98.961871 
1175.000000	98.954182 
1174.000000	98.946143 
1173.000000	98.939050 
1172.000000	98.932495 
1171.000000	98.925955 
1170.000000	98.920414 
1169.000000	98.916748 
1168.000000	98.913146 
1167.000000	98.906151 
1166.000000	98.894696 
1165.000000	98.881925 
1164.000000	98.872648 
1163.000000	98.869843 
1162.000000	98.873421 
1161.000000	98.880738 
1160.000000	98.887668 
1159.000000	98.890758 
1158.000000	98.889705 
1157.000000	98.887043 
1156.000000	98.884584 
1155.000000	98.881013 
1154.000000	98.873965 
1153.000000	98.863529 
1152.000000	98.852251 
1151.000000	98.842200 
1150.000000	98.833560 
1149.000000	98.825890 
1148.000000	98.818894 
1147.000000	98.811241 
1146.000000	98.800240 
1145.000000	98.784361 
1144.000000	98.765844 
1143.000000	98.749713 
1142.000000	98.739712 
1141.000000	98.735327 
1140.000000	98.732543 
1139.000000	98.726992 
1138.000000	98.716769 
1137.000000	98.703265 
1136.000000	98.689781 
1135.000000	98.678931 
1134.000000	98.670879 
1133.000000	98.663883 
1132.000000	98.656309 
1131.000000	98.647785 
1130.000000	98.638621 
1129.000000	98.628739 
1128.000000	98.617468 
1127.000000	98.604147 
1126.000000	98.588849 
1125.000000	98.572661 
1124.000000	98.557102 
1123.000000	98.542742 
1122.000000	98.528249 
1121.000000	98.511421 
1120.000000	98.491582 
1119.000000	98.470556 
1118.000000	98.450768 
1117.000000	98.432655 
1116.000000	98.414463 
1115.000000	98.394396 
1114.000000	98.372303 
1113.000000	98.349286 
1112.000000	98.326481 
1111.000000	98.304755 
1110.000000	98.284770 
1109.000000	98.266205 
1108.000000	98.247057 
1107.000000	98.224808 
1106.000000	98.199439 
1105.000000	98.174487 
1104.000000	98.153471 
1103.000000	98.135913 
1102.000000	98.118502 
1101.000000	98.100669 
1100.000000	98.086123 
1099.000000	98.076988 
1098.000000	98.070630 
1097.000000	98.063165 
1096.000000	98.054597 
1095.000000	98.046416 
1094.000000	98.035627 
1093.000000	98.015519 
1092.000000	97.983156 
1091.000000	97.942692 
1090.000000	97.899908 
1089.000000	97.856143 
1088.000000	97.809624 
1087.000000	97.760688 
1086.000000	97.713132 
1085.000000	97.670962 
1084.000000	97.635229 
1083.000000	97.603540 
1082.000000	97.571924 
1081.000000	97.537944 
1080.000000	97.502440 
1079.000000	97.467800 
1078.000000	97.435335 
1077.000000	97.406083 
1076.000000	97.383283 
1075.000000	97.370983 
1074.000000	97.369805 
1073.000000	97.376116 
1072.000000	97.383972 
1071.000000	97.383887 
1070.000000	97.361820 
1069.000000	97.308371 
1068.000000	97.233854 
1067.000000	97.169026 
1066.000000	97.143028 
1065.000000	97.159570 
1064.000000	97.196953 
1063.000000	97.227836 
1062.000000	97.234867 
1061.000000	97.212280 
1060.000000	97.163664 
1059.000000	97.103212 
1058.000000	97.052421 
1057.000000	97.026514 
1056.000000	97.022225 
1055.000000	97.021501 
1054.000000	97.008478 
1053.000000	96.982500 
1052.000000	96.954815 
1051.000000	96.934636 
1050.000000	96.920914 
1049.000000	96.907683 
1048.000000	96.893472 
1047.000000	96.881988 
1046.000000	96.875307 
1045.000000	96.870596 
1044.000000	96.864474 
1043.000000	96.858059 
1042.000000	96.855535 
1041.000000	96.858213 
1040.000000	96.862340 
1039.000000	96.864436 
1038.000000	96.867954 
1037.000000	96.882085 
1036.000000	96.912630 
1035.000000	96.955543 
1034.000000	97.000755 
1033.000000	97.039932 
1032.000000	97.067209 
1031.000000	97.075585 
1030.000000	97.061249 
1029.000000	97.034463 
1028.000000	97.019323 
1027.000000	97.035335 
1026.000000	97.079538 
1025.000000	97.130767 
1024.000000	97.169973 
1023.000000	97.192232 
1022.000000	97.201803 
1021.000000	97.203382 
1020.000000	97.200715 
1019.000000	97.198354 
1018.000000	97.199711 
1017.000000	97.204394 
1016.000000	97.210232 
1015.000000	97.217427 
1014.000000	97.228819 
1013.000000	97.246061 
1012.000000	97.266620 
1011.000000	97.284995 
1010.000000	97.297305 
1009.000000	97.305099 
1008.000000	97.314179 
1007.000000	97.329087 
1006.000000	97.349296 
1005.000000	97.371271 
1004.000000	97.392708 
1003.000000	97.413162 
1002.000000	97.432132 
1001.000000	97.449316 
1000.000000	97.466278 
999.000000	 97.484961 
998.000000	 97.504187 
997.000000	 97.520248 
996.000000	 97.532032 
995.000000	 97.543689 
994.000000	 97.560852 
993.000000	 97.585039 
992.000000	 97.612387 
991.000000	 97.637021 
990.000000	 97.655467 
989.000000	 97.668910 
988.000000	 97.681613 
987.000000	 97.696571 
986.000000	 97.712982 
985.000000	 97.728862 
984.000000	 97.745205 
983.000000	 97.765338 
982.000000	 97.790172 
981.000000	 97.816499 
980.000000	 97.840804 
979.000000	 97.862754 
978.000000	 97.883990 
977.000000	 97.905479 
976.000000	 97.927665 
975.000000	 97.951796 
974.000000	 97.979114 
973.000000	 98.009176 
972.000000	 98.040242 
971.000000	 98.070745 
970.000000	 98.099406 
969.000000	 98.124816 
968.000000	 98.146568 
967.000000	 98.166478 
966.000000	 98.187000 
965.000000	 98.208263 
964.000000	 98.228118 
963.000000	 98.245293 
962.000000	 98.260950 
961.000000	 98.276579 
960.000000	 98.292008 
959.000000	 98.306567 
958.000000	 98.320744 
957.000000	 98.335140 
956.000000	 98.348831 
955.000000	 98.360620 
954.000000	 98.371353 
953.000000	 98.383044 
952.000000	 98.395887 
951.000000	 98.408100 
950.000000	 98.418797 
949.000000	 98.428725 
948.000000	 98.437577 
947.000000	 98.443221 
946.000000	 98.445389 
945.000000	 98.448173 
944.000000	 98.456257 
943.000000	 98.469176 
942.000000	 98.481327 
941.000000	 98.487674 
940.000000	 98.488015 
939.000000	 98.485858 
938.000000	 98.484816 
937.000000	 98.486286 
936.000000	 98.489193 
935.000000	 98.491276 
934.000000	 98.491184 
933.000000	 98.489622 
932.000000	 98.488325 
931.000000	 98.488544 
930.000000	 98.491200 
929.000000	 98.497433 
928.000000	 98.507176 
927.000000	 98.517439 
926.000000	 98.524090 
925.000000	 98.525908 
924.000000	 98.525332 
923.000000	 98.524721 
922.000000	 98.523491 
921.000000	 98.519848 
920.000000	 98.513992 
919.000000	 98.508251 
918.000000	 98.504545 
917.000000	 98.502589 
916.000000	 98.500264 
915.000000	 98.495419 
914.000000	 98.488114 
913.000000	 98.481628 
912.000000	 98.480278 
911.000000	 98.485171 
910.000000	 98.492654 
909.000000	 98.497891 
908.000000	 98.499434 
907.000000	 98.499347 
906.000000	 98.499591 
905.000000	 98.499969 
904.000000	 98.499908 
903.000000	 98.501006 
902.000000	 98.506592 
901.000000	 98.518575 
900.000000	 98.535117 
899.000000	 98.551730 
898.000000	 98.564619 
897.000000	 98.572658 
896.000000	 98.576430 
895.000000	 98.577264 
894.000000	 98.578516 
893.000000	 98.586044 
892.000000	 98.604300 
891.000000	 98.631432 
890.000000	 98.660436 
889.000000	 98.685960 
888.000000	 98.707854 
887.000000	 98.727177 
886.000000	 98.741595 
885.000000	 98.747435 
884.000000	 98.745151 
883.000000	 98.740098 
882.000000	 98.737552 
881.000000	 98.738585 
880.000000	 98.741497 
879.000000	 98.746079 
878.000000	 98.754991 
877.000000	 98.770231 
876.000000	 98.788377 
875.000000	 98.800787 
874.000000	 98.800762 
873.000000	 98.791165 
872.000000	 98.783200 
871.000000	 98.786273 
870.000000	 98.799352 
869.000000	 98.812977 
868.000000	 98.819166 
867.000000	 98.818757 
866.000000	 98.819884 
865.000000	 98.830120 
864.000000	 98.849807 
863.000000	 98.872156 
862.000000	 98.889397 
861.000000	 98.898679 
860.000000	 98.902438 
859.000000	 98.905086 
858.000000	 98.911143 
857.000000	 98.924829 
856.000000	 98.947266 
855.000000	 98.972663 
854.000000	 98.990602 
853.000000	 98.995216 
852.000000	 98.990955 
851.000000	 98.987077 
850.000000	 98.987491 
849.000000	 98.988553 
848.000000	 98.986399 
847.000000	 98.983172 
846.000000	 98.984527 
845.000000	 98.992958 
844.000000	 99.005628 
843.000000	 99.017845 
842.000000	 99.026448 
841.000000	 99.029791 
840.000000	 99.027110 
839.000000	 99.020107 
838.000000	 99.013778 
837.000000	 99.012406 
836.000000	 99.014357 
835.000000	 99.013949 
834.000000	 99.009838 
833.000000	 99.007807 
832.000000	 99.011326 
831.000000	 99.012322 
830.000000	 98.998500 
829.000000	 98.971195 
828.000000	 98.948861 
827.000000	 98.947493 
826.000000	 98.961963 
825.000000	 98.973943 
824.000000	 98.975823 
823.000000	 98.977237 
822.000000	 98.987411 
821.000000	 99.001272 
820.000000	 99.007422 
819.000000	 99.002733 
818.000000	 98.993881 
817.000000	 98.987764 
816.000000	 98.984599 
815.000000	 98.979458 
814.000000	 98.967412 
813.000000	 98.947083 
812.000000	 98.921645 
811.000000	 98.897516 
810.000000	 98.880238 
809.000000	 98.869383 
808.000000	 98.857186 
807.000000	 98.833365 
806.000000	 98.792955 
805.000000	 98.740261 
804.000000	 98.685509 
803.000000	 98.638043 
802.000000	 98.602235 
801.000000	 98.578372 
800.000000	 98.565079 
799.000000	 98.559856 
798.000000	 98.559311 
797.000000	 98.561415 
796.000000	 98.567199 
795.000000	 98.578829 
794.000000	 98.596764 
793.000000	 98.619645 
792.000000	 98.644574 
791.000000	 98.664969 
790.000000	 98.670978 
789.000000	 98.657455 
788.000000	 98.631788 
787.000000	 98.609165 
786.000000	 98.598125 
785.000000	 98.593830 
784.000000	 98.587192 
783.000000	 98.576605 
782.000000	 98.567473 
781.000000	 98.563545 
780.000000	 98.563304 
779.000000	 98.563640 
778.000000	 98.563338 
777.000000	 98.563629 
776.000000	 98.568424 
775.000000	 98.583117 
774.000000	 98.609265 
773.000000	 98.640267 
772.000000	 98.665572 
771.000000	 98.679699 
770.000000	 98.684571 
769.000000	 98.683327 
768.000000	 98.676501 
767.000000	 98.666258 
766.000000	 98.659576 
765.000000	 98.662359 
764.000000	 98.672058 
763.000000	 98.680073 
762.000000	 98.681108 
761.000000	 98.677193 
760.000000	 98.673056 
759.000000	 98.671206 
758.000000	 98.672040 
757.000000	 98.675521 
756.000000	 98.681198 
755.000000	 98.688570 
754.000000	 98.698495 
753.000000	 98.712407 
752.000000	 98.729283 
751.000000	 98.744853 
750.000000	 98.754542 
749.000000	 98.755812 
748.000000	 98.748030 
747.000000	 98.733769 
746.000000	 98.721213 
745.000000	 98.720270 
744.000000	 98.731948 
743.000000	 98.744420 
742.000000	 98.744839 
741.000000	 98.734156 
740.000000	 98.725592 
739.000000	 98.729139 
738.000000	 98.742277 
737.000000	 98.755913 
736.000000	 98.764054 
735.000000	 98.766360 
734.000000	 98.766728 
733.000000	 98.771949 
732.000000	 98.786734 
731.000000	 98.805864 
730.000000	 98.815488 
729.000000	 98.807615 
728.000000	 98.790615 
727.000000	 98.780328 
726.000000	 98.782791 
725.000000	 98.791269 
724.000000	 98.798829 
723.000000	 98.806599 
722.000000	 98.817830 
721.000000	 98.829465 
720.000000	 98.833403 
719.000000	 98.824327 
718.000000	 98.804428 
717.000000	 98.782129 
716.000000	 98.767518 
715.000000	 98.765993 
714.000000	 98.773406 
713.000000	 98.779435 
712.000000	 98.777965 
711.000000	 98.772559 
710.000000	 98.770514 
709.000000	 98.773968 
708.000000	 98.779067 
707.000000	 98.781654 
706.000000	 98.780364 
705.000000	 98.775119 
704.000000	 98.765922 
703.000000	 98.754425 
702.000000	 98.744367 
701.000000	 98.738365 
700.000000	 98.733812 
699.000000	 98.722698 
698.000000	 98.697017 
697.000000	 98.655740 
696.000000	 98.607138 
695.000000	 98.564375 
694.000000	 98.538836 
693.000000	 98.536548 
692.000000	 98.556827 
691.000000	 98.590613 
690.000000	 98.623081 
689.000000	 98.643292 
688.000000	 98.652259 
687.000000	 98.658511 
686.000000	 98.665682 
685.000000	 98.669460 
684.000000	 98.666513 
683.000000	 98.660485 
682.000000	 98.658512 
681.000000	 98.666236 
680.000000	 98.685287 
679.000000	 98.709383 
678.000000	 98.722172 
677.000000	 98.709084 
676.000000	 98.677391 
675.000000	 98.653096 
674.000000	 98.654764 
673.000000	 98.676037 
672.000000	 98.695387 
671.000000	 98.696860 
670.000000	 98.676543 
669.000000	 98.635160 
668.000000	 98.577789 
667.000000	 98.536648 
666.000000	 98.548025 
665.000000	 98.599026 
664.000000	 98.652863 
663.000000	 98.682942 
662.000000	 98.683555 
661.000000	 98.670391 
660.000000	 98.662577 
659.000000	 98.664838 
658.000000	 98.666990 
657.000000	 98.656795 
656.000000	 98.632939 
655.000000	 98.605760 
654.000000	 98.587696 
653.000000	 98.579419 
652.000000	 98.566632 
651.000000	 98.538324 
650.000000	 98.506555 

