4000.000000	98.599584 
3999.000000	98.599542 
3998.000000	98.598795 
3997.000000	98.597516 
3996.000000	98.595850 
3995.000000	98.593902 
3994.000000	98.591894 
3993.000000	98.590110 
3992.000000	98.588694 
3991.000000	98.587672 
3990.000000	98.587072 
3989.000000	98.586764 
3988.000000	98.586347 
3987.000000	98.585534 
3986.000000	98.584559 
3985.000000	98.583976 
3984.000000	98.584016 
3983.000000	98.584237 
3982.000000	98.583990 
3981.000000	98.583098 
3980.000000	98.581909 
3979.000000	98.580841 
3978.000000	98.579983 
3977.000000	98.579165 
3976.000000	98.578275 
3975.000000	98.577432 
3974.000000	98.576879 
3973.000000	98.576715 
3972.000000	98.576691 
3971.000000	98.576346 
3970.000000	98.575439 
3969.000000	98.574222 
3968.000000	98.573198 
3967.000000	98.572627 
3966.000000	98.572356 
3965.000000	98.572046 
3964.000000	98.571488 
3963.000000	98.570723 
3962.000000	98.569990 
3961.000000	98.569553 
3960.000000	98.569474 
3959.000000	98.569588 
3958.000000	98.569705 
3957.000000	98.569819 
3956.000000	98.569977 
3955.000000	98.570105 
3954.000000	98.570084 
3953.000000	98.569865 
3952.000000	98.569469 
3951.000000	98.568881 
3950.000000	98.568101 
3949.000000	98.567236 
3948.000000	98.566506 
3947.000000	98.566122 
3946.000000	98.566116 
3945.000000	98.566219 
3944.000000	98.566070 
3943.000000	98.565605 
3942.000000	98.565132 
3941.000000	98.564966 
3940.000000	98.565112 
3939.000000	98.565342 
3938.000000	98.565445 
3937.000000	98.565406 
3936.000000	98.565239 
3935.000000	98.564835 
3934.000000	98.564158 
3933.000000	98.563485 
3932.000000	98.563210 
3931.000000	98.563319 
3930.000000	98.563367 
3929.000000	98.563046 
3928.000000	98.562530 
3927.000000	98.562124 
3926.000000	98.561815 
3925.000000	98.561438 
3924.000000	98.561020 
3923.000000	98.560637 
3922.000000	98.560199 
3921.000000	98.559645 
3920.000000	98.559117 
3919.000000	98.558792 
3918.000000	98.558623 
3917.000000	98.558441 
3916.000000	98.558203 
3915.000000	98.557969 
3914.000000	98.557740 
3913.000000	98.557476 
3912.000000	98.557180 
3911.000000	98.556879 
3910.000000	98.556564 
3909.000000	98.556207 
3908.000000	98.555810 
3907.000000	98.555405 
3906.000000	98.555009 
3905.000000	98.554609 
3904.000000	98.554221 
3903.000000	98.553858 
3902.000000	98.553522 
3901.000000	98.553206 
3900.000000	98.552900 
3899.000000	98.552608 
3898.000000	98.552339 
3897.000000	98.552100 
3896.000000	98.551891 
3895.000000	98.551706 
3894.000000	98.551545 
3893.000000	98.551408 
3892.000000	98.551289 
3891.000000	98.551179 
3890.000000	98.551074 
3889.000000	98.550978 
3888.000000	98.550891 
3887.000000	98.550812 
3886.000000	98.550745 
3885.000000	98.550702 
3884.000000	98.550689 
3883.000000	98.550699 
3882.000000	98.550719 
3881.000000	98.550748 
3880.000000	98.550795 
3879.000000	98.550869 
3878.000000	98.550964 
3877.000000	98.551061 
3876.000000	98.551143 
3875.000000	98.551207 
3874.000000	98.551265 
3873.000000	98.551334 
3872.000000	98.551423 
3871.000000	98.551525 
3870.000000	98.551643 
3869.000000	98.551788 
3868.000000	98.551967 
3867.000000	98.552172 
3866.000000	98.552395 
3865.000000	98.552638 
3864.000000	98.552915 
3863.000000	98.553218 
3862.000000	98.553528 
3861.000000	98.553828 
3860.000000	98.554119 
3859.000000	98.554407 
3858.000000	98.554698 
3857.000000	98.554994 
3856.000000	98.555292 
3855.000000	98.555588 
3854.000000	98.555877 
3853.000000	98.556164 
3852.000000	98.556451 
3851.000000	98.556735 
3850.000000	98.557010 
3849.000000	98.557276 
3848.000000	98.557538 
3847.000000	98.557799 
3846.000000	98.558056 
3845.000000	98.558305 
3844.000000	98.558538 
3843.000000	98.558750 
3842.000000	98.558944 
3841.000000	98.559130 
3840.000000	98.559318 
3839.000000	98.559513 
3838.000000	98.559707 
3837.000000	98.559891 
3836.000000	98.560059 
3835.000000	98.560220 
3834.000000	98.560387 
3833.000000	98.560570 
3832.000000	98.560769 
3831.000000	98.560976 
3830.000000	98.561177 
3829.000000	98.561364 
3828.000000	98.561535 
3827.000000	98.561691 
3826.000000	98.561834 
3825.000000	98.561974 
3824.000000	98.562120 
3823.000000	98.562268 
3822.000000	98.562410 
3821.000000	98.562544 
3820.000000	98.562684 
3819.000000	98.562839 
3818.000000	98.563003 
3817.000000	98.563160 
3816.000000	98.563307 
3815.000000	98.563455 
3814.000000	98.563606 
3813.000000	98.563753 
3812.000000	98.563887 
3811.000000	98.564012 
3810.000000	98.564139 
3809.000000	98.564272 
3808.000000	98.564408 
3807.000000	98.564545 
3806.000000	98.564689 
3805.000000	98.564846 
3804.000000	98.565010 
3803.000000	98.565175 
3802.000000	98.565341 
3801.000000	98.565519 
3800.000000	98.565715 
3799.000000	98.565914 
3798.000000	98.566096 
3797.000000	98.566260 
3796.000000	98.566414 
3795.000000	98.566566 
3794.000000	98.566713 
3793.000000	98.566846 
3792.000000	98.566963 
3791.000000	98.567059 
3790.000000	98.567128 
3789.000000	98.567168 
3788.000000	98.567186 
3787.000000	98.567189 
3786.000000	98.567179 
3785.000000	98.567157 
3784.000000	98.567123 
3783.000000	98.567069 
3782.000000	98.566985 
3781.000000	98.566865 
3780.000000	98.566701 
3779.000000	98.566494 
3778.000000	98.566257 
3777.000000	98.565973 
3776.000000	98.565615 
3775.000000	98.565188 
3774.000000	98.564736 
3773.000000	98.564312 
3772.000000	98.563913 
3771.000000	98.563483 
3770.000000	98.563019 
3769.000000	98.562673 
3768.000000	98.562546 
3767.000000	98.562372 
3766.000000	98.561718 
3765.000000	98.560539 
3764.000000	98.559445 
3763.000000	98.558861 
3762.000000	98.558078 
3761.000000	98.556101 
3760.000000	98.553588 
3759.000000	98.552357 
3758.000000	98.552036 
3757.000000	98.551099 
3756.000000	98.550297 
3755.000000	98.551142 
3754.000000	98.552257 
3753.000000	98.550591 
3752.000000	98.547320 
3751.000000	98.546257 
3750.000000	98.545496 
3749.000000	98.541668 
3748.000000	98.538688 
3747.000000	98.541874 
3746.000000	98.546930 
3745.000000	98.544627 
3744.000000	98.538425 
3743.000000	98.536755 
3742.000000	98.536691 
3741.000000	98.531482 
3740.000000	98.521756 
3739.000000	98.515914 
3738.000000	98.517188 
3737.000000	98.518526 
3736.000000	98.516142 
3735.000000	98.516772 
3734.000000	98.524672 
3733.000000	98.532332 
3732.000000	98.533167 
3731.000000	98.530642 
3730.000000	98.530386 
3729.000000	98.531213 
3728.000000	98.527188 
3727.000000	98.516994 
3726.000000	98.507679 
3725.000000	98.504570 
3724.000000	98.504485 
3723.000000	98.502977 
3722.000000	98.501168 
3721.000000	98.501904 
3720.000000	98.503850 
3719.000000	98.503136 
3718.000000	98.496436 
3717.000000	98.484778 
3716.000000	98.472689 
3715.000000	98.461722 
3714.000000	98.448955 
3713.000000	98.432982 
3712.000000	98.418178 
3711.000000	98.408484 
3710.000000	98.401110 
3709.000000	98.391949 
3708.000000	98.379775 
3707.000000	98.365588 
3706.000000	98.351234 
3705.000000	98.337218 
3704.000000	98.322215 
3703.000000	98.305380 
3702.000000	98.288484 
3701.000000	98.274419 
3700.000000	98.264471 
3699.000000	98.257164 
3698.000000	98.248311 
3697.000000	98.235188 
3696.000000	98.221376 
3695.000000	98.211674 
3694.000000	98.205439 
3693.000000	98.200226 
3692.000000	98.197943 
3691.000000	98.202562 
3690.000000	98.211249 
3689.000000	98.215385 
3688.000000	98.211932 
3687.000000	98.207133 
3686.000000	98.206275 
3685.000000	98.206535 
3684.000000	98.203520 
3683.000000	98.198509 
3682.000000	98.193875 
3681.000000	98.185121 
3680.000000	98.167183 
3679.000000	98.143803 
3678.000000	98.122318 
3677.000000	98.099348 
3676.000000	98.070093 
3675.000000	98.043490 
3674.000000	98.027677 
3673.000000	98.018669 
3672.000000	98.005645 
3671.000000	97.982965 
3670.000000	97.960581 
3669.000000	97.948516 
3668.000000	97.939795 
3667.000000	97.924669 
3666.000000	97.903447 
3665.000000	97.881529 
3664.000000	97.862006 
3663.000000	97.843377 
3662.000000	97.821438 
3661.000000	97.793927 
3660.000000	97.763792 
3659.000000	97.735370 
3658.000000	97.709629 
3657.000000	97.682747 
3656.000000	97.653227 
3655.000000	97.624707 
3654.000000	97.600579 
3653.000000	97.579238 
3652.000000	97.555220 
3651.000000	97.527948 
3650.000000	97.505122 
3649.000000	97.488025 
3648.000000	97.467265 
3647.000000	97.440592 
3646.000000	97.415732 
3645.000000	97.397850 
3644.000000	97.384762 
3643.000000	97.372421 
3642.000000	97.359564 
3641.000000	97.346943 
3640.000000	97.332664 
3639.000000	97.312476 
3638.000000	97.286056 
3637.000000	97.257666 
3636.000000	97.229871 
3635.000000	97.199995 
3634.000000	97.167371 
3633.000000	97.137725 
3632.000000	97.114931 
3631.000000	97.091399 
3630.000000	97.056297 
3629.000000	97.018074 
3628.000000	96.995164 
3627.000000	96.988702 
3626.000000	96.987364 
3625.000000	96.984166 
3624.000000	96.980340 
3623.000000	96.980113 
3622.000000	96.983205 
3621.000000	96.984917 
3620.000000	96.984453 
3619.000000	96.987113 
3618.000000	96.996346 
3617.000000	97.012207 
3616.000000	97.034839 
3615.000000	97.061979 
3614.000000	97.088823 
3613.000000	97.112507 
3612.000000	97.134139 
3611.000000	97.156057 
3610.000000	97.179037 
3609.000000	97.202616 
3608.000000	97.225451 
3607.000000	97.244391 
3606.000000	97.256317 
3605.000000	97.262892 
3604.000000	97.270305 
3603.000000	97.283374 
3602.000000	97.300861 
3601.000000	97.316925 
3600.000000	97.328857 
3599.000000	97.338711 
3598.000000	97.349005 
3597.000000	97.359902 
3596.000000	97.370296 
3595.000000	97.377860 
3594.000000	97.381281 
3593.000000	97.381500 
3592.000000	97.381426 
3591.000000	97.384179 
3590.000000	97.389722 
3589.000000	97.394827 
3588.000000	97.397274 
3587.000000	97.397818 
3586.000000	97.397863 
3585.000000	97.398280 
3584.000000	97.399300 
3583.000000	97.399819 
3582.000000	97.398223 
3581.000000	97.393608 
3580.000000	97.387183 
3579.000000	97.381714 
3578.000000	97.379636 
3577.000000	97.381109 
3576.000000	97.383569 
3575.000000	97.383289 
3574.000000	97.377970 
3573.000000	97.368834 
3572.000000	97.359245 
3571.000000	97.351709 
3570.000000	97.345127 
3569.000000	97.335745 
3568.000000	97.322777 
3567.000000	97.310713 
3566.000000	97.303267 
3565.000000	97.299870 
3564.000000	97.299113 
3563.000000	97.301123 
3562.000000	97.306176 
3561.000000	97.312403 
3560.000000	97.315662 
3559.000000	97.312799 
3558.000000	97.304418 
3557.000000	97.294450 
3556.000000	97.286853 
3555.000000	97.282722 
3554.000000	97.280113 
3553.000000	97.276713 
3552.000000	97.272143 
3551.000000	97.267327 
3550.000000	97.262501 
3549.000000	97.256871 
3548.000000	97.250340 
3547.000000	97.244403 
3546.000000	97.240563 
3545.000000	97.238735 
3544.000000	97.237848 
3543.000000	97.237000 
3542.000000	97.235568 
3541.000000	97.233099 
3540.000000	97.229578 
3539.000000	97.225548 
3538.000000	97.221762 
3537.000000	97.218757 
3536.000000	97.216582 
3535.000000	97.214574 
3534.000000	97.211881 
3533.000000	97.208248 
3532.000000	97.204356 
3531.000000	97.201134 
3530.000000	97.198753 
3529.000000	97.196426 
3528.000000	97.193346 
3527.000000	97.189767 
3526.000000	97.186795 
3525.000000	97.185176 
3524.000000	97.184563 
3523.000000	97.183843 
3522.000000	97.182121 
3521.000000	97.179517 
3520.000000	97.176973 
3519.000000	97.175280 
3518.000000	97.174350 
3517.000000	97.173347 
3516.000000	97.171432 
3515.000000	97.168313 
3514.000000	97.164366 
3513.000000	97.160416 
3512.000000	97.157348 
3511.000000	97.155628 
3510.000000	97.154905 
3509.000000	97.154041 
3508.000000	97.151941 
3507.000000	97.148522 
3506.000000	97.144739 
3505.000000	97.141775 
3504.000000	97.140182 
3503.000000	97.139512 
3502.000000	97.138685 
3501.000000	97.136846 
3500.000000	97.133904 
3499.000000	97.130391 
3498.000000	97.127101 
3497.000000	97.124808 
3496.000000	97.123785 
3495.000000	97.123393 
3494.000000	97.122477 
3493.000000	97.120492 
3492.000000	97.117969 
3491.000000	97.115759 
3490.000000	97.113986 
3489.000000	97.111874 
3488.000000	97.108602 
3487.000000	97.104107 
3486.000000	97.098989 
3485.000000	97.093787 
3484.000000	97.088548 
3483.000000	97.083118 
3482.000000	97.077753 
3481.000000	97.073146 
3480.000000	97.069737 
3479.000000	97.067149 
3478.000000	97.064501 
3477.000000	97.061262 
3476.000000	97.057581 
3475.000000	97.053842 
3474.000000	97.050194 
3473.000000	97.046646 
3472.000000	97.043279 
3471.000000	97.040030 
3470.000000	97.036428 
3469.000000	97.031861 
3468.000000	97.026210 
3467.000000	97.020179 
3466.000000	97.014858 
3465.000000	97.010813 
3464.000000	97.007587 
3463.000000	97.004066 
3462.000000	96.999469 
3461.000000	96.993971 
3460.000000	96.988404 
3459.000000	96.983458 
3458.000000	96.979217 
3457.000000	96.975319 
3456.000000	96.971304 
3455.000000	96.966874 
3454.000000	96.962045 
3453.000000	96.957115 
3452.000000	96.952473 
3451.000000	96.948245 
3450.000000	96.944130 
3449.000000	96.939633 
3448.000000	96.934517 
3447.000000	96.929028 
3446.000000	96.923699 
3445.000000	96.919026 
3444.000000	96.915294 
3443.000000	96.912420 
3442.000000	96.909732 
3441.000000	96.906185 
3440.000000	96.901128 
3439.000000	96.894900 
3438.000000	96.888635 
3437.000000	96.883230 
3436.000000	96.878750 
3435.000000	96.874864 
3434.000000	96.871495 
3433.000000	96.868725 
3432.000000	96.866330 
3431.000000	96.863704 
3430.000000	96.860210 
3429.000000	96.855642 
3428.000000	96.850417 
3427.000000	96.845375 
3426.000000	96.841202 
3425.000000	96.838016 
3424.000000	96.835449 
3423.000000	96.833078 
3422.000000	96.830725 
3421.000000	96.828416 
3420.000000	96.826138 
3419.000000	96.823645 
3418.000000	96.820652 
3417.000000	96.817311 
3416.000000	96.814327 
3415.000000	96.812264 
3414.000000	96.810627 
3413.000000	96.807998 
3412.000000	96.803454 
3411.000000	96.797838 
3410.000000	96.793343 
3409.000000	96.791718 
3408.000000	96.792853 
3407.000000	96.794851 
3406.000000	96.795512 
3405.000000	96.793929 
3404.000000	96.790732 
3403.000000	96.787091 
3402.000000	96.783895 
3401.000000	96.781677 
3400.000000	96.780647 
3399.000000	96.780310 
3398.000000	96.779523 
3397.000000	96.777600 
3396.000000	96.775303 
3395.000000	96.774384 
3394.000000	96.776003 
3393.000000	96.779679 
3392.000000	96.783554 
3391.000000	96.785659 
3390.000000	96.785289 
3389.000000	96.783507 
3388.000000	96.782312 
3387.000000	96.783060 
3386.000000	96.785580 
3385.000000	96.788630 
3384.000000	96.791027 
3383.000000	96.792364 
3382.000000	96.793033 
3381.000000	96.793690 
3380.000000	96.794494 
3379.000000	96.794867 
3378.000000	96.794269 
3377.000000	96.793162 
3376.000000	96.792666 
3375.000000	96.793245 
3374.000000	96.794291 
3373.000000	96.795133 
3372.000000	96.795903 
3371.000000	96.797137 
3370.000000	96.799071 
3369.000000	96.801708 
3368.000000	96.805098 
3367.000000	96.809022 
3366.000000	96.812650 
3365.000000	96.815070 
3364.000000	96.816172 
3363.000000	96.816705 
3362.000000	96.817604 
3361.000000	96.819448 
3360.000000	96.822348 
3359.000000	96.825918 
3358.000000	96.829350 
3357.000000	96.831993 
3356.000000	96.834002 
3355.000000	96.836182 
3354.000000	96.839049 
3353.000000	96.842225 
3352.000000	96.844891 
3351.000000	96.846760 
3350.000000	96.848441 
3349.000000	96.850821 
3348.000000	96.854122 
3347.000000	96.857713 
3346.000000	96.860794 
3345.000000	96.863183 
3344.000000	96.865275 
3343.000000	96.867501 
3342.000000	96.869967 
3341.000000	96.872579 
3340.000000	96.875296 
3339.000000	96.878136 
3338.000000	96.881068 
3337.000000	96.884006 
3336.000000	96.886850 
3335.000000	96.889508 
3334.000000	96.891966 
3333.000000	96.894381 
3332.000000	96.897036 
3331.000000	96.900083 
3330.000000	96.903388 
3329.000000	96.906660 
3328.000000	96.909750 
3327.000000	96.912758 
3326.000000	96.915866 
3325.000000	96.919130 
3324.000000	96.922428 
3323.000000	96.925571 
3322.000000	96.928479 
3321.000000	96.931226 
3320.000000	96.933922 
3319.000000	96.936617 
3318.000000	96.939334 
3317.000000	96.942167 
3316.000000	96.945271 
3315.000000	96.948726 
3314.000000	96.952421 
3313.000000	96.956077 
3312.000000	96.959400 
3311.000000	96.962231 
3310.000000	96.964643 
3309.000000	96.966920 
3308.000000	96.969327 
3307.000000	96.971875 
3306.000000	96.974442 
3305.000000	96.977116 
3304.000000	96.980190 
3303.000000	96.983772 
3302.000000	96.987552 
3301.000000	96.991114 
3300.000000	96.994339 
3299.000000	96.997340 
3298.000000	97.000217 
3297.000000	97.003047 
3296.000000	97.005995 
3295.000000	97.009201 
3294.000000	97.012537 
3293.000000	97.015709 
3292.000000	97.018609 
3291.000000	97.021464 
3290.000000	97.024563 
3289.000000	97.027958 
3288.000000	97.031453 
3287.000000	97.034795 
3286.000000	97.037854 
3285.000000	97.040701 
3284.000000	97.043552 
3283.000000	97.046562 
3282.000000	97.049663 
3281.000000	97.052642 
3280.000000	97.055352 
3279.000000	97.057889 
3278.000000	97.060587 
3277.000000	97.063785 
3276.000000	97.067521 
3275.000000	97.071453 
3274.000000	97.075196 
3273.000000	97.078721 
3272.000000	97.082252 
3271.000000	97.085890 
3270.000000	97.089515 
3269.000000	97.093043 
3268.000000	97.096585 
3267.000000	97.100241 
3266.000000	97.103896 
3265.000000	97.107364 
3264.000000	97.110642 
3263.000000	97.113908 
3262.000000	97.117320 
3261.000000	97.120900 
3260.000000	97.124620 
3259.000000	97.128459 
3258.000000	97.132350 
3257.000000	97.136148 
3256.000000	97.139746 
3255.000000	97.143190 
3254.000000	97.146668 
3253.000000	97.150360 
3252.000000	97.154317 
3251.000000	97.158462 
3250.000000	97.162638 
3249.000000	97.166685 
3248.000000	97.170517 
3247.000000	97.174193 
3246.000000	97.177925 
3245.000000	97.181921 
3244.000000	97.186182 
3243.000000	97.190481 
3242.000000	97.194577 
3241.000000	97.198444 
3240.000000	97.202252 
3239.000000	97.206195 
3238.000000	97.210368 
3237.000000	97.214800 
3236.000000	97.219461 
3235.000000	97.224203 
3234.000000	97.228780 
3233.000000	97.233026 
3232.000000	97.236986 
3231.000000	97.240872 
3230.000000	97.244888 
3229.000000	97.249136 
3228.000000	97.253650 
3227.000000	97.258441 
3226.000000	97.263440 
3225.000000	97.268444 
3224.000000	97.273192 
3223.000000	97.277497 
3222.000000	97.281356 
3221.000000	97.285025 
3220.000000	97.288871 
3219.000000	97.293064 
3218.000000	97.297443 
3217.000000	97.301736 
3216.000000	97.305891 
3215.000000	97.310081 
3214.000000	97.314398 
3213.000000	97.318706 
3212.000000	97.322923 
3211.000000	97.327274 
3210.000000	97.332078 
3209.000000	97.337298 
3208.000000	97.342456 
3207.000000	97.347096 
3206.000000	97.351161 
3205.000000	97.354890 
3204.000000	97.358428 
3203.000000	97.361726 
3202.000000	97.364865 
3201.000000	97.368244 
3200.000000	97.372310 
3199.000000	97.377179 
3198.000000	97.382528 
3197.000000	97.387799 
3196.000000	97.392516 
3195.000000	97.396502 
3194.000000	97.399945 
3193.000000	97.403313 
3192.000000	97.406988 
3191.000000	97.410941 
3190.000000	97.414849 
3189.000000	97.418554 
3188.000000	97.422316 
3187.000000	97.426544 
3186.000000	97.431407 
3185.000000	97.436712 
3184.000000	97.442006 
3183.000000	97.446826 
3182.000000	97.451021 
3181.000000	97.454901 
3180.000000	97.459034 
3179.000000	97.463752 
3178.000000	97.468893 
3177.000000	97.473994 
3176.000000	97.478700 
3175.000000	97.482958 
3174.000000	97.486926 
3173.000000	97.490850 
3172.000000	97.494954 
3171.000000	97.499349 
3170.000000	97.503989 
3169.000000	97.508711 
3168.000000	97.513287 
3167.000000	97.517495 
3166.000000	97.521264 
3165.000000	97.524797 
3164.000000	97.528510 
3163.000000	97.532734 
3162.000000	97.537488 
3161.000000	97.542490 
3160.000000	97.547339 
3159.000000	97.551732 
3158.000000	97.555581 
3157.000000	97.559054 
3156.000000	97.562530 
3155.000000	97.566329 
3154.000000	97.570449 
3153.000000	97.574582 
3152.000000	97.578409 
3151.000000	97.581889 
3150.000000	97.585277 
3149.000000	97.588888 
3148.000000	97.592838 
3147.000000	97.596986 
3146.000000	97.601091 
3145.000000	97.605032 
3144.000000	97.608846 
3143.000000	97.612577 
3142.000000	97.616190 
3141.000000	97.619687 
3140.000000	97.623233 
3139.000000	97.626992 
3138.000000	97.630866 
3137.000000	97.634558 
3136.000000	97.637922 
3135.000000	97.641163 
3134.000000	97.644614 
3133.000000	97.648387 
3132.000000	97.652291 
3131.000000	97.656035 
3130.000000	97.659452 
3129.000000	97.662565 
3128.000000	97.665536 
3127.000000	97.668555 
3126.000000	97.671716 
3125.000000	97.674996 
3124.000000	97.678372 
3123.000000	97.681924 
3122.000000	97.685745 
3121.000000	97.689776 
3120.000000	97.693806 
3119.000000	97.697650 
3118.000000	97.701310 
3117.000000	97.704883 
3116.000000	97.708411 
3115.000000	97.711862 
3114.000000	97.715204 
3113.000000	97.718442 
3112.000000	97.721613 
3111.000000	97.724791 
3110.000000	97.728074 
3109.000000	97.731494 
3108.000000	97.734969 
3107.000000	97.738385 
3106.000000	97.741661 
3105.000000	97.744710 
3104.000000	97.747445 
3103.000000	97.749933 
3102.000000	97.752499 
3101.000000	97.755511 
3100.000000	97.758979 
3099.000000	97.762479 
3098.000000	97.765567 
3097.000000	97.768199 
3096.000000	97.770665 
3095.000000	97.773239 
3094.000000	97.776000 
3093.000000	97.778955 
3092.000000	97.782073 
3091.000000	97.785199 
3090.000000	97.788115 
3089.000000	97.790754 
3088.000000	97.793268 
3087.000000	97.795863 
3086.000000	97.798620 
3085.000000	97.801480 
3084.000000	97.804362 
3083.000000	97.807205 
3082.000000	97.809930 
3081.000000	97.812479 
3080.000000	97.814922 
3079.000000	97.817483 
3078.000000	97.820367 
3077.000000	97.823558 
3076.000000	97.826747 
3075.000000	97.829505 
3074.000000	97.831566 
3073.000000	97.833066 
3072.000000	97.834496 
3071.000000	97.836316 
3070.000000	97.838651 
3069.000000	97.841383 
3068.000000	97.844345 
3067.000000	97.847243 
3066.000000	97.849600 
3065.000000	97.851119 
3064.000000	97.852192 
3063.000000	97.853709 
3062.000000	97.856186 
3061.000000	97.859243 
3060.000000	97.862026 
3059.000000	97.864155 
3058.000000	97.866128 
3057.000000	97.868749 
3056.000000	97.872127 
3055.000000	97.875342 
3054.000000	97.877352 
3053.000000	97.878242 
3052.000000	97.879300 
3051.000000	97.881723 
3050.000000	97.885530 
3049.000000	97.889883 
3048.000000	97.894015 
3047.000000	97.897495 
3046.000000	97.900019 
3045.000000	97.901531 
3044.000000	97.902385 
3043.000000	97.903005 
3042.000000	97.903619 
3041.000000	97.904619 
3040.000000	97.906578 
3039.000000	97.909283 
3038.000000	97.911242 
3037.000000	97.911111 
3036.000000	97.909493 
3035.000000	97.908533 
3034.000000	97.909590 
3033.000000	97.911892 
3032.000000	97.913668 
3031.000000	97.913998 
3030.000000	97.913393 
3029.000000	97.913028 
3028.000000	97.913661 
3027.000000	97.915059 
3026.000000	97.916336 
3025.000000	97.916997 
3024.000000	97.917494 
3023.000000	97.918383 
3022.000000	97.919154 
3021.000000	97.918655 
3020.000000	97.916752 
3019.000000	97.914927 
3018.000000	97.914865 
3017.000000	97.916745 
3016.000000	97.919128 
3015.000000	97.920215 
3014.000000	97.919208 
3013.000000	97.916888 
3012.000000	97.915008 
3011.000000	97.914680 
3010.000000	97.915258 
3009.000000	97.915159 
3008.000000	97.913673 
3007.000000	97.911491 
3006.000000	97.909526 
3005.000000	97.907840 
3004.000000	97.905913 
3003.000000	97.903338 
3002.000000	97.900035 
3001.000000	97.896377 
3000.000000	97.893412 
2999.000000	97.892274 
2998.000000	97.892884 
2997.000000	97.893694 
2996.000000	97.893275 
2995.000000	97.891834 
2994.000000	97.890472 
2993.000000	97.889248 
2992.000000	97.886890 
2991.000000	97.882558 
2990.000000	97.877221 
2989.000000	97.872913 
2988.000000	97.870979 
2987.000000	97.871384 
2986.000000	97.873310 
2985.000000	97.875916 
2984.000000	97.878521 
2983.000000	97.880528 
2982.000000	97.881570 
2981.000000	97.881726 
2980.000000	97.881426 
2979.000000	97.881041 
2978.000000	97.880573 
2977.000000	97.879669 
2976.000000	97.877779 
2975.000000	97.874395 
2974.000000	97.869498 
2973.000000	97.863993 
2972.000000	97.859506 
2971.000000	97.857438 
2970.000000	97.858111 
2969.000000	97.860717 
2968.000000	97.863773 
2967.000000	97.865727 
2966.000000	97.865753 
2965.000000	97.864445 
2964.000000	97.863521 
2963.000000	97.864350 
2962.000000	97.866716 
2961.000000	97.869262 
2960.000000	97.870994 
2959.000000	97.872067 
2958.000000	97.873309 
2957.000000	97.875426 
2956.000000	97.878492 
2955.000000	97.881747 
2954.000000	97.884100 
2953.000000	97.885500 
2952.000000	97.887657 
2951.000000	97.892552 
2950.000000	97.899946 
2949.000000	97.907017 
2948.000000	97.910904 
2947.000000	97.911166 
2946.000000	97.909607 
2945.000000	97.908338 
2944.000000	97.908306 
2943.000000	97.909212 
2942.000000	97.910113 
2941.000000	97.909954 
2940.000000	97.907824 
2939.000000	97.903106 
2938.000000	97.895837 
2937.000000	97.887364 
2936.000000	97.880297 
2935.000000	97.876856 
2934.000000	97.876832 
2933.000000	97.877590 
2932.000000	97.876452 
2931.000000	97.872858 
2930.000000	97.868062 
2929.000000	97.863392 
2928.000000	97.859441 
2927.000000	97.856604 
2926.000000	97.855526 
2925.000000	97.856643 
2924.000000	97.859542 
2923.000000	97.863045 
2922.000000	97.866031 
2921.000000	97.868182 
2920.000000	97.869876 
2919.000000	97.871483 
2918.000000	97.873195 
2917.000000	97.875717 
2916.000000	97.880483 
2915.000000	97.888333 
2914.000000	97.898029 
2913.000000	97.906986 
2912.000000	97.913910 
2911.000000	97.920011 
2910.000000	97.927092 
2909.000000	97.935045 
2908.000000	97.941844 
2907.000000	97.945674 
2906.000000	97.946452 
2905.000000	97.945534 
2904.000000	97.944626 
2903.000000	97.945224 
2902.000000	97.948300 
2901.000000	97.953997 
2900.000000	97.961746 
2899.000000	97.970538 
2898.000000	97.979202 
2897.000000	97.986496 
2896.000000	97.991449 
2895.000000	97.993954 
2894.000000	97.994973 
2893.000000	97.995944 
2892.000000	97.997869 
2891.000000	98.000894 
2890.000000	98.004610 
2889.000000	98.008576 
2888.000000	98.012533 
2887.000000	98.016329 
2886.000000	98.019840 
2885.000000	98.022952 
2884.000000	98.025537 
2883.000000	98.027573 
2882.000000	98.029499 
2881.000000	98.032282 
2880.000000	98.036652 
2879.000000	98.042043 
2878.000000	98.046696 
2877.000000	98.049273 
2876.000000	98.050231 
2875.000000	98.051304 
2874.000000	98.053680 
2873.000000	98.057002 
2872.000000	98.060107 
2871.000000	98.062205 
2870.000000	98.063217 
2869.000000	98.063548 
2868.000000	98.063977 
2867.000000	98.065501 
2866.000000	98.068752 
2865.000000	98.073393 
2864.000000	98.078177 
2863.000000	98.081650 
2862.000000	98.082976 
2861.000000	98.082440 
2860.000000	98.081349 
2859.000000	98.081135 
2858.000000	98.082227 
2857.000000	98.083882 
2856.000000	98.085195 
2855.000000	98.085999 
2854.000000	98.086640 
2853.000000	98.087280 
2852.000000	98.088010 
2851.000000	98.089548 
2850.000000	98.093239 
2849.000000	98.100036 
2848.000000	98.109594 
2847.000000	98.120377 
2846.000000	98.130540 
2845.000000	98.138742 
2844.000000	98.144527 
2843.000000	98.148440 
2842.000000	98.151921 
2841.000000	98.156574 
2840.000000	98.162949 
2839.000000	98.169926 
2838.000000	98.175590 
2837.000000	98.178906 
2836.000000	98.180390 
2835.000000	98.181208 
2834.000000	98.182066 
2833.000000	98.183259 
2832.000000	98.185337 
2831.000000	98.188936 
2830.000000	98.193817 
2829.000000	98.198684 
2828.000000	98.202296 
2827.000000	98.204561 
2826.000000	98.206344 
2825.000000	98.208475 
2824.000000	98.211119 
2823.000000	98.213880 
2822.000000	98.216230 
2821.000000	98.217956 
2820.000000	98.219419 
2819.000000	98.221294 
2818.000000	98.223850 
2817.000000	98.226544 
2816.000000	98.228490 
2815.000000	98.229312 
2814.000000	98.229489 
2813.000000	98.229990 
2812.000000	98.231677 
2811.000000	98.234906 
2810.000000	98.239411 
2809.000000	98.244443 
2808.000000	98.249098 
2807.000000	98.252667 
2806.000000	98.254853 
2805.000000	98.255772 
2804.000000	98.255737 
2803.000000	98.254981 
2802.000000	98.253662 
2801.000000	98.252242 
2800.000000	98.251654 
2799.000000	98.252705 
2798.000000	98.255259 
2797.000000	98.258286 
2796.000000	98.260857 
2795.000000	98.262848 
2794.000000	98.264491 
2793.000000	98.265621 
2792.000000	98.265817 
2791.000000	98.265169 
2790.000000	98.264444 
2789.000000	98.264385 
2788.000000	98.265132 
2787.000000	98.266473 
2786.000000	98.268292 
2785.000000	98.270475 
2784.000000	98.272620 
2783.000000	98.274272 
2782.000000	98.275489 
2781.000000	98.276835 
2780.000000	98.278638 
2779.000000	98.280491 
2778.000000	98.281720 
2777.000000	98.282245 
2776.000000	98.282727 
2775.000000	98.283846 
2774.000000	98.285635 
2773.000000	98.287560 
2772.000000	98.289115 
2771.000000	98.290189 
2770.000000	98.290953 
2769.000000	98.291575 
2768.000000	98.292084 
2767.000000	98.292435 
2766.000000	98.292602 
2765.000000	98.292634 
2764.000000	98.292666 
2763.000000	98.292913 
2762.000000	98.293615 
2761.000000	98.294909 
2760.000000	98.296669 
2759.000000	98.298482 
2758.000000	98.299937 
2757.000000	98.300967 
2756.000000	98.301813 
2755.000000	98.302649 
2754.000000	98.303357 
2753.000000	98.303792 
2752.000000	98.304126 
2751.000000	98.304724 
2750.000000	98.305725 
2749.000000	98.306925 
2748.000000	98.308096 
2747.000000	98.309241 
2746.000000	98.310454 
2745.000000	98.311673 
2744.000000	98.312721 
2743.000000	98.313510 
2742.000000	98.314125 
2741.000000	98.314760 
2740.000000	98.315597 
2739.000000	98.316728 
2738.000000	98.318101 
2737.000000	98.319496 
2736.000000	98.320634 
2735.000000	98.321395 
2734.000000	98.321876 
2733.000000	98.322300 
2732.000000	98.322831 
2731.000000	98.323512 
2730.000000	98.324314 
2729.000000	98.325199 
2728.000000	98.326131 
2727.000000	98.327064 
2726.000000	98.327936 
2725.000000	98.328701 
2724.000000	98.329377 
2723.000000	98.330059 
2722.000000	98.330822 
2721.000000	98.331639 
2720.000000	98.332412 
2719.000000	98.333114 
2718.000000	98.333831 
2717.000000	98.334646 
2716.000000	98.335470 
2715.000000	98.336067 
2714.000000	98.336311 
2713.000000	98.336375 
2712.000000	98.336646 
2711.000000	98.337401 
2710.000000	98.338564 
2709.000000	98.339692 
2708.000000	98.340239 
2707.000000	98.339947 
2706.000000	98.339102 
2705.000000	98.338404 
2704.000000	98.338396 
2703.000000	98.339058 
2702.000000	98.339968 
2701.000000	98.340807 
2700.000000	98.341593 
2699.000000	98.342454 
2698.000000	98.343351 
2697.000000	98.344012 
2696.000000	98.344099 
2695.000000	98.343513 
2694.000000	98.342694 
2693.000000	98.342503 
2692.000000	98.343514 
2691.000000	98.345325 
2690.000000	98.346706 
2689.000000	98.346564 
2688.000000	98.344798 
2687.000000	98.342328 
2686.000000	98.340364 
2685.000000	98.339490 
2684.000000	98.339315 
2683.000000	98.339051 
2682.000000	98.338595 
2681.000000	98.338883 
2680.000000	98.340881 
2679.000000	98.344298 
2678.000000	98.347639 
2677.000000	98.349590 
2676.000000	98.349953 
2675.000000	98.349211 
2674.000000	98.347806 
2673.000000	98.346174 
2672.000000	98.344902 
2671.000000	98.344272 
2670.000000	98.343784 
2669.000000	98.342706 
2668.000000	98.341053 
2667.000000	98.339497 
2666.000000	98.338300 
2665.000000	98.336859 
2664.000000	98.334368 
2663.000000	98.330530 
2662.000000	98.325584 
2661.000000	98.320094 
2660.000000	98.315006 
2659.000000	98.311475 
2658.000000	98.310021 
2657.000000	98.309817 
2656.000000	98.309235 
2655.000000	98.307281 
2654.000000	98.304369 
2653.000000	98.301669 
2652.000000	98.299967 
2651.000000	98.299237 
2650.000000	98.298973 
2649.000000	98.298668 
2648.000000	98.298096 
2647.000000	98.297310 
2646.000000	98.296319 
2645.000000	98.294779 
2644.000000	98.292288 
2643.000000	98.289150 
2642.000000	98.286543 
2641.000000	98.285555 
2640.000000	98.286216 
2639.000000	98.287702 
2638.000000	98.289240 
2637.000000	98.290376 
2636.000000	98.290569 
2635.000000	98.289290 
2634.000000	98.286770 
2633.000000	98.284143 
2632.000000	98.282501 
2631.000000	98.282102 
2630.000000	98.282672 
2629.000000	98.283886 
2628.000000	98.285196 
2627.000000	98.285660 
2626.000000	98.284761 
2625.000000	98.283311 
2624.000000	98.282937 
2623.000000	98.284441 
2622.000000	98.287099 
2621.000000	98.289436 
2620.000000	98.290537 
2619.000000	98.290489 
2618.000000	98.289983 
2617.000000	98.289799 
2616.000000	98.290358 
2615.000000	98.291437 
2614.000000	98.292350 
2613.000000	98.292619 
2612.000000	98.292442 
2611.000000	98.292407 
2610.000000	98.292824 
2609.000000	98.293523 
2608.000000	98.294263 
2607.000000	98.295075 
2606.000000	98.296099 
2605.000000	98.297214 
2604.000000	98.298045 
2603.000000	98.298361 
2602.000000	98.298332 
2601.000000	98.298350 
2600.000000	98.298638 
2599.000000	98.299178 
2598.000000	98.299947 
2597.000000	98.301015 
2596.000000	98.302361 
2595.000000	98.303730 
2594.000000	98.304837 
2593.000000	98.305688 
2592.000000	98.306529 
2591.000000	98.307531 
2590.000000	98.308639 
2589.000000	98.309709 
2588.000000	98.310672 
2587.000000	98.311554 
2586.000000	98.312427 
2585.000000	98.313357 
2584.000000	98.314355 
2583.000000	98.315364 
2582.000000	98.316320 
2581.000000	98.317206 
2580.000000	98.318058 
2579.000000	98.318924 
2578.000000	98.319836 
2577.000000	98.320799 
2576.000000	98.321792 
2575.000000	98.322777 
2574.000000	98.323735 
2573.000000	98.324673 
2572.000000	98.325612 
2571.000000	98.326556 
2570.000000	98.327500 
2569.000000	98.328441 
2568.000000	98.329376 
2567.000000	98.330303 
2566.000000	98.331230 
2565.000000	98.332157 
2564.000000	98.333083 
2563.000000	98.334003 
2562.000000	98.334918 
2561.000000	98.335834 
2560.000000	98.336756 
2559.000000	98.337688 
2558.000000	98.338624 
2557.000000	98.339553 
2556.000000	98.340465 
2555.000000	98.341359 
2554.000000	98.342240 
2553.000000	98.343114 
2552.000000	98.343987 
2551.000000	98.344852 
2550.000000	98.345700 
2549.000000	98.346523 
2548.000000	98.347319 
2547.000000	98.348096 
2546.000000	98.348862 
2545.000000	98.349619 
2544.000000	98.350363 
2543.000000	98.351090 
2542.000000	98.351798 
2541.000000	98.352488 
2540.000000	98.353166 
2539.000000	98.353846 
2538.000000	98.354527 
2537.000000	98.355183 
2536.000000	98.355777 
2535.000000	98.356293 
2534.000000	98.356767 
2533.000000	98.357277 
2532.000000	98.357877 
2531.000000	98.358580 
2530.000000	98.359339 
2529.000000	98.360066 
2528.000000	98.360689 
2527.000000	98.361198 
2526.000000	98.361652 
2525.000000	98.362092 
2524.000000	98.362484 
2523.000000	98.362783 
2522.000000	98.363017 
2521.000000	98.363273 
2520.000000	98.363607 
2519.000000	98.364002 
2518.000000	98.364389 
2517.000000	98.364710 
2516.000000	98.364952 
2515.000000	98.365147 
2514.000000	98.365342 
2513.000000	98.365563 
2512.000000	98.365796 
2511.000000	98.366004 
2510.000000	98.366173 
2509.000000	98.366319 
2508.000000	98.366476 
2507.000000	98.366662 
2506.000000	98.366870 
2505.000000	98.367075 
2504.000000	98.367262 
2503.000000	98.367428 
2502.000000	98.367575 
2501.000000	98.367699 
2500.000000	98.367799 
2499.000000	98.367878 
2498.000000	98.367941 
2497.000000	98.367997 
2496.000000	98.368049 
2495.000000	98.368095 
2494.000000	98.368131 
2493.000000	98.368154 
2492.000000	98.368159 
2491.000000	98.368145 
2490.000000	98.368110 
2489.000000	98.368050 
2488.000000	98.367963 
2487.000000	98.367847 
2486.000000	98.367703 
2485.000000	98.367539 
2484.000000	98.367363 
2483.000000	98.367184 
2482.000000	98.367012 
2481.000000	98.366870 
2480.000000	98.366768 
2479.000000	98.366679 
2478.000000	98.366559 
2477.000000	98.366418 
2476.000000	98.366329 
2475.000000	98.366327 
2474.000000	98.366322 
2473.000000	98.366179 
2472.000000	98.365876 
2471.000000	98.365542 
2470.000000	98.365354 
2469.000000	98.365375 
2468.000000	98.365484 
2467.000000	98.365438 
2466.000000	98.365105 
2465.000000	98.364638 
2464.000000	98.364366 
2463.000000	98.364411 
2462.000000	98.364478 
2461.000000	98.364112 
2460.000000	98.363182 
2459.000000	98.362145 
2458.000000	98.361684 
2457.000000	98.362082 
2456.000000	98.362984 
2455.000000	98.363665 
2454.000000	98.363732 
2453.000000	98.363427 
2452.000000	98.363352 
2451.000000	98.363811 
2450.000000	98.364478 
2449.000000	98.364773 
2448.000000	98.364486 
2447.000000	98.363960 
2446.000000	98.363744 
2445.000000	98.364168 
2444.000000	98.365220 
2443.000000	98.366653 
2442.000000	98.368221 
2441.000000	98.369881 
2440.000000	98.371713 
2439.000000	98.373617 
2438.000000	98.375209 
2437.000000	98.376127 
2436.000000	98.376382 
2435.000000	98.376402 
2434.000000	98.376785 
2433.000000	98.377958 
2432.000000	98.379920 
2431.000000	98.382174 
2430.000000	98.384081 
2429.000000	98.385471 
2428.000000	98.386789 
2427.000000	98.388445 
2426.000000	98.390144 
2425.000000	98.391212 
2424.000000	98.391490 
2423.000000	98.391543 
2422.000000	98.391919 
2421.000000	98.392638 
2420.000000	98.393534 
2419.000000	98.394780 
2418.000000	98.396821 
2417.000000	98.399830 
2416.000000	98.403418 
2415.000000	98.406745 
2414.000000	98.408917 
2413.000000	98.409555 
2412.000000	98.409140 
2411.000000	98.408926 
2410.000000	98.410316 
2409.000000	98.414094 
2408.000000	98.419688 
2407.000000	98.425032 
2406.000000	98.427988 
2405.000000	98.428344 
2404.000000	98.428028 
2403.000000	98.428877 
2402.000000	98.430698 
2401.000000	98.432166 
2400.000000	98.432992 
2399.000000	98.434107 
2398.000000	98.435988 
2397.000000	98.437975 
2396.000000	98.439348 
2395.000000	98.440179 
2394.000000	98.440847 
2393.000000	98.441423 
2392.000000	98.441878 
2391.000000	98.442469 
2390.000000	98.443618 
2389.000000	98.445618 
2388.000000	98.448520 
2387.000000	98.451889 
2386.000000	98.455069 
2385.000000	98.458426 
2384.000000	98.463599 
2383.000000	98.471850 
2382.000000	98.482583 
2381.000000	98.493826 
2380.000000	98.503690 
2379.000000	98.510836 
2378.000000	98.514409 
2377.000000	98.514734 
2376.000000	98.513845 
2375.000000	98.514196 
2374.000000	98.516612 
2373.000000	98.519895 
2372.000000	98.522352 
2371.000000	98.523419 
2370.000000	98.524106 
2369.000000	98.525975 
2368.000000	98.529248 
2367.000000	98.532229 
2366.000000	98.533201 
2365.000000	98.532206 
2364.000000	98.530452 
2363.000000	98.528766 
2362.000000	98.527582 
2361.000000	98.527712 
2360.000000	98.529198 
2359.000000	98.530922 
2358.000000	98.532426 
2357.000000	98.534521 
2356.000000	98.537600 
2355.000000	98.540561 
2354.000000	98.542965 
2353.000000	98.543366 
2352.000000	98.539240 
2351.000000	98.529381 
2350.000000	98.515794 
2349.000000	98.503782 
2348.000000	98.499083 
2347.000000	98.503999 
2346.000000	98.513040 
2345.000000	98.516477 
2344.000000	98.510737 
2343.000000	98.500357 
2342.000000	98.491873 
2341.000000	98.486845 
2340.000000	98.483529 
2339.000000	98.480473 
2338.000000	98.478226 
2337.000000	98.477294 
2336.000000	98.476314 
2335.000000	98.474462 
2334.000000	98.472502 
2333.000000	98.471163 
2332.000000	98.468701 
2331.000000	98.464227 
2330.000000	98.457227 
2329.000000	98.446656 
2328.000000	98.428302 
2327.000000	98.401378 
2326.000000	98.370394 
2325.000000	98.343854 
2324.000000	98.327858 
2323.000000	98.323655 
2322.000000	98.327992 
2321.000000	98.335417 
2320.000000	98.341611 
2319.000000	98.345494 
2318.000000	98.347409 
2317.000000	98.348208 
2316.000000	98.348437 
2315.000000	98.350148 
2314.000000	98.353981 
2313.000000	98.358641 
2312.000000	98.360381 
2311.000000	98.358058 
2310.000000	98.353228 
2309.000000	98.349167 
2308.000000	98.346878 
2307.000000	98.345899 
2306.000000	98.344919 
2305.000000	98.343735 
2304.000000	98.342472 
2303.000000	98.341547 
2302.000000	98.340299 
2301.000000	98.337973 
2300.000000	98.333998 
2299.000000	98.329046 
2298.000000	98.323647 
2297.000000	98.318488 
2296.000000	98.313579 
2295.000000	98.308764 
2294.000000	98.302889 
2293.000000	98.295148 
2292.000000	98.285839 
2291.000000	98.276475 
2290.000000	98.267966 
2289.000000	98.260245 
2288.000000	98.253596 
2287.000000	98.249464 
2286.000000	98.249156 
2285.000000	98.252155 
2284.000000	98.256608 
2283.000000	98.260572 
2282.000000	98.262958 
2281.000000	98.264012 
2280.000000	98.266079 
2279.000000	98.272368 
2278.000000	98.284196 
2277.000000	98.299687 
2276.000000	98.315667 
2275.000000	98.329878 
2274.000000	98.340740 
2273.000000	98.346694 
2272.000000	98.347200 
2271.000000	98.343956 
2270.000000	98.339649 
2269.000000	98.335856 
2268.000000	98.332799 
2267.000000	98.330338 
2266.000000	98.328098 
2265.000000	98.325538 
2264.000000	98.322886 
2263.000000	98.321368 
2262.000000	98.321498 
2261.000000	98.321896 
2260.000000	98.321066 
2259.000000	98.319688 
2258.000000	98.319896 
2257.000000	98.322506 
2256.000000	98.326359 
2255.000000	98.330126 
2254.000000	98.333432 
2253.000000	98.336182 
2252.000000	98.338242 
2251.000000	98.340298 
2250.000000	98.343651 
2249.000000	98.348313 
2248.000000	98.352138 
2247.000000	98.352953 
2246.000000	98.351118 
2245.000000	98.349049 
2244.000000	98.348548 
2243.000000	98.349368 
2242.000000	98.350455 
2241.000000	98.351443 
2240.000000	98.352575 
2239.000000	98.353873 
2238.000000	98.355058 
2237.000000	98.356105 
2236.000000	98.357344 
2235.000000	98.358965 
2234.000000	98.360636 
2233.000000	98.361754 
2232.000000	98.362163 
2231.000000	98.362246 
2230.000000	98.362518 
2229.000000	98.363233 
2228.000000	98.364340 
2227.000000	98.365512 
2226.000000	98.366251 
2225.000000	98.366264 
2224.000000	98.365867 
2223.000000	98.365758 
2222.000000	98.366146 
2221.000000	98.366601 
2220.000000	98.366957 
2219.000000	98.367774 
2218.000000	98.369488 
2217.000000	98.371675 
2216.000000	98.373542 
2215.000000	98.374705 
2214.000000	98.375108 
2213.000000	98.374920 
2212.000000	98.375003 
2211.000000	98.376695 
2210.000000	98.380257 
2209.000000	98.383758 
2208.000000	98.384738 
2207.000000	98.383110 
2206.000000	98.381605 
2205.000000	98.382528 
2204.000000	98.385267 
2203.000000	98.387824 
2202.000000	98.389365 
2201.000000	98.389834 
2200.000000	98.388684 
2199.000000	98.385356 
2198.000000	98.379698 
2197.000000	98.371943 
2196.000000	98.363798 
2195.000000	98.359153 
2194.000000	98.361428 
2193.000000	98.369557 
2192.000000	98.378031 
2191.000000	98.382051 
2190.000000	98.381514 
2189.000000	98.379505 
2188.000000	98.378554 
2187.000000	98.379172 
2186.000000	98.380606 
2185.000000	98.381798 
2184.000000	98.382508 
2183.000000	98.384482 
2182.000000	98.390628 
2181.000000	98.401940 
2180.000000	98.415485 
2179.000000	98.426180 
2178.000000	98.430537 
2177.000000	98.428895 
2176.000000	98.424821 
2175.000000	98.422225 
2174.000000	98.422318 
2173.000000	98.423243 
2172.000000	98.422612 
2171.000000	98.419610 
2170.000000	98.414389 
2169.000000	98.407167 
2168.000000	98.399804 
2167.000000	98.396812 
2166.000000	98.401373 
2165.000000	98.409746 
2164.000000	98.413346 
2163.000000	98.409713 
2162.000000	98.409226 
2161.000000	98.427035 
2160.000000	98.468383 
2159.000000	98.522326 
2158.000000	98.569712 
2157.000000	98.598034 
2156.000000	98.606447 
2155.000000	98.600820 
2154.000000	98.589045 
2153.000000	98.578928 
2152.000000	98.575288 
2151.000000	98.577104 
2150.000000	98.579329 
2149.000000	98.578799 
2148.000000	98.577329 
2147.000000	98.578013 
2146.000000	98.579885 
2145.000000	98.578380 
2144.000000	98.570761 
2143.000000	98.559365 
2142.000000	98.549355 
2141.000000	98.544407 
2140.000000	98.544728 
2139.000000	98.548533 
2138.000000	98.554965 
2137.000000	98.565385 
2136.000000	98.581162 
2135.000000	98.599908 
2134.000000	98.615072 
2133.000000	98.620674 
2132.000000	98.616044 
2131.000000	98.605382 
2130.000000	98.593704 
2129.000000	98.583869 
2128.000000	98.576098 
2127.000000	98.568700 
2126.000000	98.559841 
2125.000000	98.549970 
2124.000000	98.541945 
2123.000000	98.537308 
2122.000000	98.533200 
2121.000000	98.524986 
2120.000000	98.511921 
2119.000000	98.498376 
2118.000000	98.489368 
2117.000000	98.486282 
2116.000000	98.487227 
2115.000000	98.489486 
2114.000000	98.489895 
2113.000000	98.485776 
2112.000000	98.477904 
2111.000000	98.470889 
2110.000000	98.469018 
2109.000000	98.472364 
2108.000000	98.477683 
2107.000000	98.482009 
2106.000000	98.484068 
2105.000000	98.483453 
2104.000000	98.480502 
2103.000000	98.476774 
2102.000000	98.474202 
2101.000000	98.473509 
2100.000000	98.474161 
2099.000000	98.475713 
2098.000000	98.478493 
2097.000000	98.482984 
2096.000000	98.488921 
2095.000000	98.494796 
2094.000000	98.497896 
2093.000000	98.495555 
2092.000000	98.487431 
2091.000000	98.476464 
2090.000000	98.467064 
2089.000000	98.462091 
2088.000000	98.461221 
2087.000000	98.461964 
2086.000000	98.461972 
2085.000000	98.460419 
2084.000000	98.457602 
2083.000000	98.453972 
2082.000000	98.450200 
2081.000000	98.447821 
2080.000000	98.448579 
2079.000000	98.452519 
2078.000000	98.457331 
2077.000000	98.460381 
2076.000000	98.461176 
2075.000000	98.461037 
2074.000000	98.460942 
2073.000000	98.460761 
2072.000000	98.460252 
2071.000000	98.459594 
2070.000000	98.458853 
2069.000000	98.457859 
2068.000000	98.456873 
2067.000000	98.456599 
2066.000000	98.457350 
2065.000000	98.458882 
2064.000000	98.461041 
2063.000000	98.463688 
2062.000000	98.465959 
2061.000000	98.466726 
2060.000000	98.466130 
2059.000000	98.465639 
2058.000000	98.466239 
2057.000000	98.467513 
2056.000000	98.468562 
2055.000000	98.468512 
2054.000000	98.465889 
2053.000000	98.459400 
2052.000000	98.450685 
2051.000000	98.445012 
2050.000000	98.447260 
2049.000000	98.457840 
2048.000000	98.472584 
2047.000000	98.485614 
2046.000000	98.493188 
2045.000000	98.495054 
2044.000000	98.493747 
2043.000000	98.492744 
2042.000000	98.493913 
2041.000000	98.496818 
2040.000000	98.500271 
2039.000000	98.503729 
2038.000000	98.507265 
2037.000000	98.511555 
2036.000000	98.518091 
2035.000000	98.527792 
2034.000000	98.538752 
2033.000000	98.547006 
2032.000000	98.550625 
2031.000000	98.551357 
2030.000000	98.551662 
2029.000000	98.551894 
2028.000000	98.551418 
2027.000000	98.550719 
2026.000000	98.550897 
2025.000000	98.552304 
2024.000000	98.554874 
2023.000000	98.558677 
2022.000000	98.562966 
2021.000000	98.565694 
2020.000000	98.565636 
2019.000000	98.564339 
2018.000000	98.564750 
2017.000000	98.568033 
2016.000000	98.572766 
2015.000000	98.576940 
2014.000000	98.579390 
2013.000000	98.579488 
2012.000000	98.576890 
2011.000000	98.572196 
2010.000000	98.567761 
2009.000000	98.567465 
2008.000000	98.574282 
2007.000000	98.586551 
2006.000000	98.596905 
2005.000000	98.597862 
2004.000000	98.588551 
2003.000000	98.575098 
2002.000000	98.564745 
2001.000000	98.560295 
2000.000000	98.560659 
1999.000000	98.563400 
1998.000000	98.565295 
1997.000000	98.563332 
1996.000000	98.557619 
1995.000000	98.551980 
1994.000000	98.549696 
1993.000000	98.549614 
1992.000000	98.548005 
1991.000000	98.543683 
1990.000000	98.539078 
1989.000000	98.536575 
1988.000000	98.535949 
1987.000000	98.535337 
1986.000000	98.533344 
1985.000000	98.529916 
1984.000000	98.525516 
1983.000000	98.519571 
1982.000000	98.511084 
1981.000000	98.502407 
1980.000000	98.501232 
1979.000000	98.514792 
1978.000000	98.541404 
1977.000000	98.569841 
1976.000000	98.589902 
1975.000000	98.600227 
1974.000000	98.603401 
1973.000000	98.600139 
1972.000000	98.591301 
1971.000000	98.581135 
1970.000000	98.574406 
1969.000000	98.572458 
1968.000000	98.574518 
1967.000000	98.580232 
1966.000000	98.588092 
1965.000000	98.594040 
1964.000000	98.595477 
1963.000000	98.594731 
1962.000000	98.595867 
1961.000000	98.599478 
1960.000000	98.602987 
1959.000000	98.604686 
1958.000000	98.604676 
1957.000000	98.602933 
1956.000000	98.599141 
1955.000000	98.593988 
1954.000000	98.588779 
1953.000000	98.584572 
1952.000000	98.582560 
1951.000000	98.583915 
1950.000000	98.587580 
1949.000000	98.589380 
1948.000000	98.586098 
1947.000000	98.579683 
1946.000000	98.575179 
1945.000000	98.574820 
1944.000000	98.576043 
1943.000000	98.575162 
1942.000000	98.571431 
1941.000000	98.566978 
1940.000000	98.563989 
1939.000000	98.562952 
1938.000000	98.563051 
1937.000000	98.563417 
1936.000000	98.563760 
1935.000000	98.563825 
1934.000000	98.562570 
1933.000000	98.558830 
1932.000000	98.553092 
1931.000000	98.547564 
1930.000000	98.544146 
1929.000000	98.542802 
1928.000000	98.542382 
1927.000000	98.541993 
1926.000000	98.541312 
1925.000000	98.539982 
1924.000000	98.537473 
1923.000000	98.533856 
1922.000000	98.529925 
1921.000000	98.526462 
1920.000000	98.523687 
1919.000000	98.521356 
1918.000000	98.519097 
1917.000000	98.516689 
1916.000000	98.514197 
1915.000000	98.511796 
1914.000000	98.509557 
1913.000000	98.507438 
1912.000000	98.505339 
1911.000000	98.503136 
1910.000000	98.500720 
1909.000000	98.498086 
1908.000000	98.495466 
1907.000000	98.493217 
1906.000000	98.491527 
1905.000000	98.490159 
1904.000000	98.488669 
1903.000000	98.486980 
1902.000000	98.485309 
1901.000000	98.483592 
1900.000000	98.481540 
1899.000000	98.479089 
1898.000000	98.476421 
1897.000000	98.473779 
1896.000000	98.471548 
1895.000000	98.470269 
1894.000000	98.469734 
1893.000000	98.468543 
1892.000000	98.465703 
1891.000000	98.462133 
1890.000000	98.459588 
1889.000000	98.458279 
1888.000000	98.457022 
1887.000000	98.455751 
1886.000000	98.455563 
1885.000000	98.456517 
1884.000000	98.457219 
1883.000000	98.456779 
1882.000000	98.455661 
1881.000000	98.454558 
1880.000000	98.454028 
1879.000000	98.454639 
1878.000000	98.456258 
1877.000000	98.457634 
1876.000000	98.457547 
1875.000000	98.456331 
1874.000000	98.455292 
1873.000000	98.454585 
1872.000000	98.453027 
1871.000000	98.449896 
1870.000000	98.445905 
1869.000000	98.442612 
1868.000000	98.441544 
1867.000000	98.443942 
1866.000000	98.449745 
1865.000000	98.456352 
1864.000000	98.460303 
1863.000000	98.460765 
1862.000000	98.459920 
1861.000000	98.460128 
1860.000000	98.461762 
1859.000000	98.463983 
1858.000000	98.466129 
1857.000000	98.467871 
1856.000000	98.469310 
1855.000000	98.471042 
1854.000000	98.473279 
1853.000000	98.474967 
1852.000000	98.475536 
1851.000000	98.476351 
1850.000000	98.479031 
1849.000000	98.483559 
1848.000000	98.488451 
1847.000000	98.492476 
1846.000000	98.494873 
1845.000000	98.494871 
1844.000000	98.492839 
1843.000000	98.491032 
1842.000000	98.491455 
1841.000000	98.493774 
1840.000000	98.496277 
1839.000000	98.497696 
1838.000000	98.498155 
1837.000000	98.498430 
1836.000000	98.499140 
1835.000000	98.500894 
1834.000000	98.503645 
1833.000000	98.506200 
1832.000000	98.507452 
1831.000000	98.507234 
1830.000000	98.506200 
1829.000000	98.505224 
1828.000000	98.504666 
1827.000000	98.504489 
1826.000000	98.504181 
1825.000000	98.503223 
1824.000000	98.501806 
1823.000000	98.500928 
1822.000000	98.501520 
1821.000000	98.503395 
1820.000000	98.505799 
1819.000000	98.508799 
1818.000000	98.513311 
1817.000000	98.518686 
1816.000000	98.522069 
1815.000000	98.522154 
1814.000000	98.520528 
1813.000000	98.519183 
1812.000000	98.517920 
1811.000000	98.515486 
1810.000000	98.512770 
1809.000000	98.511376 
1808.000000	98.510875 
1807.000000	98.510236 
1806.000000	98.509541 
1805.000000	98.508714 
1804.000000	98.506458 
1803.000000	98.502666 
1802.000000	98.499537 
1801.000000	98.499246 
1800.000000	98.500721 
1799.000000	98.501260 
1798.000000	98.500985 
1797.000000	98.501573 
1796.000000	98.503099 
1795.000000	98.504250 
1794.000000	98.503557 
1793.000000	98.500492 
1792.000000	98.495794 
1791.000000	98.491342 
1790.000000	98.489700 
1789.000000	98.491860 
1788.000000	98.496441 
1787.000000	98.501160 
1786.000000	98.504436 
1785.000000	98.505493 
1784.000000	98.504250 
1783.000000	98.502549 
1782.000000	98.502218 
1781.000000	98.503671 
1780.000000	98.506345 
1779.000000	98.509235 
1778.000000	98.512079 
1777.000000	98.514313 
1776.000000	98.515474 
1775.000000	98.515924 
1774.000000	98.516221 
1773.000000	98.517191 
1772.000000	98.518655 
1771.000000	98.517950 
1770.000000	98.514496 
1769.000000	98.510605 
1768.000000	98.507587 
1767.000000	98.504978 
1766.000000	98.502086 
1765.000000	98.499646 
1764.000000	98.498736 
1763.000000	98.499161 
1762.000000	98.499189 
1761.000000	98.497189 
1760.000000	98.493040 
1759.000000	98.488426 
1758.000000	98.485458 
1757.000000	98.484902 
1756.000000	98.486148 
1755.000000	98.486966 
1754.000000	98.485685 
1753.000000	98.482446 
1752.000000	98.478742 
1751.000000	98.475935 
1750.000000	98.474038 
1749.000000	98.472910 
1748.000000	98.473209 
1747.000000	98.474901 
1746.000000	98.475641 
1745.000000	98.473857 
1744.000000	98.470479 
1743.000000	98.467068 
1742.000000	98.464664 
1741.000000	98.464092 
1740.000000	98.465212 
1739.000000	98.466169 
1738.000000	98.465157 
1737.000000	98.462730 
1736.000000	98.459855 
1735.000000	98.457717 
1734.000000	98.459056 
1733.000000	98.460621 
1732.000000	98.458035 
1731.000000	98.453266 
1730.000000	98.449351 
1729.000000	98.447345 
1728.000000	98.447995 
1727.000000	98.451105 
1726.000000	98.453912 
1725.000000	98.453507 
1724.000000	98.449138 
1723.000000	98.443010 
1722.000000	98.439019 
1721.000000	98.438703 
1720.000000	98.440280 
1719.000000	98.440469 
1718.000000	98.438081 
1717.000000	98.432956 
1716.000000	98.423513 
1715.000000	98.412622 
1714.000000	98.405521 
1713.000000	98.401811 
1712.000000	98.397379 
1711.000000	98.392115 
1710.000000	98.389213 
1709.000000	98.388603 
1708.000000	98.386440 
1707.000000	98.380379 
1706.000000	98.372409 
1705.000000	98.365050 
1704.000000	98.357108 
1703.000000	98.347571 
1702.000000	98.335876 
1701.000000	98.323650 
1700.000000	98.315015 
1699.000000	98.307427 
1698.000000	98.301657 
1697.000000	98.298274 
1696.000000	98.292277 
1695.000000	98.280854 
1694.000000	98.266963 
1693.000000	98.255185 
1692.000000	98.246469 
1691.000000	98.239022 
1690.000000	98.231819 
1689.000000	98.225256 
1688.000000	98.220624 
1687.000000	98.217476 
1686.000000	98.212355 
1685.000000	98.202364 
1684.000000	98.188035 
1683.000000	98.171297 
1682.000000	98.155193 
1681.000000	98.141479 
1680.000000	98.131189 
1679.000000	98.124264 
1678.000000	98.118732 
1677.000000	98.111737 
1676.000000	98.102213 
1675.000000	98.091372 
1674.000000	98.078584 
1673.000000	98.064842 
1672.000000	98.053470 
1671.000000	98.045630 
1670.000000	98.039090 
1669.000000	98.030188 
1668.000000	98.019373 
1667.000000	98.009477 
1666.000000	98.000070 
1665.000000	97.989407 
1664.000000	97.977763 
1663.000000	97.968439 
1662.000000	97.961626 
1661.000000	97.952982 
1660.000000	97.942463 
1659.000000	97.932753 
1658.000000	97.924421 
1657.000000	97.917938 
1656.000000	97.915394 
1655.000000	97.915222 
1654.000000	97.912835 
1653.000000	97.908754 
1652.000000	97.893608 
1651.000000	97.870634 
1650.000000	97.852833 
1649.000000	97.845041 
1648.000000	97.843078 
1647.000000	97.842274 
1646.000000	97.839321 
1645.000000	97.832903 
1644.000000	97.825613 
1643.000000	97.821504 
1642.000000	97.821091 
1641.000000	97.820514 
1640.000000	97.818139 
1639.000000	97.815900 
1638.000000	97.816279 
1637.000000	97.817983 
1636.000000	97.818033 
1635.000000	97.814748 
1634.000000	97.808949 
1633.000000	97.805362 
1632.000000	97.805982 
1631.000000	97.809891 
1630.000000	97.815132 
1629.000000	97.820199 
1628.000000	97.825072 
1627.000000	97.831372 
1626.000000	97.839401 
1625.000000	97.848036 
1624.000000	97.857298 
1623.000000	97.867612 
1622.000000	97.876700 
1621.000000	97.883246 
1620.000000	97.891512 
1619.000000	97.904870 
1618.000000	97.921036 
1617.000000	97.934984 
1616.000000	97.945030 
1615.000000	97.954116 
1614.000000	97.965167 
1613.000000	97.977694 
1612.000000	97.990182 
1611.000000	98.003026 
1610.000000	98.016122 
1609.000000	98.028548 
1608.000000	98.042117 
1607.000000	98.059342 
1606.000000	98.077234 
1605.000000	98.091017 
1604.000000	98.102087 
1603.000000	98.114418 
1602.000000	98.128207 
1601.000000	98.141350 
1600.000000	98.154235 
1599.000000	98.168708 
1598.000000	98.183679 
1597.000000	98.196452 
1596.000000	98.206594 
1595.000000	98.215775 
1594.000000	98.224499 
1593.000000	98.231838 
1592.000000	98.238463 
1591.000000	98.246562 
1590.000000	98.256221 
1589.000000	98.265025 
1588.000000	98.272195 
1587.000000	98.279525 
1586.000000	98.287728 
1585.000000	98.294465 
1584.000000	98.299644 
1583.000000	98.306378 
1582.000000	98.315221 
1581.000000	98.323806 
1580.000000	98.331635 
1579.000000	98.340252 
1578.000000	98.349243 
1577.000000	98.357155 
1576.000000	98.363592 
1575.000000	98.366905 
1574.000000	98.366311 
1573.000000	98.365026 
1572.000000	98.365788 
1571.000000	98.368539 
1570.000000	98.372317 
1569.000000	98.375038 
1568.000000	98.377336 
1567.000000	98.381007 
1566.000000	98.385200 
1565.000000	98.387947 
1564.000000	98.389925 
1563.000000	98.391368 
1562.000000	98.391505 
1561.000000	98.386395 
1560.000000	98.381910 
1559.000000	98.388396 
1558.000000	98.394992 
1557.000000	98.392946 
1556.000000	98.390361 
1555.000000	98.391846 
1554.000000	98.394921 
1553.000000	98.396877 
1552.000000	98.397861 
1551.000000	98.398300 
1550.000000	98.398882 
1549.000000	98.400659 
1548.000000	98.403871 
1547.000000	98.407589 
1546.000000	98.410217 
1545.000000	98.411307 
1544.000000	98.411944 
1543.000000	98.412735 
1542.000000	98.413648 
1541.000000	98.415224 
1540.000000	98.417929 
1539.000000	98.420865 
1538.000000	98.422756 
1537.000000	98.424010 
1536.000000	98.425345 
1535.000000	98.426823 
1534.000000	98.428313 
1533.000000	98.429825 
1532.000000	98.431384 
1531.000000	98.432973 
1530.000000	98.434586 
1529.000000	98.436219 
1528.000000	98.437870 
1527.000000	98.439517 
1526.000000	98.441084 
1525.000000	98.442517 
1524.000000	98.443926 
1523.000000	98.445586 
1522.000000	98.447822 
1521.000000	98.450377 
1520.000000	98.452032 
1519.000000	98.452354 
1518.000000	98.452537 
1517.000000	98.453946 
1516.000000	98.456632 
1515.000000	98.459744 
1514.000000	98.462886 
1513.000000	98.466028 
1512.000000	98.468497 
1511.000000	98.469415 
1510.000000	98.469414 
1509.000000	98.469325 
1508.000000	98.469431 
1507.000000	98.471202 
1506.000000	98.476935 
1505.000000	98.482212 
1504.000000	98.483783 
1503.000000	98.483458 
1502.000000	98.482755 
1501.000000	98.481471 
1500.000000	98.479021 
1499.000000	98.475072 
1498.000000	98.470882 
1497.000000	98.470823 
1496.000000	98.476645 
1495.000000	98.484929 
1494.000000	98.492820 
1493.000000	98.499719 
1492.000000	98.504394 
1491.000000	98.505844 
1490.000000	98.505568 
1489.000000	98.505668 
1488.000000	98.504997 
1487.000000	98.502689 
1486.000000	98.501198 
1485.000000	98.500464 
1484.000000	98.499174 
1483.000000	98.497588 
1482.000000	98.496364 
1481.000000	98.495675 
1480.000000	98.494557 
1479.000000	98.492569 
1478.000000	98.489637 
1477.000000	98.485130 
1476.000000	98.477800 
1475.000000	98.468641 
1474.000000	98.460779 
1473.000000	98.456459 
1472.000000	98.454467 
1471.000000	98.451470 
1470.000000	98.447521 
1469.000000	98.444053 
1468.000000	98.440181 
1467.000000	98.434543 
1466.000000	98.427438 
1465.000000	98.419804 
1464.000000	98.412095 
1463.000000	98.403932 
1462.000000	98.396781 
1461.000000	98.392840 
1460.000000	98.391865 
1459.000000	98.389754 
1458.000000	98.382186 
1457.000000	98.372409 
1456.000000	98.365001 
1455.000000	98.358120 
1454.000000	98.351572 
1453.000000	98.348879 
1452.000000	98.350901 
1451.000000	98.353919 
1450.000000	98.353980 
1449.000000	98.351630 
1448.000000	98.349308 
1447.000000	98.348192 
1446.000000	98.347347 
1445.000000	98.346309 
1444.000000	98.345473 
1443.000000	98.343267 
1442.000000	98.339030 
1441.000000	98.335098 
1440.000000	98.333600 
1439.000000	98.332053 
1438.000000	98.326266 
1437.000000	98.318123 
1436.000000	98.314037 
1435.000000	98.314465 
1434.000000	98.316260 
1433.000000	98.318893 
1432.000000	98.322190 
1431.000000	98.324009 
1430.000000	98.322275 
1429.000000	98.318845 
1428.000000	98.317027 
1427.000000	98.317850 
1426.000000	98.319453 
1425.000000	98.320393 
1424.000000	98.322055 
1423.000000	98.324429 
1422.000000	98.325737 
1421.000000	98.325269 
1420.000000	98.324413 
1419.000000	98.323833 
1418.000000	98.322652 
1417.000000	98.322968 
1416.000000	98.327554 
1415.000000	98.334720 
1414.000000	98.340202 
1413.000000	98.342507 
1412.000000	98.343822 
1411.000000	98.345580 
1410.000000	98.346999 
1409.000000	98.348010 
1408.000000	98.349173 
1407.000000	98.350505 
1406.000000	98.351997 
1405.000000	98.355499 
1404.000000	98.363609 
1403.000000	98.374575 
1402.000000	98.383910 
1401.000000	98.390077 
1400.000000	98.395212 
1399.000000	98.401055 
1398.000000	98.406012 
1397.000000	98.408039 
1396.000000	98.407713 
1395.000000	98.408089 
1394.000000	98.411619 
1393.000000	98.418443 
1392.000000	98.427392 
1391.000000	98.436324 
1390.000000	98.443007 
1389.000000	98.446400 
1388.000000	98.446841 
1387.000000	98.445611 
1386.000000	98.444525 
1385.000000	98.445458 
1384.000000	98.449231 
1383.000000	98.454250 
1382.000000	98.457868 
1381.000000	98.459091 
1380.000000	98.458971 
1379.000000	98.459068 
1378.000000	98.460135 
1377.000000	98.462238 
1376.000000	98.465208 
1375.000000	98.468627 
1374.000000	98.471858 
1373.000000	98.475181 
1372.000000	98.479653 
1371.000000	98.485660 
1370.000000	98.492074 
1369.000000	98.497343 
1368.000000	98.501430 
1367.000000	98.504929 
1366.000000	98.507899 
1365.000000	98.510592 
1364.000000	98.513875 
1363.000000	98.518200 
1362.000000	98.522926 
1361.000000	98.527440 
1360.000000	98.532159 
1359.000000	98.537553 
1358.000000	98.542923 
1357.000000	98.547294 
1356.000000	98.550818 
1355.000000	98.554118 
1354.000000	98.556949 
1353.000000	98.559030 
1352.000000	98.560628 
1351.000000	98.562710 
1350.000000	98.565678 
1349.000000	98.568820 
1348.000000	98.572120 
1347.000000	98.576103 
1346.000000	98.580258 
1345.000000	98.582786 
1344.000000	98.582387 
1343.000000	98.579547 
1342.000000	98.575932 
1341.000000	98.573025 
1340.000000	98.571421 
1339.000000	98.570953 
1338.000000	98.571278 
1337.000000	98.572863 
1336.000000	98.576767 
1335.000000	98.582958 
1334.000000	98.589659 
1333.000000	98.594859 
1332.000000	98.597799 
1331.000000	98.598964 
1330.000000	98.599252 
1329.000000	98.599749 
1328.000000	98.601264 
1327.000000	98.603415 
1326.000000	98.604366 
1325.000000	98.602762 
1324.000000	98.599849 
1323.000000	98.597839 
1322.000000	98.597098 
1321.000000	98.596398 
1320.000000	98.595172 
1319.000000	98.593992 
1318.000000	98.593427 
1317.000000	98.593795 
1316.000000	98.595419 
1315.000000	98.597963 
1314.000000	98.600114 
1313.000000	98.601106 
1312.000000	98.601580 
1311.000000	98.601977 
1310.000000	98.601265 
1309.000000	98.598936 
1308.000000	98.596842 
1307.000000	98.597500 
1306.000000	98.600760 
1305.000000	98.603937 
1304.000000	98.605169 
1303.000000	98.604672 
1302.000000	98.603463 
1301.000000	98.602415 
1300.000000	98.602254 
1299.000000	98.602918 
1298.000000	98.603136 
1297.000000	98.601820 
1296.000000	98.599622 
1295.000000	98.598195 
1294.000000	98.598285 
1293.000000	98.599714 
1292.000000	98.602334 
1291.000000	98.605380 
1290.000000	98.606647 
1289.000000	98.604256 
1288.000000	98.599276 
1287.000000	98.595119 
1286.000000	98.594041 
1285.000000	98.595460 
1284.000000	98.597629 
1283.000000	98.599369 
1282.000000	98.600266 
1281.000000	98.600399 
1280.000000	98.600239 
1279.000000	98.600074 
1278.000000	98.599759 
1277.000000	98.599754 
1276.000000	98.601472 
1275.000000	98.605104 
1274.000000	98.607729 
1273.000000	98.605776 
1272.000000	98.599505 
1271.000000	98.593219 
1270.000000	98.590473 
1269.000000	98.590661 
1268.000000	98.590952 
1267.000000	98.589651 
1266.000000	98.586929 
1265.000000	98.584113 
1264.000000	98.583121 
1263.000000	98.585279 
1262.000000	98.589874 
1261.000000	98.594626 
1260.000000	98.598204 
1259.000000	98.601232 
1258.000000	98.604355 
1257.000000	98.606653 
1256.000000	98.606590 
1255.000000	98.603905 
1254.000000	98.600187 
1253.000000	98.597923 
1252.000000	98.598824 
1251.000000	98.602239 
1250.000000	98.605067 
1249.000000	98.604160 
1248.000000	98.599231 
1247.000000	98.592914 
1246.000000	98.587882 
1245.000000	98.584423 
1244.000000	98.580737 
1243.000000	98.575147 
1242.000000	98.568102 
1241.000000	98.562100 
1240.000000	98.559093 
1239.000000	98.557839 
1238.000000	98.554851 
1237.000000	98.548311 
1236.000000	98.539704 
1235.000000	98.530971 
1234.000000	98.521631 
1233.000000	98.509910 
1232.000000	98.495188 
1231.000000	98.477861 
1230.000000	98.458353 
1229.000000	98.437848 
1228.000000	98.418250 
1227.000000	98.399351 
1226.000000	98.377519 
1225.000000	98.349428 
1224.000000	98.315729 
1223.000000	98.278717 
1222.000000	98.238024 
1221.000000	98.191667 
1220.000000	98.140120 
1219.000000	98.085834 
1218.000000	98.029429 
1217.000000	97.970129 
1216.000000	97.909511 
1215.000000	97.850448 
1214.000000	97.791881 
1213.000000	97.729061 
1212.000000	97.660174 
1211.000000	97.588760 
1210.000000	97.518047 
1209.000000	97.446473 
1208.000000	97.370862 
1207.000000	97.291044 
1206.000000	97.209611 
1205.000000	97.129470 
1204.000000	97.052592 
1203.000000	96.978582 
1202.000000	96.903722 
1201.000000	96.824099 
1200.000000	96.740269 
1199.000000	96.656289 
1198.000000	96.574198 
1197.000000	96.492804 
1196.000000	96.411399 
1195.000000	96.330149 
1194.000000	96.246680 
1193.000000	96.157357 
1192.000000	96.063203 
1191.000000	95.970091 
1190.000000	95.881582 
1189.000000	95.795637 
1188.000000	95.709282 
1187.000000	95.621652 
1186.000000	95.531139 
1185.000000	95.434987 
1184.000000	95.334215 
1183.000000	95.234244 
1182.000000	95.137718 
1181.000000	95.040559 
1180.000000	94.937659 
1179.000000	94.828659 
1178.000000	94.715742 
1177.000000	94.599762 
1176.000000	94.481307 
1175.000000	94.361813 
1174.000000	94.240692 
1173.000000	94.114545 
1172.000000	93.981683 
1171.000000	93.844391 
1170.000000	93.705143 
1169.000000	93.564563 
1168.000000	93.425161 
1167.000000	93.293212 
1166.000000	93.175111 
1165.000000	93.076130 
1164.000000	93.004343 
1163.000000	92.970411 
1162.000000	92.979887 
1161.000000	93.027643 
1160.000000	93.099435 
1159.000000	93.175036 
1158.000000	93.231934 
1157.000000	93.253787 
1156.000000	93.237944 
1155.000000	93.192120 
1154.000000	93.124221 
1153.000000	93.038737 
1152.000000	92.941277 
1151.000000	92.839609 
1150.000000	92.738429 
1149.000000	92.637958 
1148.000000	92.538584 
1147.000000	92.441783 
1146.000000	92.346047 
1145.000000	92.247584 
1144.000000	92.145791 
1143.000000	92.042862 
1142.000000	91.938288 
1141.000000	91.829921 
1140.000000	91.720054 
1139.000000	91.613324 
1138.000000	91.508454 
1137.000000	91.399366 
1136.000000	91.284504 
1135.000000	91.167442 
1134.000000	91.048353 
1133.000000	90.923467 
1132.000000	90.793495 
1131.000000	90.663630 
1130.000000	90.534102 
1129.000000	90.399681 
1128.000000	90.259785 
1127.000000	90.119989 
1126.000000	89.982111 
1125.000000	89.842109 
1124.000000	89.699170 
1123.000000	89.557072 
1122.000000	89.415046 
1121.000000	89.267745 
1120.000000	89.116328 
1119.000000	88.968720 
1118.000000	88.826573 
1117.000000	88.683457 
1116.000000	88.538526 
1115.000000	88.399710 
1114.000000	88.269936 
1113.000000	88.142403 
1112.000000	88.013494 
1111.000000	87.887928 
1110.000000	87.766821 
1109.000000	87.643148 
1108.000000	87.513530 
1107.000000	87.383104 
1106.000000	87.254941 
1105.000000	87.125653 
1104.000000	86.994405 
1103.000000	86.864671 
1102.000000	86.734212 
1101.000000	86.596135 
1100.000000	86.452231 
1099.000000	86.312648 
1098.000000	86.179836 
1097.000000	86.045738 
1096.000000	85.907874 
1095.000000	85.773589 
1094.000000	85.645088 
1093.000000	85.515375 
1092.000000	85.383546 
1091.000000	85.259209 
1090.000000	85.146386 
1089.000000	85.037093 
1088.000000	84.925817 
1087.000000	84.816597 
1086.000000	84.711465 
1085.000000	84.606222 
1084.000000	84.502108 
1083.000000	84.407149 
1082.000000	84.321034 
1081.000000	84.232684 
1080.000000	84.137164 
1079.000000	84.041038 
1078.000000	83.947358 
1077.000000	83.850075 
1076.000000	83.747013 
1075.000000	83.643053 
1074.000000	83.536370 
1073.000000	83.416387 
1072.000000	83.278810 
1071.000000	83.127869 
1070.000000	82.961406 
1069.000000	82.770239 
1068.000000	82.555953 
1067.000000	82.333224 
1066.000000	82.110521 
1065.000000	81.884510 
1064.000000	81.657135 
1063.000000	81.439732 
1062.000000	81.234801 
1061.000000	81.031703 
1060.000000	80.826222 
1059.000000	80.626620 
1058.000000	80.434617 
1057.000000	80.238254 
1056.000000	80.030073 
1055.000000	79.815571 
1054.000000	79.597880 
1053.000000	79.370754 
1052.000000	79.132884 
1051.000000	78.891687 
1050.000000	78.646469 
1049.000000	78.386957 
1048.000000	78.113815 
1047.000000	77.839491 
1046.000000	77.565149 
1045.000000	77.278747 
1044.000000	76.978846 
1043.000000	76.678963 
1042.000000	76.384786 
1041.000000	76.087707 
1040.000000	75.785328 
1039.000000	75.487748 
1038.000000	75.199182 
1037.000000	74.914922 
1036.000000	74.640976 
1035.000000	74.393960 
1034.000000	74.175826 
1033.000000	73.970455 
1032.000000	73.770187 
1031.000000	73.583905 
1030.000000	73.415246 
1029.000000	73.257122 
1028.000000	73.112092 
1027.000000	72.992785 
1026.000000	72.896206 
1025.000000	72.802126 
1024.000000	72.702707 
1023.000000	72.609140 
1022.000000	72.523861 
1021.000000	72.432579 
1020.000000	72.330416 
1019.000000	72.230095 
1018.000000	72.136583 
1017.000000	72.038350 
1016.000000	71.930820 
1015.000000	71.824114 
1014.000000	71.720763 
1013.000000	71.610563 
1012.000000	71.494489 
1011.000000	71.388856 
1010.000000	71.298269 
1009.000000	71.208833 
1008.000000	71.115375 
1007.000000	71.031112 
1006.000000	70.963143 
1005.000000	70.902936 
1004.000000	70.848282 
1003.000000	70.810282 
1002.000000	70.790992 
1001.000000	70.777933 
1000.000000	70.767690 
999.000000	 70.771278 
998.000000	 70.789703 
997.000000	 70.808491 
996.000000	 70.822974 
995.000000	 70.844851 
994.000000	 70.877181 
993.000000	 70.907539 
992.000000	 70.932849 
991.000000	 70.966578 
990.000000	 71.014092 
989.000000	 71.065025 
988.000000	 71.117147 
987.000000	 71.183700 
986.000000	 71.269436 
985.000000	 71.362989 
984.000000	 71.460658 
983.000000	 71.575123 
982.000000	 71.713258 
981.000000	 71.867338 
980.000000	 72.034301 
979.000000	 72.221485 
978.000000	 72.427414 
977.000000	 72.639585 
976.000000	 72.857320 
975.000000	 73.094622 
974.000000	 73.354751 
973.000000	 73.623910 
972.000000	 73.895315 
971.000000	 74.177455 
970.000000	 74.472899 
969.000000	 74.770765 
968.000000	 75.066059 
967.000000	 75.365965 
966.000000	 75.671678 
965.000000	 75.973759 
964.000000	 76.269764 
963.000000	 76.566789 
962.000000	 76.862972 
961.000000	 77.146393 
960.000000	 77.415975 
959.000000	 77.684007 
958.000000	 77.954680 
957.000000	 78.219305 
956.000000	 78.475171 
955.000000	 78.728819 
954.000000	 78.977725 
953.000000	 79.209265 
952.000000	 79.421456 
951.000000	 79.625236 
950.000000	 79.823320 
949.000000	 80.006398 
948.000000	 80.172895 
947.000000	 80.332006 
946.000000	 80.483969 
945.000000	 80.618093 
944.000000	 80.734540 
943.000000	 80.847674 
942.000000	 80.963092 
941.000000	 81.071424 
940.000000	 81.170122 
939.000000	 81.270910 
938.000000	 81.379264 
937.000000	 81.485809 
936.000000	 81.584998 
935.000000	 81.684283 
934.000000	 81.788731 
933.000000	 81.894178 
932.000000	 82.000997 
931.000000	 82.116590 
930.000000	 82.238685 
929.000000	 82.353913 
928.000000	 82.458349 
927.000000	 82.562110 
926.000000	 82.668891 
925.000000	 82.769026 
924.000000	 82.858317 
923.000000	 82.945946 
922.000000	 83.037398 
921.000000	 83.125755 
920.000000	 83.205155 
919.000000	 83.277134 
918.000000	 83.339800 
917.000000	 83.387678 
916.000000	 83.426773 
915.000000	 83.473520 
914.000000	 83.535232 
913.000000	 83.608299 
912.000000	 83.697853 
911.000000	 83.819606 
910.000000	 83.978030 
909.000000	 84.161964 
908.000000	 84.366214 
907.000000	 84.598273 
906.000000	 84.859213 
905.000000	 85.137812 
904.000000	 85.428495 
903.000000	 85.736021 
902.000000	 86.057936 
901.000000	 86.381570 
900.000000	 86.703040 
899.000000	 87.030500 
898.000000	 87.363896 
897.000000	 87.689733 
896.000000	 88.000607 
895.000000	 88.302480 
894.000000	 88.598094 
893.000000	 88.880276 
892.000000	 89.146838 
891.000000	 89.406179 
890.000000	 89.662659 
889.000000	 89.910322 
888.000000	 90.145318 
887.000000	 90.371286 
886.000000	 90.589849 
885.000000	 90.799660 
884.000000	 91.006691 
883.000000	 91.220266 
882.000000	 91.436553 
881.000000	 91.641692 
880.000000	 91.833592 
879.000000	 92.024454 
878.000000	 92.219661 
877.000000	 92.412102 
876.000000	 92.600940 
875.000000	 92.797394 
874.000000	 93.006880 
873.000000	 93.222286 
872.000000	 93.438766 
871.000000	 93.658134 
870.000000	 93.875485 
869.000000	 94.079476 
868.000000	 94.270652 
867.000000	 94.463503 
866.000000	 94.665181 
865.000000	 94.866345 
864.000000	 95.057774 
863.000000	 95.242205 
862.000000	 95.424830 
861.000000	 95.604977 
860.000000	 95.782431 
859.000000	 95.960148 
858.000000	 96.135334 
857.000000	 96.298293 
856.000000	 96.444761 
855.000000	 96.580058 
854.000000	 96.708091 
853.000000	 96.826242 
852.000000	 96.934310 
851.000000	 97.038413 
850.000000	 97.142272 
849.000000	 97.243019 
848.000000	 97.337166 
847.000000	 97.421163 
846.000000	 97.485912 
845.000000	 97.522993 
844.000000	 97.538491 
843.000000	 97.548649 
842.000000	 97.558177 
841.000000	 97.553640 
840.000000	 97.521355 
839.000000	 97.460845 
838.000000	 97.378706 
837.000000	 97.282374 
836.000000	 97.184552 
835.000000	 97.100607 
834.000000	 97.033861 
833.000000	 96.973735 
832.000000	 96.915113 
831.000000	 96.869165 
830.000000	 96.848160 
829.000000	 96.850199 
828.000000	 96.867312 
827.000000	 96.898923 
826.000000	 96.948044 
825.000000	 97.011460 
824.000000	 97.080878 
823.000000	 97.147463 
822.000000	 97.202233 
821.000000	 97.240633 
820.000000	 97.267987 
819.000000	 97.291002 
818.000000	 97.303776 
817.000000	 97.291742 
816.000000	 97.248958 
815.000000	 97.180768 
814.000000	 97.088237 
813.000000	 96.960260 
812.000000	 96.782519 
811.000000	 96.543415 
810.000000	 96.229757 
809.000000	 95.829739 
808.000000	 95.346024 
807.000000	 94.796621 
806.000000	 94.199017 
805.000000	 93.564979 
804.000000	 92.915618 
803.000000	 92.286289 
802.000000	 91.706965 
801.000000	 91.190766 
800.000000	 90.749529 
799.000000	 90.404543 
798.000000	 90.171804 
797.000000	 90.050450 
796.000000	 90.031955 
795.000000	 90.104374 
794.000000	 90.242020 
793.000000	 90.408713 
792.000000	 90.577929 
791.000000	 90.736164 
790.000000	 90.866546 
789.000000	 90.948337 
788.000000	 90.975559 
787.000000	 90.957507 
786.000000	 90.895892 
785.000000	 90.778230 
784.000000	 90.599188 
783.000000	 90.373496 
782.000000	 90.124447 
781.000000	 89.876701 
780.000000	 89.663806 
779.000000	 89.521327 
778.000000	 89.462595 
777.000000	 89.476644 
776.000000	 89.554277 
775.000000	 89.696739 
774.000000	 89.894318 
773.000000	 90.118927 
772.000000	 90.346794 
771.000000	 90.570972 
770.000000	 90.785745 
769.000000	 90.977284 
768.000000	 91.136658 
767.000000	 91.265957 
766.000000	 91.366644 
765.000000	 91.438364 
764.000000	 91.493635 
763.000000	 91.555390 
762.000000	 91.632530 
761.000000	 91.713375 
760.000000	 91.788719 
759.000000	 91.864697 
758.000000	 91.947643 
757.000000	 92.034436 
756.000000	 92.124817 
755.000000	 92.226654 
754.000000	 92.341983 
753.000000	 92.462551 
752.000000	 92.583520 
751.000000	 92.705389 
750.000000	 92.819741 
749.000000	 92.913374 
748.000000	 92.993092 
747.000000	 93.087175 
746.000000	 93.213412 
745.000000	 93.361994 
744.000000	 93.517145 
743.000000	 93.678005 
742.000000	 93.849755 
741.000000	 94.031554 
740.000000	 94.222985 
739.000000	 94.426547 
738.000000	 94.633998 
737.000000	 94.825027 
736.000000	 94.989564 
735.000000	 95.139170 
734.000000	 95.288036 
733.000000	 95.434632 
732.000000	 95.569346 
731.000000	 95.688001 
730.000000	 95.789724 
729.000000	 95.871756 
728.000000	 95.935670 
727.000000	 95.989671 
726.000000	 96.038116 
725.000000	 96.079814 
724.000000	 96.121334 
723.000000	 96.180019 
722.000000	 96.267896 
721.000000	 96.381763 
720.000000	 96.511692 
719.000000	 96.646822 
718.000000	 96.770650 
717.000000	 96.867529 
716.000000	 96.940273 
715.000000	 97.008376 
714.000000	 97.082369 
713.000000	 97.151167 
712.000000	 97.200786 
711.000000	 97.232333 
710.000000	 97.254402 
709.000000	 97.268657 
708.000000	 97.271857 
707.000000	 97.263393 
706.000000	 97.241678 
705.000000	 97.201284 
704.000000	 97.137160 
703.000000	 97.040762 
702.000000	 96.893043 
701.000000	 96.674902 
700.000000	 96.387170 
699.000000	 96.051501 
698.000000	 95.691924 
697.000000	 95.334914 
696.000000	 95.028650 
695.000000	 94.833241 
694.000000	 94.781325 
693.000000	 94.860803 
692.000000	 95.037716 
691.000000	 95.279470 
690.000000	 95.549127 
689.000000	 95.801939 
688.000000	 96.006736 
687.000000	 96.162239 
686.000000	 96.286401 
685.000000	 96.399080 
684.000000	 96.517806 
683.000000	 96.653511 
682.000000	 96.798494 
681.000000	 96.929379 
680.000000	 97.030745 
679.000000	 97.109829 
678.000000	 97.183437 
677.000000	 97.258654 
676.000000	 97.339261 
675.000000	 97.438189 
674.000000	 97.562495 
673.000000	 97.697966 
672.000000	 97.826602 
671.000000	 97.948272 
670.000000	 98.075178 
669.000000	 98.194462 
668.000000	 98.253080 
667.000000	 98.263304 
666.000000	 98.285686 
665.000000	 98.313158 
664.000000	 98.334246 
663.000000	 98.364030 
662.000000	 98.415223 
661.000000	 98.478549 
660.000000	 98.541356 
659.000000	 98.602915 
658.000000	 98.653708 
657.000000	 98.669080 
656.000000	 98.646021 
655.000000	 98.617764 
654.000000	 98.604329 
653.000000	 98.587419 
652.000000	 98.558797 
651.000000	 98.547664 
650.000000	 98.572985 

