4000.000000	99.298020 
3999.000000	99.298105 
3998.000000	99.298140 
3997.000000	99.296860 
3996.000000	99.293810 
3995.000000	99.290080 
3994.000000	99.287532 
3993.000000	99.287276 
3992.000000	99.288775 
3991.000000	99.290389 
3990.000000	99.290804 
3989.000000	99.290135 
3988.000000	99.289811 
3987.000000	99.291362 
3986.000000	99.295112 
3985.000000	99.299738 
3984.000000	99.303005 
3983.000000	99.303176 
3982.000000	99.300123 
3981.000000	99.295265 
3980.000000	99.290266 
3979.000000	99.285874 
3978.000000	99.282204 
3977.000000	99.279789 
3976.000000	99.279771 
3975.000000	99.282895 
3974.000000	99.288597 
3973.000000	99.295105 
3972.000000	99.300306 
3971.000000	99.302767 
3970.000000	99.302329 
3969.000000	99.299855 
3968.000000	99.296525 
3967.000000	99.293292 
3966.000000	99.290826 
3965.000000	99.289708 
3964.000000	99.290060 
3963.000000	99.290934 
3962.000000	99.290594 
3961.000000	99.287860 
3960.000000	99.283121 
3959.000000	99.278070 
3958.000000	99.274446 
3957.000000	99.272768 
3956.000000	99.272408 
3955.000000	99.272541 
3954.000000	99.272804 
3953.000000	99.273029 
3952.000000	99.272733 
3951.000000	99.271734 
3950.000000	99.270891 
3949.000000	99.271579 
3948.000000	99.274151 
3947.000000	99.277303 
3946.000000	99.279539 
3945.000000	99.280774 
3944.000000	99.282082 
3943.000000	99.283652 
3942.000000	99.284060 
3941.000000	99.282041 
3940.000000	99.277912 
3939.000000	99.272780 
3938.000000	99.267472 
3937.000000	99.262623 
3936.000000	99.259575 
3935.000000	99.260257 
3934.000000	99.265922 
3933.000000	99.275763 
3932.000000	99.286415 
3931.000000	99.293312 
3930.000000	99.293445 
3929.000000	99.287531 
3928.000000	99.279634 
3927.000000	99.274371 
3926.000000	99.274271 
3925.000000	99.278318 
3924.000000	99.282508 
3923.000000	99.283369 
3922.000000	99.280830 
3921.000000	99.277783 
3920.000000	99.277275 
3919.000000	99.280242 
3918.000000	99.285508 
3917.000000	99.291054 
3916.000000	99.295176 
3915.000000	99.297223 
3914.000000	99.297904 
3913.000000	99.298588 
3912.000000	99.299851 
3911.000000	99.301279 
3910.000000	99.302669 
3909.000000	99.304615 
3908.000000	99.307500 
3907.000000	99.309919 
3906.000000	99.308837 
3905.000000	99.301990 
3904.000000	99.289896 
3903.000000	99.276200 
3902.000000	99.266026 
3901.000000	99.263066 
3900.000000	99.267682 
3899.000000	99.276586 
3898.000000	99.285042 
3897.000000	99.290140 
3896.000000	99.291377 
3895.000000	99.289296 
3894.000000	99.284876 
3893.000000	99.279720 
3892.000000	99.275706 
3891.000000	99.273391 
3890.000000	99.271579 
3889.000000	99.268857 
3888.000000	99.265285 
3887.000000	99.263043 
3886.000000	99.264307 
3885.000000	99.268005 
3884.000000	99.270588 
3883.000000	99.270671 
3882.000000	99.270703 
3881.000000	99.273617 
3880.000000	99.278758 
3879.000000	99.282171 
3878.000000	99.281451 
3877.000000	99.278145 
3876.000000	99.275866 
3875.000000	99.276471 
3874.000000	99.277578 
3873.000000	99.274878 
3872.000000	99.267927 
3871.000000	99.261944 
3870.000000	99.262142 
3869.000000	99.267335 
3868.000000	99.271862 
3867.000000	99.272584 
3866.000000	99.271546 
3865.000000	99.272336 
3864.000000	99.274700 
3863.000000	99.275504 
3862.000000	99.273813 
3861.000000	99.272137 
3860.000000	99.273168 
3859.000000	99.277182 
3858.000000	99.281750 
3857.000000	99.283644 
3856.000000	99.280812 
3855.000000	99.275031 
3854.000000	99.271683 
3853.000000	99.273538 
3852.000000	99.277944 
3851.000000	99.281808 
3850.000000	99.284246 
3849.000000	99.285802 
3848.000000	99.286714 
3847.000000	99.286461 
3846.000000	99.284778 
3845.000000	99.282443 
3844.000000	99.281133 
3843.000000	99.282618 
3842.000000	99.286698 
3841.000000	99.290638 
3840.000000	99.291469 
3839.000000	99.288367 
3838.000000	99.283001 
3837.000000	99.278312 
3836.000000	99.276161 
3835.000000	99.276689 
3834.000000	99.279308 
3833.000000	99.283597 
3832.000000	99.289162 
3831.000000	99.294726 
3830.000000	99.298303 
3829.000000	99.298663 
3828.000000	99.296397 
3827.000000	99.293794 
3826.000000	99.293037 
3825.000000	99.294167 
3824.000000	99.295450 
3823.000000	99.296119 
3822.000000	99.297411 
3821.000000	99.300276 
3820.000000	99.303264 
3819.000000	99.304310 
3818.000000	99.302942 
3817.000000	99.300669 
3816.000000	99.299115 
3815.000000	99.297512 
3814.000000	99.294047 
3813.000000	99.289645 
3812.000000	99.287946 
3811.000000	99.291039 
3810.000000	99.296916 
3809.000000	99.301641 
3808.000000	99.303474 
3807.000000	99.303701 
3806.000000	99.303268 
3805.000000	99.300833 
3804.000000	99.295771 
3803.000000	99.291002 
3802.000000	99.290535 
3801.000000	99.293941 
3800.000000	99.295986 
3799.000000	99.293041 
3798.000000	99.286836 
3797.000000	99.281851 
3796.000000	99.280500 
3795.000000	99.281270 
3794.000000	99.281372 
3793.000000	99.279925 
3792.000000	99.278243 
3791.000000	99.277875 
3790.000000	99.279302 
3789.000000	99.282074 
3788.000000	99.285329 
3787.000000	99.287988 
3786.000000	99.289333 
3785.000000	99.289523 
3784.000000	99.289279 
3783.000000	99.288821 
3782.000000	99.287734 
3781.000000	99.286069 
3780.000000	99.284778 
3779.000000	99.284683 
3778.000000	99.285443 
3777.000000	99.285983 
3776.000000	99.285562 
3775.000000	99.284468 
3774.000000	99.283419 
3773.000000	99.282837 
3772.000000	99.282964 
3771.000000	99.283914 
3770.000000	99.284680 
3769.000000	99.283436 
3768.000000	99.280176 
3767.000000	99.277663 
3766.000000	99.278623 
3765.000000	99.282509 
3764.000000	99.285517 
3763.000000	99.284229 
3762.000000	99.278902 
3761.000000	99.272955 
3760.000000	99.269576 
3759.000000	99.269409 
3758.000000	99.271737 
3757.000000	99.276272 
3756.000000	99.282309 
3755.000000	99.288293 
3754.000000	99.293220 
3753.000000	99.297867 
3752.000000	99.303125 
3751.000000	99.306957 
3750.000000	99.306694 
3749.000000	99.303260 
3748.000000	99.298551 
3747.000000	99.292783 
3746.000000	99.286838 
3745.000000	99.283731 
3744.000000	99.284283 
3743.000000	99.284527 
3742.000000	99.281139 
3741.000000	99.274994 
3740.000000	99.268403 
3739.000000	99.262286 
3738.000000	99.257333 
3737.000000	99.255904 
3736.000000	99.259054 
3735.000000	99.262724 
3734.000000	99.261277 
3733.000000	99.255261 
3732.000000	99.250573 
3731.000000	99.250900 
3730.000000	99.254758 
3729.000000	99.258842 
3728.000000	99.261945 
3727.000000	99.264697 
3726.000000	99.266933 
3725.000000	99.267733 
3724.000000	99.267755 
3723.000000	99.269218 
3722.000000	99.272571 
3721.000000	99.275476 
3720.000000	99.275040 
3719.000000	99.270381 
3718.000000	99.263469 
3717.000000	99.257255 
3716.000000	99.252642 
3715.000000	99.248356 
3714.000000	99.243432 
3713.000000	99.239065 
3712.000000	99.236718 
3711.000000	99.235639 
3710.000000	99.233739 
3709.000000	99.229481 
3708.000000	99.222548 
3707.000000	99.213631 
3706.000000	99.203667 
3705.000000	99.193368 
3704.000000	99.183125 
3703.000000	99.173174 
3702.000000	99.163397 
3701.000000	99.153248 
3700.000000	99.142182 
3699.000000	99.130332 
3698.000000	99.119040 
3697.000000	99.110492 
3696.000000	99.105728 
3695.000000	99.103581 
3694.000000	99.102052 
3693.000000	99.099620 
3692.000000	99.094785 
3691.000000	99.086081 
3690.000000	99.074323 
3689.000000	99.063924 
3688.000000	99.059026 
3687.000000	99.058521 
3686.000000	99.058052 
3685.000000	99.056083 
3684.000000	99.054746 
3683.000000	99.055923 
3682.000000	99.058308 
3681.000000	99.058512 
3680.000000	99.053877 
3679.000000	99.043215 
3678.000000	99.027193 
3677.000000	99.010994 
3676.000000	99.003611 
3675.000000	99.007258 
3674.000000	99.013388 
3673.000000	99.013404 
3672.000000	99.006469 
3671.000000	98.999027 
3670.000000	98.997545 
3669.000000	99.001235 
3668.000000	99.005285 
3667.000000	99.007641 
3666.000000	99.008862 
3665.000000	99.009366 
3664.000000	99.008808 
3663.000000	99.007152 
3662.000000	99.005277 
3661.000000	99.003821 
3660.000000	99.002196 
3659.000000	98.999740 
3658.000000	98.997734 
3657.000000	98.998970 
3656.000000	99.004161 
3655.000000	99.010158 
3654.000000	99.013301 
3653.000000	99.012691 
3652.000000	99.009680 
3651.000000	99.005696 
3650.000000	99.000793 
3649.000000	98.995243 
3648.000000	98.991875 
3647.000000	98.993456 
3646.000000	98.999328 
3645.000000	99.007163 
3644.000000	99.015736 
3643.000000	99.025008 
3642.000000	99.035013 
3641.000000	99.044747 
3640.000000	99.052590 
3639.000000	99.057380 
3638.000000	99.058850 
3637.000000	99.057771 
3636.000000	99.055833 
3635.000000	99.054867 
3634.000000	99.055167 
3633.000000	99.055071 
3632.000000	99.053282 
3631.000000	99.051204 
3630.000000	99.052174 
3629.000000	99.055682 
3628.000000	99.055366 
3627.000000	99.048865 
3626.000000	99.041485 
3625.000000	99.038481 
3624.000000	99.039910 
3623.000000	99.042065 
3622.000000	99.042164 
3621.000000	99.042115 
3620.000000	99.046195 
3619.000000	99.054509 
3618.000000	99.062137 
3617.000000	99.065982 
3616.000000	99.067954 
3615.000000	99.071969 
3614.000000	99.079070 
3613.000000	99.085862 
3612.000000	99.088515 
3611.000000	99.087580 
3610.000000	99.087164 
3609.000000	99.089826 
3608.000000	99.093591 
3607.000000	99.095282 
3606.000000	99.095679 
3605.000000	99.098527 
3604.000000	99.105720 
3603.000000	99.115404 
3602.000000	99.123865 
3601.000000	99.128751 
3600.000000	99.129711 
3599.000000	99.127233 
3598.000000	99.122595 
3597.000000	99.118273 
3596.000000	99.116985 
3595.000000	99.120334 
3594.000000	99.127185 
3593.000000	99.134089 
3592.000000	99.137601 
3591.000000	99.135716 
3590.000000	99.129327 
3589.000000	99.122899 
3588.000000	99.121804 
3587.000000	99.126099 
3586.000000	99.130872 
3585.000000	99.133178 
3584.000000	99.134685 
3583.000000	99.137758 
3582.000000	99.142224 
3581.000000	99.145734 
3580.000000	99.146394 
3579.000000	99.144268 
3578.000000	99.140435 
3577.000000	99.136036 
3576.000000	99.132544 
3575.000000	99.131838 
3574.000000	99.134764 
3573.000000	99.139388 
3572.000000	99.142238 
3571.000000	99.141325 
3570.000000	99.137510 
3569.000000	99.133860 
3568.000000	99.133483 
3567.000000	99.136064 
3566.000000	99.137742 
3565.000000	99.136159 
3564.000000	99.133377 
3563.000000	99.133484 
3562.000000	99.138717 
3561.000000	99.147137 
3560.000000	99.153893 
3559.000000	99.155187 
3558.000000	99.151391 
3557.000000	99.146210 
3556.000000	99.143286 
3555.000000	99.143636 
3554.000000	99.145867 
3553.000000	99.147618 
3552.000000	99.146894 
3551.000000	99.143226 
3550.000000	99.137895 
3549.000000	99.133004 
3548.000000	99.130435 
3547.000000	99.130662 
3546.000000	99.132312 
3545.000000	99.132902 
3544.000000	99.131085 
3543.000000	99.128217 
3542.000000	99.127554 
3541.000000	99.131293 
3540.000000	99.138549 
3539.000000	99.145914 
3538.000000	99.150308 
3537.000000	99.151303 
3536.000000	99.150716 
3535.000000	99.150446 
3534.000000	99.150800 
3533.000000	99.151154 
3532.000000	99.151187 
3531.000000	99.151087 
3530.000000	99.150524 
3529.000000	99.148360 
3528.000000	99.144131 
3527.000000	99.139480 
3526.000000	99.137014 
3525.000000	99.137675 
3524.000000	99.139861 
3523.000000	99.141309 
3522.000000	99.141467 
3521.000000	99.141394 
3520.000000	99.142124 
3519.000000	99.143906 
3518.000000	99.146738 
3517.000000	99.150529 
3516.000000	99.154298 
3515.000000	99.156135 
3514.000000	99.154497 
3513.000000	99.149652 
3512.000000	99.143643 
3511.000000	99.138799 
3510.000000	99.136155 
3509.000000	99.135377 
3508.000000	99.136030 
3507.000000	99.138340 
3506.000000	99.142267 
3505.000000	99.145930 
3504.000000	99.146021 
3503.000000	99.140954 
3502.000000	99.133572 
3501.000000	99.129450 
3500.000000	99.131908 
3499.000000	99.139204 
3498.000000	99.146442 
3497.000000	99.149781 
3496.000000	99.148752 
3495.000000	99.145346 
3494.000000	99.141954 
3493.000000	99.140048 
3492.000000	99.139979 
3491.000000	99.141381 
3490.000000	99.143827 
3489.000000	99.147186 
3488.000000	99.151055 
3487.000000	99.153912 
3486.000000	99.153716 
3485.000000	99.149931 
3484.000000	99.144535 
3483.000000	99.140580 
3482.000000	99.139628 
3481.000000	99.140926 
3480.000000	99.142937 
3479.000000	99.144821 
3478.000000	99.146156 
3477.000000	99.146247 
3476.000000	99.144896 
3475.000000	99.143656 
3474.000000	99.144973 
3473.000000	99.149232 
3472.000000	99.153516 
3471.000000	99.154527 
3470.000000	99.152538 
3469.000000	99.151166 
3468.000000	99.152923 
3467.000000	99.156061 
3466.000000	99.156806 
3465.000000	99.153911 
3464.000000	99.149706 
3463.000000	99.146998 
3462.000000	99.146295 
3461.000000	99.146616 
3460.000000	99.147730 
3459.000000	99.150365 
3458.000000	99.154416 
3457.000000	99.157935 
3456.000000	99.158528 
3455.000000	99.155807 
3454.000000	99.152068 
3453.000000	99.150393 
3452.000000	99.151708 
3451.000000	99.153910 
3450.000000	99.154109 
3449.000000	99.151638 
3448.000000	99.148379 
3447.000000	99.146162 
3446.000000	99.144707 
3445.000000	99.142858 
3444.000000	99.140990 
3443.000000	99.140792 
3442.000000	99.142687 
3441.000000	99.144482 
3440.000000	99.143357 
3439.000000	99.138820 
3438.000000	99.133083 
3437.000000	99.128770 
3436.000000	99.126850 
3435.000000	99.126855 
3434.000000	99.128241 
3433.000000	99.130976 
3432.000000	99.134750 
3431.000000	99.138388 
3430.000000	99.140624 
3429.000000	99.141425 
3428.000000	99.142041 
3427.000000	99.143285 
3426.000000	99.144149 
3425.000000	99.142715 
3424.000000	99.138480 
3423.000000	99.133189 
3422.000000	99.129112 
3421.000000	99.127074 
3420.000000	99.126714 
3419.000000	99.127963 
3418.000000	99.131052 
3417.000000	99.135048 
3416.000000	99.137589 
3415.000000	99.136802 
3414.000000	99.133242 
3413.000000	99.129492 
3412.000000	99.127892 
3411.000000	99.128788 
3410.000000	99.130595 
3409.000000	99.131161 
3408.000000	99.129233 
3407.000000	99.125132 
3406.000000	99.120356 
3405.000000	99.116570 
3404.000000	99.114754 
3403.000000	99.114979 
3402.000000	99.116654 
3401.000000	99.119157 
3400.000000	99.122453 
3399.000000	99.127113 
3398.000000	99.133363 
3397.000000	99.140028 
3396.000000	99.144715 
3395.000000	99.145320 
3394.000000	99.141375 
3393.000000	99.134211 
3392.000000	99.126208 
3391.000000	99.119828 
3390.000000	99.116800 
3389.000000	99.117597 
3388.000000	99.121437 
3387.000000	99.126906 
3386.000000	99.132805 
3385.000000	99.138558 
3384.000000	99.143800 
3383.000000	99.147593 
3382.000000	99.148244 
3381.000000	99.144530 
3380.000000	99.137416 
3379.000000	99.130283 
3378.000000	99.126654 
3377.000000	99.127406 
3376.000000	99.130465 
3375.000000	99.133203 
3374.000000	99.134664 
3373.000000	99.135472 
3372.000000	99.136365 
3371.000000	99.137394 
3370.000000	99.138138 
3369.000000	99.137980 
3368.000000	99.136431 
3367.000000	99.133859 
3366.000000	99.131847 
3365.000000	99.132018 
3364.000000	99.134297 
3363.000000	99.136912 
3362.000000	99.138265 
3361.000000	99.138119 
3360.000000	99.136739 
3359.000000	99.133897 
3358.000000	99.129693 
3357.000000	99.125872 
3356.000000	99.124916 
3355.000000	99.127392 
3354.000000	99.130957 
3353.000000	99.132602 
3352.000000	99.131498 
3351.000000	99.129411 
3350.000000	99.128811 
3349.000000	99.130995 
3348.000000	99.135587 
3347.000000	99.140897 
3346.000000	99.144615 
3345.000000	99.145021 
3344.000000	99.142249 
3343.000000	99.138350 
3342.000000	99.135548 
3341.000000	99.134248 
3340.000000	99.132941 
3339.000000	99.130247 
3338.000000	99.126851 
3337.000000	99.125064 
3336.000000	99.126390 
3335.000000	99.129891 
3334.000000	99.133253 
3333.000000	99.135181 
3332.000000	99.136259 
3331.000000	99.137503 
3330.000000	99.138707 
3329.000000	99.138735 
3328.000000	99.137192 
3327.000000	99.135131 
3326.000000	99.133801 
3325.000000	99.133017 
3324.000000	99.131159 
3323.000000	99.127039 
3322.000000	99.121580 
3321.000000	99.117407 
3320.000000	99.116695 
3319.000000	99.119518 
3318.000000	99.124219 
3317.000000	99.128910 
3316.000000	99.132257 
3315.000000	99.133494 
3314.000000	99.132812 
3313.000000	99.131916 
3312.000000	99.133080 
3311.000000	99.136809 
3310.000000	99.140816 
3309.000000	99.142076 
3308.000000	99.139785 
3307.000000	99.135908 
3306.000000	99.133197 
3305.000000	99.133314 
3304.000000	99.136454 
3303.000000	99.141592 
3302.000000	99.146669 
3301.000000	99.149240 
3300.000000	99.147726 
3299.000000	99.142405 
3298.000000	99.135376 
3297.000000	99.129590 
3296.000000	99.127199 
3295.000000	99.128059 
3294.000000	99.129957 
3293.000000	99.130928 
3292.000000	99.131274 
3291.000000	99.132542 
3290.000000	99.134661 
3289.000000	99.135339 
3288.000000	99.132773 
3287.000000	99.127970 
3286.000000	99.123614 
3285.000000	99.121197 
3284.000000	99.120105 
3283.000000	99.119145 
3282.000000	99.118116 
3281.000000	99.117840 
3280.000000	99.119248 
3279.000000	99.122521 
3278.000000	99.126740 
3277.000000	99.130265 
3276.000000	99.131646 
3275.000000	99.130258 
3274.000000	99.126288 
3273.000000	99.120669 
3272.000000	99.115235 
3271.000000	99.112196 
3270.000000	99.112572 
3269.000000	99.115139 
3268.000000	99.117420 
3267.000000	99.117763 
3266.000000	99.116327 
3265.000000	99.114470 
3264.000000	99.113794 
3263.000000	99.115597 
3262.000000	99.120310 
3261.000000	99.126790 
3260.000000	99.132475 
3259.000000	99.134921 
3258.000000	99.133624 
3257.000000	99.130343 
3256.000000	99.127323 
3255.000000	99.125097 
3254.000000	99.122439 
3253.000000	99.118828 
3252.000000	99.116255 
3251.000000	99.117488 
3250.000000	99.122538 
3249.000000	99.127970 
3248.000000	99.130161 
3247.000000	99.128321 
3246.000000	99.123898 
3245.000000	99.118292 
3244.000000	99.112436 
3243.000000	99.107785 
3242.000000	99.105838 
3241.000000	99.106398 
3240.000000	99.107628 
3239.000000	99.108418 
3238.000000	99.109954 
3237.000000	99.114317 
3236.000000	99.121885 
3235.000000	99.130470 
3234.000000	99.136813 
3233.000000	99.138810 
3232.000000	99.136701 
3231.000000	99.132528 
3230.000000	99.128450 
3229.000000	99.125385 
3228.000000	99.122991 
3227.000000	99.120458 
3226.000000	99.117177 
3225.000000	99.113196 
3224.000000	99.109594 
3223.000000	99.108038 
3222.000000	99.109280 
3221.000000	99.112031 
3220.000000	99.113847 
3219.000000	99.113289 
3218.000000	99.111140 
3217.000000	99.109770 
3216.000000	99.111616 
3215.000000	99.117632 
3214.000000	99.126218 
3213.000000	99.133690 
3212.000000	99.136599 
3211.000000	99.134014 
3210.000000	99.127620 
3209.000000	99.120125 
3208.000000	99.113968 
3207.000000	99.110759 
3206.000000	99.110643 
3205.000000	99.112097 
3204.000000	99.113297 
3203.000000	99.113938 
3202.000000	99.115008 
3201.000000	99.116840 
3200.000000	99.118418 
3199.000000	99.118879 
3198.000000	99.118748 
3197.000000	99.119174 
3196.000000	99.120698 
3195.000000	99.123184 
3194.000000	99.126157 
3193.000000	99.128569 
3192.000000	99.128841 
3191.000000	99.125931 
3190.000000	99.120295 
3189.000000	99.113645 
3188.000000	99.108153 
3187.000000	99.105902 
3186.000000	99.108068 
3185.000000	99.113767 
3184.000000	99.120163 
3183.000000	99.124498 
3182.000000	99.126094 
3181.000000	99.126338 
3180.000000	99.127219 
3179.000000	99.129969 
3178.000000	99.134234 
3177.000000	99.138033 
3176.000000	99.139355 
3175.000000	99.138434 
3174.000000	99.137639 
3173.000000	99.138250 
3172.000000	99.138223 
3171.000000	99.134621 
3170.000000	99.127891 
3169.000000	99.122057 
3168.000000	99.120446 
3167.000000	99.122634 
3166.000000	99.126149 
3165.000000	99.129663 
3164.000000	99.133357 
3163.000000	99.137031 
3162.000000	99.139481 
3161.000000	99.139911 
3160.000000	99.138928 
3159.000000	99.137651 
3158.000000	99.136325 
3157.000000	99.134304 
3156.000000	99.131185 
3155.000000	99.127458 
3154.000000	99.123809 
3153.000000	99.120070 
3152.000000	99.115389 
3151.000000	99.109712 
3150.000000	99.104680 
3149.000000	99.102532 
3148.000000	99.104123 
3147.000000	99.108444 
3146.000000	99.114006 
3145.000000	99.120027 
3144.000000	99.125987 
3143.000000	99.130679 
3142.000000	99.132572 
3141.000000	99.131198 
3140.000000	99.127830 
3139.000000	99.124676 
3138.000000	99.123404 
3137.000000	99.124204 
3136.000000	99.125945 
3135.000000	99.127300 
3134.000000	99.127966 
3133.000000	99.128714 
3132.000000	99.130041 
3131.000000	99.131093 
3130.000000	99.130502 
3129.000000	99.128375 
3128.000000	99.126868 
3127.000000	99.128362 
3126.000000	99.133037 
3125.000000	99.138322 
3124.000000	99.140707 
3123.000000	99.138350 
3122.000000	99.132491 
3121.000000	99.126503 
3120.000000	99.123227 
3119.000000	99.122935 
3118.000000	99.123845 
3117.000000	99.124454 
3116.000000	99.124899 
3115.000000	99.125981 
3114.000000	99.127595 
3113.000000	99.128811 
3112.000000	99.129230 
3111.000000	99.129562 
3110.000000	99.130681 
3109.000000	99.132483 
3108.000000	99.133794 
3107.000000	99.133278 
3106.000000	99.130551 
3105.000000	99.126763 
3104.000000	99.124115 
3103.000000	99.124377 
3102.000000	99.127595 
3101.000000	99.132189 
3100.000000	99.136350 
3099.000000	99.139213 
3098.000000	99.140861 
3097.000000	99.141671 
3096.000000	99.141864 
3095.000000	99.141452 
3094.000000	99.140361 
3093.000000	99.138600 
3092.000000	99.136362 
3091.000000	99.134061 
3090.000000	99.132373 
3089.000000	99.132146 
3088.000000	99.133788 
3087.000000	99.136422 
3086.000000	99.138083 
3085.000000	99.137365 
3084.000000	99.134726 
3083.000000	99.131649 
3082.000000	99.128759 
3081.000000	99.125601 
3080.000000	99.122397 
3079.000000	99.121074 
3078.000000	99.123803 
3077.000000	99.130684 
3076.000000	99.139196 
3075.000000	99.145862 
3074.000000	99.148443 
3073.000000	99.147088 
3072.000000	99.143738 
3071.000000	99.140235 
3070.000000	99.136813 
3069.000000	99.132543 
3068.000000	99.127249 
3067.000000	99.122580 
3066.000000	99.120993 
3065.000000	99.123770 
3064.000000	99.129814 
3063.000000	99.135899 
3062.000000	99.138252 
3061.000000	99.134877 
3060.000000	99.127091 
3059.000000	99.118696 
3058.000000	99.113426 
3057.000000	99.113188 
3056.000000	99.117982 
3055.000000	99.126183 
3054.000000	99.134558 
3053.000000	99.139304 
3052.000000	99.138316 
3051.000000	99.132470 
3050.000000	99.124551 
3049.000000	99.117454 
3048.000000	99.113272 
3047.000000	99.112587 
3046.000000	99.113444 
3045.000000	99.112030 
3044.000000	99.106159 
3043.000000	99.098135 
3042.000000	99.092831 
3041.000000	99.092580 
3040.000000	99.094799 
3039.000000	99.094983 
3038.000000	99.091123 
3037.000000	99.084675 
3036.000000	99.077796 
3035.000000	99.070641 
3034.000000	99.061655 
3033.000000	99.050095 
3032.000000	99.037494 
3031.000000	99.026153 
3030.000000	99.016614 
3029.000000	99.007580 
3028.000000	98.998373 
3027.000000	98.990183 
3026.000000	98.984039 
3025.000000	98.978355 
3024.000000	98.969860 
3023.000000	98.957001 
3022.000000	98.941326 
3021.000000	98.925209 
3020.000000	98.909107 
3019.000000	98.891603 
3018.000000	98.871781 
3017.000000	98.850850 
3016.000000	98.831273 
3015.000000	98.814454 
3014.000000	98.799587 
3013.000000	98.784894 
3012.000000	98.769703 
3011.000000	98.754673 
3010.000000	98.740081 
3009.000000	98.724863 
3008.000000	98.707923 
3007.000000	98.689719 
3006.000000	98.671757 
3005.000000	98.654758 
3004.000000	98.638009 
3003.000000	98.620445 
3002.000000	98.601827 
3001.000000	98.582905 
3000.000000	98.564844 
2999.000000	98.548488 
2998.000000	98.534028 
2997.000000	98.521446 
2996.000000	98.510965 
2995.000000	98.501883 
2994.000000	98.490518 
2993.000000	98.470882 
2992.000000	98.439595 
2991.000000	98.400607 
2990.000000	98.364065 
2989.000000	98.339799 
2988.000000	98.331645 
2987.000000	98.337107 
2986.000000	98.350697 
2985.000000	98.366992 
2984.000000	98.381716 
2983.000000	98.391910 
2982.000000	98.396263 
2981.000000	98.395568 
2980.000000	98.392555 
2979.000000	98.390469 
2978.000000	98.390989 
2977.000000	98.393128 
2976.000000	98.394188 
2975.000000	98.391940 
2974.000000	98.386419 
2973.000000	98.380380 
2972.000000	98.378067 
2971.000000	98.382552 
2970.000000	98.393467 
2969.000000	98.407620 
2968.000000	98.422278 
2967.000000	98.437424 
2966.000000	98.454344 
2965.000000	98.472713 
2964.000000	98.490108 
2963.000000	98.504246 
2962.000000	98.514894 
2961.000000	98.523521 
2960.000000	98.531689 
2959.000000	98.539890 
2958.000000	98.547680 
2957.000000	98.554831 
2956.000000	98.562254 
2955.000000	98.571384 
2954.000000	98.582672 
2953.000000	98.595333 
2952.000000	98.608580 
2951.000000	98.621989 
2950.000000	98.634265 
2949.000000	98.643030 
2948.000000	98.647023 
2947.000000	98.647760 
2946.000000	98.648015 
2945.000000	98.649444 
2944.000000	98.652663 
2943.000000	98.658340 
2942.000000	98.666193 
2941.000000	98.673466 
2940.000000	98.676812 
2939.000000	98.676484 
2938.000000	98.677119 
2937.000000	98.683384 
2936.000000	98.695429 
2935.000000	98.708836 
2934.000000	98.718378 
2933.000000	98.721608 
2932.000000	98.719851 
2931.000000	98.716261 
2930.000000	98.712849 
2929.000000	98.709496 
2928.000000	98.705760 
2927.000000	98.702335 
2926.000000	98.699656 
2925.000000	98.696200 
2924.000000	98.690146 
2923.000000	98.682288 
2922.000000	98.675283 
2921.000000	98.669945 
2920.000000	98.664234 
2919.000000	98.656227 
2918.000000	98.646349 
2917.000000	98.635945 
2916.000000	98.625279 
2915.000000	98.613955 
2914.000000	98.602362 
2913.000000	98.591838 
2912.000000	98.583949 
2911.000000	98.579870 
2910.000000	98.579430 
2909.000000	98.580405 
2908.000000	98.579674 
2907.000000	98.575602 
2906.000000	98.568274 
2905.000000	98.557261 
2904.000000	98.541089 
2903.000000	98.520690 
2902.000000	98.502456 
2901.000000	98.495919 
2900.000000	98.506053 
2899.000000	98.528889 
2898.000000	98.553812 
2897.000000	98.570942 
2896.000000	98.577371 
2895.000000	98.577523 
2894.000000	98.578126 
2893.000000	98.582700 
2892.000000	98.590366 
2891.000000	98.598403 
2890.000000	98.604690 
2889.000000	98.608171 
2888.000000	98.608863 
2887.000000	98.608281 
2886.000000	98.608926 
2885.000000	98.612493 
2884.000000	98.619023 
2883.000000	98.628071 
2882.000000	98.639841 
2881.000000	98.654446 
2880.000000	98.670664 
2879.000000	98.686346 
2878.000000	98.700037 
2877.000000	98.711940 
2876.000000	98.723422 
2875.000000	98.735653 
2874.000000	98.748280 
2873.000000	98.759277 
2872.000000	98.766621 
2871.000000	98.770443 
2870.000000	98.773200 
2869.000000	98.777815 
2868.000000	98.786039 
2867.000000	98.798264 
2866.000000	98.813655 
2865.000000	98.830100 
2864.000000	98.845099 
2863.000000	98.857505 
2862.000000	98.867973 
2861.000000	98.877590 
2860.000000	98.887016 
2859.000000	98.897214 
2858.000000	98.909503 
2857.000000	98.923768 
2856.000000	98.937503 
2855.000000	98.947942 
2854.000000	98.954804 
2853.000000	98.960097 
2852.000000	98.965644 
2851.000000	98.971765 
2850.000000	98.978163 
2849.000000	98.984895 
2848.000000	98.992083 
2847.000000	98.999234 
2846.000000	99.005222 
2845.000000	99.008865 
2844.000000	99.009694 
2843.000000	99.008542 
2842.000000	99.007454 
2841.000000	99.008644 
2840.000000	99.013213 
2839.000000	99.020625 
2838.000000	99.029175 
2837.000000	99.037027 
2836.000000	99.043175 
2835.000000	99.047679 
2834.000000	99.050978 
2833.000000	99.053152 
2832.000000	99.054108 
2831.000000	99.054150 
2830.000000	99.053742 
2829.000000	99.052824 
2828.000000	99.051237 
2827.000000	99.049980 
2826.000000	99.051095 
2825.000000	99.055590 
2824.000000	99.061992 
2823.000000	99.067508 
2822.000000	99.070361 
2821.000000	99.070727 
2820.000000	99.070000 
2819.000000	99.069758 
2818.000000	99.071039 
2817.000000	99.073779 
2816.000000	99.076812 
2815.000000	99.078762 
2814.000000	99.079004 
2813.000000	99.077829 
2812.000000	99.076186 
2811.000000	99.075567 
2810.000000	99.077489 
2809.000000	99.082203 
2808.000000	99.087853 
2807.000000	99.091557 
2806.000000	99.091656 
2805.000000	99.088900 
2804.000000	99.085554 
2803.000000	99.083604 
2802.000000	99.083688 
2801.000000	99.085367 
2800.000000	99.088050 
2799.000000	99.091486 
2798.000000	99.095261 
2797.000000	99.098151 
2796.000000	99.098667 
2795.000000	99.096618 
2794.000000	99.093788 
2793.000000	99.092524 
2792.000000	99.093555 
2791.000000	99.095412 
2790.000000	99.096059 
2789.000000	99.094983 
2788.000000	99.093684 
2787.000000	99.094162 
2786.000000	99.096916 
2785.000000	99.100420 
2784.000000	99.102521 
2783.000000	99.102226 
2782.000000	99.100161 
2781.000000	99.097654 
2780.000000	99.095810 
2779.000000	99.095262 
2778.000000	99.096233 
2777.000000	99.098559 
2776.000000	99.101775 
2775.000000	99.105269 
2774.000000	99.108316 
2773.000000	99.110315 
2772.000000	99.111414 
2771.000000	99.112661 
2770.000000	99.114894 
2769.000000	99.117490 
2768.000000	99.118918 
2767.000000	99.118700 
2766.000000	99.118115 
2765.000000	99.118464 
2764.000000	99.119156 
2763.000000	99.118151 
2762.000000	99.114268 
2761.000000	99.108581 
2760.000000	99.103543 
2759.000000	99.101042 
2758.000000	99.101374 
2757.000000	99.103773 
2756.000000	99.107372 
2755.000000	99.111334 
2754.000000	99.114340 
2753.000000	99.114916 
2752.000000	99.112983 
2751.000000	99.110672 
2750.000000	99.110632 
2749.000000	99.113280 
2748.000000	99.116349 
2747.000000	99.117432 
2746.000000	99.116415 
2745.000000	99.115021 
2744.000000	99.114500 
2743.000000	99.114515 
2742.000000	99.114226 
2741.000000	99.113702 
2740.000000	99.113822 
2739.000000	99.115114 
2738.000000	99.117260 
2737.000000	99.119807 
2736.000000	99.122805 
2735.000000	99.126224 
2734.000000	99.129053 
2733.000000	99.129794 
2732.000000	99.128059 
2731.000000	99.125091 
2730.000000	99.122410 
2729.000000	99.120561 
2728.000000	99.119567 
2727.000000	99.119781 
2726.000000	99.121298 
2725.000000	99.122957 
2724.000000	99.123180 
2723.000000	99.122077 
2722.000000	99.121801 
2721.000000	99.124288 
2720.000000	99.128981 
2719.000000	99.133187 
2718.000000	99.134465 
2717.000000	99.132535 
2716.000000	99.129229 
2715.000000	99.126851 
2714.000000	99.126470 
2713.000000	99.127468 
2712.000000	99.128507 
2711.000000	99.128804 
2710.000000	99.128614 
2709.000000	99.128817 
2708.000000	99.130162 
2707.000000	99.132531 
2706.000000	99.134778 
2705.000000	99.135725 
2704.000000	99.135545 
2703.000000	99.135661 
2702.000000	99.136981 
2701.000000	99.138840 
2700.000000	99.140230 
2699.000000	99.141420 
2698.000000	99.143415 
2697.000000	99.146090 
2696.000000	99.147820 
2695.000000	99.147162 
2694.000000	99.144387 
2693.000000	99.141242 
2692.000000	99.139494 
2691.000000	99.139500 
2690.000000	99.139922 
2689.000000	99.139057 
2688.000000	99.136757 
2687.000000	99.134596 
2686.000000	99.133946 
2685.000000	99.134651 
2684.000000	99.136118 
2683.000000	99.138597 
2682.000000	99.142105 
2681.000000	99.144811 
2680.000000	99.144217 
2679.000000	99.140086 
2678.000000	99.135042 
2677.000000	99.132187 
2676.000000	99.133017 
2675.000000	99.137371 
2674.000000	99.143913 
2673.000000	99.150292 
2672.000000	99.154157 
2671.000000	99.154736 
2670.000000	99.152903 
2669.000000	99.149656 
2668.000000	99.145558 
2667.000000	99.141780 
2666.000000	99.140235 
2665.000000	99.141725 
2664.000000	99.144712 
2663.000000	99.146753 
2662.000000	99.146837 
2661.000000	99.145910 
2660.000000	99.145505 
2659.000000	99.146325 
2658.000000	99.147929 
2657.000000	99.149553 
2656.000000	99.151192 
2655.000000	99.153439 
2654.000000	99.155882 
2653.000000	99.156587 
2652.000000	99.154589 
2651.000000	99.152342 
2650.000000	99.153562 
2649.000000	99.158120 
2648.000000	99.161180 
2647.000000	99.158842 
2646.000000	99.153335 
2645.000000	99.150855 
2644.000000	99.154579 
2643.000000	99.161191 
2642.000000	99.164401 
2641.000000	99.161289 
2640.000000	99.155155 
2639.000000	99.152301 
2638.000000	99.155749 
2637.000000	99.162067 
2636.000000	99.165028 
2635.000000	99.162358 
2634.000000	99.157755 
2633.000000	99.156233 
2632.000000	99.159029 
2631.000000	99.163791 
2630.000000	99.167886 
2629.000000	99.169821 
2628.000000	99.168696 
2627.000000	99.164548 
2626.000000	99.159174 
2625.000000	99.154955 
2624.000000	99.152638 
2623.000000	99.151420 
2622.000000	99.151052 
2621.000000	99.152365 
2620.000000	99.155389 
2619.000000	99.158441 
2618.000000	99.159990 
2617.000000	99.160661 
2616.000000	99.162428 
2615.000000	99.166063 
2614.000000	99.170141 
2613.000000	99.172653 
2612.000000	99.173053 
2611.000000	99.172322 
2610.000000	99.171226 
2609.000000	99.169146 
2608.000000	99.165097 
2607.000000	99.159624 
2606.000000	99.155108 
2605.000000	99.153988 
2604.000000	99.156796 
2603.000000	99.161771 
2602.000000	99.166085 
2601.000000	99.167777 
2600.000000	99.167174 
2599.000000	99.166314 
2598.000000	99.166477 
2597.000000	99.166513 
2596.000000	99.164407 
2595.000000	99.160270 
2594.000000	99.156615 
2593.000000	99.155527 
2592.000000	99.156686 
2591.000000	99.158772 
2590.000000	99.161745 
2589.000000	99.166613 
2588.000000	99.173217 
2587.000000	99.179134 
2586.000000	99.181282 
2585.000000	99.178688 
2584.000000	99.173564 
2583.000000	99.169235 
2582.000000	99.166913 
2581.000000	99.165134 
2580.000000	99.162593 
2579.000000	99.160189 
2578.000000	99.159100 
2577.000000	99.157943 
2576.000000	99.153986 
2575.000000	99.147091 
2574.000000	99.140643 
2573.000000	99.138197 
2572.000000	99.140621 
2571.000000	99.146578 
2570.000000	99.153833 
2569.000000	99.159395 
2568.000000	99.160417 
2567.000000	99.156673 
2566.000000	99.151400 
2565.000000	99.148534 
2564.000000	99.149454 
2563.000000	99.152889 
2562.000000	99.157040 
2561.000000	99.160707 
2560.000000	99.162836 
2559.000000	99.162246 
2558.000000	99.158552 
2557.000000	99.153545 
2556.000000	99.151308 
2555.000000	99.155673 
2554.000000	99.166325 
2553.000000	99.177801 
2552.000000	99.183672 
2551.000000	99.181878 
2550.000000	99.175322 
2549.000000	99.168005 
2548.000000	99.162011 
2547.000000	99.157760 
2546.000000	99.155179 
2545.000000	99.154165 
2544.000000	99.155015 
2543.000000	99.158167 
2542.000000	99.162250 
2541.000000	99.163312 
2540.000000	99.158506 
2539.000000	99.150303 
2538.000000	99.144204 
2537.000000	99.142009 
2536.000000	99.140522 
2535.000000	99.137738 
2534.000000	99.136454 
2533.000000	99.139242 
2532.000000	99.142935 
2531.000000	99.141953 
2530.000000	99.135879 
2529.000000	99.130241 
2528.000000	99.129759 
2527.000000	99.133604 
2526.000000	99.137799 
2525.000000	99.139952 
2524.000000	99.140546 
2523.000000	99.141154 
2522.000000	99.142853 
2521.000000	99.145893 
2520.000000	99.149571 
2519.000000	99.152016 
2518.000000	99.150846 
2517.000000	99.145065 
2516.000000	99.136543 
2515.000000	99.128822 
2514.000000	99.124077 
2513.000000	99.122092 
2512.000000	99.122605 
2511.000000	99.126887 
2510.000000	99.135243 
2509.000000	99.144387 
2508.000000	99.150066 
2507.000000	99.151943 
2506.000000	99.153082 
2505.000000	99.154560 
2504.000000	99.153607 
2503.000000	99.148032 
2502.000000	99.139814 
2501.000000	99.133028 
2500.000000	99.130462 
2499.000000	99.133383 
2498.000000	99.141841 
2497.000000	99.152932 
2496.000000	99.160898 
2495.000000	99.161718 
2494.000000	99.156949 
2493.000000	99.151414 
2492.000000	99.148117 
2491.000000	99.146958 
2490.000000	99.147173 
2489.000000	99.148919 
2488.000000	99.152829 
2487.000000	99.159238 
2486.000000	99.167097 
2485.000000	99.172827 
2484.000000	99.171949 
2483.000000	99.163713 
2482.000000	99.153011 
2481.000000	99.145807 
2480.000000	99.143415 
2479.000000	99.142806 
2478.000000	99.141287 
2477.000000	99.138723 
2476.000000	99.136109 
2475.000000	99.134608 
2474.000000	99.135865 
2473.000000	99.140784 
2472.000000	99.147398 
2471.000000	99.151746 
2470.000000	99.151612 
2469.000000	99.148455 
2468.000000	99.145506 
2467.000000	99.144943 
2466.000000	99.146766 
2465.000000	99.149108 
2464.000000	99.149579 
2463.000000	99.147521 
2462.000000	99.145054 
2461.000000	99.144708 
2460.000000	99.145971 
2459.000000	99.145598 
2458.000000	99.141775 
2457.000000	99.136705 
2456.000000	99.134313 
2455.000000	99.136248 
2454.000000	99.140853 
2453.000000	99.145315 
2452.000000	99.147772 
2451.000000	99.147543 
2450.000000	99.144529 
2449.000000	99.139352 
2448.000000	99.134110 
2447.000000	99.132037 
2446.000000	99.135267 
2445.000000	99.142435 
2444.000000	99.148923 
2443.000000	99.150125 
2442.000000	99.144868 
2441.000000	99.136263 
2440.000000	99.129710 
2439.000000	99.129461 
2438.000000	99.135543 
2437.000000	99.143397 
2436.000000	99.147449 
2435.000000	99.145976 
2434.000000	99.142269 
2433.000000	99.140948 
2432.000000	99.143783 
2431.000000	99.149132 
2430.000000	99.153949 
2429.000000	99.155405 
2428.000000	99.151815 
2427.000000	99.143887 
2426.000000	99.135150 
2425.000000	99.129920 
2424.000000	99.130241 
2423.000000	99.135003 
2422.000000	99.141725 
2421.000000	99.148311 
2420.000000	99.153012 
2419.000000	99.153894 
2418.000000	99.149680 
2417.000000	99.141482 
2416.000000	99.132880 
2415.000000	99.127271 
2414.000000	99.125022 
2413.000000	99.123875 
2412.000000	99.122267 
2411.000000	99.121235 
2410.000000	99.122422 
2409.000000	99.125163 
2408.000000	99.126733 
2407.000000	99.125154 
2406.000000	99.120818 
2405.000000	99.115790 
2404.000000	99.112456 
2403.000000	99.112329 
2402.000000	99.114831 
2401.000000	99.117199 
2400.000000	99.116580 
2399.000000	99.112308 
2398.000000	99.105899 
2397.000000	99.099699 
2396.000000	99.096309 
2395.000000	99.097776 
2394.000000	99.103460 
2393.000000	99.109514 
2392.000000	99.112481 
2391.000000	99.112796 
2390.000000	99.112915 
2389.000000	99.113185 
2388.000000	99.112401 
2387.000000	99.111636 
2386.000000	99.113592 
2385.000000	99.117640 
2384.000000	99.119300 
2383.000000	99.116345 
2382.000000	99.112259 
2381.000000	99.111368 
2380.000000	99.113158 
2379.000000	99.114294 
2378.000000	99.114346 
2377.000000	99.116004 
2376.000000	99.120235 
2375.000000	99.124165 
2374.000000	99.123940 
2373.000000	99.117991 
2372.000000	99.107830 
2371.000000	99.097573 
2370.000000	99.091940 
2369.000000	99.092729 
2368.000000	99.097479 
2367.000000	99.102949 
2366.000000	99.108955 
2365.000000	99.117300 
2364.000000	99.127739 
2363.000000	99.137211 
2362.000000	99.141886 
2361.000000	99.139798 
2360.000000	99.133278 
2359.000000	99.126899 
2358.000000	99.123957 
2357.000000	99.125057 
2356.000000	99.130213 
2355.000000	99.139915 
2354.000000	99.149923 
2353.000000	99.154492 
2352.000000	99.151484 
2351.000000	99.144942 
2350.000000	99.140921 
2349.000000	99.140982 
2348.000000	99.143525 
2347.000000	99.145197 
2346.000000	99.145043 
2345.000000	99.144939 
2344.000000	99.146722 
2343.000000	99.152404 
2342.000000	99.159808 
2341.000000	99.165389 
2340.000000	99.166367 
2339.000000	99.164636 
2338.000000	99.163839 
2337.000000	99.164205 
2336.000000	99.162810 
2335.000000	99.157006 
2334.000000	99.148735 
2333.000000	99.142979 
2332.000000	99.143816 
2331.000000	99.147772 
2330.000000	99.149381 
2329.000000	99.145648 
2328.000000	99.143638 
2327.000000	99.149597 
2326.000000	99.164164 
2325.000000	99.179608 
2324.000000	99.188148 
2323.000000	99.189103 
2322.000000	99.187550 
2321.000000	99.187600 
2320.000000	99.186620 
2319.000000	99.180120 
2318.000000	99.169640 
2317.000000	99.161367 
2316.000000	99.159905 
2315.000000	99.162540 
2314.000000	99.165618 
2313.000000	99.167411 
2312.000000	99.169814 
2311.000000	99.171830 
2310.000000	99.171339 
2309.000000	99.166319 
2308.000000	99.158903 
2307.000000	99.151907 
2306.000000	99.147745 
2305.000000	99.146645 
2304.000000	99.148862 
2303.000000	99.153678 
2302.000000	99.159179 
2301.000000	99.161565 
2300.000000	99.159631 
2299.000000	99.156339 
2298.000000	99.156678 
2297.000000	99.160198 
2296.000000	99.161457 
2295.000000	99.156420 
2294.000000	99.148871 
2293.000000	99.145722 
2292.000000	99.149585 
2291.000000	99.157041 
2290.000000	99.164046 
2289.000000	99.169048 
2288.000000	99.171523 
2287.000000	99.170772 
2286.000000	99.167043 
2285.000000	99.161813 
2284.000000	99.155908 
2283.000000	99.149697 
2282.000000	99.144970 
2281.000000	99.144423 
2280.000000	99.147955 
2279.000000	99.152092 
2278.000000	99.153846 
2277.000000	99.153594 
2276.000000	99.153311 
2275.000000	99.153923 
2274.000000	99.155471 
2273.000000	99.157743 
2272.000000	99.159724 
2271.000000	99.159842 
2270.000000	99.158199 
2269.000000	99.157021 
2268.000000	99.157953 
2267.000000	99.160219 
2266.000000	99.162536 
2265.000000	99.164962 
2264.000000	99.167443 
2263.000000	99.168036 
2262.000000	99.164732 
2261.000000	99.158464 
2260.000000	99.152598 
2259.000000	99.149948 
2258.000000	99.151302 
2257.000000	99.156336 
2256.000000	99.163913 
2255.000000	99.171581 
2254.000000	99.176422 
2253.000000	99.177486 
2252.000000	99.176731 
2251.000000	99.176518 
2250.000000	99.176731 
2249.000000	99.175330 
2248.000000	99.171716 
2247.000000	99.168699 
2246.000000	99.169338 
2245.000000	99.173039 
2244.000000	99.176239 
2243.000000	99.176691 
2242.000000	99.175242 
2241.000000	99.173533 
2240.000000	99.172716 
2239.000000	99.175164 
2238.000000	99.183778 
2237.000000	99.196667 
2236.000000	99.205182 
2235.000000	99.201624 
2234.000000	99.188508 
2233.000000	99.176592 
2232.000000	99.173339 
2231.000000	99.176373 
2230.000000	99.178768 
2229.000000	99.177354 
2228.000000	99.173921 
2227.000000	99.170522 
2226.000000	99.166442 
2225.000000	99.160117 
2224.000000	99.153173 
2223.000000	99.151357 
2222.000000	99.159350 
2221.000000	99.173340 
2220.000000	99.181609 
2219.000000	99.176561 
2218.000000	99.165204 
2217.000000	99.162703 
2216.000000	99.174340 
2215.000000	99.188751 
2214.000000	99.191865 
2213.000000	99.183360 
2212.000000	99.174885 
2211.000000	99.174917 
2210.000000	99.181534 
2209.000000	99.189548 
2208.000000	99.197772 
2207.000000	99.205812 
2206.000000	99.208735 
2205.000000	99.201497 
2204.000000	99.188331 
2203.000000	99.181823 
2202.000000	99.189713 
2201.000000	99.205041 
2200.000000	99.212546 
2199.000000	99.204180 
2198.000000	99.185912 
2197.000000	99.170059 
2196.000000	99.164099 
2195.000000	99.167618 
2194.000000	99.176517 
2193.000000	99.186528 
2192.000000	99.193820 
2191.000000	99.196229 
2190.000000	99.195706 
2189.000000	99.197703 
2188.000000	99.205492 
2187.000000	99.214776 
2186.000000	99.215867 
2185.000000	99.202936 
2184.000000	99.180845 
2183.000000	99.161242 
2182.000000	99.152034 
2181.000000	99.152038 
2180.000000	99.155700 
2179.000000	99.160195 
2178.000000	99.166026 
2177.000000	99.173158 
2176.000000	99.179899 
2175.000000	99.185171 
2174.000000	99.189695 
2173.000000	99.195520 
2172.000000	99.206130 
2171.000000	99.225229 
2170.000000	99.251995 
2169.000000	99.278180 
2168.000000	99.293741 
2167.000000	99.295831 
2166.000000	99.289587 
2165.000000	99.281204 
2164.000000	99.274465 
2163.000000	99.273272 
2162.000000	99.280342 
2161.000000	99.289507 
2160.000000	99.285110 
2159.000000	99.256670 
2158.000000	99.212759 
2157.000000	99.173792 
2156.000000	99.152473 
2155.000000	99.147680 
2154.000000	99.153748 
2153.000000	99.167147 
2152.000000	99.183871 
2151.000000	99.196410 
2150.000000	99.197943 
2149.000000	99.189920 
2148.000000	99.182726 
2147.000000	99.185725 
2146.000000	99.196518 
2145.000000	99.202800 
2144.000000	99.196545 
2143.000000	99.183335 
2142.000000	99.174259 
2141.000000	99.171197 
2140.000000	99.165774 
2139.000000	99.153284 
2138.000000	99.141513 
2137.000000	99.141713 
2136.000000	99.153838 
2135.000000	99.165756 
2134.000000	99.167170 
2133.000000	99.160600 
2132.000000	99.156614 
2131.000000	99.159826 
2130.000000	99.162630 
2129.000000	99.154164 
2128.000000	99.134330 
2127.000000	99.115707 
2126.000000	99.110305 
2125.000000	99.117557 
2124.000000	99.128323 
2123.000000	99.137834 
2122.000000	99.148974 
2121.000000	99.163547 
2120.000000	99.177120 
2119.000000	99.184885 
2118.000000	99.187496 
2117.000000	99.187948 
2116.000000	99.186756 
2115.000000	99.183878 
2114.000000	99.181916 
2113.000000	99.182755 
2112.000000	99.183217 
2111.000000	99.179091 
2110.000000	99.172511 
2109.000000	99.170297 
2108.000000	99.174274 
2107.000000	99.177556 
2106.000000	99.172417 
2105.000000	99.159525 
2104.000000	99.147716 
2103.000000	99.145610 
2102.000000	99.153969 
2101.000000	99.164931 
2100.000000	99.168405 
2099.000000	99.160411 
2098.000000	99.145974 
2097.000000	99.134090 
2096.000000	99.130406 
2095.000000	99.134833 
2094.000000	99.144075 
2093.000000	99.154164 
2092.000000	99.161784 
2091.000000	99.165939 
2090.000000	99.168570 
2089.000000	99.171799 
2088.000000	99.174321 
2087.000000	99.172204 
2086.000000	99.163930 
2085.000000	99.153783 
2084.000000	99.149498 
2083.000000	99.156101 
2082.000000	99.171329 
2081.000000	99.186762 
2080.000000	99.194950 
2079.000000	99.196564 
2078.000000	99.199548 
2077.000000	99.210094 
2076.000000	99.225026 
2075.000000	99.234132 
2074.000000	99.229444 
2073.000000	99.212027 
2072.000000	99.191189 
2071.000000	99.177834 
2070.000000	99.177118 
2069.000000	99.185317 
2068.000000	99.193404 
2067.000000	99.194485 
2066.000000	99.188208 
2065.000000	99.179471 
2064.000000	99.174664 
2063.000000	99.178226 
2062.000000	99.189209 
2061.000000	99.199936 
2060.000000	99.201880 
2059.000000	99.195334 
2058.000000	99.190126 
2057.000000	99.194100 
2056.000000	99.204037 
2055.000000	99.211589 
2054.000000	99.215284 
2053.000000	99.221316 
2052.000000	99.233226 
2051.000000	99.246116 
2050.000000	99.252394 
2049.000000	99.250157 
2048.000000	99.244178 
2047.000000	99.240113 
2046.000000	99.239972 
2045.000000	99.242263 
2044.000000	99.244189 
2043.000000	99.243950 
2042.000000	99.242317 
2041.000000	99.241898 
2040.000000	99.243953 
2039.000000	99.246244 
2038.000000	99.245033 
2037.000000	99.239585 
2036.000000	99.233910 
2035.000000	99.232263 
2034.000000	99.232692 
2033.000000	99.228038 
2032.000000	99.216193 
2031.000000	99.206824 
2030.000000	99.212813 
2029.000000	99.234651 
2028.000000	99.257361 
2027.000000	99.264436 
2026.000000	99.251429 
2025.000000	99.226371 
2024.000000	99.202372 
2023.000000	99.191015 
2022.000000	99.196467 
2021.000000	99.210674 
2020.000000	99.218034 
2019.000000	99.210421 
2018.000000	99.195589 
2017.000000	99.186968 
2016.000000	99.187520 
2015.000000	99.189475 
2014.000000	99.187377 
2013.000000	99.183671 
2012.000000	99.182501 
2011.000000	99.184754 
2010.000000	99.190274 
2009.000000	99.199316 
2008.000000	99.209390 
2007.000000	99.214964 
2006.000000	99.213127 
2005.000000	99.207040 
2004.000000	99.201615 
2003.000000	99.197709 
2002.000000	99.192205 
2001.000000	99.182027 
2000.000000	99.166935 
1999.000000	99.149354 
1998.000000	99.132771 
1997.000000	99.120405 
1996.000000	99.114983 
1995.000000	99.118389 
1994.000000	99.129929 
1993.000000	99.144888 
1992.000000	99.156729 
1991.000000	99.161817 
1990.000000	99.160764 
1989.000000	99.155731 
1988.000000	99.150242 
1987.000000	99.151453 
1986.000000	99.166875 
1985.000000	99.195269 
1984.000000	99.224008 
1983.000000	99.239508 
1982.000000	99.239103 
1981.000000	99.230676 
1980.000000	99.222994 
1979.000000	99.219083 
1978.000000	99.216596 
1977.000000	99.210414 
1976.000000	99.196433 
1975.000000	99.176596 
1974.000000	99.159623 
1973.000000	99.153286 
1972.000000	99.155973 
1971.000000	99.159529 
1970.000000	99.160543 
1969.000000	99.164690 
1968.000000	99.177889 
1967.000000	99.196100 
1966.000000	99.208418 
1965.000000	99.209480 
1964.000000	99.204075 
1963.000000	99.199270 
1962.000000	99.196603 
1961.000000	99.193663 
1960.000000	99.189772 
1959.000000	99.186214 
1958.000000	99.182302 
1957.000000	99.175799 
1956.000000	99.167372 
1955.000000	99.160291 
1954.000000	99.154426 
1953.000000	99.144692 
1952.000000	99.128334 
1951.000000	99.111006 
1950.000000	99.102065 
1949.000000	99.105004 
1948.000000	99.115234 
1947.000000	99.126208 
1946.000000	99.133977 
1945.000000	99.136408 
1944.000000	99.132729 
1943.000000	99.125588 
1942.000000	99.120206 
1941.000000	99.118887 
1940.000000	99.119155 
1939.000000	99.118345 
1938.000000	99.116742 
1937.000000	99.115929 
1936.000000	99.116432 
1935.000000	99.117378 
1934.000000	99.116845 
1933.000000	99.112547 
1932.000000	99.104224 
1931.000000	99.096105 
1930.000000	99.094942 
1929.000000	99.103517 
1928.000000	99.116899 
1927.000000	99.126567 
1926.000000	99.126998 
1925.000000	99.117818 
1924.000000	99.103541 
1923.000000	99.092513 
1922.000000	99.092498 
1921.000000	99.103690 
1920.000000	99.118188 
1919.000000	99.127485 
1918.000000	99.129256 
1917.000000	99.126849 
1916.000000	99.123657 
1915.000000	99.121362 
1914.000000	99.121952 
1913.000000	99.126877 
1912.000000	99.134228 
1911.000000	99.139419 
1910.000000	99.139223 
1909.000000	99.133908 
1908.000000	99.126214 
1907.000000	99.120098 
1906.000000	99.119256 
1905.000000	99.123445 
1904.000000	99.126767 
1903.000000	99.122094 
1902.000000	99.108008 
1901.000000	99.090233 
1900.000000	99.076938 
1899.000000	99.073141 
1898.000000	99.077933 
1897.000000	99.085002 
1896.000000	99.087285 
1895.000000	99.083533 
1894.000000	99.079499 
1893.000000	99.080532 
1892.000000	99.085139 
1891.000000	99.087905 
1890.000000	99.086628 
1889.000000	99.084611 
1888.000000	99.086092 
1887.000000	99.092147 
1886.000000	99.100669 
1885.000000	99.107554 
1884.000000	99.109061 
1883.000000	99.105096 
1882.000000	99.099194 
1881.000000	99.094439 
1880.000000	99.091096 
1879.000000	99.088436 
1878.000000	99.086124 
1877.000000	99.082889 
1876.000000	99.077563 
1875.000000	99.073237 
1874.000000	99.076390 
1873.000000	99.088556 
1872.000000	99.101771 
1871.000000	99.105728 
1870.000000	99.097975 
1869.000000	99.084988 
1868.000000	99.072709 
1867.000000	99.060994 
1866.000000	99.048989 
1865.000000	99.038393 
1864.000000	99.031795 
1863.000000	99.031957 
1862.000000	99.041196 
1861.000000	99.057549 
1860.000000	99.072627 
1859.000000	99.078482 
1858.000000	99.076645 
1857.000000	99.075865 
1856.000000	99.081478 
1855.000000	99.091309 
1854.000000	99.100688 
1853.000000	99.106829 
1852.000000	99.108368 
1851.000000	99.104328 
1850.000000	99.095903 
1849.000000	99.086617 
1848.000000	99.079314 
1847.000000	99.074340 
1846.000000	99.071659 
1845.000000	99.071774 
1844.000000	99.073580 
1843.000000	99.074909 
1842.000000	99.075953 
1841.000000	99.078534 
1840.000000	99.083335 
1839.000000	99.089178 
1838.000000	99.094380 
1837.000000	99.098008 
1836.000000	99.100205 
1835.000000	99.102104 
1834.000000	99.105081 
1833.000000	99.109339 
1832.000000	99.113266 
1831.000000	99.113730 
1830.000000	99.108881 
1829.000000	99.101218 
1828.000000	99.095601 
1827.000000	99.093997 
1826.000000	99.095163 
1825.000000	99.097449 
1824.000000	99.099531 
1823.000000	99.100187 
1822.000000	99.098708 
1821.000000	99.094608 
1820.000000	99.087430 
1819.000000	99.077842 
1818.000000	99.069062 
1817.000000	99.065187 
1816.000000	99.066710 
1815.000000	99.070003 
1814.000000	99.072355 
1813.000000	99.075282 
1812.000000	99.081949 
1811.000000	99.092187 
1810.000000	99.102879 
1809.000000	99.112161 
1808.000000	99.118811 
1807.000000	99.120065 
1806.000000	99.114418 
1805.000000	99.104903 
1804.000000	99.096745 
1803.000000	99.092352 
1802.000000	99.090775 
1801.000000	99.091286 
1800.000000	99.092993 
1799.000000	99.093898 
1798.000000	99.093386 
1797.000000	99.092868 
1796.000000	99.093428 
1795.000000	99.095059 
1794.000000	99.097594 
1793.000000	99.100767 
1792.000000	99.103673 
1791.000000	99.104866 
1790.000000	99.104196 
1789.000000	99.104040 
1788.000000	99.107084 
1787.000000	99.113370 
1786.000000	99.119813 
1785.000000	99.122502 
1784.000000	99.119740 
1783.000000	99.113971 
1782.000000	99.109791 
1781.000000	99.109637 
1780.000000	99.110618 
1779.000000	99.108472 
1778.000000	99.103778 
1777.000000	99.100804 
1776.000000	99.102082 
1775.000000	99.107594 
1774.000000	99.116794 
1773.000000	99.127273 
1772.000000	99.133019 
1771.000000	99.130627 
1770.000000	99.123636 
1769.000000	99.116693 
1768.000000	99.112561 
1767.000000	99.111292 
1766.000000	99.111190 
1765.000000	99.111396 
1764.000000	99.111993 
1763.000000	99.113543 
1762.000000	99.116743 
1761.000000	99.121837 
1760.000000	99.127481 
1759.000000	99.131468 
1758.000000	99.132389 
1757.000000	99.130491 
1756.000000	99.126685 
1755.000000	99.121717 
1754.000000	99.116098 
1753.000000	99.110943 
1752.000000	99.109319 
1751.000000	99.114980 
1750.000000	99.126554 
1749.000000	99.137154 
1748.000000	99.142428 
1747.000000	99.142711 
1746.000000	99.139987 
1745.000000	99.135913 
1744.000000	99.132375 
1743.000000	99.131325 
1742.000000	99.132786 
1741.000000	99.135521 
1740.000000	99.138464 
1739.000000	99.140966 
1738.000000	99.142317 
1737.000000	99.141726 
1736.000000	99.138541 
1735.000000	99.132362 
1734.000000	99.124323 
1733.000000	99.118808 
1732.000000	99.118935 
1731.000000	99.123450 
1730.000000	99.129598 
1729.000000	99.134351 
1728.000000	99.136026 
1727.000000	99.135177 
1726.000000	99.132979 
1725.000000	99.129674 
1724.000000	99.125593 
1723.000000	99.123118 
1722.000000	99.124667 
1721.000000	99.130248 
1720.000000	99.137442 
1719.000000	99.142700 
1718.000000	99.142494 
1717.000000	99.137724 
1716.000000	99.132519 
1715.000000	99.127726 
1714.000000	99.123497 
1713.000000	99.121079 
1712.000000	99.120510 
1711.000000	99.121092 
1710.000000	99.122705 
1709.000000	99.125261 
1708.000000	99.127560 
1707.000000	99.128480 
1706.000000	99.130017 
1705.000000	99.134462 
1704.000000	99.137960 
1703.000000	99.132473 
1702.000000	99.116356 
1701.000000	99.101362 
1700.000000	99.102054 
1699.000000	99.112110 
1698.000000	99.118178 
1697.000000	99.119135 
1696.000000	99.119955 
1695.000000	99.122094 
1694.000000	99.124037 
1693.000000	99.124543 
1692.000000	99.122699 
1691.000000	99.118964 
1690.000000	99.115164 
1689.000000	99.112893 
1688.000000	99.111063 
1687.000000	99.106822 
1686.000000	99.100640 
1685.000000	99.096697 
1684.000000	99.096072 
1683.000000	99.095511 
1682.000000	99.094749 
1681.000000	99.093759 
1680.000000	99.093533 
1679.000000	99.094320 
1678.000000	99.094932 
1677.000000	99.094726 
1676.000000	99.094578 
1675.000000	99.095808 
1674.000000	99.097624 
1673.000000	99.098392 
1672.000000	99.097428 
1671.000000	99.096371 
1670.000000	99.096746 
1669.000000	99.097724 
1668.000000	99.098394 
1667.000000	99.098307 
1666.000000	99.095271 
1665.000000	99.087980 
1664.000000	99.079372 
1663.000000	99.075470 
1662.000000	99.078826 
1661.000000	99.085734 
1660.000000	99.091074 
1659.000000	99.094163 
1658.000000	99.097114 
1657.000000	99.099207 
1656.000000	99.095722 
1655.000000	99.085761 
1654.000000	99.078395 
1653.000000	99.077997 
1652.000000	99.077716 
1651.000000	99.079096 
1650.000000	99.077799 
1649.000000	99.072242 
1648.000000	99.065442 
1647.000000	99.060236 
1646.000000	99.056805 
1645.000000	99.056767 
1644.000000	99.060671 
1643.000000	99.065898 
1642.000000	99.069571 
1641.000000	99.070973 
1640.000000	99.070553 
1639.000000	99.068788 
1638.000000	99.066561 
1637.000000	99.065606 
1636.000000	99.065873 
1635.000000	99.065194 
1634.000000	99.066068 
1633.000000	99.069150 
1632.000000	99.071775 
1631.000000	99.072757 
1630.000000	99.072689 
1629.000000	99.072350 
1628.000000	99.071876 
1627.000000	99.071576 
1626.000000	99.072477 
1625.000000	99.075850 
1624.000000	99.081559 
1623.000000	99.087189 
1622.000000	99.090496 
1621.000000	99.091912 
1620.000000	99.092253 
1619.000000	99.092518 
1618.000000	99.094626 
1617.000000	99.098385 
1616.000000	99.100190 
1615.000000	99.098898 
1614.000000	99.095514 
1613.000000	99.090816 
1612.000000	99.086502 
1611.000000	99.083482 
1610.000000	99.080719 
1609.000000	99.077521 
1608.000000	99.075339 
1607.000000	99.075794 
1606.000000	99.077828 
1605.000000	99.079613 
1604.000000	99.081470 
1603.000000	99.085386 
1602.000000	99.091326 
1601.000000	99.096183 
1600.000000	99.097967 
1599.000000	99.098508 
1598.000000	99.100547 
1597.000000	99.104292 
1596.000000	99.108264 
1595.000000	99.112013 
1594.000000	99.116067 
1593.000000	99.119824 
1592.000000	99.121849 
1591.000000	99.122136 
1590.000000	99.122285 
1589.000000	99.123308 
1588.000000	99.124962 
1587.000000	99.127019 
1586.000000	99.129037 
1585.000000	99.129558 
1584.000000	99.127355 
1583.000000	99.123076 
1582.000000	99.119796 
1581.000000	99.119959 
1580.000000	99.123085 
1579.000000	99.127192 
1578.000000	99.131374 
1577.000000	99.134474 
1576.000000	99.133965 
1575.000000	99.132164 
1574.000000	99.133761 
1573.000000	99.136332 
1572.000000	99.135967 
1571.000000	99.133678 
1570.000000	99.133322 
1569.000000	99.135265 
1568.000000	99.136579 
1567.000000	99.135546 
1566.000000	99.133138 
1565.000000	99.131745 
1564.000000	99.132679 
1563.000000	99.134219 
1562.000000	99.133950 
1561.000000	99.131648 
1560.000000	99.132157 
1559.000000	99.136801 
1558.000000	99.135880 
1557.000000	99.134196 
1556.000000	99.134570 
1555.000000	99.134322 
1554.000000	99.132121 
1553.000000	99.127996 
1552.000000	99.123082 
1551.000000	99.119714 
1550.000000	99.120340 
1549.000000	99.123814 
1548.000000	99.126266 
1547.000000	99.125419 
1546.000000	99.122032 
1545.000000	99.118803 
1544.000000	99.117253 
1543.000000	99.115957 
1542.000000	99.114767 
1541.000000	99.115435 
1540.000000	99.113340 
1539.000000	99.105332 
1538.000000	99.100427 
1537.000000	99.100510 
1536.000000	99.100701 
1535.000000	99.099276 
1534.000000	99.098632 
1533.000000	99.099501 
1532.000000	99.098614 
1531.000000	99.094014 
1530.000000	99.088028 
1529.000000	99.083927 
1528.000000	99.081996 
1527.000000	99.080897 
1526.000000	99.080822 
1525.000000	99.082824 
1524.000000	99.085789 
1523.000000	99.088422 
1522.000000	99.092385 
1521.000000	99.098398 
1520.000000	99.101349 
1519.000000	99.096841 
1518.000000	99.086592 
1517.000000	99.076121 
1516.000000	99.069140 
1515.000000	99.065278 
1514.000000	99.063074 
1513.000000	99.061850 
1512.000000	99.060936 
1511.000000	99.059231 
1510.000000	99.055345 
1509.000000	99.050344 
1508.000000	99.050948 
1507.000000	99.062410 
1506.000000	99.071252 
1505.000000	99.069346 
1504.000000	99.063193 
1503.000000	99.056522 
1502.000000	99.052100 
1501.000000	99.052802 
1500.000000	99.059047 
1499.000000	99.068004 
1498.000000	99.075598 
1497.000000	99.080253 
1496.000000	99.081889 
1495.000000	99.078532 
1494.000000	99.068616 
1493.000000	99.054302 
1492.000000	99.040181 
1491.000000	99.031095 
1490.000000	99.028371 
1489.000000	99.028182 
1488.000000	99.025025 
1487.000000	99.017761 
1486.000000	99.010611 
1485.000000	99.006898 
1484.000000	99.006175 
1483.000000	99.006578 
1482.000000	99.006533 
1481.000000	99.004801 
1480.000000	99.000636 
1479.000000	98.994390 
1478.000000	98.988036 
1477.000000	98.984125 
1476.000000	98.983547 
1475.000000	98.983646 
1474.000000	98.983053 
1473.000000	98.985272 
1472.000000	98.991570 
1471.000000	98.996315 
1470.000000	98.995875 
1469.000000	98.992755 
1468.000000	98.991150 
1467.000000	98.993016 
1466.000000	98.997734 
1465.000000	99.002907 
1464.000000	99.005216 
1463.000000	99.003949 
1462.000000	99.001509 
1461.000000	99.000615 
1460.000000	99.001855 
1459.000000	99.002923 
1458.000000	98.998519 
1457.000000	98.984901 
1456.000000	98.967701 
1455.000000	98.954853 
1454.000000	98.947632 
1453.000000	98.944524 
1452.000000	98.943026 
1451.000000	98.941068 
1450.000000	98.939726 
1449.000000	98.942561 
1448.000000	98.949820 
1447.000000	98.955804 
1446.000000	98.956326 
1445.000000	98.954215 
1444.000000	98.953513 
1443.000000	98.954355 
1442.000000	98.954310 
1441.000000	98.952402 
1440.000000	98.950439 
1439.000000	98.950681 
1438.000000	98.952583 
1437.000000	98.953142 
1436.000000	98.950393 
1435.000000	98.944816 
1434.000000	98.938780 
1433.000000	98.935203 
1432.000000	98.935365 
1431.000000	98.938468 
1430.000000	98.941567 
1429.000000	98.941787 
1428.000000	98.938899 
1427.000000	98.934281 
1426.000000	98.928927 
1425.000000	98.922998 
1424.000000	98.917177 
1423.000000	98.912167 
1422.000000	98.906117 
1421.000000	98.896621 
1420.000000	98.883743 
1419.000000	98.870222 
1418.000000	98.856123 
1417.000000	98.839579 
1416.000000	98.822457 
1415.000000	98.806920 
1414.000000	98.791465 
1413.000000	98.773161 
1412.000000	98.753220 
1411.000000	98.736807 
1410.000000	98.725961 
1409.000000	98.718463 
1408.000000	98.713150 
1407.000000	98.710715 
1406.000000	98.711159 
1405.000000	98.714855 
1404.000000	98.724023 
1403.000000	98.738267 
1402.000000	98.752215 
1401.000000	98.762094 
1400.000000	98.769912 
1399.000000	98.778451 
1398.000000	98.781269 
1397.000000	98.766073 
1396.000000	98.730562 
1395.000000	98.692074 
1394.000000	98.676732 
1393.000000	98.694138 
1392.000000	98.733186 
1391.000000	98.776367 
1390.000000	98.810115 
1389.000000	98.828131 
1388.000000	98.831160 
1387.000000	98.824342 
1386.000000	98.812667 
1385.000000	98.800148 
1384.000000	98.790830 
1383.000000	98.787379 
1382.000000	98.789226 
1381.000000	98.794641 
1380.000000	98.803183 
1379.000000	98.814689 
1378.000000	98.826740 
1377.000000	98.835600 
1376.000000	98.840722 
1375.000000	98.846491 
1374.000000	98.857647 
1373.000000	98.872903 
1372.000000	98.887161 
1371.000000	98.898946 
1370.000000	98.911268 
1369.000000	98.925676 
1368.000000	98.940693 
1367.000000	98.954391 
1366.000000	98.965904 
1365.000000	98.974881 
1364.000000	98.980955 
1363.000000	98.985458 
1362.000000	98.991334 
1361.000000	98.998973 
1360.000000	99.005544 
1359.000000	99.009648 
1358.000000	99.013461 
1357.000000	99.019498 
1356.000000	99.027322 
1355.000000	99.034629 
1354.000000	99.040340 
1353.000000	99.044678 
1352.000000	99.046522 
1351.000000	99.044169 
1350.000000	99.039752 
1349.000000	99.037398 
1348.000000	99.039406 
1347.000000	99.045248 
1346.000000	99.053478 
1345.000000	99.061939 
1344.000000	99.067559 
1343.000000	99.068486 
1342.000000	99.066286 
1341.000000	99.063996 
1340.000000	99.062581 
1339.000000	99.061025 
1338.000000	99.059195 
1337.000000	99.058596 
1336.000000	99.060016 
1335.000000	99.062238 
1334.000000	99.064086 
1333.000000	99.066093 
1332.000000	99.069050 
1331.000000	99.072352 
1330.000000	99.074594 
1329.000000	99.074698 
1328.000000	99.072582 
1327.000000	99.069400 
1326.000000	99.067144 
1325.000000	99.066409 
1324.000000	99.066562 
1323.000000	99.067142 
1322.000000	99.068001 
1321.000000	99.068274 
1320.000000	99.066929 
1319.000000	99.064672 
1318.000000	99.063758 
1317.000000	99.065115 
1316.000000	99.066632 
1315.000000	99.065464 
1314.000000	99.061509 
1313.000000	99.057912 
1312.000000	99.057797 
1311.000000	99.061146 
1310.000000	99.065336 
1309.000000	99.067953 
1308.000000	99.068447 
1307.000000	99.067311 
1306.000000	99.065073 
1305.000000	99.062007 
1304.000000	99.059360 
1303.000000	99.058975 
1302.000000	99.061435 
1301.000000	99.064904 
1300.000000	99.066472 
1299.000000	99.064494 
1298.000000	99.059648 
1297.000000	99.054312 
1296.000000	99.050927 
1295.000000	99.050687 
1294.000000	99.052801 
1293.000000	99.055045 
1292.000000	99.055241 
1291.000000	99.052410 
1290.000000	99.047222 
1289.000000	99.041816 
1288.000000	99.038473 
1287.000000	99.037288 
1286.000000	99.035244 
1285.000000	99.029141 
1284.000000	99.019767 
1283.000000	99.011572 
1282.000000	99.007728 
1281.000000	99.006954 
1280.000000	99.005885 
1279.000000	99.002870 
1278.000000	98.997913 
1277.000000	98.990658 
1276.000000	98.980639 
1275.000000	98.969348 
1274.000000	98.959784 
1273.000000	98.953576 
1272.000000	98.949702 
1271.000000	98.945847 
1270.000000	98.939817 
1269.000000	98.930166 
1268.000000	98.917213 
1267.000000	98.903465 
1266.000000	98.891497 
1265.000000	98.881595 
1264.000000	98.872416 
1263.000000	98.863058 
1262.000000	98.853200 
1261.000000	98.842348 
1260.000000	98.830891 
1259.000000	98.821218 
1258.000000	98.815277 
1257.000000	98.811753 
1256.000000	98.807646 
1255.000000	98.802086 
1254.000000	98.796284 
1253.000000	98.790264 
1252.000000	98.782596 
1251.000000	98.774034 
1250.000000	98.768582 
1249.000000	98.769664 
1248.000000	98.777067 
1247.000000	98.787838 
1246.000000	98.797334 
1245.000000	98.799098 
1244.000000	98.787968 
1243.000000	98.766768 
1242.000000	98.747789 
1241.000000	98.743415 
1240.000000	98.754808 
1239.000000	98.771349 
1238.000000	98.780805 
1237.000000	98.778546 
1236.000000	98.767609 
1235.000000	98.753066 
1234.000000	98.737937 
1233.000000	98.723135 
1232.000000	98.709273 
1231.000000	98.697451 
1230.000000	98.688143 
1229.000000	98.679973 
1228.000000	98.670744 
1227.000000	98.660173 
1226.000000	98.650785 
1225.000000	98.645105 
1224.000000	98.642365 
1223.000000	98.638934 
1222.000000	98.631932 
1221.000000	98.621584 
1220.000000	98.610103 
1219.000000	98.599176 
1218.000000	98.588688 
1217.000000	98.577227 
1216.000000	98.563476 
1215.000000	98.547427 
1214.000000	98.530514 
1213.000000	98.514288 
1212.000000	98.498665 
1211.000000	98.481448 
1210.000000	98.460132 
1209.000000	98.434461 
1208.000000	98.406973 
1207.000000	98.380778 
1206.000000	98.357036 
1205.000000	98.334888 
1204.000000	98.313212 
1203.000000	98.291284 
1202.000000	98.267863 
1201.000000	98.241298 
1200.000000	98.211560 
1199.000000	98.181177 
1198.000000	98.152945 
1197.000000	98.127358 
1196.000000	98.103131 
1195.000000	98.079106 
1194.000000	98.054321 
1193.000000	98.026965 
1192.000000	97.995318 
1191.000000	97.960085 
1190.000000	97.924624 
1189.000000	97.892460 
1188.000000	97.865019 
1187.000000	97.841147 
1186.000000	97.817654 
1185.000000	97.790679 
1184.000000	97.757856 
1183.000000	97.719633 
1182.000000	97.678309 
1181.000000	97.636045 
1180.000000	97.594206 
1179.000000	97.553629 
1178.000000	97.514041 
1177.000000	97.473584 
1176.000000	97.430502 
1175.000000	97.385471 
1174.000000	97.341200 
1173.000000	97.299491 
1172.000000	97.259821 
1171.000000	97.220878 
1170.000000	97.182317 
1169.000000	97.144534 
1168.000000	97.107641 
1167.000000	97.071659 
1166.000000	97.038084 
1165.000000	97.011134 
1164.000000	96.996689 
1163.000000	96.998647 
1162.000000	97.015534 
1161.000000	97.040770 
1160.000000	97.066073 
1159.000000	97.084618 
1158.000000	97.092302 
1157.000000	97.087692 
1156.000000	97.071027 
1155.000000	97.042911 
1154.000000	97.004316 
1153.000000	96.958240 
1152.000000	96.910228 
1151.000000	96.865442 
1150.000000	96.825069 
1149.000000	96.786865 
1148.000000	96.748881 
1147.000000	96.710828 
1146.000000	96.672147 
1145.000000	96.631559 
1144.000000	96.589504 
1143.000000	96.548864 
1142.000000	96.511820 
1141.000000	96.477314 
1140.000000	96.442557 
1139.000000	96.405650 
1138.000000	96.366110 
1137.000000	96.324476 
1136.000000	96.282302 
1135.000000	96.241140 
1134.000000	96.200829 
1133.000000	96.160041 
1132.000000	96.118684 
1131.000000	96.077934 
1130.000000	96.037655 
1129.000000	95.995921 
1128.000000	95.951675 
1127.000000	95.905867 
1126.000000	95.859645 
1125.000000	95.813536 
1124.000000	95.768518 
1123.000000	95.725174 
1122.000000	95.681351 
1121.000000	95.633779 
1120.000000	95.582877 
1119.000000	95.532850 
1118.000000	95.485899 
1117.000000	95.439556 
1116.000000	95.391170 
1115.000000	95.341740 
1114.000000	95.293364 
1113.000000	95.245847 
1112.000000	95.198200 
1111.000000	95.151237 
1110.000000	95.106402 
1109.000000	95.063570 
1108.000000	95.021671 
1107.000000	94.979687 
1106.000000	94.936463 
1105.000000	94.891457 
1104.000000	94.846135 
1103.000000	94.802615 
1102.000000	94.761136 
1101.000000	94.721146 
1100.000000	94.684601 
1099.000000	94.652895 
1098.000000	94.623021 
1097.000000	94.590132 
1096.000000	94.554245 
1095.000000	94.519042 
1094.000000	94.483801 
1093.000000	94.442462 
1092.000000	94.392199 
1091.000000	94.337062 
1090.000000	94.280835 
1089.000000	94.221954 
1088.000000	94.158831 
1087.000000	94.095229 
1086.000000	94.036283 
1085.000000	93.982643 
1084.000000	93.931795 
1083.000000	93.881883 
1082.000000	93.831657 
1081.000000	93.780004 
1080.000000	93.728063 
1079.000000	93.678929 
1078.000000	93.633692 
1077.000000	93.591062 
1076.000000	93.551493 
1075.000000	93.517045 
1074.000000	93.486308 
1073.000000	93.454347 
1072.000000	93.417480 
1071.000000	93.371100 
1070.000000	93.302920 
1069.000000	93.199756 
1068.000000	93.067602 
1067.000000	92.937358 
1066.000000	92.841290 
1065.000000	92.785578 
1064.000000	92.750403 
1063.000000	92.710941 
1062.000000	92.651665 
1061.000000	92.566792 
1060.000000	92.459310 
1059.000000	92.342363 
1058.000000	92.234164 
1057.000000	92.145742 
1056.000000	92.073383 
1055.000000	92.002810 
1054.000000	91.920599 
1053.000000	91.824049 
1052.000000	91.721824 
1051.000000	91.623895 
1050.000000	91.531286 
1049.000000	91.438918 
1048.000000	91.346630 
1047.000000	91.260396 
1046.000000	91.182534 
1045.000000	91.108045 
1044.000000	91.032395 
1043.000000	90.957041 
1042.000000	90.884943 
1041.000000	90.815381 
1040.000000	90.746395 
1039.000000	90.679421 
1038.000000	90.619295 
1037.000000	90.571640 
1036.000000	90.540561 
1035.000000	90.525802 
1034.000000	90.521580 
1033.000000	90.520111 
1032.000000	90.514679 
1031.000000	90.497863 
1030.000000	90.463419 
1029.000000	90.417435 
1028.000000	90.382987 
1027.000000	90.382473 
1026.000000	90.413932 
1025.000000	90.452734 
1024.000000	90.476864 
1023.000000	90.482645 
1022.000000	90.477001 
1021.000000	90.465583 
1020.000000	90.452239 
1019.000000	90.441240 
1018.000000	90.433883 
1017.000000	90.427049 
1016.000000	90.418386 
1015.000000	90.409309 
1014.000000	90.401656 
1013.000000	90.395626 
1012.000000	90.391689 
1011.000000	90.389976 
1010.000000	90.387919 
1009.000000	90.383766 
1008.000000	90.381984 
1007.000000	90.389193 
1006.000000	90.405066 
1005.000000	90.423726 
1004.000000	90.443780 
1003.000000	90.469608 
1002.000000	90.502280 
1001.000000	90.536719 
1000.000000	90.569165 
999.000000	 90.600592 
998.000000	 90.631617 
997.000000	 90.660973 
996.000000	 90.690730 
995.000000	 90.726350 
994.000000	 90.769135 
993.000000	 90.813923 
992.000000	 90.855813 
991.000000	 90.894277 
990.000000	 90.930209 
989.000000	 90.964723 
988.000000	 91.001549 
987.000000	 91.044724 
986.000000	 91.093122 
985.000000	 91.143030 
984.000000	 91.196339 
983.000000	 91.259366 
982.000000	 91.332719 
981.000000	 91.409261 
980.000000	 91.483770 
979.000000	 91.558222 
978.000000	 91.635975 
977.000000	 91.717125 
976.000000	 91.801613 
975.000000	 91.890894 
974.000000	 91.984041 
973.000000	 92.077263 
972.000000	 92.169233 
971.000000	 92.262128 
970.000000	 92.356029 
969.000000	 92.447496 
968.000000	 92.535424 
967.000000	 92.623259 
966.000000	 92.713161 
965.000000	 92.802339 
964.000000	 92.887298 
963.000000	 92.967825 
962.000000	 93.044942 
961.000000	 93.118668 
960.000000	 93.189697 
959.000000	 93.259828 
958.000000	 93.328836 
957.000000	 93.393864 
956.000000	 93.453543 
955.000000	 93.510128 
954.000000	 93.566342 
953.000000	 93.622513 
952.000000	 93.677423 
951.000000	 93.729278 
950.000000	 93.775485 
949.000000	 93.814551 
948.000000	 93.848822 
947.000000	 93.882571 
946.000000	 93.917026 
945.000000	 93.950134 
944.000000	 93.980916 
943.000000	 94.010110 
942.000000	 94.036264 
941.000000	 94.055766 
940.000000	 94.068381 
939.000000	 94.079197 
938.000000	 94.093313 
937.000000	 94.111306 
936.000000	 94.130992 
935.000000	 94.150468 
934.000000	 94.168119 
933.000000	 94.182875 
932.000000	 94.196223 
931.000000	 94.211596 
930.000000	 94.230516 
929.000000	 94.251510 
928.000000	 94.273190 
927.000000	 94.295375 
926.000000	 94.316573 
925.000000	 94.333849 
924.000000	 94.346437 
923.000000	 94.356412 
922.000000	 94.364449 
921.000000	 94.368007 
920.000000	 94.365609 
919.000000	 94.360411 
918.000000	 94.357399 
917.000000	 94.358581 
916.000000	 94.362373 
915.000000	 94.366452 
914.000000	 94.370538 
913.000000	 94.377797 
912.000000	 94.393457 
911.000000	 94.419969 
910.000000	 94.453561 
909.000000	 94.488127 
908.000000	 94.522457 
907.000000	 94.560828 
906.000000	 94.606506 
905.000000	 94.657867 
904.000000	 94.711726 
903.000000	 94.768072 
902.000000	 94.830516 
901.000000	 94.902968 
900.000000	 94.985103 
899.000000	 95.069786 
898.000000	 95.146610 
897.000000	 95.210347 
896.000000	 95.264590 
895.000000	 95.316048 
894.000000	 95.368314 
893.000000	 95.423328 
892.000000	 95.484286 
891.000000	 95.551544 
890.000000	 95.618127 
889.000000	 95.675503 
888.000000	 95.723040 
887.000000	 95.766565 
886.000000	 95.808502 
885.000000	 95.845592 
884.000000	 95.876768 
883.000000	 95.906664 
882.000000	 95.938774 
881.000000	 95.970567 
880.000000	 95.999148 
879.000000	 96.027804 
878.000000	 96.062379 
877.000000	 96.102895 
876.000000	 96.142503 
875.000000	 96.174374 
874.000000	 96.197836 
873.000000	 96.218553 
872.000000	 96.244139 
871.000000	 96.278744 
870.000000	 96.320129 
869.000000	 96.361831 
868.000000	 96.398782 
867.000000	 96.431246 
866.000000	 96.464080 
865.000000	 96.502603 
864.000000	 96.548548 
863.000000	 96.599071 
862.000000	 96.649508 
861.000000	 96.696875 
860.000000	 96.740351 
859.000000	 96.779963 
858.000000	 96.817541 
857.000000	 96.858045 
856.000000	 96.905429 
855.000000	 96.955716 
854.000000	 96.998177 
853.000000	 97.026135 
852.000000	 97.043589 
851.000000	 97.058757 
850.000000	 97.074549 
849.000000	 97.088971 
848.000000	 97.101765 
847.000000	 97.115361 
846.000000	 97.130171 
845.000000	 97.143628 
844.000000	 97.154239 
843.000000	 97.162919 
842.000000	 97.169664 
841.000000	 97.172013 
840.000000	 97.168158 
839.000000	 97.159775 
838.000000	 97.150457 
837.000000	 97.141726 
836.000000	 97.130948 
835.000000	 97.113936 
834.000000	 97.091111 
833.000000	 97.070248 
832.000000	 97.059239 
831.000000	 97.055349 
830.000000	 97.047370 
829.000000	 97.032548 
828.000000	 97.025181 
827.000000	 97.039931 
826.000000	 97.069893 
825.000000	 97.092473 
824.000000	 97.097567 
823.000000	 97.098233 
822.000000	 97.110544 
821.000000	 97.134046 
820.000000	 97.156750 
819.000000	 97.169921 
818.000000	 97.172902 
817.000000	 97.169474 
816.000000	 97.163509 
815.000000	 97.154425 
814.000000	 97.134060 
813.000000	 97.091665 
812.000000	 97.024658 
811.000000	 96.941163 
810.000000	 96.849168 
809.000000	 96.746384 
808.000000	 96.624025 
807.000000	 96.477231 
806.000000	 96.308096 
805.000000	 96.121795 
804.000000	 95.925680 
803.000000	 95.731593 
802.000000	 95.553851 
801.000000	 95.403868 
800.000000	 95.288329 
799.000000	 95.210454 
798.000000	 95.170092 
797.000000	 95.163814 
796.000000	 95.186130 
795.000000	 95.228986 
794.000000	 95.281204 
793.000000	 95.332481 
792.000000	 95.377706 
791.000000	 95.414047 
790.000000	 95.435775 
789.000000	 95.437738 
788.000000	 95.423380 
787.000000	 95.402481 
786.000000	 95.379081 
785.000000	 95.346971 
784.000000	 95.299676 
783.000000	 95.240205 
782.000000	 95.178311 
781.000000	 95.122384 
780.000000	 95.076701 
779.000000	 95.042701 
778.000000	 95.020507 
777.000000	 95.012697 
776.000000	 95.027129 
775.000000	 95.070135 
774.000000	 95.134843 
773.000000	 95.202547 
772.000000	 95.258971 
771.000000	 95.304223 
770.000000	 95.344218 
769.000000	 95.378447 
768.000000	 95.401754 
767.000000	 95.414555 
766.000000	 95.424903 
765.000000	 95.440235 
764.000000	 95.460232 
763.000000	 95.477699 
762.000000	 95.485188 
761.000000	 95.482174 
760.000000	 95.477086 
759.000000	 95.480830 
758.000000	 95.496847 
757.000000	 95.518752 
756.000000	 95.538111 
755.000000	 95.552634 
754.000000	 95.566752 
753.000000	 95.586956 
752.000000	 95.617092 
751.000000	 95.654636 
750.000000	 95.690001 
749.000000	 95.712479 
748.000000	 95.719612 
747.000000	 95.720588 
746.000000	 95.729763 
745.000000	 95.756216 
744.000000	 95.797437 
743.000000	 95.841142 
742.000000	 95.875150 
741.000000	 95.898257 
740.000000	 95.920221 
739.000000	 95.949660 
738.000000	 95.984955 
737.000000	 96.019503 
736.000000	 96.051644 
735.000000	 96.084665 
734.000000	 96.120704 
733.000000	 96.160294 
732.000000	 96.204175 
731.000000	 96.247869 
730.000000	 96.277774 
729.000000	 96.282670 
728.000000	 96.267905 
727.000000	 96.250143 
726.000000	 96.239454 
725.000000	 96.234916 
724.000000	 96.237397 
723.000000	 96.254888 
722.000000	 96.290104 
721.000000	 96.331124 
720.000000	 96.361174 
719.000000	 96.374512 
718.000000	 96.378640 
717.000000	 96.384246 
716.000000	 96.397217 
715.000000	 96.416389 
714.000000	 96.434325 
713.000000	 96.442980 
712.000000	 96.441467 
711.000000	 96.436738 
710.000000	 96.435460 
709.000000	 96.437732 
708.000000	 96.438615 
707.000000	 96.432113 
706.000000	 96.414800 
705.000000	 96.388973 
704.000000	 96.361249 
703.000000	 96.334641 
702.000000	 96.301656 
701.000000	 96.250029 
700.000000	 96.174779 
699.000000	 96.078577 
698.000000	 95.964535 
697.000000	 95.837469 
696.000000	 95.712571 
695.000000	 95.614521 
694.000000	 95.562754 
693.000000	 95.563203 
692.000000	 95.611928 
691.000000	 95.693700 
690.000000	 95.780215 
689.000000	 95.844360 
688.000000	 95.882376 
687.000000	 95.912539 
686.000000	 95.946425 
685.000000	 95.976339 
684.000000	 95.994699 
683.000000	 96.007452 
682.000000	 96.023186 
681.000000	 96.043773 
680.000000	 96.071112 
679.000000	 96.107039 
678.000000	 96.139555 
677.000000	 96.149363 
676.000000	 96.137885 
675.000000	 96.129506 
674.000000	 96.142681 
673.000000	 96.170001 
672.000000	 96.188583 
671.000000	 96.180742 
670.000000	 96.139553 
669.000000	 96.074126 
668.000000	 96.022917 
667.000000	 96.025777 
666.000000	 96.081421 
665.000000	 96.161936 
664.000000	 96.233914 
663.000000	 96.279181 
662.000000	 96.299386 
661.000000	 96.310336 
660.000000	 96.325470 
659.000000	 96.341653 
658.000000	 96.340862 
657.000000	 96.309292 
656.000000	 96.253125 
655.000000	 96.193866 
654.000000	 96.151751 
653.000000	 96.126813 
652.000000	 96.099348 
651.000000	 96.057864 
650.000000	 96.019599 

