4000.000000	99.493250 
3999.000000	99.492680 
3998.000000	99.492612 
3997.000000	99.491808 
3996.000000	99.489668 
3995.000000	99.486652 
3994.000000	99.484025 
3993.000000	99.483097 
3992.000000	99.484237 
3991.000000	99.486406 
3990.000000	99.487935 
3989.000000	99.488145 
3988.000000	99.488119 
3987.000000	99.489592 
3986.000000	99.493018 
3985.000000	99.496874 
3984.000000	99.498875 
3983.000000	99.497786 
3982.000000	99.494160 
3981.000000	99.489598 
3980.000000	99.485365 
3979.000000	99.481863 
3978.000000	99.479401 
3977.000000	99.478894 
3976.000000	99.481242 
3975.000000	99.486079 
3974.000000	99.491678 
3973.000000	99.496225 
3972.000000	99.498915 
3971.000000	99.499911 
3970.000000	99.499632 
3969.000000	99.498239 
3968.000000	99.495812 
3967.000000	99.492756 
3966.000000	99.489896 
3965.000000	99.488197 
3964.000000	99.487970 
3963.000000	99.488250 
3962.000000	99.487289 
3961.000000	99.484056 
3960.000000	99.479225 
3959.000000	99.474779 
3958.000000	99.472471 
3957.000000	99.472358 
3956.000000	99.472977 
3955.000000	99.472786 
3954.000000	99.471450 
3953.000000	99.469775 
3952.000000	99.468637 
3951.000000	99.468537 
3950.000000	99.469709 
3949.000000	99.472149 
3948.000000	99.475307 
3947.000000	99.478004 
3946.000000	99.479264 
3945.000000	99.479122 
3944.000000	99.478533 
3943.000000	99.478231 
3942.000000	99.478205 
3941.000000	99.478220 
3940.000000	99.477826 
3939.000000	99.475827 
3938.000000	99.470991 
3937.000000	99.463801 
3936.000000	99.457296 
3935.000000	99.455330 
3934.000000	99.459824 
3933.000000	99.469319 
3932.000000	99.479623 
3931.000000	99.486047 
3930.000000	99.485879 
3929.000000	99.479843 
3928.000000	99.471519 
3927.000000	99.465104 
3926.000000	99.463457 
3925.000000	99.466577 
3924.000000	99.471291 
3923.000000	99.473941 
3922.000000	99.473345 
3921.000000	99.471242 
3920.000000	99.470134 
3919.000000	99.471189 
3918.000000	99.474107 
3917.000000	99.478064 
3916.000000	99.482414 
3915.000000	99.486842 
3914.000000	99.491379 
3913.000000	99.495892 
3912.000000	99.499192 
3911.000000	99.499788 
3910.000000	99.497807 
3909.000000	99.495545 
3908.000000	99.495468 
3907.000000	99.497135 
3906.000000	99.496614 
3905.000000	99.489682 
3904.000000	99.475965 
3903.000000	99.460606 
3902.000000	99.450978 
3901.000000	99.451133 
3900.000000	99.459396 
3899.000000	99.469955 
3898.000000	99.477279 
3897.000000	99.479674 
3896.000000	99.478543 
3895.000000	99.475881 
3894.000000	99.472949 
3893.000000	99.470144 
3892.000000	99.467272 
3891.000000	99.463892 
3890.000000	99.460177 
3889.000000	99.456917 
3888.000000	99.454817 
3887.000000	99.454482 
3886.000000	99.455874 
3885.000000	99.457614 
3884.000000	99.458117 
3883.000000	99.457569 
3882.000000	99.457846 
3881.000000	99.460395 
3880.000000	99.464356 
3879.000000	99.467210 
3878.000000	99.467850 
3877.000000	99.467279 
3876.000000	99.467084 
3875.000000	99.467793 
3874.000000	99.468077 
3873.000000	99.465847 
3872.000000	99.461235 
3871.000000	99.457627 
3870.000000	99.458648 
3869.000000	99.464590 
3868.000000	99.472466 
3867.000000	99.478946 
3866.000000	99.482724 
3865.000000	99.484253 
3864.000000	99.483804 
3863.000000	99.481590 
3862.000000	99.478227 
3861.000000	99.474585 
3860.000000	99.471472 
3859.000000	99.469556 
3858.000000	99.468607 
3857.000000	99.467537 
3856.000000	99.465364 
3855.000000	99.463016 
3854.000000	99.462830 
3853.000000	99.465787 
3852.000000	99.470839 
3851.000000	99.476236 
3850.000000	99.480082 
3849.000000	99.481821 
3848.000000	99.482092 
3847.000000	99.481609 
3846.000000	99.480539 
3845.000000	99.478839 
3844.000000	99.477366 
3843.000000	99.478265 
3842.000000	99.482496 
3841.000000	99.488354 
3840.000000	99.492950 
3839.000000	99.494217 
3838.000000	99.491727 
3837.000000	99.486777 
3836.000000	99.481523 
3835.000000	99.478199 
3834.000000	99.478795 
3833.000000	99.484410 
3832.000000	99.493669 
3831.000000	99.502207 
3830.000000	99.505561 
3829.000000	99.502386 
3828.000000	99.494906 
3827.000000	99.487223 
3826.000000	99.482511 
3825.000000	99.481353 
3824.000000	99.482743 
3823.000000	99.486272 
3822.000000	99.491563 
3821.000000	99.496183 
3820.000000	99.496888 
3819.000000	99.493228 
3818.000000	99.487732 
3817.000000	99.483686 
3816.000000	99.482085 
3815.000000	99.480375 
3814.000000	99.476368 
3813.000000	99.472118 
3812.000000	99.472176 
3811.000000	99.478549 
3810.000000	99.488019 
3809.000000	99.494757 
3808.000000	99.495856 
3807.000000	99.493591 
3806.000000	99.491442 
3805.000000	99.489440 
3804.000000	99.485577 
3803.000000	99.480506 
3802.000000	99.478000 
3801.000000	99.480237 
3800.000000	99.484859 
3799.000000	99.487857 
3798.000000	99.487429 
3797.000000	99.484863 
3796.000000	99.482468 
3795.000000	99.481001 
3794.000000	99.479455 
3793.000000	99.476724 
3792.000000	99.472919 
3791.000000	99.469254 
3790.000000	99.467117 
3789.000000	99.467072 
3788.000000	99.468551 
3787.000000	99.470357 
3786.000000	99.471941 
3785.000000	99.473871 
3784.000000	99.476706 
3783.000000	99.479728 
3782.000000	99.481566 
3781.000000	99.481949 
3780.000000	99.481980 
3779.000000	99.482435 
3778.000000	99.482393 
3777.000000	99.480370 
3776.000000	99.476282 
3775.000000	99.471983 
3774.000000	99.469586 
3773.000000	99.469646 
3772.000000	99.471361 
3771.000000	99.473832 
3770.000000	99.476036 
3769.000000	99.476589 
3768.000000	99.474834 
3767.000000	99.471635 
3766.000000	99.468880 
3765.000000	99.468204 
3764.000000	99.469652 
3763.000000	99.471923 
3762.000000	99.473951 
3761.000000	99.475609 
3760.000000	99.476683 
3759.000000	99.476702 
3758.000000	99.476344 
3757.000000	99.477526 
3756.000000	99.481112 
3755.000000	99.485861 
3754.000000	99.489848 
3753.000000	99.491961 
3752.000000	99.491563 
3751.000000	99.488006 
3750.000000	99.482908 
3749.000000	99.480342 
3748.000000	99.481592 
3747.000000	99.483661 
3746.000000	99.484104 
3745.000000	99.483662 
3744.000000	99.483581 
3743.000000	99.483383 
3742.000000	99.481613 
3741.000000	99.476855 
3740.000000	99.468575 
3739.000000	99.457837 
3738.000000	99.448342 
3737.000000	99.445381 
3736.000000	99.450246 
3735.000000	99.456383 
3734.000000	99.455748 
3733.000000	99.448852 
3732.000000	99.443193 
3731.000000	99.443511 
3730.000000	99.447618 
3729.000000	99.450521 
3728.000000	99.450356 
3727.000000	99.449186 
3726.000000	99.449085 
3725.000000	99.449614 
3724.000000	99.449561 
3723.000000	99.449215 
3722.000000	99.449561 
3721.000000	99.451029 
3720.000000	99.452618 
3719.000000	99.452529 
3718.000000	99.450292 
3717.000000	99.447236 
3716.000000	99.444524 
3715.000000	99.442178 
3714.000000	99.440300 
3713.000000	99.440115 
3712.000000	99.441874 
3711.000000	99.443259 
3710.000000	99.441402 
3709.000000	99.435240 
3708.000000	99.425907 
3707.000000	99.415650 
3706.000000	99.406472 
3705.000000	99.399557 
3704.000000	99.394994 
3703.000000	99.391432 
3702.000000	99.386041 
3701.000000	99.376402 
3700.000000	99.362746 
3699.000000	99.347436 
3698.000000	99.332993 
3697.000000	99.320940 
3696.000000	99.311510 
3695.000000	99.304659 
3694.000000	99.301183 
3693.000000	99.301782 
3692.000000	99.304410 
3691.000000	99.303957 
3690.000000	99.296243 
3689.000000	99.282789 
3688.000000	99.269810 
3687.000000	99.261360 
3686.000000	99.256472 
3685.000000	99.253681 
3684.000000	99.253948 
3683.000000	99.258363 
3682.000000	99.264805 
3681.000000	99.268243 
3680.000000	99.264247 
3679.000000	99.251123 
3678.000000	99.231059 
3677.000000	99.212152 
3676.000000	99.205669 
3675.000000	99.213868 
3674.000000	99.226538 
3673.000000	99.233353 
3672.000000	99.231851 
3671.000000	99.226769 
3670.000000	99.223788 
3669.000000	99.224130 
3668.000000	99.226766 
3667.000000	99.231767 
3666.000000	99.238834 
3665.000000	99.245607 
3664.000000	99.248770 
3663.000000	99.247010 
3662.000000	99.242426 
3661.000000	99.238241 
3660.000000	99.236116 
3659.000000	99.236232 
3658.000000	99.239265 
3657.000000	99.246336 
3656.000000	99.256625 
3655.000000	99.267168 
3654.000000	99.275435 
3653.000000	99.280404 
3652.000000	99.281614 
3651.000000	99.279124 
3650.000000	99.275069 
3649.000000	99.274344 
3648.000000	99.280461 
3647.000000	99.291145 
3646.000000	99.301256 
3645.000000	99.308532 
3644.000000	99.314697 
3643.000000	99.322424 
3642.000000	99.332796 
3641.000000	99.344608 
3640.000000	99.355811 
3639.000000	99.364873 
3638.000000	99.371002 
3637.000000	99.374142 
3636.000000	99.374943 
3635.000000	99.374304 
3634.000000	99.372369 
3633.000000	99.368656 
3632.000000	99.363948 
3631.000000	99.361677 
3630.000000	99.365979 
3629.000000	99.375323 
3628.000000	99.381426 
3627.000000	99.380752 
3626.000000	99.378142 
3625.000000	99.378613 
3624.000000	99.382752 
3623.000000	99.388078 
3622.000000	99.392328 
3621.000000	99.395898 
3620.000000	99.400153 
3619.000000	99.403995 
3618.000000	99.405135 
3617.000000	99.404498 
3616.000000	99.405709 
3615.000000	99.411215 
3614.000000	99.419129 
3613.000000	99.424125 
3612.000000	99.422551 
3611.000000	99.416181 
3610.000000	99.409993 
3609.000000	99.407063 
3608.000000	99.406258 
3607.000000	99.405170 
3606.000000	99.404136 
3605.000000	99.405581 
3604.000000	99.410871 
3603.000000	99.419258 
3602.000000	99.428891 
3601.000000	99.438219 
3600.000000	99.445575 
3599.000000	99.448763 
3598.000000	99.446608 
3597.000000	99.440286 
3596.000000	99.432929 
3595.000000	99.428327 
3594.000000	99.428010 
3593.000000	99.429945 
3592.000000	99.430507 
3591.000000	99.427247 
3590.000000	99.421357 
3589.000000	99.417539 
3588.000000	99.419843 
3587.000000	99.425779 
3586.000000	99.429078 
3585.000000	99.428131 
3584.000000	99.427365 
3583.000000	99.431041 
3582.000000	99.438811 
3581.000000	99.446429 
3580.000000	99.449840 
3579.000000	99.448300 
3578.000000	99.443717 
3577.000000	99.438371 
3576.000000	99.433634 
3575.000000	99.430285 
3574.000000	99.428844 
3573.000000	99.429094 
3572.000000	99.430227 
3571.000000	99.431259 
3570.000000	99.431007 
3569.000000	99.428759 
3568.000000	99.425719 
3567.000000	99.424303 
3566.000000	99.425630 
3565.000000	99.429090 
3564.000000	99.433978 
3563.000000	99.440154 
3562.000000	99.447410 
3561.000000	99.454471 
3560.000000	99.459335 
3559.000000	99.460783 
3558.000000	99.459660 
3557.000000	99.458193 
3556.000000	99.458128 
3555.000000	99.459387 
3554.000000	99.460484 
3553.000000	99.459659 
3552.000000	99.456057 
3551.000000	99.450436 
3550.000000	99.444534 
3549.000000	99.439765 
3548.000000	99.436955 
3547.000000	99.436492 
3546.000000	99.438150 
3545.000000	99.440429 
3544.000000	99.441588 
3543.000000	99.441765 
3542.000000	99.443413 
3541.000000	99.448666 
3540.000000	99.456846 
3539.000000	99.464679 
3538.000000	99.469140 
3537.000000	99.469697 
3536.000000	99.468009 
3535.000000	99.466185 
3534.000000	99.465370 
3533.000000	99.465823 
3532.000000	99.467271 
3531.000000	99.469080 
3530.000000	99.470023 
3529.000000	99.468543 
3528.000000	99.464042 
3527.000000	99.458167 
3526.000000	99.454106 
3525.000000	99.454026 
3524.000000	99.457153 
3523.000000	99.460490 
3522.000000	99.461690 
3521.000000	99.460887 
3520.000000	99.460127 
3519.000000	99.461402 
3518.000000	99.465210 
3517.000000	99.470219 
3516.000000	99.474007 
3515.000000	99.474561 
3514.000000	99.471302 
3513.000000	99.465217 
3512.000000	99.458469 
3511.000000	99.453799 
3510.000000	99.453189 
3509.000000	99.456365 
3508.000000	99.460796 
3507.000000	99.463706 
3506.000000	99.464094 
3505.000000	99.462739 
3504.000000	99.461026 
3503.000000	99.460210 
3502.000000	99.461409 
3501.000000	99.465115 
3500.000000	99.470188 
3499.000000	99.473953 
3498.000000	99.473836 
3497.000000	99.469182 
3496.000000	99.461494 
3495.000000	99.453455 
3494.000000	99.447866 
3493.000000	99.446627 
3492.000000	99.449823 
3491.000000	99.455675 
3490.000000	99.461890 
3489.000000	99.467245 
3488.000000	99.471693 
3487.000000	99.475173 
3486.000000	99.476967 
3485.000000	99.476425 
3484.000000	99.473831 
3483.000000	99.470437 
3482.000000	99.467719 
3481.000000	99.466596 
3480.000000	99.467050 
3479.000000	99.468141 
3478.000000	99.468496 
3477.000000	99.467342 
3476.000000	99.465578 
3475.000000	99.465643 
3474.000000	99.469494 
3473.000000	99.476271 
3472.000000	99.482489 
3471.000000	99.485263 
3470.000000	99.485070 
3469.000000	99.484566 
3468.000000	99.484920 
3467.000000	99.484435 
3466.000000	99.481383 
3465.000000	99.477092 
3464.000000	99.475009 
3463.000000	99.476973 
3462.000000	99.481354 
3461.000000	99.485116 
3460.000000	99.486897 
3459.000000	99.487685 
3458.000000	99.488987 
3457.000000	99.490884 
3456.000000	99.492000 
3455.000000	99.491155 
3454.000000	99.488706 
3453.000000	99.486212 
3452.000000	99.484696 
3451.000000	99.483793 
3450.000000	99.482792 
3449.000000	99.482065 
3448.000000	99.482684 
3447.000000	99.484642 
3446.000000	99.486341 
3445.000000	99.486501 
3444.000000	99.485896 
3443.000000	99.486385 
3442.000000	99.488474 
3441.000000	99.490466 
3440.000000	99.490299 
3439.000000	99.487662 
3438.000000	99.483823 
3437.000000	99.479861 
3436.000000	99.475976 
3435.000000	99.472692 
3434.000000	99.471622 
3433.000000	99.474152 
3432.000000	99.479321 
3431.000000	99.484078 
3430.000000	99.486107 
3429.000000	99.486083 
3428.000000	99.486604 
3427.000000	99.488881 
3426.000000	99.491092 
3425.000000	99.490249 
3424.000000	99.485411 
3423.000000	99.478729 
3422.000000	99.473406 
3421.000000	99.471136 
3420.000000	99.471789 
3419.000000	99.474874 
3418.000000	99.480175 
3417.000000	99.486688 
3416.000000	99.491950 
3415.000000	99.493428 
3414.000000	99.490736 
3413.000000	99.486078 
3412.000000	99.482395 
3411.000000	99.481250 
3410.000000	99.482256 
3409.000000	99.483876 
3408.000000	99.484403 
3407.000000	99.482733 
3406.000000	99.479109 
3405.000000	99.475324 
3404.000000	99.473663 
3403.000000	99.475040 
3402.000000	99.478148 
3401.000000	99.480925 
3400.000000	99.482792 
3399.000000	99.485038 
3398.000000	99.488777 
3397.000000	99.492950 
3396.000000	99.494803 
3395.000000	99.492335 
3394.000000	99.485991 
3393.000000	99.478193 
3392.000000	99.471700 
3391.000000	99.468423 
3390.000000	99.469196 
3389.000000	99.473806 
3388.000000	99.480779 
3387.000000	99.487589 
3386.000000	99.492064 
3385.000000	99.494181 
3384.000000	99.496030 
3383.000000	99.499215 
3382.000000	99.502321 
3381.000000	99.501967 
3380.000000	99.496721 
3379.000000	99.489354 
3378.000000	99.484381 
3377.000000	99.483665 
3376.000000	99.485153 
3375.000000	99.485724 
3374.000000	99.484356 
3373.000000	99.482444 
3372.000000	99.481951 
3371.000000	99.483669 
3370.000000	99.486599 
3369.000000	99.488388 
3368.000000	99.486995 
3367.000000	99.482737 
3366.000000	99.478577 
3365.000000	99.477615 
3364.000000	99.480222 
3363.000000	99.484078 
3362.000000	99.486825 
3361.000000	99.487915 
3360.000000	99.487801 
3359.000000	99.486414 
3358.000000	99.483376 
3357.000000	99.479433 
3356.000000	99.476609 
3355.000000	99.476361 
3354.000000	99.477892 
3353.000000	99.478770 
3352.000000	99.477276 
3351.000000	99.474046 
3350.000000	99.471484 
3349.000000	99.471742 
3348.000000	99.475193 
3347.000000	99.480309 
3346.000000	99.484634 
3345.000000	99.486155 
3344.000000	99.484447 
3343.000000	99.480923 
3342.000000	99.477632 
3341.000000	99.475447 
3340.000000	99.473516 
3339.000000	99.470766 
3338.000000	99.467780 
3337.000000	99.466600 
3336.000000	99.468479 
3335.000000	99.472253 
3334.000000	99.475436 
3333.000000	99.476755 
3332.000000	99.477060 
3331.000000	99.477571 
3330.000000	99.477790 
3329.000000	99.475935 
3328.000000	99.471591 
3327.000000	99.467138 
3326.000000	99.465669 
3325.000000	99.467562 
3324.000000	99.469873 
3323.000000	99.469550 
3322.000000	99.466609 
3321.000000	99.463545 
3320.000000	99.462211 
3319.000000	99.462383 
3318.000000	99.463350 
3317.000000	99.465441 
3316.000000	99.468986 
3315.000000	99.472698 
3314.000000	99.474625 
3313.000000	99.474729 
3312.000000	99.475150 
3311.000000	99.477300 
3310.000000	99.479649 
3309.000000	99.479371 
3308.000000	99.475721 
3307.000000	99.470855 
3306.000000	99.467560 
3305.000000	99.467077 
3304.000000	99.469095 
3303.000000	99.472596 
3302.000000	99.475994 
3301.000000	99.477201 
3300.000000	99.474780 
3299.000000	99.469434 
3298.000000	99.463943 
3297.000000	99.461170 
3296.000000	99.461779 
3295.000000	99.463808 
3294.000000	99.464616 
3293.000000	99.463406 
3292.000000	99.461782 
3291.000000	99.461551 
3290.000000	99.462240 
3289.000000	99.461494 
3288.000000	99.458053 
3287.000000	99.453625 
3286.000000	99.451275 
3285.000000	99.452220 
3284.000000	99.454712 
3283.000000	99.455971 
3282.000000	99.454927 
3281.000000	99.453159 
3280.000000	99.453412 
3279.000000	99.456968 
3278.000000	99.462066 
3277.000000	99.464971 
3276.000000	99.462987 
3275.000000	99.456705 
3274.000000	99.449422 
3273.000000	99.444617 
3272.000000	99.443921 
3271.000000	99.446736 
3270.000000	99.450981 
3269.000000	99.454293 
3268.000000	99.455181 
3267.000000	99.453428 
3266.000000	99.449632 
3265.000000	99.444872 
3264.000000	99.441020 
3263.000000	99.440568 
3262.000000	99.444968 
3261.000000	99.452823 
3260.000000	99.460327 
3259.000000	99.463905 
3258.000000	99.462491 
3257.000000	99.457557 
3256.000000	99.451418 
3255.000000	99.445530 
3254.000000	99.440103 
3253.000000	99.435294 
3252.000000	99.432552 
3251.000000	99.434100 
3250.000000	99.440374 
3249.000000	99.448459 
3248.000000	99.454000 
3247.000000	99.454799 
3246.000000	99.452053 
3245.000000	99.448285 
3244.000000	99.444999 
3243.000000	99.442477 
3242.000000	99.440740 
3241.000000	99.439894 
3240.000000	99.440074 
3239.000000	99.441694 
3238.000000	99.445470 
3237.000000	99.451603 
3236.000000	99.458887 
3235.000000	99.464862 
3234.000000	99.467047 
3233.000000	99.464387 
3232.000000	99.458105 
3231.000000	99.451307 
3230.000000	99.447101 
3229.000000	99.446489 
3228.000000	99.447893 
3227.000000	99.448645 
3226.000000	99.446839 
3225.000000	99.442196 
3224.000000	99.436007 
3223.000000	99.430502 
3222.000000	99.427539 
3221.000000	99.427186 
3220.000000	99.427708 
3219.000000	99.427340 
3218.000000	99.426104 
3217.000000	99.425798 
3216.000000	99.428337 
3215.000000	99.434018 
3214.000000	99.440977 
3213.000000	99.446304 
3212.000000	99.448051 
3211.000000	99.446413 
3210.000000	99.442946 
3209.000000	99.438958 
3208.000000	99.435115 
3207.000000	99.432255 
3206.000000	99.431493 
3205.000000	99.433079 
3204.000000	99.435838 
3203.000000	99.438225 
3202.000000	99.439564 
3201.000000	99.439942 
3200.000000	99.439461 
3199.000000	99.438135 
3198.000000	99.436295 
3197.000000	99.434721 
3196.000000	99.434460 
3195.000000	99.436397 
3194.000000	99.440302 
3193.000000	99.444124 
3192.000000	99.445065 
3191.000000	99.442042 
3190.000000	99.436722 
3189.000000	99.431745 
3188.000000	99.428501 
3187.000000	99.427096 
3186.000000	99.427531 
3185.000000	99.429670 
3184.000000	99.432340 
3183.000000	99.433704 
3182.000000	99.433006 
3181.000000	99.431525 
3180.000000	99.431561 
3179.000000	99.434553 
3178.000000	99.439802 
3177.000000	99.444621 
3176.000000	99.446227 
3175.000000	99.444169 
3174.000000	99.440705 
3173.000000	99.438156 
3172.000000	99.436192 
3171.000000	99.432704 
3170.000000	99.427312 
3169.000000	99.422773 
3168.000000	99.422250 
3167.000000	99.425860 
3166.000000	99.430548 
3165.000000	99.432920 
3164.000000	99.431749 
3163.000000	99.428210 
3162.000000	99.424617 
3161.000000	99.423032 
3160.000000	99.424299 
3159.000000	99.427650 
3158.000000	99.431004 
3157.000000	99.432065 
3156.000000	99.429722 
3155.000000	99.424758 
3154.000000	99.419079 
3153.000000	99.414059 
3152.000000	99.409820 
3151.000000	99.406223 
3150.000000	99.404039 
3149.000000	99.404412 
3148.000000	99.407320 
3147.000000	99.411331 
3146.000000	99.415056 
3145.000000	99.418251 
3144.000000	99.421219 
3143.000000	99.423738 
3142.000000	99.425153 
3141.000000	99.425228 
3140.000000	99.424354 
3139.000000	99.422991 
3138.000000	99.421272 
3137.000000	99.419223 
3136.000000	99.417135 
3135.000000	99.415676 
3134.000000	99.415601 
3133.000000	99.417026 
3132.000000	99.418762 
3131.000000	99.418794 
3130.000000	99.416082 
3129.000000	99.412033 
3128.000000	99.409772 
3127.000000	99.411606 
3126.000000	99.417041 
3125.000000	99.423112 
3124.000000	99.426523 
3123.000000	99.425753 
3122.000000	99.421808 
3121.000000	99.417284 
3120.000000	99.414440 
3119.000000	99.413783 
3118.000000	99.414306 
3117.000000	99.415003 
3116.000000	99.415915 
3115.000000	99.417537 
3114.000000	99.419500 
3113.000000	99.420349 
3112.000000	99.418817 
3111.000000	99.415170 
3110.000000	99.411094 
3109.000000	99.408262 
3108.000000	99.407017 
3107.000000	99.406353 
3106.000000	99.405034 
3105.000000	99.402860 
3104.000000	99.401078 
3103.000000	99.401516 
3102.000000	99.405036 
3101.000000	99.410571 
3100.000000	99.415837 
3099.000000	99.419258 
3098.000000	99.421183 
3097.000000	99.423097 
3096.000000	99.425730 
3095.000000	99.428102 
3094.000000	99.428444 
3093.000000	99.425827 
3092.000000	99.420861 
3091.000000	99.415289 
3090.000000	99.411187 
3089.000000	99.410121 
3088.000000	99.412211 
3087.000000	99.415787 
3086.000000	99.418528 
3085.000000	99.419367 
3084.000000	99.418970 
3083.000000	99.418082 
3082.000000	99.416034 
3081.000000	99.411732 
3080.000000	99.406061 
3079.000000	99.402310 
3078.000000	99.403574 
3077.000000	99.409872 
3076.000000	99.418027 
3075.000000	99.424185 
3074.000000	99.426290 
3073.000000	99.424598 
3072.000000	99.420523 
3071.000000	99.415312 
3070.000000	99.409712 
3069.000000	99.404396 
3068.000000	99.400282 
3067.000000	99.398342 
3066.000000	99.399372 
3065.000000	99.403799 
3064.000000	99.410913 
3063.000000	99.417921 
3062.000000	99.420777 
3061.000000	99.417298 
3060.000000	99.409586 
3059.000000	99.402484 
3058.000000	99.399472 
3057.000000	99.400629 
3056.000000	99.404152 
3055.000000	99.408391 
3054.000000	99.411866 
3053.000000	99.412777 
3052.000000	99.409940 
3051.000000	99.404105 
3050.000000	99.397702 
3049.000000	99.393345 
3048.000000	99.392377 
3047.000000	99.393819 
3046.000000	99.394306 
3045.000000	99.390275 
3044.000000	99.381558 
3043.000000	99.372308 
3042.000000	99.367262 
3041.000000	99.367212 
3040.000000	99.368818 
3039.000000	99.368253 
3038.000000	99.363901 
3037.000000	99.356056 
3036.000000	99.345704 
3035.000000	99.334097 
3034.000000	99.322402 
3033.000000	99.311036 
3032.000000	99.299665 
3031.000000	99.287984 
3030.000000	99.276048 
3029.000000	99.263937 
3028.000000	99.251858 
3027.000000	99.240579 
3026.000000	99.230872 
3025.000000	99.222124 
3024.000000	99.212161 
3023.000000	99.198854 
3022.000000	99.181505 
3021.000000	99.160499 
3020.000000	99.136506 
3019.000000	99.110725 
3018.000000	99.085531 
3017.000000	99.063730 
3016.000000	99.046427 
3015.000000	99.031614 
3014.000000	99.015473 
3013.000000	98.995819 
3012.000000	98.974293 
3011.000000	98.954472 
3010.000000	98.937552 
3009.000000	98.920846 
3008.000000	98.901075 
3007.000000	98.878156 
3006.000000	98.854580 
3005.000000	98.831737 
3004.000000	98.808566 
3003.000000	98.783993 
3002.000000	98.759128 
3001.000000	98.736217 
3000.000000	98.716253 
2999.000000	98.698529 
2998.000000	98.682301 
2997.000000	98.668184 
2996.000000	98.657373 
2995.000000	98.648751 
2994.000000	98.636574 
2993.000000	98.612628 
2992.000000	98.573160 
2991.000000	98.524474 
2990.000000	98.480391 
2989.000000	98.452972 
2988.000000	98.445364 
2987.000000	98.452780 
2986.000000	98.468090 
2985.000000	98.485526 
2984.000000	98.500909 
2983.000000	98.511393 
2982.000000	98.516100 
2981.000000	98.516375 
2980.000000	98.514875 
2979.000000	98.514115 
2978.000000	98.515083 
2977.000000	98.516386 
2976.000000	98.515029 
2975.000000	98.509103 
2974.000000	98.500287 
2973.000000	98.493477 
2972.000000	98.493562 
2971.000000	98.502149 
2970.000000	98.516877 
2969.000000	98.533609 
2968.000000	98.549655 
2967.000000	98.565498 
2966.000000	98.583435 
2965.000000	98.604427 
2964.000000	98.626406 
2963.000000	98.645843 
2962.000000	98.660752 
2961.000000	98.671975 
2960.000000	98.681800 
2959.000000	98.691823 
2958.000000	98.702109 
2957.000000	98.711935 
2956.000000	98.720937 
2955.000000	98.729644 
2954.000000	98.739202 
2953.000000	98.750687 
2952.000000	98.764388 
2951.000000	98.779285 
2950.000000	98.793208 
2949.000000	98.803977 
2948.000000	98.810751 
2947.000000	98.814336 
2946.000000	98.816316 
2945.000000	98.818381 
2944.000000	98.822315 
2943.000000	98.829401 
2942.000000	98.838816 
2941.000000	98.847257 
2940.000000	98.851557 
2939.000000	98.852124 
2938.000000	98.853090 
2937.000000	98.858706 
2936.000000	98.869750 
2935.000000	98.883145 
2934.000000	98.894381 
2933.000000	98.900302 
2932.000000	98.900610 
2931.000000	98.897389 
2930.000000	98.893246 
2929.000000	98.889771 
2928.000000	98.887314 
2927.000000	98.885328 
2926.000000	98.882390 
2925.000000	98.876856 
2924.000000	98.868694 
2923.000000	98.860182 
2922.000000	98.853557 
2921.000000	98.848165 
2920.000000	98.841282 
2919.000000	98.831617 
2918.000000	98.820619 
2917.000000	98.809990 
2916.000000	98.799324 
2915.000000	98.786921 
2914.000000	98.772216 
2913.000000	98.756848 
2912.000000	98.743889 
2911.000000	98.736033 
2910.000000	98.733518 
2909.000000	98.733412 
2908.000000	98.731692 
2907.000000	98.726372 
2906.000000	98.717662 
2905.000000	98.705220 
2904.000000	98.687354 
2903.000000	98.664794 
2902.000000	98.644345 
2901.000000	98.636715 
2900.000000	98.648232 
2899.000000	98.675397 
2898.000000	98.706574 
2897.000000	98.729696 
2896.000000	98.739737 
2895.000000	98.740375 
2894.000000	98.739328 
2893.000000	98.741891 
2892.000000	98.748446 
2891.000000	98.756531 
2890.000000	98.763687 
2889.000000	98.768328 
2888.000000	98.769827 
2887.000000	98.769200 
2886.000000	98.769083 
2885.000000	98.771958 
2884.000000	98.778695 
2883.000000	98.789354 
2882.000000	98.804539 
2881.000000	98.824571 
2880.000000	98.847482 
2879.000000	98.869198 
2878.000000	98.886304 
2877.000000	98.898377 
2876.000000	98.907557 
2875.000000	98.916415 
2874.000000	98.926309 
2873.000000	98.937124 
2872.000000	98.947904 
2871.000000	98.957671 
2870.000000	98.966019 
2869.000000	98.973548 
2868.000000	98.982033 
2867.000000	98.993698 
2866.000000	99.009460 
2865.000000	99.027841 
2864.000000	99.046271 
2863.000000	99.063519 
2862.000000	99.080044 
2861.000000	99.096028 
2860.000000	99.110497 
2859.000000	99.123067 
2858.000000	99.135151 
2857.000000	99.148110 
2856.000000	99.161016 
2855.000000	99.171723 
2854.000000	99.179779 
2853.000000	99.186914 
2852.000000	99.194666 
2851.000000	99.202758 
2850.000000	99.210140 
2849.000000	99.216581 
2848.000000	99.222688 
2847.000000	99.229019 
2846.000000	99.235590 
2845.000000	99.241785 
2844.000000	99.246449 
2843.000000	99.248692 
2842.000000	99.249187 
2841.000000	99.250322 
2840.000000	99.254422 
2839.000000	99.261695 
2838.000000	99.270156 
2837.000000	99.277424 
2836.000000	99.282384 
2835.000000	99.285353 
2834.000000	99.287242 
2833.000000	99.288875 
2832.000000	99.290695 
2831.000000	99.292543 
2830.000000	99.293580 
2829.000000	99.292930 
2828.000000	99.290853 
2827.000000	99.289193 
2826.000000	99.290180 
2825.000000	99.294494 
2824.000000	99.300645 
2823.000000	99.306303 
2822.000000	99.310074 
2821.000000	99.312047 
2820.000000	99.313052 
2819.000000	99.313769 
2818.000000	99.314477 
2817.000000	99.315388 
2816.000000	99.316932 
2815.000000	99.319415 
2814.000000	99.322239 
2813.000000	99.323845 
2812.000000	99.323135 
2811.000000	99.321027 
2810.000000	99.320009 
2809.000000	99.321707 
2808.000000	99.325231 
2807.000000	99.328252 
2806.000000	99.329377 
2805.000000	99.329061 
2804.000000	99.328545 
2803.000000	99.328557 
2802.000000	99.329092 
2801.000000	99.329910 
2800.000000	99.330912 
2799.000000	99.332151 
2798.000000	99.333588 
2797.000000	99.334766 
2796.000000	99.334880 
2795.000000	99.333468 
2794.000000	99.331095 
2793.000000	99.329099 
2792.000000	99.328485 
2791.000000	99.329214 
2790.000000	99.330696 
2789.000000	99.332798 
2788.000000	99.335993 
2787.000000	99.340398 
2786.000000	99.344911 
2785.000000	99.347622 
2784.000000	99.347290 
2783.000000	99.344376 
2782.000000	99.340704 
2781.000000	99.338211 
2780.000000	99.337897 
2779.000000	99.339511 
2778.000000	99.341946 
2777.000000	99.344147 
2776.000000	99.345934 
2775.000000	99.347865 
2774.000000	99.350169 
2773.000000	99.352179 
2772.000000	99.353275 
2771.000000	99.354039 
2770.000000	99.355657 
2769.000000	99.358093 
2768.000000	99.359743 
2767.000000	99.359423 
2766.000000	99.358062 
2765.000000	99.357561 
2764.000000	99.358167 
2763.000000	99.357848 
2762.000000	99.354607 
2761.000000	99.348893 
2760.000000	99.343366 
2759.000000	99.340626 
2758.000000	99.341565 
2757.000000	99.345538 
2756.000000	99.351111 
2755.000000	99.356248 
2754.000000	99.358547 
2753.000000	99.356639 
2752.000000	99.351833 
2751.000000	99.347781 
2750.000000	99.347703 
2749.000000	99.351693 
2748.000000	99.356859 
2747.000000	99.360018 
2746.000000	99.360156 
2745.000000	99.358490 
2744.000000	99.356740 
2743.000000	99.355690 
2742.000000	99.355259 
2741.000000	99.355382 
2740.000000	99.356258 
2739.000000	99.357746 
2738.000000	99.359145 
2737.000000	99.360104 
2736.000000	99.361396 
2735.000000	99.363949 
2734.000000	99.367109 
2733.000000	99.368769 
2732.000000	99.367673 
2731.000000	99.364937 
2730.000000	99.362714 
2729.000000	99.361865 
2728.000000	99.361622 
2727.000000	99.361129 
2726.000000	99.360468 
2725.000000	99.360275 
2724.000000	99.361169 
2723.000000	99.363582 
2722.000000	99.367407 
2721.000000	99.371499 
2720.000000	99.374157 
2719.000000	99.374514 
2718.000000	99.373247 
2717.000000	99.371701 
2716.000000	99.370645 
2715.000000	99.370111 
2714.000000	99.370101 
2713.000000	99.370909 
2712.000000	99.372652 
2711.000000	99.374855 
2710.000000	99.376855 
2709.000000	99.378587 
2708.000000	99.380520 
2707.000000	99.382575 
2706.000000	99.383563 
2705.000000	99.382452 
2704.000000	99.380091 
2703.000000	99.378728 
2702.000000	99.379373 
2701.000000	99.380356 
2700.000000	99.379326 
2699.000000	99.376286 
2698.000000	99.373850 
2697.000000	99.374510 
2696.000000	99.378241 
2695.000000	99.382847 
2694.000000	99.386180 
2693.000000	99.387818 
2692.000000	99.388806 
2691.000000	99.389937 
2690.000000	99.390473 
2689.000000	99.388919 
2688.000000	99.385147 
2687.000000	99.381237 
2686.000000	99.379829 
2685.000000	99.381887 
2684.000000	99.386214 
2683.000000	99.390552 
2682.000000	99.392717 
2681.000000	99.391389 
2680.000000	99.386850 
2679.000000	99.381032 
2678.000000	99.376360 
2677.000000	99.374522 
2676.000000	99.376280 
2675.000000	99.381539 
2674.000000	99.388763 
2673.000000	99.394991 
2672.000000	99.397749 
2671.000000	99.397000 
2670.000000	99.394462 
2669.000000	99.391299 
2668.000000	99.387600 
2667.000000	99.384037 
2666.000000	99.382405 
2665.000000	99.383603 
2664.000000	99.385956 
2663.000000	99.386728 
2662.000000	99.385244 
2661.000000	99.383801 
2660.000000	99.385207 
2659.000000	99.389777 
2658.000000	99.395125 
2657.000000	99.398815 
2656.000000	99.400559 
2655.000000	99.401279 
2654.000000	99.400736 
2653.000000	99.397737 
2652.000000	99.393134 
2651.000000	99.390810 
2650.000000	99.393888 
2649.000000	99.400565 
2648.000000	99.405525 
2647.000000	99.405640 
2646.000000	99.402990 
2645.000000	99.401967 
2644.000000	99.404501 
2643.000000	99.408534 
2642.000000	99.410324 
2641.000000	99.407945 
2640.000000	99.403215 
2639.000000	99.400319 
2638.000000	99.401875 
2637.000000	99.406334 
2636.000000	99.409914 
2635.000000	99.410731 
2634.000000	99.409893 
2633.000000	99.408964 
2632.000000	99.408199 
2631.000000	99.407572 
2630.000000	99.407523 
2629.000000	99.407587 
2628.000000	99.405835 
2627.000000	99.401255 
2626.000000	99.395892 
2625.000000	99.393173 
2624.000000	99.394402 
2623.000000	99.397889 
2622.000000	99.401103 
2621.000000	99.402609 
2620.000000	99.402135 
2619.000000	99.400052 
2618.000000	99.397277 
2617.000000	99.395131 
2616.000000	99.394796 
2615.000000	99.396741 
2614.000000	99.400388 
2613.000000	99.404186 
2612.000000	99.406488 
2611.000000	99.406938 
2610.000000	99.406895 
2609.000000	99.408039 
2608.000000	99.410514 
2607.000000	99.412874 
2606.000000	99.414111 
2605.000000	99.415365 
2604.000000	99.418756 
2603.000000	99.424158 
2602.000000	99.428102 
2601.000000	99.427354 
2600.000000	99.423470 
2599.000000	99.421806 
2598.000000	99.424994 
2597.000000	99.428999 
2596.000000	99.427487 
2595.000000	99.419243 
2594.000000	99.409386 
2593.000000	99.403728 
2592.000000	99.403961 
2591.000000	99.408293 
2590.000000	99.414339 
2589.000000	99.420144 
2588.000000	99.423847 
2587.000000	99.424023 
2586.000000	99.420610 
2585.000000	99.415413 
2584.000000	99.411681 
2583.000000	99.412236 
2582.000000	99.416693 
2581.000000	99.420879 
2580.000000	99.420546 
2579.000000	99.415753 
2578.000000	99.410361 
2577.000000	99.407339 
2576.000000	99.406186 
2575.000000	99.405021 
2574.000000	99.403281 
2573.000000	99.401566 
2572.000000	99.400412 
2571.000000	99.400241 
2570.000000	99.401471 
2569.000000	99.403772 
2568.000000	99.405911 
2567.000000	99.406785 
2566.000000	99.405931 
2565.000000	99.403117 
2564.000000	99.398876 
2563.000000	99.395662 
2562.000000	99.396608 
2561.000000	99.401894 
2560.000000	99.407381 
2559.000000	99.408066 
2558.000000	99.402621 
2557.000000	99.394375 
2556.000000	99.388728 
2555.000000	99.389729 
2554.000000	99.397437 
2553.000000	99.407344 
2552.000000	99.413327 
2551.000000	99.412539 
2550.000000	99.407400 
2549.000000	99.402410 
2548.000000	99.399561 
2547.000000	99.397340 
2546.000000	99.393705 
2545.000000	99.389306 
2544.000000	99.387591 
2543.000000	99.391304 
2542.000000	99.398508 
2541.000000	99.402995 
2540.000000	99.400147 
2539.000000	99.392085 
2538.000000	99.385373 
2537.000000	99.383778 
2536.000000	99.385378 
2535.000000	99.386920 
2534.000000	99.388028 
2533.000000	99.389319 
2532.000000	99.388936 
2531.000000	99.384324 
2530.000000	99.377033 
2529.000000	99.372633 
2528.000000	99.374416 
2527.000000	99.378815 
2526.000000	99.378917 
2525.000000	99.372446 
2524.000000	99.364894 
2523.000000	99.364107 
2522.000000	99.372473 
2521.000000	99.385216 
2520.000000	99.395444 
2519.000000	99.399099 
2518.000000	99.395308 
2517.000000	99.385157 
2516.000000	99.372227 
2515.000000	99.362333 
2514.000000	99.359667 
2513.000000	99.363304 
2512.000000	99.369233 
2511.000000	99.375122 
2510.000000	99.381068 
2509.000000	99.386659 
2508.000000	99.390490 
2507.000000	99.392609 
2506.000000	99.394279 
2505.000000	99.394452 
2504.000000	99.389376 
2503.000000	99.377583 
2502.000000	99.363668 
2501.000000	99.355547 
2500.000000	99.358494 
2499.000000	99.371765 
2498.000000	99.389083 
2497.000000	99.401845 
2496.000000	99.404263 
2495.000000	99.397334 
2494.000000	99.387302 
2493.000000	99.379879 
2492.000000	99.376913 
2491.000000	99.378081 
2490.000000	99.382992 
2489.000000	99.390532 
2488.000000	99.398464 
2487.000000	99.405173 
2486.000000	99.410232 
2485.000000	99.412352 
2484.000000	99.409126 
2483.000000	99.400540 
2482.000000	99.390823 
2481.000000	99.384641 
2480.000000	99.382475 
2479.000000	99.381305 
2478.000000	99.378686 
2477.000000	99.374683 
2476.000000	99.371186 
2475.000000	99.371011 
2474.000000	99.376284 
2473.000000	99.385435 
2472.000000	99.392613 
2471.000000	99.392408 
2470.000000	99.385241 
2469.000000	99.376818 
2468.000000	99.372580 
2467.000000	99.373756 
2466.000000	99.377834 
2465.000000	99.381044 
2464.000000	99.380824 
2463.000000	99.377749 
2462.000000	99.375239 
2461.000000	99.376090 
2460.000000	99.379333 
2459.000000	99.381608 
2458.000000	99.381274 
2457.000000	99.379795 
2456.000000	99.379219 
2455.000000	99.379923 
2454.000000	99.381149 
2453.000000	99.382288 
2452.000000	99.382689 
2451.000000	99.380995 
2450.000000	99.375803 
2449.000000	99.367362 
2448.000000	99.358510 
2447.000000	99.353546 
2446.000000	99.355341 
2445.000000	99.362788 
2444.000000	99.371117 
2443.000000	99.375277 
2442.000000	99.373419 
2441.000000	99.367667 
2440.000000	99.362156 
2439.000000	99.360186 
2438.000000	99.362141 
2437.000000	99.365412 
2436.000000	99.366734 
2435.000000	99.365145 
2434.000000	99.362654 
2433.000000	99.362238 
2432.000000	99.365599 
2431.000000	99.372291 
2430.000000	99.379660 
2429.000000	99.383617 
2428.000000	99.381286 
2427.000000	99.373892 
2426.000000	99.366064 
2425.000000	99.361532 
2424.000000	99.360481 
2423.000000	99.361708 
2422.000000	99.365583 
2421.000000	99.372828 
2420.000000	99.381025 
2419.000000	99.384805 
2418.000000	99.380618 
2417.000000	99.370404 
2416.000000	99.359704 
2415.000000	99.352496 
2414.000000	99.348539 
2413.000000	99.345431 
2412.000000	99.342179 
2411.000000	99.339996 
2410.000000	99.340134 
2409.000000	99.342054 
2408.000000	99.344032 
2407.000000	99.344762 
2406.000000	99.343998 
2405.000000	99.342533 
2404.000000	99.342006 
2403.000000	99.343617 
2402.000000	99.346147 
2401.000000	99.346251 
2400.000000	99.341873 
2399.000000	99.334599 
2398.000000	99.327692 
2397.000000	99.322929 
2396.000000	99.320566 
2395.000000	99.320784 
2394.000000	99.322981 
2393.000000	99.324741 
2392.000000	99.324200 
2391.000000	99.322902 
2390.000000	99.323734 
2389.000000	99.326528 
2388.000000	99.328666 
2387.000000	99.329840 
2386.000000	99.332516 
2385.000000	99.336927 
2384.000000	99.339343 
2383.000000	99.337343 
2382.000000	99.333724 
2381.000000	99.332411 
2380.000000	99.332585 
2379.000000	99.330175 
2378.000000	99.324284 
2377.000000	99.319048 
2376.000000	99.318997 
2375.000000	99.324443 
2374.000000	99.331439 
2373.000000	99.334980 
2372.000000	99.332336 
2371.000000	99.324797 
2370.000000	99.316211 
2369.000000	99.309640 
2368.000000	99.306157 
2367.000000	99.306510 
2366.000000	99.311629 
2365.000000	99.320876 
2364.000000	99.331675 
2363.000000	99.342045 
2362.000000	99.350473 
2361.000000	99.353947 
2360.000000	99.350367 
2359.000000	99.340913 
2358.000000	99.329711 
2357.000000	99.321154 
2356.000000	99.318434 
2355.000000	99.323466 
2354.000000	99.331904 
2353.000000	99.337806 
2352.000000	99.338610 
2351.000000	99.336911 
2350.000000	99.336917 
2349.000000	99.338823 
2348.000000	99.340990 
2347.000000	99.341118 
2346.000000	99.340108 
2345.000000	99.341518 
2344.000000	99.346042 
2343.000000	99.352456 
2342.000000	99.356046 
2341.000000	99.355058 
2340.000000	99.351682 
2339.000000	99.351219 
2338.000000	99.356017 
2337.000000	99.361665 
2336.000000	99.362491 
2335.000000	99.356783 
2334.000000	99.349193 
2333.000000	99.345448 
2332.000000	99.348987 
2331.000000	99.355407 
2330.000000	99.359958 
2329.000000	99.359784 
2328.000000	99.361608 
2327.000000	99.370162 
2326.000000	99.385141 
2325.000000	99.398871 
2324.000000	99.404703 
2323.000000	99.403853 
2322.000000	99.403064 
2321.000000	99.406785 
2320.000000	99.410659 
2319.000000	99.406993 
2318.000000	99.395360 
2317.000000	99.382232 
2316.000000	99.374714 
2315.000000	99.372088 
2314.000000	99.371916 
2313.000000	99.372523 
2312.000000	99.376062 
2311.000000	99.381210 
2310.000000	99.385360 
2309.000000	99.385291 
2308.000000	99.382064 
2307.000000	99.377518 
2306.000000	99.374188 
2305.000000	99.373028 
2304.000000	99.374933 
2303.000000	99.378997 
2302.000000	99.384036 
2301.000000	99.388445 
2300.000000	99.392408 
2299.000000	99.395635 
2298.000000	99.397275 
2297.000000	99.395081 
2296.000000	99.389431 
2295.000000	99.383528 
2294.000000	99.381733 
2293.000000	99.384825 
2292.000000	99.390333 
2291.000000	99.395315 
2290.000000	99.398621 
2289.000000	99.399845 
2288.000000	99.398721 
2287.000000	99.396315 
2286.000000	99.394501 
2285.000000	99.393029 
2284.000000	99.388594 
2283.000000	99.379564 
2282.000000	99.369662 
2281.000000	99.364727 
2280.000000	99.366044 
2279.000000	99.370053 
2278.000000	99.373772 
2277.000000	99.377504 
2276.000000	99.381753 
2275.000000	99.384661 
2274.000000	99.384221 
2273.000000	99.380773 
2272.000000	99.376099 
2271.000000	99.371371 
2270.000000	99.367636 
2269.000000	99.366416 
2268.000000	99.367937 
2267.000000	99.369621 
2266.000000	99.368622 
2265.000000	99.365417 
2264.000000	99.362968 
2263.000000	99.362222 
2262.000000	99.360795 
2261.000000	99.357010 
2260.000000	99.353054 
2259.000000	99.352478 
2258.000000	99.355613 
2257.000000	99.359932 
2256.000000	99.364100 
2255.000000	99.369110 
2254.000000	99.375021 
2253.000000	99.379611 
2252.000000	99.381973 
2251.000000	99.384557 
2250.000000	99.389419 
2249.000000	99.394244 
2248.000000	99.394829 
2247.000000	99.390813 
2246.000000	99.385252 
2245.000000	99.379958 
2244.000000	99.374300 
2243.000000	99.368307 
2242.000000	99.363704 
2241.000000	99.361795 
2240.000000	99.363351 
2239.000000	99.370238 
2238.000000	99.382826 
2237.000000	99.395140 
2236.000000	99.397651 
2235.000000	99.387745 
2234.000000	99.373992 
2233.000000	99.367116 
2232.000000	99.369022 
2231.000000	99.373087 
2230.000000	99.372654 
2229.000000	99.366520 
2228.000000	99.358223 
2227.000000	99.352797 
2226.000000	99.352945 
2225.000000	99.356383 
2224.000000	99.358559 
2223.000000	99.359140 
2222.000000	99.362442 
2221.000000	99.369194 
2220.000000	99.372438 
2219.000000	99.366608 
2218.000000	99.357644 
2217.000000	99.357721 
2216.000000	99.370218 
2215.000000	99.385596 
2214.000000	99.392786 
2213.000000	99.389553 
2212.000000	99.380381 
2211.000000	99.369854 
2210.000000	99.362162 
2209.000000	99.362838 
2208.000000	99.374027 
2207.000000	99.387669 
2206.000000	99.389115 
2205.000000	99.371964 
2204.000000	99.348034 
2203.000000	99.338114 
2202.000000	99.351301 
2201.000000	99.375372 
2200.000000	99.389256 
2199.000000	99.383455 
2198.000000	99.366016 
2197.000000	99.351164 
2196.000000	99.346897 
2195.000000	99.353426 
2194.000000	99.367317 
2193.000000	99.382663 
2192.000000	99.391666 
2191.000000	99.390129 
2190.000000	99.383227 
2189.000000	99.382371 
2188.000000	99.393723 
2187.000000	99.410418 
2186.000000	99.417718 
2185.000000	99.406618 
2184.000000	99.382229 
2183.000000	99.358013 
2182.000000	99.342742 
2181.000000	99.335146 
2180.000000	99.330901 
2179.000000	99.330457 
2178.000000	99.336751 
2177.000000	99.348350 
2176.000000	99.359751 
2175.000000	99.367593 
2174.000000	99.372231 
2173.000000	99.374140 
2172.000000	99.374091 
2171.000000	99.377097 
2170.000000	99.390555 
2169.000000	99.415988 
2168.000000	99.445660 
2167.000000	99.468960 
2166.000000	99.479663 
2165.000000	99.477591 
2164.000000	99.468018 
2163.000000	99.459746 
2162.000000	99.457936 
2161.000000	99.455953 
2160.000000	99.439122 
2159.000000	99.400844 
2158.000000	99.351329 
2157.000000	99.306731 
2156.000000	99.275329 
2155.000000	99.258669 
2154.000000	99.258338 
2153.000000	99.274164 
2152.000000	99.299210 
2151.000000	99.322415 
2150.000000	99.336434 
2149.000000	99.342078 
2148.000000	99.346411 
2147.000000	99.355922 
2146.000000	99.368533 
2145.000000	99.372703 
2144.000000	99.358926 
2143.000000	99.332579 
2142.000000	99.310395 
2141.000000	99.302940 
2140.000000	99.305419 
2139.000000	99.308079 
2138.000000	99.309535 
2137.000000	99.314561 
2136.000000	99.322950 
2135.000000	99.327916 
2134.000000	99.325536 
2133.000000	99.320414 
2132.000000	99.320014 
2131.000000	99.326021 
2130.000000	99.332895 
2129.000000	99.333745 
2128.000000	99.326807 
2127.000000	99.316370 
2126.000000	99.308106 
2125.000000	99.304778 
2124.000000	99.306869 
2123.000000	99.314914 
2122.000000	99.328045 
2121.000000	99.341262 
2120.000000	99.348567 
2119.000000	99.349856 
2118.000000	99.351351 
2117.000000	99.357923 
2116.000000	99.367839 
2115.000000	99.376125 
2114.000000	99.379633 
2113.000000	99.377109 
2112.000000	99.368368 
2111.000000	99.357007 
2110.000000	99.351017 
2109.000000	99.355863 
2108.000000	99.367228 
2107.000000	99.374119 
2106.000000	99.369575 
2105.000000	99.356640 
2104.000000	99.344444 
2103.000000	99.340215 
2102.000000	99.344349 
2101.000000	99.350718 
2100.000000	99.351653 
2099.000000	99.344387 
2098.000000	99.333372 
2097.000000	99.326193 
2096.000000	99.327457 
2095.000000	99.336346 
2094.000000	99.348058 
2093.000000	99.356523 
2092.000000	99.357890 
2091.000000	99.353578 
2090.000000	99.349480 
2089.000000	99.350649 
2088.000000	99.356390 
2087.000000	99.360741 
2086.000000	99.357445 
2085.000000	99.345532 
2084.000000	99.332201 
2083.000000	99.329379 
2082.000000	99.343857 
2081.000000	99.369456 
2080.000000	99.391739 
2079.000000	99.402107 
2078.000000	99.404719 
2077.000000	99.408535 
2076.000000	99.415810 
2075.000000	99.420614 
2074.000000	99.416070 
2073.000000	99.400721 
2072.000000	99.379878 
2071.000000	99.362492 
2070.000000	99.354727 
2069.000000	99.354462 
2068.000000	99.353388 
2067.000000	99.346023 
2066.000000	99.335123 
2065.000000	99.328040 
2064.000000	99.330375 
2063.000000	99.343346 
2062.000000	99.362480 
2061.000000	99.377003 
2060.000000	99.376917 
2059.000000	99.365009 
2058.000000	99.356866 
2057.000000	99.363893 
2056.000000	99.380088 
2055.000000	99.391071 
2054.000000	99.392779 
2053.000000	99.394365 
2052.000000	99.403942 
2051.000000	99.418288 
2050.000000	99.427545 
2049.000000	99.425555 
2048.000000	99.414647 
2047.000000	99.402843 
2046.000000	99.397329 
2045.000000	99.398412 
2044.000000	99.398975 
2043.000000	99.392008 
2042.000000	99.378874 
2041.000000	99.368007 
2040.000000	99.365600 
2039.000000	99.370398 
2038.000000	99.377225 
2037.000000	99.381702 
2036.000000	99.380901 
2035.000000	99.372604 
2034.000000	99.356311 
2033.000000	99.335363 
2032.000000	99.317753 
2031.000000	99.313111 
2030.000000	99.325182 
2029.000000	99.345369 
2028.000000	99.357215 
2027.000000	99.350899 
2026.000000	99.331672 
2025.000000	99.313126 
2024.000000	99.305130 
2023.000000	99.309734 
2022.000000	99.324003 
2021.000000	99.341788 
2020.000000	99.355504 
2019.000000	99.361319 
2018.000000	99.361909 
2017.000000	99.361300 
2016.000000	99.358598 
2015.000000	99.350483 
2014.000000	99.338004 
2013.000000	99.326784 
2012.000000	99.321550 
2011.000000	99.323093 
2010.000000	99.329435 
2009.000000	99.337075 
2008.000000	99.342310 
2007.000000	99.344215 
2006.000000	99.345326 
2005.000000	99.347490 
2004.000000	99.348824 
2003.000000	99.346428 
2002.000000	99.339963 
2001.000000	99.330851 
2000.000000	99.320383 
1999.000000	99.310319 
1998.000000	99.302796 
1997.000000	99.298321 
1996.000000	99.296528 
1995.000000	99.299430 
1994.000000	99.309996 
1993.000000	99.325742 
1992.000000	99.337569 
1991.000000	99.338535 
1990.000000	99.330880 
1989.000000	99.321653 
1988.000000	99.316112 
1987.000000	99.318006 
1986.000000	99.330977 
1985.000000	99.354557 
1984.000000	99.380889 
1983.000000	99.399261 
1982.000000	99.403050 
1981.000000	99.391658 
1980.000000	99.369734 
1979.000000	99.346620 
1978.000000	99.331368 
1977.000000	99.323773 
1976.000000	99.314420 
1975.000000	99.297734 
1974.000000	99.280005 
1973.000000	99.270771 
1972.000000	99.271572 
1971.000000	99.278098 
1970.000000	99.288828 
1969.000000	99.305077 
1968.000000	99.324285 
1967.000000	99.339140 
1966.000000	99.344625 
1965.000000	99.342483 
1964.000000	99.338065 
1963.000000	99.335355 
1962.000000	99.335159 
1961.000000	99.336215 
1960.000000	99.337611 
1959.000000	99.339653 
1958.000000	99.341321 
1957.000000	99.338322 
1956.000000	99.326803 
1955.000000	99.308629 
1954.000000	99.289844 
1953.000000	99.274316 
1952.000000	99.262676 
1951.000000	99.257265 
1950.000000	99.262261 
1949.000000	99.276142 
1948.000000	99.289279 
1947.000000	99.293271 
1946.000000	99.288765 
1945.000000	99.281040 
1944.000000	99.272622 
1943.000000	99.264524 
1942.000000	99.259832 
1941.000000	99.259265 
1940.000000	99.257560 
1939.000000	99.250713 
1938.000000	99.243455 
1937.000000	99.244645 
1936.000000	99.256009 
1935.000000	99.269812 
1934.000000	99.277864 
1933.000000	99.278943 
1932.000000	99.277136 
1931.000000	99.276970 
1930.000000	99.281465 
1929.000000	99.290471 
1928.000000	99.299295 
1927.000000	99.301811 
1926.000000	99.295540 
1925.000000	99.282588 
1924.000000	99.267243 
1923.000000	99.255248 
1922.000000	99.253055 
1921.000000	99.262717 
1920.000000	99.278434 
1919.000000	99.290591 
1918.000000	99.293264 
1917.000000	99.287788 
1916.000000	99.279271 
1915.000000	99.273005 
1914.000000	99.273566 
1913.000000	99.282017 
1912.000000	99.292823 
1911.000000	99.297467 
1910.000000	99.292787 
1909.000000	99.283506 
1908.000000	99.276659 
1907.000000	99.276478 
1906.000000	99.283742 
1905.000000	99.295102 
1904.000000	99.302499 
1903.000000	99.298253 
1902.000000	99.282463 
1901.000000	99.263178 
1900.000000	99.249407 
1899.000000	99.245326 
1898.000000	99.249730 
1897.000000	99.257739 
1896.000000	99.263198 
1895.000000	99.263472 
1894.000000	99.262494 
1893.000000	99.265894 
1892.000000	99.273900 
1891.000000	99.281854 
1890.000000	99.286453 
1889.000000	99.288765 
1888.000000	99.290579 
1887.000000	99.291649 
1886.000000	99.291270 
1885.000000	99.289599 
1884.000000	99.287135 
1883.000000	99.284536 
1882.000000	99.282861 
1881.000000	99.282208 
1880.000000	99.280749 
1879.000000	99.276421 
1878.000000	99.268951 
1877.000000	99.259766 
1876.000000	99.251456 
1875.000000	99.248464 
1874.000000	99.255882 
1873.000000	99.273835 
1872.000000	99.293975 
1871.000000	99.304788 
1870.000000	99.300931 
1869.000000	99.287415 
1868.000000	99.272893 
1867.000000	99.260684 
1866.000000	99.250045 
1865.000000	99.241139 
1864.000000	99.236479 
1863.000000	99.239448 
1862.000000	99.251062 
1861.000000	99.266859 
1860.000000	99.278699 
1859.000000	99.282531 
1858.000000	99.282851 
1857.000000	99.286486 
1856.000000	99.294267 
1855.000000	99.302055 
1854.000000	99.306782 
1853.000000	99.307784 
1852.000000	99.304432 
1851.000000	99.296462 
1850.000000	99.286478 
1849.000000	99.279286 
1848.000000	99.277520 
1847.000000	99.279694 
1846.000000	99.282726 
1845.000000	99.283437 
1844.000000	99.279303 
1843.000000	99.271853 
1842.000000	99.266588 
1841.000000	99.266824 
1840.000000	99.271104 
1839.000000	99.275730 
1838.000000	99.278609 
1837.000000	99.280379 
1836.000000	99.282148 
1835.000000	99.284537 
1834.000000	99.288456 
1833.000000	99.294689 
1832.000000	99.302164 
1831.000000	99.306759 
1830.000000	99.304757 
1829.000000	99.298659 
1828.000000	99.294796 
1827.000000	99.295129 
1826.000000	99.296448 
1825.000000	99.296351 
1824.000000	99.296270 
1823.000000	99.298191 
1822.000000	99.301336 
1821.000000	99.302368 
1820.000000	99.298074 
1819.000000	99.288415 
1818.000000	99.277869 
1817.000000	99.272356 
1816.000000	99.273085 
1815.000000	99.275985 
1814.000000	99.277732 
1813.000000	99.279703 
1812.000000	99.285433 
1811.000000	99.294992 
1810.000000	99.305553 
1809.000000	99.315465 
1808.000000	99.322919 
1807.000000	99.324270 
1806.000000	99.318097 
1805.000000	99.308594 
1804.000000	99.301716 
1803.000000	99.298942 
1802.000000	99.297613 
1801.000000	99.296500 
1800.000000	99.296134 
1799.000000	99.295550 
1798.000000	99.293884 
1797.000000	99.292422 
1796.000000	99.293577 
1795.000000	99.298908 
1794.000000	99.307103 
1793.000000	99.313104 
1792.000000	99.312301 
1791.000000	99.305832 
1790.000000	99.299244 
1789.000000	99.297270 
1788.000000	99.301252 
1787.000000	99.308981 
1786.000000	99.316020 
1785.000000	99.318291 
1784.000000	99.314664 
1783.000000	99.308398 
1782.000000	99.304331 
1781.000000	99.303954 
1780.000000	99.303811 
1779.000000	99.299983 
1778.000000	99.294034 
1777.000000	99.290879 
1776.000000	99.293440 
1775.000000	99.302033 
1774.000000	99.315337 
1773.000000	99.329083 
1772.000000	99.336815 
1771.000000	99.336565 
1770.000000	99.331996 
1769.000000	99.325673 
1768.000000	99.318480 
1767.000000	99.311830 
1766.000000	99.308147 
1765.000000	99.309375 
1764.000000	99.314649 
1763.000000	99.319739 
1762.000000	99.320089 
1761.000000	99.316430 
1760.000000	99.314111 
1759.000000	99.316087 
1758.000000	99.320446 
1757.000000	99.322945 
1756.000000	99.321726 
1755.000000	99.318752 
1754.000000	99.315748 
1753.000000	99.312368 
1752.000000	99.309880 
1751.000000	99.313671 
1750.000000	99.325646 
1749.000000	99.338414 
1748.000000	99.344229 
1747.000000	99.343266 
1746.000000	99.340411 
1745.000000	99.338525 
1744.000000	99.337665 
1743.000000	99.337663 
1742.000000	99.339022 
1741.000000	99.342069 
1740.000000	99.345333 
1739.000000	99.346684 
1738.000000	99.346336 
1737.000000	99.345306 
1736.000000	99.342056 
1735.000000	99.332115 
1734.000000	99.315686 
1733.000000	99.304269 
1732.000000	99.306108 
1731.000000	99.316983 
1730.000000	99.328519 
1729.000000	99.334158 
1728.000000	99.333077 
1727.000000	99.329588 
1726.000000	99.327478 
1725.000000	99.326575 
1724.000000	99.325248 
1723.000000	99.324779 
1722.000000	99.328958 
1721.000000	99.339354 
1720.000000	99.352428 
1719.000000	99.360631 
1718.000000	99.357427 
1717.000000	99.346896 
1716.000000	99.337902 
1715.000000	99.331665 
1714.000000	99.327085 
1713.000000	99.325285 
1712.000000	99.326359 
1711.000000	99.329106 
1710.000000	99.332606 
1709.000000	99.336150 
1708.000000	99.338338 
1707.000000	99.337968 
1706.000000	99.337114 
1705.000000	99.339744 
1704.000000	99.344357 
1703.000000	99.343937 
1702.000000	99.335229 
1701.000000	99.323757 
1700.000000	99.318903 
1699.000000	99.320578 
1698.000000	99.324998 
1697.000000	99.331178 
1696.000000	99.337566 
1695.000000	99.340343 
1694.000000	99.340347 
1693.000000	99.340428 
1692.000000	99.339704 
1691.000000	99.337020 
1690.000000	99.333647 
1689.000000	99.331680 
1688.000000	99.330879 
1687.000000	99.329333 
1686.000000	99.327660 
1685.000000	99.327645 
1684.000000	99.327427 
1683.000000	99.326219 
1682.000000	99.327191 
1681.000000	99.328849 
1680.000000	99.329432 
1679.000000	99.328981 
1678.000000	99.328773 
1677.000000	99.329659 
1676.000000	99.331125 
1675.000000	99.332547 
1674.000000	99.334013 
1673.000000	99.336075 
1672.000000	99.338124 
1671.000000	99.339322 
1670.000000	99.339193 
1669.000000	99.337595 
1668.000000	99.336124 
1667.000000	99.336105 
1666.000000	99.335651 
1665.000000	99.332892 
1664.000000	99.329297 
1663.000000	99.329147 
1662.000000	99.334942 
1661.000000	99.343574 
1660.000000	99.349828 
1659.000000	99.352488 
1658.000000	99.353914 
1657.000000	99.355072 
1656.000000	99.352970 
1655.000000	99.347062 
1654.000000	99.342874 
1653.000000	99.341798 
1652.000000	99.337926 
1651.000000	99.337237 
1650.000000	99.336322 
1649.000000	99.331185 
1648.000000	99.322112 
1647.000000	99.312310 
1646.000000	99.305668 
1645.000000	99.306630 
1644.000000	99.314954 
1643.000000	99.325452 
1642.000000	99.333118 
1641.000000	99.336321 
1640.000000	99.336334 
1639.000000	99.335069 
1638.000000	99.333843 
1637.000000	99.333257 
1636.000000	99.331640 
1635.000000	99.328155 
1634.000000	99.327980 
1633.000000	99.333167 
1632.000000	99.339780 
1631.000000	99.344553 
1630.000000	99.346647 
1629.000000	99.346510 
1628.000000	99.345129 
1627.000000	99.344294 
1626.000000	99.345564 
1625.000000	99.349117 
1624.000000	99.353668 
1623.000000	99.357625 
1622.000000	99.360898 
1621.000000	99.363836 
1620.000000	99.364944 
1619.000000	99.362726 
1618.000000	99.358304 
1617.000000	99.354284 
1616.000000	99.352279 
1615.000000	99.352858 
1614.000000	99.353842 
1613.000000	99.352366 
1612.000000	99.348812 
1611.000000	99.345277 
1610.000000	99.342555 
1609.000000	99.339902 
1608.000000	99.337345 
1607.000000	99.335994 
1606.000000	99.335784 
1605.000000	99.335660 
1604.000000	99.336035 
1603.000000	99.338733 
1602.000000	99.343710 
1601.000000	99.347878 
1600.000000	99.348951 
1599.000000	99.348405 
1598.000000	99.349050 
1597.000000	99.351638 
1596.000000	99.355081 
1595.000000	99.358553 
1594.000000	99.361644 
1593.000000	99.362996 
1592.000000	99.361401 
1591.000000	99.358074 
1590.000000	99.355875 
1589.000000	99.355952 
1588.000000	99.357320 
1587.000000	99.359375 
1586.000000	99.362028 
1585.000000	99.363769 
1584.000000	99.362270 
1583.000000	99.357196 
1582.000000	99.351323 
1581.000000	99.347663 
1580.000000	99.346739 
1579.000000	99.347487 
1578.000000	99.349577 
1577.000000	99.352568 
1576.000000	99.354238 
1575.000000	99.355377 
1574.000000	99.358788 
1573.000000	99.361290 
1572.000000	99.358956 
1571.000000	99.353271 
1570.000000	99.349888 
1569.000000	99.351699 
1568.000000	99.356215 
1567.000000	99.359920 
1566.000000	99.360905 
1565.000000	99.359562 
1564.000000	99.357720 
1563.000000	99.356890 
1562.000000	99.357180 
1561.000000	99.357582 
1560.000000	99.356680 
1559.000000	99.352240 
1558.000000	99.345752 
1557.000000	99.347501 
1556.000000	99.354739 
1555.000000	99.358705 
1554.000000	99.356232 
1553.000000	99.351366 
1552.000000	99.349520 
1551.000000	99.351562 
1550.000000	99.355394 
1549.000000	99.358793 
1548.000000	99.360507 
1547.000000	99.359692 
1546.000000	99.354772 
1545.000000	99.346026 
1544.000000	99.337360 
1543.000000	99.332809 
1542.000000	99.334717 
1541.000000	99.342428 
1540.000000	99.345351 
1539.000000	99.337100 
1538.000000	99.329870 
1537.000000	99.329704 
1536.000000	99.331727 
1535.000000	99.332131 
1534.000000	99.331778 
1533.000000	99.332432 
1532.000000	99.332852 
1531.000000	99.330884 
1530.000000	99.328022 
1529.000000	99.327483 
1528.000000	99.329117 
1527.000000	99.330088 
1526.000000	99.329295 
1525.000000	99.329212 
1524.000000	99.332092 
1523.000000	99.337717 
1522.000000	99.344092 
1521.000000	99.347702 
1520.000000	99.345513 
1519.000000	99.338744 
1518.000000	99.330757 
1517.000000	99.325051 
1516.000000	99.322927 
1515.000000	99.323171 
1514.000000	99.324367 
1513.000000	99.325044 
1512.000000	99.323654 
1511.000000	99.319868 
1510.000000	99.314917 
1509.000000	99.311018 
1508.000000	99.312344 
1507.000000	99.320241 
1506.000000	99.323452 
1505.000000	99.318490 
1504.000000	99.313852 
1503.000000	99.311591 
1502.000000	99.311396 
1501.000000	99.313971 
1500.000000	99.319171 
1499.000000	99.324491 
1498.000000	99.326659 
1497.000000	99.326358 
1496.000000	99.326396 
1495.000000	99.325478 
1494.000000	99.320955 
1493.000000	99.313419 
1492.000000	99.305306 
1491.000000	99.298484 
1490.000000	99.293408 
1489.000000	99.289836 
1488.000000	99.285802 
1487.000000	99.279968 
1486.000000	99.275191 
1485.000000	99.273753 
1484.000000	99.274470 
1483.000000	99.274857 
1482.000000	99.272498 
1481.000000	99.267338 
1480.000000	99.261737 
1479.000000	99.258083 
1478.000000	99.256927 
1477.000000	99.257373 
1476.000000	99.258225 
1475.000000	99.257654 
1474.000000	99.255722 
1473.000000	99.255306 
1472.000000	99.257593 
1471.000000	99.258974 
1470.000000	99.258011 
1469.000000	99.257457 
1468.000000	99.260046 
1467.000000	99.265520 
1466.000000	99.271667 
1465.000000	99.276127 
1464.000000	99.277861 
1463.000000	99.278035 
1462.000000	99.278412 
1461.000000	99.279907 
1460.000000	99.281538 
1459.000000	99.280626 
1458.000000	99.272149 
1457.000000	99.254333 
1456.000000	99.235401 
1455.000000	99.223637 
1454.000000	99.219066 
1453.000000	99.218496 
1452.000000	99.218538 
1451.000000	99.217180 
1450.000000	99.215847 
1449.000000	99.218275 
1448.000000	99.225259 
1447.000000	99.232343 
1446.000000	99.235842 
1445.000000	99.236846 
1444.000000	99.237445 
1443.000000	99.237179 
1442.000000	99.235242 
1441.000000	99.233481 
1440.000000	99.235601 
1439.000000	99.243169 
1438.000000	99.251788 
1437.000000	99.253417 
1436.000000	99.245594 
1435.000000	99.234253 
1434.000000	99.225829 
1433.000000	99.222745 
1432.000000	99.223744 
1431.000000	99.226149 
1430.000000	99.227048 
1429.000000	99.225242 
1428.000000	99.221975 
1427.000000	99.218656 
1426.000000	99.214691 
1425.000000	99.207694 
1424.000000	99.198362 
1423.000000	99.190701 
1422.000000	99.185531 
1421.000000	99.179414 
1420.000000	99.168122 
1419.000000	99.150721 
1418.000000	99.128969 
1417.000000	99.105255 
1416.000000	99.082771 
1415.000000	99.063163 
1414.000000	99.044632 
1413.000000	99.024055 
1412.000000	99.001974 
1411.000000	98.982388 
1410.000000	98.966708 
1409.000000	98.953724 
1408.000000	98.944219 
1407.000000	98.940122 
1406.000000	98.940904 
1405.000000	98.944830 
1404.000000	98.953202 
1403.000000	98.967088 
1402.000000	98.982920 
1401.000000	98.996576 
1400.000000	99.007521 
1399.000000	99.016621 
1398.000000	99.017787 
1397.000000	98.999134 
1396.000000	98.957167 
1395.000000	98.909580 
1394.000000	98.886698 
1393.000000	98.902053 
1392.000000	98.944368 
1391.000000	98.993305 
1390.000000	99.032623 
1389.000000	99.053728 
1388.000000	99.055228 
1387.000000	99.042704 
1386.000000	99.025742 
1385.000000	99.012400 
1384.000000	99.005789 
1383.000000	99.004536 
1382.000000	99.005757 
1381.000000	99.008943 
1380.000000	99.015423 
1379.000000	99.025548 
1378.000000	99.037822 
1377.000000	99.050494 
1376.000000	99.063136 
1375.000000	99.076267 
1374.000000	99.089872 
1373.000000	99.102654 
1372.000000	99.114059 
1371.000000	99.126091 
1370.000000	99.141274 
1369.000000	99.158227 
1368.000000	99.173746 
1367.000000	99.186927 
1366.000000	99.199357 
1365.000000	99.212006 
1364.000000	99.222890 
1363.000000	99.229611 
1362.000000	99.233062 
1361.000000	99.235567 
1360.000000	99.237651 
1359.000000	99.239487 
1358.000000	99.242996 
1357.000000	99.249987 
1356.000000	99.259305 
1355.000000	99.267642 
1354.000000	99.273426 
1353.000000	99.277985 
1352.000000	99.281766 
1351.000000	99.282971 
1350.000000	99.281848 
1349.000000	99.280622 
1348.000000	99.281549 
1347.000000	99.285160 
1346.000000	99.290907 
1345.000000	99.297451 
1344.000000	99.302983 
1343.000000	99.306421 
1342.000000	99.308248 
1341.000000	99.308930 
1340.000000	99.307600 
1339.000000	99.303735 
1338.000000	99.298876 
1337.000000	99.295507 
1336.000000	99.294690 
1335.000000	99.295608 
1334.000000	99.297481 
1333.000000	99.300451 
1332.000000	99.304131 
1331.000000	99.307047 
1330.000000	99.308071 
1329.000000	99.307123 
1328.000000	99.304817 
1327.000000	99.302315 
1326.000000	99.301293 
1325.000000	99.302089 
1324.000000	99.304060 
1323.000000	99.306647 
1322.000000	99.309312 
1321.000000	99.310692 
1320.000000	99.309526 
1319.000000	99.306717 
1318.000000	99.305056 
1317.000000	99.306112 
1316.000000	99.308072 
1315.000000	99.307598 
1314.000000	99.303374 
1313.000000	99.297606 
1312.000000	99.293960 
1311.000000	99.294389 
1310.000000	99.298016 
1309.000000	99.302314 
1308.000000	99.304967 
1307.000000	99.304966 
1306.000000	99.303049 
1305.000000	99.300669 
1304.000000	99.299584 
1303.000000	99.301005 
1302.000000	99.304835 
1301.000000	99.309344 
1300.000000	99.312139 
1299.000000	99.311764 
1298.000000	99.308654 
1297.000000	99.304687 
1296.000000	99.301677 
1295.000000	99.300566 
1294.000000	99.301345 
1293.000000	99.303245 
1292.000000	99.304725 
1291.000000	99.303780 
1290.000000	99.299368 
1289.000000	99.292814 
1288.000000	99.287009 
1287.000000	99.283637 
1286.000000	99.281544 
1285.000000	99.278538 
1284.000000	99.274307 
1283.000000	99.270425 
1282.000000	99.267946 
1281.000000	99.266311 
1280.000000	99.264553 
1279.000000	99.262266 
1278.000000	99.258757 
1277.000000	99.252781 
1276.000000	99.243975 
1275.000000	99.234140 
1274.000000	99.225798 
1273.000000	99.219674 
1272.000000	99.214302 
1271.000000	99.207655 
1270.000000	99.198520 
1269.000000	99.187027 
1268.000000	99.174917 
1267.000000	99.164576 
1266.000000	99.156398 
1265.000000	99.147924 
1264.000000	99.136629 
1263.000000	99.122735 
1262.000000	99.108271 
1261.000000	99.094491 
1260.000000	99.081792 
1259.000000	99.071207 
1258.000000	99.063482 
1257.000000	99.057503 
1256.000000	99.051600 
1255.000000	99.046215 
1254.000000	99.043137 
1253.000000	99.042191 
1252.000000	99.040956 
1251.000000	99.038538 
1250.000000	99.037595 
1249.000000	99.041674 
1248.000000	99.052035 
1247.000000	99.067040 
1246.000000	99.081900 
1245.000000	99.088696 
1244.000000	99.080838 
1243.000000	99.061394 
1242.000000	99.045058 
1241.000000	99.046843 
1240.000000	99.067595 
1239.000000	99.092804 
1238.000000	99.106405 
1237.000000	99.103973 
1236.000000	99.092112 
1235.000000	99.078606 
1234.000000	99.066232 
1233.000000	99.054500 
1232.000000	99.043521 
1231.000000	99.034520 
1230.000000	99.028124 
1229.000000	99.023920 
1228.000000	99.021697 
1227.000000	99.022241 
1226.000000	99.026549 
1225.000000	99.034208 
1224.000000	99.042748 
1223.000000	99.049078 
1222.000000	99.052116 
1221.000000	99.053848 
1220.000000	99.057366 
1219.000000	99.063956 
1218.000000	99.072253 
1217.000000	99.079877 
1216.000000	99.085213 
1215.000000	99.087956 
1214.000000	99.089078 
1213.000000	99.090421 
1212.000000	99.093093 
1211.000000	99.095573 
1210.000000	99.094660 
1209.000000	99.089325 
1208.000000	99.082622 
1207.000000	99.078506 
1206.000000	99.077386 
1205.000000	99.076308 
1204.000000	99.073067 
1203.000000	99.068233 
1202.000000	99.062841 
1201.000000	99.056200 
1200.000000	99.047500 
1199.000000	99.038275 
1198.000000	99.031282 
1197.000000	99.027312 
1196.000000	99.024631 
1195.000000	99.021323 
1194.000000	99.016792 
1193.000000	99.010833 
1192.000000	99.002944 
1191.000000	98.993436 
1190.000000	98.984201 
1189.000000	98.977318 
1188.000000	98.973261 
1187.000000	98.970906 
1186.000000	98.968748 
1185.000000	98.965437 
1184.000000	98.959499 
1183.000000	98.949668 
1182.000000	98.936241 
1181.000000	98.921873 
1180.000000	98.910321 
1179.000000	98.903625 
1178.000000	98.899986 
1177.000000	98.894820 
1176.000000	98.884701 
1175.000000	98.870503 
1174.000000	98.856398 
1173.000000	98.845743 
1172.000000	98.838717 
1171.000000	98.833705 
1170.000000	98.829441 
1169.000000	98.825041 
1168.000000	98.819122 
1167.000000	98.810456 
1166.000000	98.799668 
1165.000000	98.789572 
1164.000000	98.783565 
1163.000000	98.783593 
1162.000000	98.788995 
1161.000000	98.796680 
1160.000000	98.802806 
1159.000000	98.805318 
1158.000000	98.805071 
1157.000000	98.803944 
1156.000000	98.801883 
1155.000000	98.796449 
1154.000000	98.785474 
1153.000000	98.769658 
1152.000000	98.752443 
1151.000000	98.737674 
1150.000000	98.727187 
1149.000000	98.719869 
1148.000000	98.712582 
1147.000000	98.702384 
1146.000000	98.688558 
1145.000000	98.672911 
1144.000000	98.658173 
1143.000000	98.646055 
1142.000000	98.636439 
1141.000000	98.627967 
1140.000000	98.619192 
1139.000000	98.609178 
1138.000000	98.597455 
1137.000000	98.584060 
1136.000000	98.570014 
1135.000000	98.557282 
1134.000000	98.547388 
1133.000000	98.539825 
1132.000000	98.532342 
1131.000000	98.523050 
1130.000000	98.511808 
1129.000000	98.499249 
1128.000000	98.485081 
1127.000000	98.468273 
1126.000000	98.449033 
1125.000000	98.429785 
1124.000000	98.413483 
1123.000000	98.400901 
1122.000000	98.389786 
1121.000000	98.376840 
1120.000000	98.360445 
1119.000000	98.341295 
1118.000000	98.320656 
1117.000000	98.298735 
1116.000000	98.275209 
1115.000000	98.250676 
1114.000000	98.226420 
1113.000000	98.202525 
1112.000000	98.177441 
1111.000000	98.150357 
1110.000000	98.123282 
1109.000000	98.099321 
1108.000000	98.078935 
1107.000000	98.058858 
1106.000000	98.035729 
1105.000000	98.009928 
1104.000000	97.984563 
1103.000000	97.961415 
1102.000000	97.939911 
1101.000000	97.919991 
1100.000000	97.904166 
1099.000000	97.893424 
1098.000000	97.885006 
1097.000000	97.875107 
1096.000000	97.863179 
1095.000000	97.850697 
1094.000000	97.836091 
1093.000000	97.813972 
1092.000000	97.780358 
1091.000000	97.736617 
1090.000000	97.687109 
1089.000000	97.634556 
1088.000000	97.579360 
1087.000000	97.522519 
1086.000000	97.467357 
1085.000000	97.418017 
1084.000000	97.376454 
1083.000000	97.340472 
1082.000000	97.304875 
1081.000000	97.265750 
1080.000000	97.223799 
1079.000000	97.182902 
1078.000000	97.146350 
1077.000000	97.116049 
1076.000000	97.094165 
1075.000000	97.082463 
1074.000000	97.080110 
1073.000000	97.084394 
1072.000000	97.091659 
1071.000000	97.093064 
1070.000000	97.071821 
1069.000000	97.014513 
1068.000000	96.930385 
1067.000000	96.853827 
1066.000000	96.819535 
1065.000000	96.834339 
1064.000000	96.875798 
1063.000000	96.913902 
1062.000000	96.928760 
1061.000000	96.912519 
1060.000000	96.867110 
1059.000000	96.806394 
1058.000000	96.753376 
1057.000000	96.725252 
1056.000000	96.719444 
1055.000000	96.717430 
1054.000000	96.703133 
1053.000000	96.676350 
1052.000000	96.648641 
1051.000000	96.629176 
1050.000000	96.617060 
1049.000000	96.606470 
1048.000000	96.595431 
1047.000000	96.587281 
1046.000000	96.585242 
1045.000000	96.588170 
1044.000000	96.592144 
1043.000000	96.595065 
1042.000000	96.598424 
1041.000000	96.604146 
1040.000000	96.611230 
1039.000000	96.618078 
1038.000000	96.628100 
1037.000000	96.649358 
1036.000000	96.686109 
1035.000000	96.733067 
1034.000000	96.780737 
1033.000000	96.823211 
1032.000000	96.855768 
1031.000000	96.868659 
1030.000000	96.854049 
1029.000000	96.822325 
1028.000000	96.802791 
1027.000000	96.820080 
1026.000000	96.871448 
1025.000000	96.931918 
1024.000000	96.978854 
1023.000000	97.006276 
1022.000000	97.019296 
1021.000000	97.023988 
1020.000000	97.024951 
1019.000000	97.026400 
1018.000000	97.030597 
1017.000000	97.036678 
1016.000000	97.043415 
1015.000000	97.052115 
1014.000000	97.065394 
1013.000000	97.083907 
1012.000000	97.105172 
1011.000000	97.125117 
1010.000000	97.140925 
1009.000000	97.153369 
1008.000000	97.166204 
1007.000000	97.182431 
1006.000000	97.201630 
1005.000000	97.221915 
1004.000000	97.243299 
1003.000000	97.267052 
1002.000000	97.292370 
1001.000000	97.316041 
1000.000000	97.335462 
999.000000	 97.350101 
998.000000	 97.360146 
997.000000	 97.366204 
996.000000	 97.371217 
995.000000	 97.380593 
994.000000	 97.398345 
993.000000	 97.423086 
992.000000	 97.448434 
991.000000	 97.467591 
990.000000	 97.478365 
989.000000	 97.484740 
988.000000	 97.493319 
987.000000	 97.507469 
986.000000	 97.525198 
985.000000	 97.543199 
984.000000	 97.561624 
983.000000	 97.583213 
982.000000	 97.608738 
981.000000	 97.635715 
980.000000	 97.661466 
979.000000	 97.685197 
978.000000	 97.706946 
977.000000	 97.726952 
976.000000	 97.746876 
975.000000	 97.769449 
974.000000	 97.795470 
973.000000	 97.822644 
972.000000	 97.848662 
971.000000	 97.874016 
970.000000	 97.900358 
969.000000	 97.927464 
968.000000	 97.953776 
967.000000	 97.978965 
966.000000	 98.003545 
965.000000	 98.026150 
964.000000	 98.043911 
963.000000	 98.056535 
962.000000	 98.067920 
961.000000	 98.082043 
960.000000	 98.098673 
959.000000	 98.114816 
958.000000	 98.129144 
957.000000	 98.142870 
956.000000	 98.156989 
955.000000	 98.171288 
954.000000	 98.186145 
953.000000	 98.202652 
952.000000	 98.219880 
951.000000	 98.234233 
950.000000	 98.243274 
949.000000	 98.248907 
948.000000	 98.255287 
947.000000	 98.264661 
946.000000	 98.276609 
945.000000	 98.290087 
944.000000	 98.304126 
943.000000	 98.316833 
942.000000	 98.325705 
941.000000	 98.329542 
940.000000	 98.329346 
939.000000	 98.327402 
938.000000	 98.326065 
937.000000	 98.326793 
936.000000	 98.329344 
935.000000	 98.332023 
934.000000	 98.333412 
933.000000	 98.333582 
932.000000	 98.333385 
931.000000	 98.333654 
930.000000	 98.335893 
929.000000	 98.342416 
928.000000	 98.354002 
927.000000	 98.367885 
926.000000	 98.379585 
925.000000	 98.386496 
924.000000	 98.388547 
923.000000	 98.386335 
922.000000	 98.380687 
921.000000	 98.373687 
920.000000	 98.367911 
919.000000	 98.364164 
918.000000	 98.361238 
917.000000	 98.357969 
916.000000	 98.354171 
915.000000	 98.349789 
914.000000	 98.345157 
913.000000	 98.342448 
912.000000	 98.344700 
911.000000	 98.352012 
910.000000	 98.359904 
909.000000	 98.362871 
908.000000	 98.359180 
907.000000	 98.351645 
906.000000	 98.344548 
905.000000	 98.340516 
904.000000	 98.340018 
903.000000	 98.343046 
902.000000	 98.350650 
901.000000	 98.364233 
900.000000	 98.383223 
899.000000	 98.404410 
898.000000	 98.424242 
897.000000	 98.440843 
896.000000	 98.453001 
895.000000	 98.459474 
894.000000	 98.461870 
893.000000	 98.466530 
892.000000	 98.479844 
891.000000	 98.501560 
890.000000	 98.525563 
889.000000	 98.547270 
888.000000	 98.566757 
887.000000	 98.584053 
886.000000	 98.595751 
885.000000	 98.599117 
884.000000	 98.597002 
883.000000	 98.595555 
882.000000	 98.598012 
881.000000	 98.603161 
880.000000	 98.609430 
879.000000	 98.618005 
878.000000	 98.630978 
877.000000	 98.647194 
876.000000	 98.660745 
875.000000	 98.664514 
874.000000	 98.656830 
873.000000	 98.645090 
872.000000	 98.641379 
871.000000	 98.652923 
870.000000	 98.675966 
869.000000	 98.698793 
868.000000	 98.711098 
867.000000	 98.711930 
866.000000	 98.710098 
865.000000	 98.716384 
864.000000	 98.734222 
863.000000	 98.757887 
862.000000	 98.779396 
861.000000	 98.795432 
860.000000	 98.807167 
859.000000	 98.817016 
858.000000	 98.828699 
857.000000	 98.847501 
856.000000	 98.875084 
855.000000	 98.904146 
854.000000	 98.922975 
853.000000	 98.926794 
852.000000	 98.921627 
851.000000	 98.916569 
850.000000	 98.915630 
849.000000	 98.917845 
848.000000	 98.921536 
847.000000	 98.926096 
846.000000	 98.931867 
845.000000	 98.940342 
844.000000	 98.953101 
843.000000	 98.968909 
842.000000	 98.982743 
841.000000	 98.988850 
840.000000	 98.984895 
839.000000	 98.973970 
838.000000	 98.963258 
837.000000	 98.958722 
836.000000	 98.959192 
835.000000	 98.957717 
834.000000	 98.951143 
833.000000	 98.944808 
832.000000	 98.942642 
831.000000	 98.936355 
830.000000	 98.914528 
829.000000	 98.883795 
828.000000	 98.869517 
827.000000	 98.887490 
826.000000	 98.922132 
825.000000	 98.943258 
824.000000	 98.940681 
823.000000	 98.930944 
822.000000	 98.932024 
821.000000	 98.943625 
820.000000	 98.953575 
819.000000	 98.953279 
818.000000	 98.943849 
817.000000	 98.932942 
816.000000	 98.927833 
815.000000	 98.928328 
814.000000	 98.925520 
813.000000	 98.910604 
812.000000	 98.885276 
811.000000	 98.860268 
810.000000	 98.842925 
809.000000	 98.829245 
808.000000	 98.809168 
807.000000	 98.776563 
806.000000	 98.732527 
805.000000	 98.681787 
804.000000	 98.629269 
803.000000	 98.579874 
802.000000	 98.538425 
801.000000	 98.507771 
800.000000	 98.486767 
799.000000	 98.471156 
798.000000	 98.458067 
797.000000	 98.450128 
796.000000	 98.453362 
795.000000	 98.470120 
794.000000	 98.496048 
793.000000	 98.524799 
792.000000	 98.552096 
791.000000	 98.572808 
790.000000	 98.578662 
789.000000	 98.565090 
788.000000	 98.539409 
787.000000	 98.516528 
786.000000	 98.504958 
785.000000	 98.500145 
784.000000	 98.492628 
783.000000	 98.479311 
782.000000	 98.465079 
781.000000	 98.456164 
780.000000	 98.454121 
779.000000	 98.454991 
778.000000	 98.453260 
777.000000	 98.448010 
776.000000	 98.445465 
775.000000	 98.453609 
774.000000	 98.473699 
773.000000	 98.498908 
772.000000	 98.521508 
771.000000	 98.538833 
770.000000	 98.551558 
769.000000	 98.559477 
768.000000	 98.562004 
767.000000	 98.561778 
766.000000	 98.564405 
765.000000	 98.572982 
764.000000	 98.583772 
763.000000	 98.588667 
762.000000	 98.582745 
761.000000	 98.569331 
760.000000	 98.557228 
759.000000	 98.553168 
758.000000	 98.557209 
757.000000	 98.564888 
756.000000	 98.572400 
755.000000	 98.579429 
754.000000	 98.588371 
753.000000	 98.601468 
752.000000	 98.617855 
751.000000	 98.632725 
750.000000	 98.640564 
749.000000	 98.639625 
748.000000	 98.632547 
747.000000	 98.623565 
746.000000	 98.617069 
745.000000	 98.617493 
744.000000	 98.626192 
743.000000	 98.637771 
742.000000	 98.644223 
741.000000	 98.644621 
740.000000	 98.646351 
739.000000	 98.654650 
738.000000	 98.665694 
737.000000	 98.673299 
736.000000	 98.677745 
735.000000	 98.683649 
734.000000	 98.693436 
733.000000	 98.707765 
732.000000	 98.727846 
731.000000	 98.750420 
730.000000	 98.764328 
729.000000	 98.760662 
728.000000	 98.743752 
727.000000	 98.725565 
726.000000	 98.712449 
725.000000	 98.704170 
724.000000	 98.703214 
723.000000	 98.714765 
722.000000	 98.736112 
721.000000	 98.754743 
720.000000	 98.760518 
719.000000	 98.754470 
718.000000	 98.743427 
717.000000	 98.731973 
716.000000	 98.722869 
715.000000	 98.718654 
714.000000	 98.718163 
713.000000	 98.716299 
712.000000	 98.711064 
711.000000	 98.707262 
710.000000	 98.709974 
709.000000	 98.717830 
708.000000	 98.724977 
707.000000	 98.726158 
706.000000	 98.719246 
705.000000	 98.705934 
704.000000	 98.691323 
703.000000	 98.680647 
702.000000	 98.673397 
701.000000	 98.663896 
700.000000	 98.649408 
699.000000	 98.632057 
698.000000	 98.612518 
697.000000	 98.586267 
696.000000	 98.549404 
695.000000	 98.506985 
694.000000	 98.471461 
693.000000	 98.455998 
692.000000	 98.468975 
691.000000	 98.505982 
690.000000	 98.548017 
689.000000	 98.574382 
688.000000	 98.581347 
687.000000	 98.583142 
686.000000	 98.589888 
685.000000	 98.596054 
684.000000	 98.595105 
683.000000	 98.591498 
682.000000	 98.592834 
681.000000	 98.600920 
680.000000	 98.616433 
679.000000	 98.639997 
678.000000	 98.660775 
677.000000	 98.660795 
676.000000	 98.639215 
675.000000	 98.617386 
674.000000	 98.614970 
673.000000	 98.626840 
672.000000	 98.627537 
671.000000	 98.596268 
670.000000	 98.530991 
669.000000	 98.453659 
668.000000	 98.410321 
667.000000	 98.423678 
666.000000	 98.473122 
665.000000	 98.536542 
664.000000	 98.589690 
663.000000	 98.612847 
662.000000	 98.608954 
661.000000	 98.607147 
660.000000	 98.630404 
659.000000	 98.667371 
658.000000	 98.687163 
657.000000	 98.678075 
656.000000	 98.654673 
655.000000	 98.630450 
654.000000	 98.604946 
653.000000	 98.571019 
652.000000	 98.523490 
651.000000	 98.470574 
650.000000	 98.437948 

