4000.000000	98.500747 
3999.000000	98.504044 
3998.000000	98.504049 
3997.000000	98.501851 
3996.000000	98.498168 
3995.000000	98.493461 
3994.000000	98.488561 
3993.000000	98.484450 
3992.000000	98.481624 
3991.000000	98.480166 
3990.000000	98.480175 
3989.000000	98.481274 
3988.000000	98.482004 
3987.000000	98.481046 
3986.000000	98.479253 
3985.000000	98.479272 
3984.000000	98.482428 
3983.000000	98.486722 
3982.000000	98.488825 
3981.000000	98.487521 
3980.000000	98.484509 
3979.000000	98.482016 
3978.000000	98.480559 
3977.000000	98.479211 
3976.000000	98.477345 
3975.000000	98.475619 
3974.000000	98.475488 
3973.000000	98.477687 
3972.000000	98.480797 
3971.000000	98.481901 
3970.000000	98.479235 
3969.000000	98.474320 
3968.000000	98.470449 
3967.000000	98.469447 
3966.000000	98.470349 
3965.000000	98.470844 
3964.000000	98.469400 
3963.000000	98.466215 
3962.000000	98.462954 
3961.000000	98.461706 
3960.000000	98.463222 
3959.000000	98.466404 
3958.000000	98.469789 
3957.000000	98.473355 
3956.000000	98.477549 
3955.000000	98.481731 
3954.000000	98.484698 
3953.000000	98.485789 
3952.000000	98.484889 
3951.000000	98.481454 
3950.000000	98.475150 
3949.000000	98.467209 
3948.000000	98.460530 
3947.000000	98.458200 
3946.000000	98.460861 
3945.000000	98.465147 
3944.000000	98.466069 
3943.000000	98.462344 
3942.000000	98.458230 
3941.000000	98.458814 
3940.000000	98.464529 
3939.000000	98.471703 
3938.000000	98.476937 
3937.000000	98.480018 
3936.000000	98.481287 
3935.000000	98.478995 
3934.000000	98.472480 
3933.000000	98.465994 
3932.000000	98.465840 
3931.000000	98.471776 
3930.000000	98.476727 
3929.000000	98.475997 
3928.000000	98.472301 
3927.000000	98.470534 
3926.000000	98.470544 
3925.000000	98.469512 
3924.000000	98.467747 
3923.000000	98.466621 
3922.000000	98.464322 
3921.000000	98.458929 
3920.000000	98.453177 
3919.000000	98.452062 
3918.000000	98.455351 
3917.000000	98.458639 
3916.000000	98.460376 
3915.000000	98.462912 
3914.000000	98.466536 
3913.000000	98.469355 
3912.000000	98.471133 
3911.000000	98.474817 
3910.000000	98.480860 
3909.000000	98.486359 
3908.000000	98.487416 
3907.000000	98.481943 
3906.000000	98.470088 
3905.000000	98.454542 
3904.000000	98.442597 
3903.000000	98.440765 
3902.000000	98.446938 
3901.000000	98.451436 
3900.000000	98.447451 
3899.000000	98.439190 
3898.000000	98.435619 
3897.000000	98.439031 
3896.000000	98.444715 
3895.000000	98.449875 
3894.000000	98.455436 
3893.000000	98.462206 
3892.000000	98.465281 
3891.000000	98.461696 
3890.000000	98.457249 
3889.000000	98.459839 
3888.000000	98.466512 
3887.000000	98.464425 
3886.000000	98.450825 
3885.000000	98.440759 
3884.000000	98.444926 
3883.000000	98.455245 
3882.000000	98.457567 
3881.000000	98.450169 
3880.000000	98.444572 
3879.000000	98.448926 
3878.000000	98.460284 
3877.000000	98.471181 
3876.000000	98.474228 
3875.000000	98.466574 
3874.000000	98.455806 
3873.000000	98.454145 
3872.000000	98.461373 
3871.000000	98.461730 
3870.000000	98.448391 
3869.000000	98.438493 
3868.000000	98.446406 
3867.000000	98.461869 
3866.000000	98.464350 
3865.000000	98.453902 
3864.000000	98.450568 
3863.000000	98.461518 
3862.000000	98.472228 
3861.000000	98.473337 
3860.000000	98.467579 
3859.000000	98.460985 
3858.000000	98.456569 
3857.000000	98.457727 
3856.000000	98.464790 
3855.000000	98.467445 
3854.000000	98.461400 
3853.000000	98.460368 
3852.000000	98.468755 
3851.000000	98.476691 
3850.000000	98.475822 
3849.000000	98.467506 
3848.000000	98.461362 
3847.000000	98.464060 
3846.000000	98.471345 
3845.000000	98.475785 
3844.000000	98.473973 
3843.000000	98.468003 
3842.000000	98.462303 
3841.000000	98.459939 
3840.000000	98.459600 
3839.000000	98.462207 
3838.000000	98.468670 
3837.000000	98.474145 
3836.000000	98.472692 
3835.000000	98.465663 
3834.000000	98.460393 
3833.000000	98.461632 
3832.000000	98.468278 
3831.000000	98.476808 
3830.000000	98.483392 
3829.000000	98.485548 
3828.000000	98.481925 
3827.000000	98.473150 
3826.000000	98.464461 
3825.000000	98.464626 
3824.000000	98.474726 
3823.000000	98.483745 
3822.000000	98.480199 
3821.000000	98.469933 
3820.000000	98.468474 
3819.000000	98.479271 
3818.000000	98.490787 
3817.000000	98.487794 
3816.000000	98.474196 
3815.000000	98.469864 
3814.000000	98.479596 
3813.000000	98.488188 
3812.000000	98.484817 
3811.000000	98.476201 
3810.000000	98.474793 
3809.000000	98.480368 
3808.000000	98.480044 
3807.000000	98.469279 
3806.000000	98.459582 
3805.000000	98.460469 
3804.000000	98.466461 
3803.000000	98.464631 
3802.000000	98.452836 
3801.000000	98.447773 
3800.000000	98.458647 
3799.000000	98.473354 
3798.000000	98.477929 
3797.000000	98.471875 
3796.000000	98.467060 
3795.000000	98.470826 
3794.000000	98.477656 
3793.000000	98.479229 
3792.000000	98.476973 
3791.000000	98.478205 
3790.000000	98.484108 
3789.000000	98.488427 
3788.000000	98.487155 
3787.000000	98.482890 
3786.000000	98.479684 
3785.000000	98.478392 
3784.000000	98.479068 
3783.000000	98.483074 
3782.000000	98.489317 
3781.000000	98.493790 
3780.000000	98.494415 
3779.000000	98.494460 
3778.000000	98.497040 
3777.000000	98.500826 
3776.000000	98.501143 
3775.000000	98.496214 
3774.000000	98.490454 
3773.000000	98.489264 
3772.000000	98.490917 
3771.000000	98.489757 
3770.000000	98.486900 
3769.000000	98.488892 
3768.000000	98.495630 
3767.000000	98.499195 
3766.000000	98.493467 
3765.000000	98.482280 
3764.000000	98.475450 
3763.000000	98.475515 
3762.000000	98.473852 
3761.000000	98.464324 
3760.000000	98.454127 
3759.000000	98.453049 
3758.000000	98.456277 
3757.000000	98.456207 
3756.000000	98.456569 
3755.000000	98.462608 
3754.000000	98.468795 
3753.000000	98.465620 
3752.000000	98.457994 
3751.000000	98.457405 
3750.000000	98.457727 
3749.000000	98.449838 
3748.000000	98.444678 
3747.000000	98.455475 
3746.000000	98.470326 
3745.000000	98.466828 
3744.000000	98.454563 
3743.000000	98.453268 
3742.000000	98.455648 
3741.000000	98.446922 
3740.000000	98.429203 
3739.000000	98.420282 
3738.000000	98.426014 
3737.000000	98.431594 
3736.000000	98.429832 
3735.000000	98.433768 
3734.000000	98.450819 
3733.000000	98.466791 
3732.000000	98.470159 
3731.000000	98.467657 
3730.000000	98.469153 
3729.000000	98.472478 
3728.000000	98.467706 
3727.000000	98.452996 
3726.000000	98.440088 
3725.000000	98.437264 
3724.000000	98.439152 
3723.000000	98.438759 
3722.000000	98.437878 
3721.000000	98.440783 
3720.000000	98.445388 
3719.000000	98.446024 
3718.000000	98.438029 
3717.000000	98.423201 
3716.000000	98.408124 
3715.000000	98.394902 
3714.000000	98.379397 
3713.000000	98.359682 
3712.000000	98.341839 
3711.000000	98.331172 
3710.000000	98.323760 
3709.000000	98.314007 
3708.000000	98.300303 
3707.000000	98.284045 
3706.000000	98.267717 
3705.000000	98.251977 
3704.000000	98.235065 
3703.000000	98.215877 
3702.000000	98.196714 
3701.000000	98.181325 
3700.000000	98.171336 
3699.000000	98.164792 
3698.000000	98.156275 
3697.000000	98.142314 
3696.000000	98.127516 
3695.000000	98.118023 
3694.000000	98.113011 
3693.000000	98.109337 
3692.000000	98.109437 
3691.000000	98.118375 
3690.000000	98.132516 
3689.000000	98.140892 
3688.000000	98.139643 
3687.000000	98.136745 
3686.000000	98.138907 
3685.000000	98.142563 
3684.000000	98.142160 
3683.000000	98.139343 
3682.000000	98.137176 
3681.000000	98.129940 
3680.000000	98.111109 
3679.000000	98.085449 
3678.000000	98.062296 
3677.000000	98.037320 
3676.000000	98.004347 
3675.000000	97.974790 
3674.000000	97.959028 
3673.000000	97.952009 
3672.000000	97.939878 
3671.000000	97.915435 
3670.000000	97.891485 
3669.000000	97.880674 
3668.000000	97.874071 
3667.000000	97.859334 
3666.000000	97.836963 
3665.000000	97.813819 
3664.000000	97.793733 
3663.000000	97.774811 
3662.000000	97.751892 
3661.000000	97.722297 
3660.000000	97.689706 
3659.000000	97.659360 
3658.000000	97.632359 
3657.000000	97.604099 
3656.000000	97.572811 
3655.000000	97.542803 
3654.000000	97.518016 
3653.000000	97.496504 
3652.000000	97.471871 
3651.000000	97.443471 
3650.000000	97.420231 
3649.000000	97.403573 
3648.000000	97.382645 
3647.000000	97.354905 
3646.000000	97.329224 
3645.000000	97.311482 
3644.000000	97.299140 
3643.000000	97.287564 
3642.000000	97.275317 
3641.000000	97.263257 
3640.000000	97.249245 
3639.000000	97.228500 
3638.000000	97.200695 
3637.000000	97.170648 
3636.000000	97.141243 
3635.000000	97.109480 
3634.000000	97.074619 
3633.000000	97.043059 
3632.000000	97.019102 
3631.000000	96.994232 
3630.000000	96.956444 
3629.000000	96.915115 
3628.000000	96.890839 
3627.000000	96.884875 
3626.000000	96.884453 
3625.000000	96.881823 
3624.000000	96.878355 
3623.000000	96.878734 
3622.000000	96.882660 
3621.000000	96.884941 
3620.000000	96.884711 
3619.000000	96.887817 
3618.000000	96.898083 
3617.000000	96.915581 
3616.000000	96.940469 
3615.000000	96.970253 
3614.000000	96.999643 
3613.000000	97.025497 
3612.000000	97.049042 
3611.000000	97.072861 
3610.000000	97.097816 
3609.000000	97.123407 
3608.000000	97.148158 
3607.000000	97.168603 
3606.000000	97.181298 
3605.000000	97.188077 
3604.000000	97.195768 
3603.000000	97.209686 
3602.000000	97.228477 
3601.000000	97.245706 
3600.000000	97.258380 
3599.000000	97.268769 
3598.000000	97.279657 
3597.000000	97.291234 
3596.000000	97.302288 
3595.000000	97.310245 
3594.000000	97.313633 
3593.000000	97.313489 
3592.000000	97.313042 
3591.000000	97.315759 
3590.000000	97.321616 
3589.000000	97.327038 
3588.000000	97.329549 
3587.000000	97.329990 
3586.000000	97.329927 
3585.000000	97.330388 
3584.000000	97.331634 
3583.000000	97.332371 
3582.000000	97.330733 
3581.000000	97.325642 
3580.000000	97.318445 
3579.000000	97.312327 
3578.000000	97.310152 
3577.000000	97.312175 
3576.000000	97.315448 
3575.000000	97.315560 
3574.000000	97.309699 
3573.000000	97.299252 
3572.000000	97.288219 
3571.000000	97.279639 
3570.000000	97.272209 
3569.000000	97.261333 
3568.000000	97.245977 
3567.000000	97.231631 
3566.000000	97.222949 
3565.000000	97.219311 
3564.000000	97.219021 
3563.000000	97.222317 
3562.000000	97.229664 
3561.000000	97.238766 
3560.000000	97.244260 
3559.000000	97.241824 
3558.000000	97.231996 
3557.000000	97.219871 
3556.000000	97.210810 
3555.000000	97.206476 
3554.000000	97.204310 
3553.000000	97.201044 
3552.000000	97.196043 
3551.000000	97.190593 
3550.000000	97.185016 
3549.000000	97.178002 
3548.000000	97.169220 
3547.000000	97.161035 
3546.000000	97.156196 
3545.000000	97.154965 
3544.000000	97.155725 
3543.000000	97.156922 
3542.000000	97.157283 
3541.000000	97.155602 
3540.000000	97.151435 
3539.000000	97.145719 
3538.000000	97.140287 
3537.000000	97.136852 
3536.000000	97.135966 
3535.000000	97.135836 
3534.000000	97.133480 
3533.000000	97.127521 
3532.000000	97.120213 
3531.000000	97.115343 
3530.000000	97.113826 
3529.000000	97.112471 
3528.000000	97.108019 
3527.000000	97.101533 
3526.000000	97.097323 
3525.000000	97.098222 
3524.000000	97.102789 
3523.000000	97.106781 
3522.000000	97.106919 
3521.000000	97.103724 
3520.000000	97.100758 
3519.000000	97.100895 
3518.000000	97.103708 
3517.000000	97.106124 
3516.000000	97.105219 
3515.000000	97.100027 
3514.000000	97.091966 
3513.000000	97.083988 
3512.000000	97.079118 
3511.000000	97.078855 
3510.000000	97.081850 
3509.000000	97.084245 
3508.000000	97.082543 
3507.000000	97.076653 
3506.000000	97.069757 
3505.000000	97.065557 
3504.000000	97.065636 
3503.000000	97.068457 
3502.000000	97.070712 
3501.000000	97.069949 
3500.000000	97.066058 
3499.000000	97.060684 
3498.000000	97.056082 
3497.000000	97.054307 
3496.000000	97.055960 
3495.000000	97.059209 
3494.000000	97.061029 
3493.000000	97.060100 
3492.000000	97.057906 
3491.000000	97.056657 
3490.000000	97.056666 
3489.000000	97.056008 
3488.000000	97.052655 
3487.000000	97.046434 
3486.000000	97.038762 
3485.000000	97.030913 
3484.000000	97.022958 
3483.000000	97.014436 
3482.000000	97.005951 
3481.000000	96.999454 
3480.000000	96.996417 
3479.000000	96.995988 
3478.000000	96.995652 
3477.000000	96.993724 
3476.000000	96.990556 
3475.000000	96.987341 
3474.000000	96.984577 
3473.000000	96.982344 
3472.000000	96.981007 
3471.000000	96.980444 
3470.000000	96.978926 
3469.000000	96.973857 
3468.000000	96.964244 
3467.000000	96.952604 
3466.000000	96.943727 
3465.000000	96.940753 
3464.000000	96.942093 
3463.000000	96.942433 
3462.000000	96.937425 
3461.000000	96.927464 
3460.000000	96.916823 
3459.000000	96.909512 
3458.000000	96.906385 
3457.000000	96.905514 
3456.000000	96.904113 
3455.000000	96.900163 
3454.000000	96.893538 
3453.000000	96.886132 
3452.000000	96.880654 
3451.000000	96.878121 
3450.000000	96.876364 
3449.000000	96.871744 
3448.000000	96.862593 
3447.000000	96.850842 
3446.000000	96.840327 
3445.000000	96.834330 
3444.000000	96.834298 
3443.000000	96.838922 
3442.000000	96.843615 
3441.000000	96.842624 
3440.000000	96.833541 
3439.000000	96.819578 
3438.000000	96.806642 
3437.000000	96.798191 
3436.000000	96.793631 
3435.000000	96.791074 
3434.000000	96.789941 
3433.000000	96.790333 
3432.000000	96.791422 
3431.000000	96.791316 
3430.000000	96.788283 
3429.000000	96.782036 
3428.000000	96.774044 
3427.000000	96.766689 
3426.000000	96.761666 
3425.000000	96.759053 
3424.000000	96.757771 
3423.000000	96.756720 
3422.000000	96.755481 
3421.000000	96.754152 
3420.000000	96.752720 
3419.000000	96.750650 
3418.000000	96.747360 
3417.000000	96.743238 
3416.000000	96.739825 
3415.000000	96.738282 
3414.000000	96.737515 
3413.000000	96.734588 
3412.000000	96.727716 
3411.000000	96.718718 
3410.000000	96.711992 
3409.000000	96.710917 
3408.000000	96.715065 
3407.000000	96.720605 
3406.000000	96.723371 
3405.000000	96.721778 
3404.000000	96.717135 
3403.000000	96.711680 
3402.000000	96.707019 
3401.000000	96.704071 
3400.000000	96.703165 
3399.000000	96.703374 
3398.000000	96.702638 
3397.000000	96.699742 
3396.000000	96.696049 
3395.000000	96.694672 
3394.000000	96.697718 
3393.000000	96.704396 
3392.000000	96.711419 
3391.000000	96.715239 
3390.000000	96.714517 
3389.000000	96.711123 
3388.000000	96.708679 
3387.000000	96.709728 
3386.000000	96.714023 
3385.000000	96.719298 
3384.000000	96.723333 
3383.000000	96.725325 
3382.000000	96.725987 
3381.000000	96.726560 
3380.000000	96.727358 
3379.000000	96.727237 
3378.000000	96.725095 
3377.000000	96.721806 
3376.000000	96.719600 
3375.000000	96.719452 
3374.000000	96.720145 
3373.000000	96.720294 
3372.000000	96.720151 
3371.000000	96.720841 
3370.000000	96.722903 
3369.000000	96.726430 
3368.000000	96.731676 
3367.000000	96.738281 
3366.000000	96.744353 
3365.000000	96.747555 
3364.000000	96.747300 
3363.000000	96.745232 
3362.000000	96.743740 
3361.000000	96.744587 
3360.000000	96.748477 
3359.000000	96.754625 
3358.000000	96.760646 
3357.000000	96.764124 
3356.000000	96.765140 
3355.000000	96.766565 
3354.000000	96.770860 
3353.000000	96.776830 
3352.000000	96.780522 
3351.000000	96.779826 
3350.000000	96.777551 
3349.000000	96.778946 
3348.000000	96.786052 
3347.000000	96.795373 
3346.000000	96.801629 
3345.000000	96.803000 
3344.000000	96.801940 
3343.000000	96.801545 
3342.000000	96.802679 
3341.000000	96.804717 
3340.000000	96.807381 
3339.000000	96.810913 
3338.000000	96.815169 
3337.000000	96.819412 
3336.000000	96.822621 
3335.000000	96.823680 
3334.000000	96.822124 
3333.000000	96.819446 
3332.000000	96.818932 
3331.000000	96.822920 
3330.000000	96.830248 
3329.000000	96.837331 
3328.000000	96.841959 
3327.000000	96.845351 
3326.000000	96.850220 
3325.000000	96.857434 
3324.000000	96.865036 
3323.000000	96.870245 
3322.000000	96.872022 
3321.000000	96.871536 
3320.000000	96.870496 
3319.000000	96.869704 
3318.000000	96.869540 
3317.000000	96.871153 
3316.000000	96.876143 
3315.000000	96.884826 
3314.000000	96.895349 
3313.000000	96.904687 
3312.000000	96.910313 
3311.000000	96.911349 
3310.000000	96.909024 
3309.000000	96.906015 
3308.000000	96.904400 
3307.000000	96.904082 
3306.000000	96.903980 
3305.000000	96.904644 
3304.000000	96.908210 
3303.000000	96.915361 
3302.000000	96.923788 
3301.000000	96.930517 
3300.000000	96.934705 
3299.000000	96.937239 
3298.000000	96.938862 
3297.000000	96.940106 
3296.000000	96.942196 
3295.000000	96.946145 
3294.000000	96.951046 
3293.000000	96.954718 
3292.000000	96.956337 
3291.000000	96.957519 
3290.000000	96.960451 
3289.000000	96.965641 
3288.000000	96.971683 
3287.000000	96.976609 
3286.000000	96.979309 
3285.000000	96.980281 
3284.000000	96.981198 
3283.000000	96.983302 
3282.000000	96.986085 
3281.000000	96.987770 
3280.000000	96.987120 
3279.000000	96.984890 
3278.000000	96.983716 
3277.000000	96.986302 
3276.000000	96.993036 
3275.000000	97.001307 
3274.000000	97.007987 
3273.000000	97.012653 
3272.000000	97.017372 
3271.000000	97.023299 
3270.000000	97.029162 
3269.000000	97.033817 
3268.000000	97.038466 
3267.000000	97.044518 
3266.000000	97.050470 
3265.000000	97.053250 
3264.000000	97.052353 
3263.000000	97.050589 
3262.000000	97.050775 
3261.000000	97.053570 
3260.000000	97.058598 
3259.000000	97.065629 
3258.000000	97.073471 
3257.000000	97.079183 
3256.000000	97.080306 
3255.000000	97.077706 
3254.000000	97.075238 
3253.000000	97.076621 
3252.000000	97.083002 
3251.000000	97.092781 
3250.000000	97.102668 
3249.000000	97.109134 
3248.000000	97.110406 
3247.000000	97.108212 
3246.000000	97.107092 
3245.000000	97.110798 
3244.000000	97.118799 
3243.000000	97.126759 
3242.000000	97.130819 
3241.000000	97.130998 
3240.000000	97.130247 
3239.000000	97.131251 
3238.000000	97.135081 
3237.000000	97.142106 
3236.000000	97.152198 
3235.000000	97.163455 
3234.000000	97.172260 
3233.000000	97.176067 
3232.000000	97.175843 
3231.000000	97.174981 
3230.000000	97.176298 
3229.000000	97.180740 
3228.000000	97.188207 
3227.000000	97.198261 
3226.000000	97.209721 
3225.000000	97.220488 
3224.000000	97.228360 
3223.000000	97.232110 
3222.000000	97.232270 
3221.000000	97.231235 
3220.000000	97.231932 
3219.000000	97.235515 
3218.000000	97.240525 
3217.000000	97.244845 
3216.000000	97.248154 
3215.000000	97.251740 
3214.000000	97.256193 
3213.000000	97.260561 
3212.000000	97.264305 
3211.000000	97.268927 
3210.000000	97.276414 
3209.000000	97.286373 
3208.000000	97.295825 
3207.000000	97.302100 
3206.000000	97.305102 
3205.000000	97.306323 
3204.000000	97.306450 
3203.000000	97.305028 
3202.000000	97.302451 
3201.000000	97.301181 
3200.000000	97.304164 
3199.000000	97.312244 
3198.000000	97.323374 
3197.000000	97.334016 
3196.000000	97.341119 
3195.000000	97.343563 
3194.000000	97.342749 
3193.000000	97.341693 
3192.000000	97.342662 
3191.000000	97.345308 
3190.000000	97.347610 
3189.000000	97.348639 
3188.000000	97.349832 
3187.000000	97.353530 
3186.000000	97.360846 
3185.000000	97.370858 
3184.000000	97.381009 
3183.000000	97.388398 
3182.000000	97.391783 
3181.000000	97.392977 
3180.000000	97.395723 
3179.000000	97.402456 
3178.000000	97.412208 
3177.000000	97.421832 
3176.000000	97.428813 
3175.000000	97.432667 
3174.000000	97.434466 
3173.000000	97.435940 
3172.000000	97.438766 
3171.000000	97.443849 
3170.000000	97.450938 
3169.000000	97.458849 
3168.000000	97.465862 
3167.000000	97.470180 
3166.000000	97.471027 
3165.000000	97.469913 
3164.000000	97.470245 
3163.000000	97.474910 
3162.000000	97.484013 
3161.000000	97.495007 
3160.000000	97.504674 
3159.000000	97.510839 
3158.000000	97.513041 
3157.000000	97.512715 
3156.000000	97.512656 
3155.000000	97.515244 
3154.000000	97.520517 
3153.000000	97.526100 
3152.000000	97.529364 
3151.000000	97.529774 
3150.000000	97.529322 
3149.000000	97.530784 
3148.000000	97.535396 
3147.000000	97.541992 
3146.000000	97.548368 
3145.000000	97.553398 
3144.000000	97.557457 
3143.000000	97.561004 
3142.000000	97.563757 
3141.000000	97.565791 
3140.000000	97.568434 
3139.000000	97.572851 
3138.000000	97.578190 
3137.000000	97.582271 
3136.000000	97.584210 
3135.000000	97.585535 
3134.000000	97.588433 
3133.000000	97.593470 
3132.000000	97.599285 
3131.000000	97.604067 
3130.000000	97.606943 
3129.000000	97.608248 
3128.000000	97.609004 
3127.000000	97.610236 
3126.000000	97.612371 
3125.000000	97.615192 
3124.000000	97.618507 
3123.000000	97.622641 
3122.000000	97.627965 
3121.000000	97.634156 
3120.000000	97.640293 
3119.000000	97.645648 
3118.000000	97.650230 
3117.000000	97.654458 
3116.000000	97.658524 
3115.000000	97.662289 
3114.000000	97.665629 
3113.000000	97.668606 
3112.000000	97.671394 
3111.000000	97.674294 
3110.000000	97.677714 
3109.000000	97.681821 
3108.000000	97.686299 
3107.000000	97.690666 
3106.000000	97.694590 
3105.000000	97.697644 
3104.000000	97.699233 
3103.000000	97.699468 
3102.000000	97.699968 
3101.000000	97.702935 
3100.000000	97.708763 
3099.000000	97.715120 
3098.000000	97.719158 
3097.000000	97.720302 
3096.000000	97.720280 
3095.000000	97.720906 
3094.000000	97.722900 
3093.000000	97.726538 
3092.000000	97.731843 
3091.000000	97.737665 
3090.000000	97.741859 
3089.000000	97.743376 
3088.000000	97.743550 
3087.000000	97.744594 
3086.000000	97.747366 
3085.000000	97.751203 
3084.000000	97.755248 
3083.000000	97.758973 
3082.000000	97.761797 
3081.000000	97.763399 
3080.000000	97.764501 
3079.000000	97.766659 
3078.000000	97.770960 
3077.000000	97.776975 
3076.000000	97.782820 
3075.000000	97.786244 
3074.000000	97.786165 
3073.000000	97.783658 
3072.000000	97.781288 
3071.000000	97.781107 
3070.000000	97.783412 
3069.000000	97.787440 
3068.000000	97.792322 
3067.000000	97.796847 
3066.000000	97.799255 
3065.000000	97.798707 
3064.000000	97.796878 
3063.000000	97.796866 
3062.000000	97.800144 
3061.000000	97.805172 
3060.000000	97.809241 
3059.000000	97.811347 
3058.000000	97.813060 
3057.000000	97.816629 
3056.000000	97.822216 
3055.000000	97.827257 
3054.000000	97.829113 
3053.000000	97.828216 
3052.000000	97.827919 
3051.000000	97.831051 
3050.000000	97.837419 
3049.000000	97.844892 
3048.000000	97.851701 
3047.000000	97.856974 
3046.000000	97.860168 
3045.000000	97.861276 
3044.000000	97.861134 
3043.000000	97.860656 
3042.000000	97.860309 
3041.000000	97.860876 
3040.000000	97.863495 
3039.000000	97.867710 
3038.000000	97.870479 
3037.000000	97.869068 
3036.000000	97.864744 
3035.000000	97.861855 
3034.000000	97.863091 
3033.000000	97.866878 
3032.000000	97.869667 
3031.000000	97.869648 
3030.000000	97.867863 
3029.000000	97.866643 
3028.000000	97.867468 
3027.000000	97.869863 
3026.000000	97.872083 
3025.000000	97.873161 
3024.000000	97.873990 
3023.000000	97.875656 
3022.000000	97.877169 
3021.000000	97.876264 
3020.000000	97.872673 
3019.000000	97.869294 
3018.000000	97.869420 
3017.000000	97.873419 
3016.000000	97.878478 
3015.000000	97.881057 
3014.000000	97.879569 
3013.000000	97.875573 
3012.000000	97.872517 
3011.000000	97.872563 
3010.000000	97.874444 
3009.000000	97.875063 
3008.000000	97.873027 
3007.000000	97.869685 
3006.000000	97.866813 
3005.000000	97.864527 
3004.000000	97.861792 
3003.000000	97.857796 
3002.000000	97.852375 
3001.000000	97.846270 
3000.000000	97.841549 
2999.000000	97.840443 
2998.000000	97.842758 
2997.000000	97.845422 
2996.000000	97.845666 
2995.000000	97.843922 
2994.000000	97.842326 
2993.000000	97.840981 
2992.000000	97.837472 
2991.000000	97.830255 
2990.000000	97.821209 
2989.000000	97.814155 
2988.000000	97.811558 
2987.000000	97.813237 
2986.000000	97.817563 
2985.000000	97.822949 
2984.000000	97.828167 
2983.000000	97.832184 
2982.000000	97.834407 
2981.000000	97.835035 
2980.000000	97.834852 
2979.000000	97.834505 
2978.000000	97.834008 
2977.000000	97.832792 
2976.000000	97.829981 
2975.000000	97.824791 
2974.000000	97.817237 
2973.000000	97.808789 
2972.000000	97.802016 
2971.000000	97.799099 
2970.000000	97.800486 
2969.000000	97.804823 
2968.000000	97.809764 
2967.000000	97.812949 
2966.000000	97.813179 
2965.000000	97.811405 
2964.000000	97.810221 
2963.000000	97.811621 
2962.000000	97.815221 
2961.000000	97.819003 
2960.000000	97.821550 
2959.000000	97.823116 
2958.000000	97.824886 
2957.000000	97.827836 
2956.000000	97.832046 
2955.000000	97.836452 
2954.000000	97.839571 
2953.000000	97.841363 
2952.000000	97.844150 
2951.000000	97.850563 
2950.000000	97.860230 
2949.000000	97.869398 
2948.000000	97.874299 
2947.000000	97.874398 
2946.000000	97.872143 
2945.000000	97.870320 
2944.000000	97.870145 
2943.000000	97.871209 
2942.000000	97.872279 
2941.000000	97.871980 
2940.000000	97.869136 
2939.000000	97.862949 
2938.000000	97.853480 
2937.000000	97.842473 
2936.000000	97.833285 
2935.000000	97.828769 
2934.000000	97.828637 
2933.000000	97.829485 
2932.000000	97.827897 
2931.000000	97.823180 
2930.000000	97.816944 
2929.000000	97.810872 
2928.000000	97.805699 
2927.000000	97.801908 
2926.000000	97.800310 
2925.000000	97.801446 
2924.000000	97.804778 
2923.000000	97.808816 
2922.000000	97.812157 
2921.000000	97.814404 
2920.000000	97.816026 
2919.000000	97.817486 
2918.000000	97.819028 
2917.000000	97.821544 
2916.000000	97.826878 
2915.000000	97.836136 
2914.000000	97.847764 
2913.000000	97.858466 
2912.000000	97.866578 
2911.000000	97.873642 
2910.000000	97.881991 
2909.000000	97.891509 
2908.000000	97.899560 
2907.000000	97.903730 
2906.000000	97.903846 
2905.000000	97.901656 
2904.000000	97.899402 
2903.000000	97.899088 
2902.000000	97.902074 
2901.000000	97.908612 
2900.000000	97.917972 
2899.000000	97.928811 
2898.000000	97.939533 
2897.000000	97.948414 
2896.000000	97.954076 
2895.000000	97.956322 
2894.000000	97.956470 
2893.000000	97.956538 
2892.000000	97.957950 
2891.000000	97.960929 
2890.000000	97.964911 
2889.000000	97.969281 
2888.000000	97.973672 
2887.000000	97.977865 
2886.000000	97.981668 
2885.000000	97.984893 
2884.000000	97.987320 
2883.000000	97.988889 
2882.000000	97.990256 
2881.000000	97.992943 
2880.000000	97.998152 
2879.000000	98.005030 
2878.000000	98.010754 
2877.000000	98.013112 
2876.000000	98.012829 
2875.000000	98.012737 
2874.000000	98.014763 
2873.000000	98.018327 
2872.000000	98.021548 
2871.000000	98.023170 
2870.000000	98.023092 
2869.000000	98.021981 
2868.000000	98.021070 
2867.000000	98.021907 
2866.000000	98.025437 
2865.000000	98.031090 
2864.000000	98.036923 
2863.000000	98.040728 
2862.000000	98.041278 
2861.000000	98.039058 
2860.000000	98.036066 
2859.000000	98.034432 
2858.000000	98.034754 
2857.000000	98.035907 
2856.000000	98.036546 
2855.000000	98.036429 
2854.000000	98.036042 
2853.000000	98.035604 
2852.000000	98.035232 
2851.000000	98.035976 
2850.000000	98.039832 
2849.000000	98.048251 
2848.000000	98.060751 
2847.000000	98.075078 
2846.000000	98.088523 
2845.000000	98.099094 
2844.000000	98.106084 
2843.000000	98.110294 
2842.000000	98.113872 
2841.000000	98.119202 
2840.000000	98.127103 
2839.000000	98.135916 
2838.000000	98.142798 
2837.000000	98.146199 
2836.000000	98.146884 
2835.000000	98.146601 
2834.000000	98.146395 
2833.000000	98.146697 
2832.000000	98.148331 
2831.000000	98.152260 
2830.000000	98.158142 
2829.000000	98.164038 
2828.000000	98.168076 
2827.000000	98.170103 
2826.000000	98.171424 
2825.000000	98.173297 
2824.000000	98.175985 
2823.000000	98.178888 
2822.000000	98.181192 
2821.000000	98.182554 
2820.000000	98.183521 
2819.000000	98.185152 
2818.000000	98.187895 
2817.000000	98.190908 
2816.000000	98.192747 
2815.000000	98.192738 
2814.000000	98.191607 
2813.000000	98.190966 
2812.000000	98.192339 
2811.000000	98.196443 
2810.000000	98.202907 
2809.000000	98.210454 
2808.000000	98.217459 
2807.000000	98.222609 
2806.000000	98.225322 
2805.000000	98.225769 
2804.000000	98.224494 
2803.000000	98.221877 
2802.000000	98.218140 
2801.000000	98.214089 
2800.000000	98.211531 
2799.000000	98.212184 
2798.000000	98.215948 
2797.000000	98.220820 
2796.000000	98.224871 
2795.000000	98.227784 
2794.000000	98.230016 
2793.000000	98.231145 
2792.000000	98.230118 
2791.000000	98.227028 
2790.000000	98.223626 
2789.000000	98.221716 
2788.000000	98.221726 
2787.000000	98.223212 
2786.000000	98.225958 
2785.000000	98.229751 
2784.000000	98.233573 
2783.000000	98.236159 
2782.000000	98.237595 
2781.000000	98.239448 
2780.000000	98.242730 
2779.000000	98.246293 
2778.000000	98.248026 
2777.000000	98.247526 
2776.000000	98.246814 
2775.000000	98.248201 
2774.000000	98.251960 
2773.000000	98.256380 
2772.000000	98.259674 
2771.000000	98.261359 
2770.000000	98.261983 
2769.000000	98.262122 
2768.000000	98.261827 
2767.000000	98.260767 
2766.000000	98.258628 
2765.000000	98.255428 
2764.000000	98.251706 
2763.000000	98.248640 
2762.000000	98.247867 
2761.000000	98.250616 
2760.000000	98.256410 
2759.000000	98.262773 
2758.000000	98.267003 
2757.000000	98.268513 
2756.000000	98.268855 
2755.000000	98.269183 
2754.000000	98.268628 
2753.000000	98.266018 
2752.000000	98.262430 
2751.000000	98.260574 
2750.000000	98.261688 
2749.000000	98.264366 
2748.000000	98.266862 
2747.000000	98.269272 
2746.000000	98.272550 
2745.000000	98.276272 
2744.000000	98.278595 
2743.000000	98.278279 
2742.000000	98.275976 
2741.000000	98.273715 
2740.000000	98.273759 
2739.000000	98.277589 
2738.000000	98.284805 
2737.000000	98.292659 
2736.000000	98.297520 
2735.000000	98.297525 
2734.000000	98.293840 
2733.000000	98.289299 
2732.000000	98.286160 
2731.000000	98.285146 
2730.000000	98.285996 
2729.000000	98.288228 
2728.000000	98.291346 
2727.000000	98.294631 
2726.000000	98.297084 
2725.000000	98.297973 
2724.000000	98.297695 
2723.000000	98.297757 
2722.000000	98.299354 
2721.000000	98.301976 
2720.000000	98.304073 
2719.000000	98.305180 
2718.000000	98.306541 
2717.000000	98.309080 
2716.000000	98.311481 
2715.000000	98.311301 
2714.000000	98.307965 
2713.000000	98.303868 
2712.000000	98.302270 
2711.000000	98.304436 
2710.000000	98.308781 
2709.000000	98.312233 
2708.000000	98.312354 
2707.000000	98.308914 
2706.000000	98.304035 
2705.000000	98.300622 
2704.000000	98.300177 
2703.000000	98.301997 
2702.000000	98.304402 
2701.000000	98.306426 
2700.000000	98.308190 
2699.000000	98.310073 
2698.000000	98.311973 
2697.000000	98.313265 
2696.000000	98.313236 
2695.000000	98.311782 
2694.000000	98.309960 
2693.000000	98.309600 
2692.000000	98.311777 
2691.000000	98.315517 
2690.000000	98.318299 
2689.000000	98.318051 
2688.000000	98.314757 
2687.000000	98.310307 
2686.000000	98.306971 
2685.000000	98.305744 
2684.000000	98.305821 
2683.000000	98.305758 
2682.000000	98.305380 
2681.000000	98.306294 
2680.000000	98.310068 
2679.000000	98.316103 
2678.000000	98.321894 
2677.000000	98.325342 
2676.000000	98.326206 
2675.000000	98.325334 
2674.000000	98.323482 
2673.000000	98.321345 
2672.000000	98.319839 
2671.000000	98.319381 
2670.000000	98.319192 
2669.000000	98.318154 
2668.000000	98.316284 
2667.000000	98.314614 
2666.000000	98.313577 
2665.000000	98.312232 
2664.000000	98.309252 
2663.000000	98.304101 
2662.000000	98.297092 
2661.000000	98.289067 
2660.000000	98.281547 
2659.000000	98.276507 
2658.000000	98.274934 
2657.000000	98.275515 
2656.000000	98.275462 
2655.000000	98.273000 
2654.000000	98.268781 
2653.000000	98.264854 
2652.000000	98.262670 
2651.000000	98.262245 
2650.000000	98.262686 
2649.000000	98.263060 
2648.000000	98.262930 
2647.000000	98.262370 
2646.000000	98.261369 
2645.000000	98.259205 
2644.000000	98.254987 
2643.000000	98.249234 
2642.000000	98.244367 
2641.000000	98.242841 
2640.000000	98.244937 
2639.000000	98.248995 
2638.000000	98.253345 
2637.000000	98.256931 
2636.000000	98.258341 
2635.000000	98.256012 
2634.000000	98.250221 
2633.000000	98.243739 
2632.000000	98.239551 
2631.000000	98.238606 
2630.000000	98.240355 
2629.000000	98.244076 
2628.000000	98.248234 
2627.000000	98.249782 
2626.000000	98.246636 
2625.000000	98.241143 
2624.000000	98.239035 
2623.000000	98.243871 
2622.000000	98.253432 
2621.000000	98.262133 
2620.000000	98.266024 
2619.000000	98.265040 
2618.000000	98.261876 
2617.000000	98.259877 
2616.000000	98.261077 
2615.000000	98.264688 
2614.000000	98.267575 
2613.000000	98.267236 
2612.000000	98.264387 
2611.000000	98.261942 
2610.000000	98.261671 
2609.000000	98.262837 
2608.000000	98.264159 
2607.000000	98.265863 
2606.000000	98.268887 
2605.000000	98.272596 
2604.000000	98.274490 
2603.000000	98.272668 
2602.000000	98.267977 
2601.000000	98.263083 
2600.000000	98.259755 
2599.000000	98.257988 
2598.000000	98.257730 
2597.000000	98.259976 
2596.000000	98.265063 
2595.000000	98.270825 
2594.000000	98.274121 
2593.000000	98.274283 
2592.000000	98.273824 
2591.000000	98.275424 
2590.000000	98.279145 
2589.000000	98.282885 
2588.000000	98.284681 
2587.000000	98.284251 
2586.000000	98.283121 
2585.000000	98.283576 
2584.000000	98.286682 
2583.000000	98.290894 
2582.000000	98.293284 
2581.000000	98.292403 
2580.000000	98.289368 
2579.000000	98.286290 
2578.000000	98.284780 
2577.000000	98.285917 
2576.000000	98.289905 
2575.000000	98.295034 
2574.000000	98.298647 
2573.000000	98.300357 
2572.000000	98.302921 
2571.000000	98.308387 
2570.000000	98.314455 
2569.000000	98.316617 
2568.000000	98.313532 
2567.000000	98.308558 
2566.000000	98.305924 
2565.000000	98.306745 
2564.000000	98.308891 
2563.000000	98.309524 
2562.000000	98.307517 
2561.000000	98.304415 
2560.000000	98.303417 
2559.000000	98.306571 
2558.000000	98.312519 
2557.000000	98.317336 
2556.000000	98.317862 
2555.000000	98.314259 
2554.000000	98.309813 
2553.000000	98.308603 
2552.000000	98.312546 
2551.000000	98.319637 
2550.000000	98.325362 
2549.000000	98.326776 
2548.000000	98.325083 
2547.000000	98.323603 
2546.000000	98.323876 
2545.000000	98.324895 
2544.000000	98.325471 
2543.000000	98.325524 
2542.000000	98.325150 
2541.000000	98.324415 
2540.000000	98.324651 
2539.000000	98.327918 
2538.000000	98.333742 
2537.000000	98.337712 
2536.000000	98.335227 
2535.000000	98.326605 
2534.000000	98.317438 
2533.000000	98.313998 
2532.000000	98.318811 
2531.000000	98.329843 
2530.000000	98.342357 
2529.000000	98.351559 
2528.000000	98.355154 
2527.000000	98.354573 
2526.000000	98.353260 
2525.000000	98.353082 
2524.000000	98.352621 
2523.000000	98.349479 
2522.000000	98.343913 
2521.000000	98.339395 
2520.000000	98.339415 
2519.000000	98.344163 
2518.000000	98.350376 
2517.000000	98.353988 
2516.000000	98.353003 
2515.000000	98.348686 
2514.000000	98.344592 
2513.000000	98.343829 
2512.000000	98.346212 
2511.000000	98.347978 
2510.000000	98.345164 
2509.000000	98.337837 
2508.000000	98.330716 
2507.000000	98.329159 
2506.000000	98.334343 
2505.000000	98.342228 
2504.000000	98.347081 
2503.000000	98.346216 
2502.000000	98.341713 
2501.000000	98.337781 
2500.000000	98.336525 
2499.000000	98.336495 
2498.000000	98.335476 
2497.000000	98.333927 
2496.000000	98.334686 
2495.000000	98.339195 
2494.000000	98.345023 
2493.000000	98.347912 
2492.000000	98.346128 
2491.000000	98.342302 
2490.000000	98.340916 
2489.000000	98.344204 
2488.000000	98.350426 
2487.000000	98.355652 
2486.000000	98.356741 
2485.000000	98.352889 
2484.000000	98.345693 
2483.000000	98.338838 
2482.000000	98.336832 
2481.000000	98.341585 
2480.000000	98.349466 
2479.000000	98.353804 
2478.000000	98.352067 
2477.000000	98.349335 
2476.000000	98.352496 
2475.000000	98.361539 
2474.000000	98.368858 
2473.000000	98.367461 
2472.000000	98.358296 
2471.000000	98.349088 
2470.000000	98.347210 
2469.000000	98.353581 
2468.000000	98.361829 
2467.000000	98.363388 
2466.000000	98.355436 
2465.000000	98.344535 
2464.000000	98.340402 
2463.000000	98.344965 
2462.000000	98.349281 
2461.000000	98.343000 
2460.000000	98.325989 
2459.000000	98.309067 
2458.000000	98.303739 
2457.000000	98.312083 
2456.000000	98.325917 
2455.000000	98.334549 
2454.000000	98.333706 
2453.000000	98.328054 
2452.000000	98.325437 
2451.000000	98.328666 
2450.000000	98.333337 
2449.000000	98.333387 
2448.000000	98.327458 
2447.000000	98.319394 
2446.000000	98.314060 
2445.000000	98.313850 
2444.000000	98.318189 
2443.000000	98.324871 
2442.000000	98.332018 
2441.000000	98.339493 
2440.000000	98.348136 
2439.000000	98.357228 
2438.000000	98.363558 
2437.000000	98.363945 
2436.000000	98.358464 
2435.000000	98.350854 
2434.000000	98.346215 
2433.000000	98.348064 
2432.000000	98.355994 
2431.000000	98.365518 
2430.000000	98.371594 
2429.000000	98.373401 
2428.000000	98.374519 
2427.000000	98.377644 
2426.000000	98.380748 
2425.000000	98.380039 
2424.000000	98.375229 
2423.000000	98.369707 
2422.000000	98.366191 
2421.000000	98.364490 
2420.000000	98.363648 
2419.000000	98.364277 
2418.000000	98.367888 
2417.000000	98.374828 
2416.000000	98.383376 
2415.000000	98.390438 
2414.000000	98.393178 
2413.000000	98.390807 
2412.000000	98.385409 
2411.000000	98.381035 
2410.000000	98.381688 
2409.000000	98.389084 
2408.000000	98.400890 
2407.000000	98.411273 
2406.000000	98.415067 
2405.000000	98.412520 
2404.000000	98.408782 
2403.000000	98.408041 
2402.000000	98.409562 
2401.000000	98.410397 
2400.000000	98.410032 
2399.000000	98.410369 
2398.000000	98.412237 
2397.000000	98.414299 
2396.000000	98.415267 
2395.000000	98.415334 
2394.000000	98.415157 
2393.000000	98.414860 
2392.000000	98.414412 
2391.000000	98.414132 
2390.000000	98.414563 
2389.000000	98.416232 
2388.000000	98.419280 
2387.000000	98.422952 
2386.000000	98.426261 
2385.000000	98.429865 
2384.000000	98.436485 
2383.000000	98.448298 
2382.000000	98.464397 
2381.000000	98.481538 
2380.000000	98.496543 
2379.000000	98.507094 
2378.000000	98.511658 
2377.000000	98.510740 
2376.000000	98.507795 
2375.000000	98.507008 
2374.000000	98.509804 
2373.000000	98.514151 
2372.000000	98.517162 
2371.000000	98.517907 
2370.000000	98.518140 
2369.000000	98.520550 
2368.000000	98.525565 
2367.000000	98.530308 
2366.000000	98.531740 
2365.000000	98.529793 
2364.000000	98.526542 
2363.000000	98.523489 
2362.000000	98.521456 
2361.000000	98.521953 
2360.000000	98.525089 
2359.000000	98.528828 
2358.000000	98.532329 
2357.000000	98.537108 
2356.000000	98.543913 
2355.000000	98.550733 
2354.000000	98.556784 
2353.000000	98.559351 
2352.000000	98.553576 
2351.000000	98.536998 
2350.000000	98.513309 
2349.000000	98.492580 
2348.000000	98.485896 
2347.000000	98.497789 
2346.000000	98.517677 
2345.000000	98.526862 
2344.000000	98.518504 
2343.000000	98.501508 
2342.000000	98.488345 
2341.000000	98.481880 
2340.000000	98.478754 
2339.000000	98.476209 
2338.000000	98.475253 
2337.000000	98.476802 
2336.000000	98.478316 
2335.000000	98.478281 
2334.000000	98.478120 
2333.000000	98.479179 
2332.000000	98.478265 
2331.000000	98.473762 
2330.000000	98.464738 
2329.000000	98.449290 
2328.000000	98.419806 
2327.000000	98.375161 
2326.000000	98.323809 
2325.000000	98.280952 
2324.000000	98.257309 
2323.000000	98.254652 
2322.000000	98.266582 
2321.000000	98.283293 
2320.000000	98.297433 
2319.000000	98.307321 
2318.000000	98.313639 
2317.000000	98.317886 
2316.000000	98.321009 
2315.000000	98.326422 
2314.000000	98.335143 
2313.000000	98.344988 
2312.000000	98.349850 
2311.000000	98.347981 
2310.000000	98.342029 
2309.000000	98.337280 
2308.000000	98.335273 
2307.000000	98.335224 
2306.000000	98.335078 
2305.000000	98.334553 
2304.000000	98.333853 
2303.000000	98.333593 
2302.000000	98.332789 
2301.000000	98.330348 
2300.000000	98.325451 
2299.000000	98.319124 
2298.000000	98.312165 
2297.000000	98.305573 
2296.000000	98.299356 
2295.000000	98.293289 
2294.000000	98.285741 
2293.000000	98.275623 
2292.000000	98.263409 
2291.000000	98.251236 
2290.000000	98.240332 
2289.000000	98.230547 
2288.000000	98.222235 
2287.000000	98.217304 
2286.000000	98.217391 
2285.000000	98.221669 
2284.000000	98.227675 
2283.000000	98.232928 
2282.000000	98.235970 
2281.000000	98.237034 
2280.000000	98.239257 
2279.000000	98.247131 
2278.000000	98.262643 
2277.000000	98.283357 
2276.000000	98.304992 
2275.000000	98.324484 
2274.000000	98.339609 
2273.000000	98.348032 
2272.000000	98.348823 
2271.000000	98.344262 
2270.000000	98.338080 
2269.000000	98.332531 
2268.000000	98.327948 
2267.000000	98.324114 
2266.000000	98.320464 
2265.000000	98.316150 
2264.000000	98.311479 
2263.000000	98.308407 
2262.000000	98.307881 
2261.000000	98.307707 
2260.000000	98.305285 
2259.000000	98.301635 
2258.000000	98.300564 
2257.000000	98.303849 
2256.000000	98.309651 
2255.000000	98.315548 
2254.000000	98.320787 
2253.000000	98.325107 
2252.000000	98.328074 
2251.000000	98.331203 
2250.000000	98.338167 
2249.000000	98.350096 
2248.000000	98.361556 
2247.000000	98.364300 
2246.000000	98.356166 
2245.000000	98.344073 
2244.000000	98.336465 
2243.000000	98.334649 
2242.000000	98.334079 
2241.000000	98.332355 
2240.000000	98.331629 
2239.000000	98.333033 
2238.000000	98.334072 
2237.000000	98.334307 
2236.000000	98.339097 
2235.000000	98.352612 
2234.000000	98.369239 
2233.000000	98.377382 
2232.000000	98.372018 
2231.000000	98.359668 
2230.000000	98.351019 
2229.000000	98.351890 
2228.000000	98.360512 
2227.000000	98.369415 
2226.000000	98.370074 
2225.000000	98.360181 
2224.000000	98.346971 
2223.000000	98.339644 
2222.000000	98.338904 
2221.000000	98.338558 
2220.000000	98.336766 
2219.000000	98.339208 
2218.000000	98.349626 
2217.000000	98.363509 
2216.000000	98.373820 
2215.000000	98.377737 
2214.000000	98.375485 
2213.000000	98.369038 
2212.000000	98.365334 
2211.000000	98.373499 
2210.000000	98.392795 
2209.000000	98.408697 
2208.000000	98.408116 
2207.000000	98.395201 
2206.000000	98.385365 
2205.000000	98.386790 
2204.000000	98.394688 
2203.000000	98.401592 
2202.000000	98.405163 
2201.000000	98.405372 
2200.000000	98.400772 
2199.000000	98.389725 
2198.000000	98.371837 
2197.000000	98.348259 
2196.000000	98.324366 
2195.000000	98.310935 
2194.000000	98.316579 
2193.000000	98.337252 
2192.000000	98.357770 
2191.000000	98.365971 
2190.000000	98.362255 
2189.000000	98.354831 
2188.000000	98.350020 
2187.000000	98.348922 
2186.000000	98.349606 
2185.000000	98.349528 
2184.000000	98.348153 
2183.000000	98.349561 
2182.000000	98.360471 
2181.000000	98.383052 
2180.000000	98.410443 
2179.000000	98.431038 
2178.000000	98.437018 
2177.000000	98.429351 
2176.000000	98.416260 
2175.000000	98.406529 
2174.000000	98.402770 
2173.000000	98.400790 
2172.000000	98.395321 
2171.000000	98.384651 
2170.000000	98.369165 
2169.000000	98.349360 
2168.000000	98.329172 
2167.000000	98.318190 
2166.000000	98.323133 
2165.000000	98.335867 
2164.000000	98.338051 
2163.000000	98.324370 
2162.000000	98.317013 
2161.000000	98.349443 
2160.000000	98.433279 
2159.000000	98.543726 
2158.000000	98.639281 
2157.000000	98.693076 
2156.000000	98.704033 
2155.000000	98.685967 
2154.000000	98.656112 
2153.000000	98.630597 
2152.000000	98.619028 
2151.000000	98.619049 
2150.000000	98.620238 
2149.000000	98.616160 
2148.000000	98.610520 
2147.000000	98.609497 
2146.000000	98.611104 
2145.000000	98.606215 
2144.000000	98.589431 
2143.000000	98.565479 
2142.000000	98.544597 
2141.000000	98.533969 
2140.000000	98.533883 
2139.000000	98.540714 
2138.000000	98.552690 
2137.000000	98.572331 
2136.000000	98.602117 
2135.000000	98.637382 
2134.000000	98.665713 
2133.000000	98.675904 
2132.000000	98.666988 
2131.000000	98.647174 
2130.000000	98.625893 
2129.000000	98.608380 
2128.000000	98.594967 
2127.000000	98.582482 
2126.000000	98.567532 
2125.000000	98.550981 
2124.000000	98.538080 
2123.000000	98.531582 
2122.000000	98.526239 
2121.000000	98.513812 
2120.000000	98.493271 
2119.000000	98.472479 
2118.000000	98.459723 
2117.000000	98.456886 
2116.000000	98.460781 
2115.000000	98.466711 
2114.000000	98.469186 
2113.000000	98.463672 
2112.000000	98.451419 
2111.000000	98.440402 
2110.000000	98.438320 
2109.000000	98.445545 
2108.000000	98.456470 
2107.000000	98.465796 
2106.000000	98.471102 
2105.000000	98.471483 
2104.000000	98.467401 
2103.000000	98.461699 
2102.000000	98.458069 
2101.000000	98.458000 
2100.000000	98.460575 
2099.000000	98.465020 
2098.000000	98.472136 
2097.000000	98.483154 
2096.000000	98.497881 
2095.000000	98.513403 
2094.000000	98.523712 
2093.000000	98.522103 
2092.000000	98.506415 
2091.000000	98.482374 
2090.000000	98.460640 
2089.000000	98.449363 
2088.000000	98.448772 
2087.000000	98.452662 
2086.000000	98.454457 
2085.000000	98.451502 
2084.000000	98.444404 
2083.000000	98.434357 
2082.000000	98.423331 
2081.000000	98.416239 
2080.000000	98.419103 
2079.000000	98.432581 
2078.000000	98.449293 
2077.000000	98.460321 
2076.000000	98.463566 
2075.000000	98.463352 
2074.000000	98.463088 
2073.000000	98.462279 
2072.000000	98.460022 
2071.000000	98.456992 
2070.000000	98.453450 
2069.000000	98.448793 
2068.000000	98.444028 
2067.000000	98.441770 
2066.000000	98.443140 
2065.000000	98.447178 
2064.000000	98.453250 
2063.000000	98.460811 
2062.000000	98.466741 
2061.000000	98.467069 
2060.000000	98.462411 
2059.000000	98.458016 
2058.000000	98.457323 
2057.000000	98.458801 
2056.000000	98.459280 
2055.000000	98.455781 
2054.000000	98.443405 
2053.000000	98.418108 
2052.000000	98.385400 
2051.000000	98.361941 
2050.000000	98.364012 
2049.000000	98.393677 
2048.000000	98.436835 
2047.000000	98.474310 
2046.000000	98.493487 
2045.000000	98.492940 
2044.000000	98.481272 
2043.000000	98.470429 
2042.000000	98.466956 
2041.000000	98.469436 
2040.000000	98.473733 
2039.000000	98.477963 
2038.000000	98.482455 
2037.000000	98.489770 
2036.000000	98.505633 
2035.000000	98.533769 
2034.000000	98.567247 
2033.000000	98.591088 
2032.000000	98.597597 
2031.000000	98.593340 
2030.000000	98.587729 
2029.000000	98.582073 
2028.000000	98.573801 
2027.000000	98.564776 
2026.000000	98.559443 
2025.000000	98.559320 
2024.000000	98.564186 
2023.000000	98.574240 
2022.000000	98.586454 
2021.000000	98.592910 
2020.000000	98.588979 
2019.000000	98.580756 
2018.000000	98.579305 
2017.000000	98.588763 
2016.000000	98.603657 
2015.000000	98.616507 
2014.000000	98.623100 
2013.000000	98.621282 
2012.000000	98.609880 
2011.000000	98.591066 
2010.000000	98.573445 
2009.000000	98.571361 
2008.000000	98.595669 
2007.000000	98.639675 
2006.000000	98.676517 
2005.000000	98.679097 
2004.000000	98.645439 
2003.000000	98.598716 
2002.000000	98.563877 
2001.000000	98.549925 
2000.000000	98.552416 
1999.000000	98.562574 
1998.000000	98.569686 
1997.000000	98.564418 
1996.000000	98.547764 
1995.000000	98.531927 
1994.000000	98.526634 
1993.000000	98.527920 
1992.000000	98.524647 
1991.000000	98.513590 
1990.000000	98.501837 
1989.000000	98.495991 
1988.000000	98.495216 
1987.000000	98.494279 
1986.000000	98.489417 
1985.000000	98.480566 
1984.000000	98.468995 
1983.000000	98.453164 
1982.000000	98.430326 
1981.000000	98.406381 
1980.000000	98.401572 
1979.000000	98.435929 
1978.000000	98.504940 
1977.000000	98.578488 
1976.000000	98.629624 
1975.000000	98.654695 
1974.000000	98.660904 
1973.000000	98.650503 
1972.000000	98.626016 
1971.000000	98.598539 
1970.000000	98.580195 
1969.000000	98.574218 
1968.000000	98.578407 
1967.000000	98.591625 
1966.000000	98.609963 
1965.000000	98.623475 
1964.000000	98.625924 
1963.000000	98.623137 
1962.000000	98.625004 
1961.000000	98.632842 
1960.000000	98.640397 
1959.000000	98.643676 
1958.000000	98.643014 
1957.000000	98.638312 
1956.000000	98.628690 
1955.000000	98.615698 
1954.000000	98.602457 
1953.000000	98.591563 
1952.000000	98.586135 
1951.000000	98.589468 
1950.000000	98.599258 
1949.000000	98.604687 
1948.000000	98.596641 
1947.000000	98.579733 
1946.000000	98.567813 
1945.000000	98.567826 
1944.000000	98.572953 
1943.000000	98.572125 
1942.000000	98.562371 
1941.000000	98.549902 
1940.000000	98.542024 
1939.000000	98.541116 
1938.000000	98.544955 
1937.000000	98.550528 
1936.000000	98.556797 
1935.000000	98.562896 
1934.000000	98.564516 
1933.000000	98.556222 
1932.000000	98.538418 
1931.000000	98.519715 
1930.000000	98.509970 
1929.000000	98.510991 
1928.000000	98.517938 
1927.000000	98.526381 
1926.000000	98.534837 
1925.000000	98.541173 
1924.000000	98.540570 
1923.000000	98.530698 
1922.000000	98.515411 
1921.000000	98.501448 
1920.000000	98.493400 
1919.000000	98.491449 
1918.000000	98.491584 
1917.000000	98.487946 
1916.000000	98.478985 
1915.000000	98.470408 
1914.000000	98.468409 
1913.000000	98.472563 
1912.000000	98.476209 
1911.000000	98.473279 
1910.000000	98.463473 
1909.000000	98.451284 
1908.000000	98.443012 
1907.000000	98.442329 
1906.000000	98.447784 
1905.000000	98.454087 
1904.000000	98.456604 
1903.000000	98.455960 
1902.000000	98.454921 
1901.000000	98.453101 
1900.000000	98.448722 
1899.000000	98.441944 
1898.000000	98.434311 
1897.000000	98.427273 
1896.000000	98.422657 
1895.000000	98.422687 
1894.000000	98.425698 
1893.000000	98.425133 
1892.000000	98.417315 
1891.000000	98.406815 
1890.000000	98.400604 
1889.000000	98.398961 
1888.000000	98.397158 
1887.000000	98.394957 
1886.000000	98.396229 
1885.000000	98.401064 
1884.000000	98.404665 
1883.000000	98.404142 
1882.000000	98.401157 
1881.000000	98.398031 
1880.000000	98.396574 
1879.000000	98.398608 
1878.000000	98.403654 
1877.000000	98.407702 
1876.000000	98.406921 
1875.000000	98.402454 
1874.000000	98.398438 
1873.000000	98.395344 
1872.000000	98.389508 
1871.000000	98.378758 
1870.000000	98.365263 
1869.000000	98.353594 
1868.000000	98.348225 
1867.000000	98.353190 
1866.000000	98.368694 
1865.000000	98.386853 
1864.000000	98.396858 
1863.000000	98.395686 
1862.000000	98.390146 
1861.000000	98.387856 
1860.000000	98.390108 
1859.000000	98.394186 
1858.000000	98.397905 
1857.000000	98.400163 
1856.000000	98.401291 
1855.000000	98.403320 
1854.000000	98.407004 
1853.000000	98.408756 
1852.000000	98.406621 
1851.000000	98.405275 
1850.000000	98.410312 
1849.000000	98.421680 
1848.000000	98.434291 
1847.000000	98.443992 
1846.000000	98.448221 
1845.000000	98.444274 
1844.000000	98.433499 
1843.000000	98.423638 
1842.000000	98.421495 
1841.000000	98.425839 
1840.000000	98.430803 
1839.000000	98.432163 
1838.000000	98.430431 
1837.000000	98.428227 
1836.000000	98.427554 
1835.000000	98.430306 
1834.000000	98.436244 
1833.000000	98.441576 
1832.000000	98.442912 
1831.000000	98.439822 
1830.000000	98.434419 
1829.000000	98.429398 
1828.000000	98.425801 
1827.000000	98.423482 
1826.000000	98.420914 
1825.000000	98.416626 
1824.000000	98.411233 
1823.000000	98.407578 
1822.000000	98.408166 
1821.000000	98.412252 
1820.000000	98.417678 
1819.000000	98.424631 
1818.000000	98.435504 
1817.000000	98.448456 
1816.000000	98.455961 
1815.000000	98.454778 
1814.000000	98.449383 
1813.000000	98.444928 
1812.000000	98.440840 
1811.000000	98.434018 
1810.000000	98.426694 
1809.000000	98.422708 
1808.000000	98.420946 
1807.000000	98.418923 
1806.000000	98.416828 
1805.000000	98.414463 
1804.000000	98.408839 
1803.000000	98.399762 
1802.000000	98.392264 
1801.000000	98.391255 
1800.000000	98.394190 
1799.000000	98.394971 
1798.000000	98.393915 
1797.000000	98.394778 
1796.000000	98.397735 
1795.000000	98.399862 
1794.000000	98.397874 
1793.000000	98.390603 
1792.000000	98.379711 
1791.000000	98.369363 
1790.000000	98.365297 
1789.000000	98.369737 
1788.000000	98.379490 
1787.000000	98.389484 
1786.000000	98.396268 
1785.000000	98.398135 
1784.000000	98.394939 
1783.000000	98.390784 
1782.000000	98.389678 
1781.000000	98.392491 
1780.000000	98.397946 
1779.000000	98.403859 
1778.000000	98.409671 
1777.000000	98.414210 
1776.000000	98.416514 
1775.000000	98.417398 
1774.000000	98.418073 
1773.000000	98.420328 
1772.000000	98.423864 
1771.000000	98.422833 
1770.000000	98.415758 
1769.000000	98.407649 
1768.000000	98.401419 
1767.000000	98.396049 
1766.000000	98.389918 
1765.000000	98.384748 
1764.000000	98.383241 
1763.000000	98.385088 
1762.000000	98.386056 
1761.000000	98.381883 
1760.000000	98.372099 
1759.000000	98.361030 
1758.000000	98.354220 
1757.000000	98.353735 
1756.000000	98.357968 
1755.000000	98.361114 
1754.000000	98.358886 
1753.000000	98.351746 
1752.000000	98.343584 
1751.000000	98.337817 
1750.000000	98.334411 
1749.000000	98.332969 
1748.000000	98.335028 
1747.000000	98.340335 
1746.000000	98.343278 
1745.000000	98.340359 
1744.000000	98.333964 
1743.000000	98.327701 
1742.000000	98.323804 
1741.000000	98.323943 
1740.000000	98.327664 
1739.000000	98.330964 
1738.000000	98.330133 
1737.000000	98.326445 
1736.000000	98.321951 
1735.000000	98.319054 
1734.000000	98.323184 
1733.000000	98.327721 
1732.000000	98.324058 
1731.000000	98.316257 
1730.000000	98.310268 
1729.000000	98.308029 
1728.000000	98.310825 
1727.000000	98.318157 
1726.000000	98.324842 
1725.000000	98.325580 
1724.000000	98.319178 
1723.000000	98.309824 
1722.000000	98.304516 
1721.000000	98.305882 
1720.000000	98.310677 
1719.000000	98.313127 
1718.000000	98.311196 
1717.000000	98.304638 
1716.000000	98.290666 
1715.000000	98.274351 
1714.000000	98.264824 
1713.000000	98.261372 
1712.000000	98.256796 
1711.000000	98.250908 
1710.000000	98.249317 
1709.000000	98.251930 
1708.000000	98.252014 
1707.000000	98.245381 
1706.000000	98.235549 
1705.000000	98.226987 
1704.000000	98.217554 
1703.000000	98.205382 
1702.000000	98.189360 
1701.000000	98.172376 
1700.000000	98.162032 
1699.000000	98.153738 
1698.000000	98.148990 
1697.000000	98.148951 
1696.000000	98.144166 
1695.000000	98.129100 
1694.000000	98.109261 
1693.000000	98.093478 
1692.000000	98.083746 
1691.000000	98.076650 
1690.000000	98.070172 
1689.000000	98.065114 
1688.000000	98.064106 
1687.000000	98.066256 
1686.000000	98.064488 
1685.000000	98.052765 
1684.000000	98.032224 
1683.000000	98.006982 
1682.000000	97.983288 
1681.000000	97.964621 
1680.000000	97.952876 
1679.000000	97.947637 
1678.000000	97.944852 
1677.000000	97.939115 
1676.000000	97.928641 
1675.000000	97.915845 
1674.000000	97.899788 
1673.000000	97.882353 
1672.000000	97.869132 
1671.000000	97.861736 
1670.000000	97.856264 
1669.000000	97.846904 
1668.000000	97.834562 
1667.000000	97.823636 
1666.000000	97.813416 
1665.000000	97.801321 
1664.000000	97.787815 
1663.000000	97.777635 
1662.000000	97.770916 
1661.000000	97.761528 
1660.000000	97.749498 
1659.000000	97.738542 
1658.000000	97.729392 
1657.000000	97.722635 
1656.000000	97.720991 
1655.000000	97.722296 
1654.000000	97.720506 
1653.000000	97.716371 
1652.000000	97.697879 
1651.000000	97.669474 
1650.000000	97.647863 
1649.000000	97.639065 
1648.000000	97.637528 
1647.000000	97.637268 
1646.000000	97.634192 
1645.000000	97.626751 
1644.000000	97.618187 
1643.000000	97.613432 
1642.000000	97.613035 
1641.000000	97.612303 
1640.000000	97.609309 
1639.000000	97.606392 
1638.000000	97.606499 
1637.000000	97.608067 
1636.000000	97.607583 
1635.000000	97.603106 
1634.000000	97.595628 
1633.000000	97.590695 
1632.000000	97.590629 
1631.000000	97.594320 
1630.000000	97.599470 
1629.000000	97.604320 
1628.000000	97.608857 
1627.000000	97.614963 
1626.000000	97.622982 
1625.000000	97.631619 
1624.000000	97.640903 
1623.000000	97.651324 
1622.000000	97.660276 
1621.000000	97.666269 
1620.000000	97.674178 
1619.000000	97.687858 
1618.000000	97.704669 
1617.000000	97.718888 
1616.000000	97.728639 
1615.000000	97.737268 
1614.000000	97.748083 
1613.000000	97.760523 
1612.000000	97.772880 
1611.000000	97.785598 
1610.000000	97.798553 
1609.000000	97.810710 
1608.000000	97.824117 
1607.000000	97.841590 
1606.000000	97.859802 
1605.000000	97.873428 
1604.000000	97.884022 
1603.000000	97.896036 
1602.000000	97.909727 
1601.000000	97.922734 
1600.000000	97.935512 
1599.000000	97.950165 
1598.000000	97.965474 
1597.000000	97.978346 
1596.000000	97.988229 
1595.000000	97.997031 
1594.000000	98.005328 
1593.000000	98.012017 
1592.000000	98.017873 
1591.000000	98.025507 
1590.000000	98.035062 
1589.000000	98.043649 
1588.000000	98.050292 
1587.000000	98.057166 
1586.000000	98.065168 
1585.000000	98.071387 
1584.000000	98.075674 
1583.000000	98.081971 
1582.000000	98.091039 
1581.000000	98.099881 
1580.000000	98.107854 
1579.000000	98.116975 
1578.000000	98.126734 
1577.000000	98.135214 
1576.000000	98.141865 
1575.000000	98.144373 
1574.000000	98.141545 
1573.000000	98.137733 
1572.000000	98.136737 
1571.000000	98.138563 
1570.000000	98.141941 
1569.000000	98.143877 
1568.000000	98.145255 
1567.000000	98.148771 
1566.000000	98.153240 
1565.000000	98.155646 
1564.000000	98.156952 
1563.000000	98.157489 
1562.000000	98.155902 
1561.000000	98.145179 
1560.000000	98.134956 
1559.000000	98.144109 
1558.000000	98.153975 
1557.000000	98.147747 
1556.000000	98.140120 
1555.000000	98.140305 
1554.000000	98.143811 
1553.000000	98.145098 
1552.000000	98.144257 
1551.000000	98.142028 
1550.000000	98.139893 
1549.000000	98.140547 
1548.000000	98.145102 
1547.000000	98.151601 
1546.000000	98.155527 
1545.000000	98.154783 
1544.000000	98.152104 
1543.000000	98.149333 
1542.000000	98.146220 
1541.000000	98.145440 
1540.000000	98.151182 
1539.000000	98.161035 
1538.000000	98.165945 
1537.000000	98.165210 
1536.000000	98.164264 
1535.000000	98.165326 
1534.000000	98.165963 
1533.000000	98.163740 
1532.000000	98.159981 
1531.000000	98.159352 
1530.000000	98.165014 
1529.000000	98.173942 
1528.000000	98.178840 
1527.000000	98.176126 
1526.000000	98.168821 
1525.000000	98.162525 
1524.000000	98.161312 
1523.000000	98.166305 
1522.000000	98.176331 
1521.000000	98.185028 
1520.000000	98.184165 
1519.000000	98.176449 
1518.000000	98.170864 
1517.000000	98.172122 
1516.000000	98.178009 
1515.000000	98.184456 
1514.000000	98.190217 
1513.000000	98.195448 
1512.000000	98.198456 
1511.000000	98.197309 
1510.000000	98.194163 
1509.000000	98.191236 
1508.000000	98.189120 
1507.000000	98.190995 
1506.000000	98.201410 
1505.000000	98.210365 
1504.000000	98.211410 
1503.000000	98.208801 
1502.000000	98.205734 
1501.000000	98.201833 
1500.000000	98.196048 
1499.000000	98.187871 
1498.000000	98.179645 
1497.000000	98.178981 
1496.000000	98.188430 
1495.000000	98.201651 
1494.000000	98.213786 
1493.000000	98.223962 
1492.000000	98.230360 
1491.000000	98.231612 
1490.000000	98.230272 
1489.000000	98.229629 
1488.000000	98.227942 
1487.000000	98.223956 
1486.000000	98.221318 
1485.000000	98.219900 
1484.000000	98.217782 
1483.000000	98.215334 
1482.000000	98.213493 
1481.000000	98.212517 
1480.000000	98.211035 
1479.000000	98.208424 
1478.000000	98.204597 
1477.000000	98.198670 
1476.000000	98.188826 
1475.000000	98.176446 
1474.000000	98.165936 
1473.000000	98.160466 
1472.000000	98.158335 
1471.000000	98.154815 
1470.000000	98.149974 
1469.000000	98.145850 
1468.000000	98.141177 
1467.000000	98.133986 
1466.000000	98.124684 
1465.000000	98.114612 
1464.000000	98.104412 
1463.000000	98.093518 
1462.000000	98.084053 
1461.000000	98.079249 
1460.000000	98.078801 
1459.000000	98.076693 
1458.000000	98.066538 
1457.000000	98.053075 
1456.000000	98.043057 
1455.000000	98.033741 
1454.000000	98.024791 
1453.000000	98.021517 
1452.000000	98.025360 
1451.000000	98.030742 
1450.000000	98.031666 
1449.000000	98.028894 
1448.000000	98.026123 
1447.000000	98.025168 
1446.000000	98.024604 
1445.000000	98.023705 
1444.000000	98.023082 
1443.000000	98.020243 
1442.000000	98.014099 
1441.000000	98.008336 
1440.000000	98.006372 
1439.000000	98.004242 
1438.000000	97.995201 
1437.000000	97.982225 
1436.000000	97.975680 
1435.000000	97.976368 
1434.000000	97.979166 
1433.000000	97.983212 
1432.000000	97.988230 
1431.000000	97.990743 
1430.000000	97.987361 
1429.000000	97.981088 
1428.000000	97.977331 
1427.000000	97.977795 
1426.000000	97.979431 
1425.000000	97.979864 
1424.000000	97.981382 
1423.000000	97.983986 
1422.000000	97.984721 
1421.000000	97.982373 
1420.000000	97.979240 
1419.000000	97.976432 
1418.000000	97.972433 
1417.000000	97.970837 
1416.000000	97.976558 
1415.000000	97.986758 
1414.000000	97.994027 
1413.000000	97.995662 
1412.000000	97.995445 
1411.000000	97.995924 
1410.000000	97.995677 
1409.000000	97.994550 
1408.000000	97.993550 
1407.000000	97.992688 
1406.000000	97.991925 
1405.000000	97.994844 
1404.000000	98.006713 
1403.000000	98.024351 
1402.000000	98.039009 
1401.000000	98.047483 
1400.000000	98.053924 
1399.000000	98.061859 
1398.000000	98.068022 
1397.000000	98.068028 
1396.000000	98.062917 
1395.000000	98.059107 
1394.000000	98.061979 
1393.000000	98.072023 
1392.000000	98.086788 
1391.000000	98.101618 
1390.000000	98.111565 
1389.000000	98.114226 
1388.000000	98.110322 
1387.000000	98.102687 
1386.000000	98.095312 
1385.000000	98.092405 
1384.000000	98.095868 
1383.000000	98.102139 
1382.000000	98.105272 
1381.000000	98.103068 
1380.000000	98.097954 
1379.000000	98.093431 
1378.000000	98.091134 
1377.000000	98.091178 
1376.000000	98.093153 
1375.000000	98.096127 
1374.000000	98.098718 
1373.000000	98.101525 
1372.000000	98.106745 
1371.000000	98.115082 
1370.000000	98.124117 
1369.000000	98.130730 
1368.000000	98.134938 
1367.000000	98.137997 
1366.000000	98.140079 
1365.000000	98.141715 
1364.000000	98.144495 
1363.000000	98.149137 
1362.000000	98.154407 
1361.000000	98.159242 
1360.000000	98.164350 
1359.000000	98.170465 
1358.000000	98.176439 
1357.000000	98.180760 
1356.000000	98.183746 
1355.000000	98.186405 
1354.000000	98.188403 
1353.000000	98.189359 
1352.000000	98.189699 
1351.000000	98.190820 
1350.000000	98.193242 
1349.000000	98.195928 
1348.000000	98.198831 
1347.000000	98.202665 
1346.000000	98.206752 
1345.000000	98.208693 
1344.000000	98.206791 
1343.000000	98.201777 
1342.000000	98.195896 
1341.000000	98.191050 
1340.000000	98.187964 
1339.000000	98.186386 
1338.000000	98.185858 
1337.000000	98.186945 
1336.000000	98.190943 
1335.000000	98.197757 
1334.000000	98.205152 
1333.000000	98.210651 
1332.000000	98.213350 
1331.000000	98.213861 
1330.000000	98.213267 
1329.000000	98.212848 
1328.000000	98.213519 
1327.000000	98.214762 
1326.000000	98.214353 
1325.000000	98.210685 
1324.000000	98.205295 
1323.000000	98.200848 
1322.000000	98.197818 
1321.000000	98.194795 
1320.000000	98.191148 
1319.000000	98.187569 
1318.000000	98.184732 
1317.000000	98.183002 
1316.000000	98.182750 
1315.000000	98.183569 
1314.000000	98.183912 
1313.000000	98.182870 
1312.000000	98.181166 
1311.000000	98.179281 
1310.000000	98.175992 
1309.000000	98.170687 
1308.000000	98.165484 
1307.000000	98.163247 
1306.000000	98.163750 
1305.000000	98.163829 
1304.000000	98.161252 
1303.000000	98.156204 
1302.000000	98.149826 
1301.000000	98.143105 
1300.000000	98.136887 
1299.000000	98.131131 
1298.000000	98.124421 
1297.000000	98.115546 
1296.000000	98.105309 
1295.000000	98.095660 
1294.000000	98.087473 
1293.000000	98.080535 
1292.000000	98.074659 
1291.000000	98.068947 
1290.000000	98.060828 
1289.000000	98.048132 
1288.000000	98.032173 
1287.000000	98.016996 
1286.000000	98.005270 
1285.000000	97.996364 
1284.000000	97.988280 
1283.000000	97.979674 
1282.000000	97.970063 
1281.000000	97.959518 
1280.000000	97.948536 
1279.000000	97.937391 
1278.000000	97.925853 
1277.000000	97.914384 
1276.000000	97.904512 
1275.000000	97.896409 
1274.000000	97.886844 
1273.000000	97.871949 
1272.000000	97.852159 
1271.000000	97.832296 
1270.000000	97.816258 
1269.000000	97.803373 
1268.000000	97.790597 
1267.000000	97.776130 
1266.000000	97.760182 
1265.000000	97.744171 
1264.000000	97.730119 
1263.000000	97.719398 
1262.000000	97.711220 
1261.000000	97.703159 
1260.000000	97.693791 
1259.000000	97.683719 
1258.000000	97.673551 
1257.000000	97.662250 
1256.000000	97.648156 
1255.000000	97.630964 
1254.000000	97.612314 
1253.000000	97.594796 
1252.000000	97.580220 
1251.000000	97.567971 
1250.000000	97.554929 
1249.000000	97.537915 
1248.000000	97.516703 
1247.000000	97.494055 
1246.000000	97.472744 
1245.000000	97.453072 
1244.000000	97.433203 
1243.000000	97.411422 
1242.000000	97.388194 
1241.000000	97.366074 
1240.000000	97.347054 
1239.000000	97.329863 
1238.000000	97.310938 
1237.000000	97.288422 
1236.000000	97.263848 
1235.000000	97.239201 
1234.000000	97.213987 
1233.000000	97.186400 
1232.000000	97.155810 
1231.000000	97.122624 
1230.000000	97.087282 
1229.000000	97.050996 
1228.000000	97.015711 
1227.000000	96.981218 
1226.000000	96.943812 
1225.000000	96.900086 
1224.000000	96.850709 
1223.000000	96.798039 
1222.000000	96.741711 
1221.000000	96.679694 
1220.000000	96.612470 
1219.000000	96.542544 
1218.000000	96.470544 
1217.000000	96.395681 
1216.000000	96.319569 
1215.000000	96.245137 
1214.000000	96.171305 
1213.000000	96.093223 
1212.000000	96.009028 
1211.000000	95.922335 
1210.000000	95.836448 
1209.000000	95.749812 
1208.000000	95.659231 
1207.000000	95.564606 
1206.000000	95.468684 
1205.000000	95.374454 
1204.000000	95.283836 
1203.000000	95.196301 
1202.000000	95.107909 
1201.000000	95.014558 
1200.000000	94.916868 
1199.000000	94.819140 
1198.000000	94.723514 
1197.000000	94.628690 
1196.000000	94.533888 
1195.000000	94.439279 
1194.000000	94.342257 
1193.000000	94.238767 
1192.000000	94.129871 
1191.000000	94.022066 
1190.000000	93.919370 
1189.000000	93.819558 
1188.000000	93.719313 
1187.000000	93.617658 
1186.000000	93.512759 
1185.000000	93.401463 
1184.000000	93.284897 
1183.000000	93.169220 
1182.000000	93.057464 
1181.000000	92.944990 
1180.000000	92.825953 
1179.000000	92.699931 
1178.000000	92.569417 
1177.000000	92.435394 
1176.000000	92.298540 
1175.000000	92.160504 
1174.000000	92.020617 
1173.000000	91.874979 
1172.000000	91.721652 
1171.000000	91.563239 
1170.000000	91.402553 
1169.000000	91.240272 
1168.000000	91.079226 
1167.000000	90.926566 
1166.000000	90.789621 
1165.000000	90.674479 
1164.000000	90.590552 
1163.000000	90.550329 
1162.000000	90.560295 
1161.000000	90.614359 
1160.000000	90.695890 
1159.000000	90.781577 
1158.000000	90.845612 
1157.000000	90.869212 
1156.000000	90.849359 
1155.000000	90.795085 
1154.000000	90.715662 
1153.000000	90.616397 
1152.000000	90.503803 
1151.000000	90.386754 
1150.000000	90.270559 
1149.000000	90.155448 
1148.000000	90.041840 
1147.000000	89.931371 
1146.000000	89.822329 
1145.000000	89.710467 
1144.000000	89.595125 
1143.000000	89.478756 
1142.000000	89.360793 
1141.000000	89.238856 
1140.000000	89.115496 
1139.000000	88.995839 
1138.000000	88.878454 
1137.000000	88.756626 
1136.000000	88.628656 
1135.000000	88.498492 
1134.000000	88.366330 
1133.000000	88.228042 
1132.000000	88.084423 
1131.000000	87.941159 
1130.000000	87.798493 
1129.000000	87.650717 
1128.000000	87.497222 
1127.000000	87.344077 
1126.000000	87.193241 
1125.000000	87.040345 
1124.000000	86.884543 
1123.000000	86.729922 
1122.000000	86.575675 
1121.000000	86.416185 
1120.000000	86.252755 
1119.000000	86.093676 
1118.000000	85.940549 
1117.000000	85.786630 
1116.000000	85.631062 
1115.000000	85.481973 
1114.000000	85.342185 
1113.000000	85.204616 
1112.000000	85.065571 
1111.000000	84.929929 
1110.000000	84.798901 
1109.000000	84.665312 
1108.000000	84.525690 
1107.000000	84.385303 
1106.000000	84.247307 
1105.000000	84.108217 
1104.000000	83.967175 
1103.000000	83.827759 
1102.000000	83.687664 
1101.000000	83.539814 
1100.000000	83.386057 
1099.000000	83.236816 
1098.000000	83.094598 
1097.000000	82.951131 
1096.000000	82.803877 
1095.000000	82.660360 
1094.000000	82.522836 
1093.000000	82.384139 
1092.000000	82.243346 
1091.000000	82.110282 
1090.000000	81.989052 
1089.000000	81.871490 
1088.000000	81.751974 
1087.000000	81.634633 
1086.000000	81.521544 
1085.000000	81.408434 
1084.000000	81.296573 
1083.000000	81.194127 
1082.000000	81.100771 
1081.000000	81.005237 
1080.000000	80.902514 
1079.000000	80.799293 
1078.000000	80.698722 
1077.000000	80.594695 
1076.000000	80.484986 
1075.000000	80.374534 
1074.000000	80.261495 
1073.000000	80.135120 
1072.000000	79.991030 
1071.000000	79.833556 
1070.000000	79.660533 
1069.000000	79.462601 
1068.000000	79.241387 
1067.000000	79.011864 
1066.000000	78.782620 
1065.000000	78.550270 
1064.000000	78.316766 
1063.000000	78.093536 
1062.000000	77.883073 
1061.000000	77.674633 
1060.000000	77.463956 
1059.000000	77.259365 
1058.000000	77.062578 
1057.000000	76.861536 
1056.000000	76.648718 
1055.000000	76.429674 
1054.000000	76.207557 
1053.000000	75.976083 
1052.000000	75.733938 
1051.000000	75.488582 
1050.000000	75.239318 
1049.000000	74.975827 
1048.000000	74.698798 
1047.000000	74.420730 
1046.000000	74.142780 
1045.000000	73.852882 
1044.000000	73.549609 
1043.000000	73.246499 
1042.000000	72.949224 
1041.000000	72.649162 
1040.000000	72.343910 
1039.000000	72.043545 
1038.000000	71.752255 
1037.000000	71.465312 
1036.000000	71.188704 
1035.000000	70.939040 
1034.000000	70.718223 
1033.000000	70.510067 
1032.000000	70.306912 
1031.000000	70.117580 
1030.000000	69.945642 
1029.000000	69.784000 
1028.000000	69.635192 
1027.000000	69.511744 
1026.000000	69.410585 
1025.000000	69.311631 
1024.000000	69.207186 
1023.000000	69.108321 
1022.000000	69.017430 
1021.000000	68.920428 
1020.000000	68.812545 
1019.000000	68.706314 
1018.000000	68.606616 
1017.000000	68.502105 
1016.000000	68.388311 
1015.000000	68.275185 
1014.000000	68.165205 
1013.000000	68.048358 
1012.000000	67.925614 
1011.000000	67.812969 
1010.000000	67.714922 
1009.000000	67.617837 
1008.000000	67.516655 
1007.000000	67.424307 
1006.000000	67.347736 
1005.000000	67.278573 
1004.000000	67.214653 
1003.000000	67.166831 
1002.000000	67.137105 
1001.000000	67.113258 
1000.000000	67.091956 
999.000000	 67.083959 
998.000000	 67.090244 
997.000000	 67.096671 
996.000000	 67.098686 
995.000000	 67.107686 
994.000000	 67.126660 
993.000000	 67.143484 
992.000000	 67.155131 
991.000000	 67.174715 
990.000000	 67.207509 
989.000000	 67.243411 
988.000000	 67.280222 
987.000000	 67.330847 
986.000000	 67.399946 
985.000000	 67.476409 
984.000000	 67.556606 
983.000000	 67.652932 
982.000000	 67.772148 
981.000000	 67.906702 
980.000000	 68.053600 
979.000000	 68.220011 
978.000000	 68.404489 
977.000000	 68.594827 
976.000000	 68.790375 
975.000000	 69.004815 
974.000000	 69.241334 
973.000000	 69.486458 
972.000000	 69.733588 
971.000000	 69.991005 
970.000000	 70.261226 
969.000000	 70.533656 
968.000000	 70.803446 
967.000000	 71.077603 
966.000000	 71.357306 
965.000000	 71.633378 
964.000000	 71.903449 
963.000000	 72.174440 
962.000000	 72.444552 
961.000000	 72.702184 
960.000000	 72.946297 
959.000000	 73.188876 
958.000000	 73.434010 
957.000000	 73.673246 
956.000000	 73.903954 
955.000000	 74.132532 
954.000000	 74.356562 
953.000000	 74.563749 
952.000000	 74.752128 
951.000000	 74.932374 
950.000000	 75.107153 
949.000000	 75.267356 
948.000000	 75.411400 
947.000000	 75.548265 
946.000000	 75.678166 
945.000000	 75.790598 
944.000000	 75.885702 
943.000000	 75.977564 
942.000000	 76.071654 
941.000000	 76.158784 
940.000000	 76.236457 
939.000000	 76.316176 
938.000000	 76.403297 
937.000000	 76.488619 
936.000000	 76.566687 
935.000000	 76.644810 
934.000000	 76.727955 
933.000000	 76.812034 
932.000000	 76.897417 
931.000000	 76.991387 
930.000000	 77.091708 
929.000000	 77.185209 
928.000000	 77.268013 
927.000000	 77.350081 
926.000000	 77.435049 
925.000000	 77.513380 
924.000000	 77.580926 
923.000000	 77.646726 
922.000000	 77.716185 
921.000000	 77.782470 
920.000000	 77.839786 
919.000000	 77.889635 
918.000000	 77.930132 
917.000000	 77.955859 
916.000000	 77.972717 
915.000000	 77.996911 
914.000000	 78.035665 
913.000000	 78.085389 
912.000000	 78.151160 
911.000000	 78.248620 
910.000000	 78.382244 
909.000000	 78.540894 
908.000000	 78.719407 
907.000000	 78.925235 
906.000000	 79.159428 
905.000000	 79.410823 
904.000000	 79.673904 
903.000000	 79.953390 
902.000000	 80.246847 
901.000000	 80.541756 
900.000000	 80.834303 
899.000000	 81.132546 
898.000000	 81.436432 
897.000000	 81.732650 
896.000000	 82.013902 
895.000000	 82.286070 
894.000000	 82.551864 
893.000000	 82.804222 
892.000000	 83.041006 
891.000000	 83.270515 
890.000000	 83.497056 
889.000000	 83.714802 
888.000000	 83.920016 
887.000000	 84.116306 
886.000000	 84.305280 
885.000000	 84.485644 
884.000000	 84.663274 
883.000000	 84.847299 
882.000000	 85.033989 
881.000000	 85.209829 
880.000000	 85.372796 
879.000000	 85.534798 
878.000000	 85.701081 
877.000000	 85.864738 
876.000000	 86.024965 
875.000000	 86.192648 
874.000000	 86.373023 
873.000000	 86.559196 
872.000000	 86.746482 
871.000000	 86.936637 
870.000000	 87.124916 
869.000000	 87.300370 
868.000000	 87.463579 
867.000000	 87.628556 
866.000000	 87.802174 
865.000000	 87.975414 
864.000000	 88.139387 
863.000000	 88.296730 
862.000000	 88.452432 
861.000000	 88.605837 
860.000000	 88.756765 
859.000000	 88.908084 
858.000000	 89.057092 
857.000000	 89.194421 
856.000000	 89.315993 
855.000000	 89.427050 
854.000000	 89.531490 
853.000000	 89.626916 
852.000000	 89.713229 
851.000000	 89.796306 
850.000000	 89.879603 
849.000000	 89.960214 
848.000000	 90.034681 
847.000000	 90.099501 
846.000000	 90.145791 
845.000000	 90.165359 
844.000000	 90.164193 
843.000000	 90.158218 
842.000000	 90.152141 
841.000000	 90.132853 
840.000000	 90.086787 
839.000000	 90.013238 
838.000000	 89.918494 
837.000000	 89.809747 
836.000000	 89.699527 
835.000000	 89.603153 
834.000000	 89.524061 
833.000000	 89.451849 
832.000000	 89.381476 
831.000000	 89.324124 
830.000000	 89.292099 
829.000000	 89.283586 
828.000000	 89.290693 
827.000000	 89.312901 
826.000000	 89.353279 
825.000000	 89.408640 
824.000000	 89.470682 
823.000000	 89.530557 
822.000000	 89.579283 
821.000000	 89.612329 
820.000000	 89.635061 
819.000000	 89.654236 
818.000000	 89.663907 
817.000000	 89.649317 
816.000000	 89.604360 
815.000000	 89.534368 
814.000000	 89.440366 
813.000000	 89.310992 
812.000000	 89.131525 
811.000000	 88.889923 
810.000000	 88.572444 
809.000000	 88.166735 
808.000000	 87.675305 
807.000000	 87.116420 
806.000000	 86.507847 
805.000000	 85.861524 
804.000000	 85.198945 
803.000000	 84.556185 
802.000000	 83.963919 
801.000000	 83.435630 
800.000000	 82.983514 
799.000000	 82.629536 
798.000000	 82.390257 
797.000000	 82.264804 
796.000000	 82.244337 
795.000000	 82.316492 
794.000000	 82.454811 
793.000000	 82.622195 
792.000000	 82.791565 
791.000000	 82.949204 
790.000000	 83.077903 
789.000000	 83.156408 
788.000000	 83.178541 
787.000000	 83.153762 
786.000000	 83.083764 
785.000000	 82.955662 
784.000000	 82.763902 
783.000000	 82.523525 
782.000000	 82.258349 
781.000000	 81.993600 
780.000000	 81.763728 
779.000000	 81.605448 
778.000000	 81.532629 
777.000000	 81.533987 
776.000000	 81.600038 
775.000000	 81.732107 
774.000000	 81.920169 
773.000000	 82.135236 
772.000000	 82.352841 
771.000000	 82.565862 
770.000000	 82.768418 
769.000000	 82.946260 
768.000000	 83.090194 
767.000000	 83.202400 
766.000000	 83.284439 
765.000000	 83.336021 
764.000000	 83.370096 
763.000000	 83.410300 
762.000000	 83.465825 
761.000000	 83.524710 
760.000000	 83.577549 
759.000000	 83.630692 
758.000000	 83.690690 
757.000000	 83.754375 
756.000000	 83.821490 
755.000000	 83.900098 
754.000000	 83.992297 
753.000000	 84.089669 
752.000000	 84.187311 
751.000000	 84.285771 
750.000000	 84.376477 
749.000000	 84.446030 
748.000000	 84.501456 
747.000000	 84.571485 
746.000000	 84.673964 
745.000000	 84.798721 
744.000000	 84.929723 
743.000000	 85.066127 
742.000000	 85.213223 
741.000000	 85.370273 
740.000000	 85.536935 
739.000000	 85.715735 
738.000000	 85.898594 
737.000000	 86.065669 
736.000000	 86.207234 
735.000000	 86.334777 
734.000000	 86.462294 
733.000000	 86.588042 
732.000000	 86.702145 
731.000000	 86.800261 
730.000000	 86.881395 
729.000000	 86.942613 
728.000000	 86.985439 
727.000000	 87.018261 
726.000000	 87.045570 
725.000000	 87.066139 
724.000000	 87.086719 
723.000000	 87.125222 
722.000000	 87.194126 
721.000000	 87.290220 
720.000000	 87.403335 
719.000000	 87.522296 
718.000000	 87.630020 
717.000000	 87.710221 
716.000000	 87.765762 
715.000000	 87.816903 
714.000000	 87.874614 
713.000000	 87.927361 
712.000000	 87.960515 
711.000000	 87.975221 
710.000000	 87.980418 
709.000000	 87.977765 
708.000000	 87.963800 
707.000000	 87.937827 
706.000000	 87.898107 
705.000000	 87.838817 
704.000000	 87.754490 
703.000000	 87.635899 
702.000000	 87.462602 
701.000000	 87.214076 
700.000000	 86.891087 
699.000000	 86.516584 
698.000000	 86.115994 
697.000000	 85.717271 
696.000000	 85.371677 
695.000000	 85.144021 
694.000000	 85.070051 
693.000000	 85.136659 
692.000000	 85.306849 
691.000000	 85.545427 
690.000000	 85.812955 
689.000000	 86.061985 
688.000000	 86.259573 
687.000000	 86.404423 
686.000000	 86.515651 
685.000000	 86.614447 
684.000000	 86.719543 
683.000000	 86.842635 
682.000000	 86.975537 
681.000000	 87.093322 
680.000000	 87.179524 
679.000000	 87.241854 
678.000000	 87.298265 
677.000000	 87.356332 
676.000000	 87.420102 
675.000000	 87.503428 
674.000000	 87.613886 
673.000000	 87.736258 
672.000000	 87.851267 
671.000000	 87.958773 
670.000000	 88.071845 
669.000000	 88.176697 
668.000000	 88.216295 
667.000000	 88.203835 
666.000000	 88.204301 
665.000000	 88.210104 
664.000000	 88.208976 
663.000000	 88.217001 
662.000000	 88.247616 
661.000000	 88.290814 
660.000000	 88.333097 
659.000000	 88.373714 
658.000000	 88.402613 
657.000000	 88.393604 
656.000000	 88.343382 
655.000000	 88.286910 
654.000000	 88.245028 
653.000000	 88.198947 
652.000000	 88.141283 
651.000000	 88.102599 
650.000000	 88.101401 

