4000.000000	99.425088 
3999.000000	99.425094 
3998.000000	99.425099 
3997.000000	99.424804 
3996.000000	99.424055 
3995.000000	99.422932 
3994.000000	99.421735 
3993.000000	99.420845 
3992.000000	99.420469 
3991.000000	99.420454 
3990.000000	99.420394 
3989.000000	99.420065 
3988.000000	99.419717 
3987.000000	99.419824 
3986.000000	99.420560 
3985.000000	99.421552 
3984.000000	99.422118 
3983.000000	99.421747 
3982.000000	99.420375 
3981.000000	99.418399 
3980.000000	99.416390 
3979.000000	99.414727 
3978.000000	99.413534 
3977.000000	99.412911 
3976.000000	99.413037 
3975.000000	99.413974 
3974.000000	99.415445 
3973.000000	99.416869 
3972.000000	99.417703 
3971.000000	99.417745 
3970.000000	99.417119 
3969.000000	99.416076 
3968.000000	99.414849 
3967.000000	99.413593 
3966.000000	99.412423 
3965.000000	99.411490 
3964.000000	99.410878 
3963.000000	99.410417 
3962.000000	99.409732 
3961.000000	99.408620 
3960.000000	99.407328 
3959.000000	99.406396 
3958.000000	99.406149 
3957.000000	99.406375 
3956.000000	99.406593 
3955.000000	99.406540 
3954.000000	99.406334 
3953.000000	99.406185 
3952.000000	99.406075 
3951.000000	99.405866 
3950.000000	99.405569 
3949.000000	99.405424 
3948.000000	99.405637 
3947.000000	99.406054 
3946.000000	99.406280 
3945.000000	99.406089 
3944.000000	99.405625 
3943.000000	99.405140 
3942.000000	99.404725 
3941.000000	99.404352 
3940.000000	99.403995 
3939.000000	99.403622 
3938.000000	99.403198 
3937.000000	99.402783 
3936.000000	99.402611 
3935.000000	99.402939 
3934.000000	99.403827 
3933.000000	99.405038 
3932.000000	99.406126 
3931.000000	99.406675 
3930.000000	99.406512 
3929.000000	99.405811 
3928.000000	99.405020 
3927.000000	99.404577 
3926.000000	99.404654 
3925.000000	99.405059 
3924.000000	99.405359 
3923.000000	99.405274 
3922.000000	99.404884 
3921.000000	99.404523 
3920.000000	99.404481 
3919.000000	99.404812 
3918.000000	99.405365 
3917.000000	99.405915 
3916.000000	99.406293 
3915.000000	99.406467 
3914.000000	99.406568 
3913.000000	99.406759 
3912.000000	99.407058 
3911.000000	99.407373 
3910.000000	99.407684 
3909.000000	99.408102 
3908.000000	99.408714 
3907.000000	99.409312 
3906.000000	99.409384 
3905.000000	99.408496 
3904.000000	99.406669 
3903.000000	99.404544 
3902.000000	99.403035 
3901.000000	99.402646 
3900.000000	99.403304 
3899.000000	99.404484 
3898.000000	99.405575 
3897.000000	99.406270 
3896.000000	99.406520 
3895.000000	99.406347 
3894.000000	99.405780 
3893.000000	99.404903 
3892.000000	99.403925 
3891.000000	99.403115 
3890.000000	99.402619 
3889.000000	99.402372 
3888.000000	99.402250 
3887.000000	99.402241 
3886.000000	99.402317 
3885.000000	99.402262 
3884.000000	99.401869 
3883.000000	99.401305 
3882.000000	99.401074 
3881.000000	99.401505 
3880.000000	99.402389 
3879.000000	99.403136 
3878.000000	99.403410 
3877.000000	99.403403 
3876.000000	99.403586 
3875.000000	99.404139 
3874.000000	99.404672 
3873.000000	99.404663 
3872.000000	99.404124 
3871.000000	99.403608 
3870.000000	99.403555 
3869.000000	99.403863 
3868.000000	99.404180 
3867.000000	99.404413 
3866.000000	99.404795 
3865.000000	99.405453 
3864.000000	99.406105 
3863.000000	99.406411 
3862.000000	99.406403 
3861.000000	99.406430 
3860.000000	99.406798 
3859.000000	99.407533 
3858.000000	99.408383 
3857.000000	99.409025 
3856.000000	99.409314 
3855.000000	99.409508 
3854.000000	99.409994 
3853.000000	99.410674 
3852.000000	99.411169 
3851.000000	99.411366 
3850.000000	99.411383 
3849.000000	99.411400 
3848.000000	99.411493 
3847.000000	99.411638 
3846.000000	99.411797 
3845.000000	99.411950 
3844.000000	99.412122 
3843.000000	99.412365 
3842.000000	99.412689 
3841.000000	99.413046 
3840.000000	99.413378 
3839.000000	99.413652 
3838.000000	99.413859 
3837.000000	99.414011 
3836.000000	99.414128 
3835.000000	99.414241 
3834.000000	99.414376 
3833.000000	99.414548 
3832.000000	99.414756 
3831.000000	99.414962 
3830.000000	99.415110 
3829.000000	99.415169 
3828.000000	99.415160 
3827.000000	99.415139 
3826.000000	99.415148 
3825.000000	99.415182 
3824.000000	99.415207 
3823.000000	99.415236 
3822.000000	99.415325 
3821.000000	99.415464 
3820.000000	99.415569 
3819.000000	99.415600 
3818.000000	99.415599 
3817.000000	99.415642 
3816.000000	99.415735 
3815.000000	99.415741 
3814.000000	99.415546 
3813.000000	99.415219 
3812.000000	99.414964 
3811.000000	99.414905 
3810.000000	99.414977 
3809.000000	99.415012 
3808.000000	99.414947 
3807.000000	99.414890 
3806.000000	99.414898 
3805.000000	99.414810 
3804.000000	99.414477 
3803.000000	99.414061 
3802.000000	99.413971 
3801.000000	99.414355 
3800.000000	99.414825 
3799.000000	99.414863 
3798.000000	99.414327 
3797.000000	99.413425 
3796.000000	99.412378 
3795.000000	99.411229 
3794.000000	99.409951 
3793.000000	99.408671 
3792.000000	99.407703 
3791.000000	99.407376 
3790.000000	99.407847 
3789.000000	99.409006 
3788.000000	99.410435 
3787.000000	99.411505 
3786.000000	99.411815 
3785.000000	99.411627 
3784.000000	99.411627 
3783.000000	99.412085 
3782.000000	99.412586 
3781.000000	99.412685 
3780.000000	99.412419 
3779.000000	99.412061 
3778.000000	99.411670 
3777.000000	99.411019 
3776.000000	99.409978 
3775.000000	99.408861 
3774.000000	99.407986 
3773.000000	99.407222 
3772.000000	99.406395 
3771.000000	99.405784 
3770.000000	99.405603 
3769.000000	99.405549 
3768.000000	99.405451 
3767.000000	99.405641 
3766.000000	99.406395 
3765.000000	99.407235 
3764.000000	99.406984 
3763.000000	99.404894 
3762.000000	99.401723 
3761.000000	99.399295 
3760.000000	99.398678 
3759.000000	99.399445 
3758.000000	99.401051 
3757.000000	99.403757 
3756.000000	99.407695 
3755.000000	99.412317 
3754.000000	99.416921 
3753.000000	99.421413 
3752.000000	99.425643 
3751.000000	99.428282 
3750.000000	99.428632 
3749.000000	99.427944 
3748.000000	99.427227 
3747.000000	99.426005 
3746.000000	99.423568 
3745.000000	99.420256 
3744.000000	99.417094 
3743.000000	99.414257 
3742.000000	99.411251 
3741.000000	99.408154 
3740.000000	99.405048 
3739.000000	99.401238 
3738.000000	99.396791 
3737.000000	99.393620 
3736.000000	99.393235 
3735.000000	99.394284 
3734.000000	99.394046 
3733.000000	99.392158 
3732.000000	99.390543 
3731.000000	99.390257 
3730.000000	99.390399 
3729.000000	99.389847 
3728.000000	99.388995 
3727.000000	99.389065 
3726.000000	99.390099 
3725.000000	99.390683 
3724.000000	99.389835 
3723.000000	99.388153 
3722.000000	99.386724 
3721.000000	99.385919 
3720.000000	99.385159 
3719.000000	99.383674 
3718.000000	99.381418 
3717.000000	99.378750 
3716.000000	99.375572 
3715.000000	99.371484 
3714.000000	99.366790 
3713.000000	99.363136 
3712.000000	99.362134 
3711.000000	99.363514 
3710.000000	99.365257 
3709.000000	99.365337 
3708.000000	99.363123 
3707.000000	99.359269 
3706.000000	99.355003 
3705.000000	99.351441 
3704.000000	99.349033 
3703.000000	99.347335 
3702.000000	99.345244 
3701.000000	99.342009 
3700.000000	99.337863 
3699.000000	99.333482 
3698.000000	99.329378 
3697.000000	99.325882 
3696.000000	99.323070 
3695.000000	99.320812 
3694.000000	99.319029 
3693.000000	99.317733 
3692.000000	99.316658 
3691.000000	99.315184 
3690.000000	99.312811 
3689.000000	99.309808 
3688.000000	99.306883 
3687.000000	99.303986 
3686.000000	99.300685 
3685.000000	99.297501 
3684.000000	99.295545 
3683.000000	99.295254 
3682.000000	99.295872 
3681.000000	99.295947 
3680.000000	99.294091 
3679.000000	99.289436 
3678.000000	99.282439 
3677.000000	99.276198 
3676.000000	99.274560 
3675.000000	99.277175 
3674.000000	99.279605 
3673.000000	99.278720 
3672.000000	99.275449 
3671.000000	99.273743 
3670.000000	99.276096 
3669.000000	99.280745 
3668.000000	99.284667 
3667.000000	99.286944 
3666.000000	99.288223 
3665.000000	99.289099 
3664.000000	99.289637 
3663.000000	99.289847 
3662.000000	99.289916 
3661.000000	99.289715 
3660.000000	99.288775 
3659.000000	99.287224 
3658.000000	99.286547 
3657.000000	99.288459 
3656.000000	99.292624 
3655.000000	99.296609 
3654.000000	99.298530 
3653.000000	99.298734 
3652.000000	99.298767 
3651.000000	99.299519 
3650.000000	99.300311 
3649.000000	99.300644 
3648.000000	99.301830 
3647.000000	99.304777 
3646.000000	99.308459 
3645.000000	99.311603 
3644.000000	99.314239 
3643.000000	99.317395 
3642.000000	99.322048 
3641.000000	99.328042 
3640.000000	99.334124 
3639.000000	99.338822 
3638.000000	99.341318 
3637.000000	99.341901 
3636.000000	99.341727 
3635.000000	99.341992 
3634.000000	99.342901 
3633.000000	99.343699 
3632.000000	99.343847 
3631.000000	99.343827 
3630.000000	99.344740 
3629.000000	99.346268 
3628.000000	99.346581 
3627.000000	99.345356 
3626.000000	99.344199 
3625.000000	99.344695 
3624.000000	99.347093 
3623.000000	99.350391 
3622.000000	99.353409 
3621.000000	99.355918 
3620.000000	99.358220 
3619.000000	99.360024 
3618.000000	99.360729 
3617.000000	99.360538 
3616.000000	99.360413 
3615.000000	99.361202 
3614.000000	99.362598 
3613.000000	99.363279 
3612.000000	99.362439 
3611.000000	99.360846 
3610.000000	99.360099 
3609.000000	99.360963 
3608.000000	99.362635 
3607.000000	99.363905 
3606.000000	99.364738 
3605.000000	99.365988 
3604.000000	99.368097 
3603.000000	99.370649 
3602.000000	99.372918 
3601.000000	99.374651 
3600.000000	99.375865 
3599.000000	99.376309 
3598.000000	99.375664 
3597.000000	99.374149 
3596.000000	99.372704 
3595.000000	99.372520 
3594.000000	99.374009 
3593.000000	99.376465 
3592.000000	99.378637 
3591.000000	99.379533 
3590.000000	99.379084 
3589.000000	99.378163 
3588.000000	99.377728 
3587.000000	99.377585 
3586.000000	99.376952 
3585.000000	99.375828 
3584.000000	99.375170 
3583.000000	99.375717 
3582.000000	99.377180 
3581.000000	99.378497 
3580.000000	99.378816 
3579.000000	99.378074 
3578.000000	99.376639 
3577.000000	99.374932 
3576.000000	99.373376 
3575.000000	99.372433 
3574.000000	99.372267 
3573.000000	99.372454 
3572.000000	99.372459 
3571.000000	99.372219 
3570.000000	99.372020 
3569.000000	99.372053 
3568.000000	99.372233 
3567.000000	99.372305 
3566.000000	99.372263 
3565.000000	99.372535 
3564.000000	99.373693 
3563.000000	99.376151 
3562.000000	99.379805 
3561.000000	99.383703 
3560.000000	99.386553 
3559.000000	99.387752 
3558.000000	99.387814 
3557.000000	99.387672 
3556.000000	99.387726 
3555.000000	99.387628 
3554.000000	99.386915 
3553.000000	99.385430 
3552.000000	99.383373 
3551.000000	99.381229 
3550.000000	99.379547 
3549.000000	99.378682 
3548.000000	99.378742 
3547.000000	99.379475 
3546.000000	99.380312 
3545.000000	99.380514 
3544.000000	99.379705 
3543.000000	99.378387 
3542.000000	99.377770 
3541.000000	99.378728 
3540.000000	99.381006 
3539.000000	99.383297 
3538.000000	99.384375 
3537.000000	99.384061 
3536.000000	99.383116 
3535.000000	99.382400 
3534.000000	99.382111 
3533.000000	99.381969 
3532.000000	99.381806 
3531.000000	99.381804 
3530.000000	99.382091 
3529.000000	99.382358 
3528.000000	99.382091 
3527.000000	99.381187 
3526.000000	99.380110 
3525.000000	99.379395 
3524.000000	99.379133 
3523.000000	99.379010 
3522.000000	99.378756 
3521.000000	99.378376 
3520.000000	99.378016 
3519.000000	99.377775 
3518.000000	99.377687 
3517.000000	99.377740 
3516.000000	99.377821 
3515.000000	99.377742 
3514.000000	99.377365 
3513.000000	99.376743 
3512.000000	99.376099 
3511.000000	99.375667 
3510.000000	99.375508 
3509.000000	99.375486 
3508.000000	99.375427 
3507.000000	99.375306 
3506.000000	99.375286 
3505.000000	99.375504 
3504.000000	99.375860 
3503.000000	99.376088 
3502.000000	99.376152 
3501.000000	99.376399 
3500.000000	99.377163 
3499.000000	99.378251 
3498.000000	99.378929 
3497.000000	99.378602 
3496.000000	99.377301 
3495.000000	99.375624 
3494.000000	99.374306 
3493.000000	99.373683 
3492.000000	99.373666 
3491.000000	99.373945 
3490.000000	99.374269 
3489.000000	99.374637 
3488.000000	99.375182 
3487.000000	99.375873 
3486.000000	99.376394 
3485.000000	99.376422 
3484.000000	99.375948 
3483.000000	99.375254 
3482.000000	99.374601 
3481.000000	99.374039 
3480.000000	99.373578 
3479.000000	99.373343 
3478.000000	99.373405 
3477.000000	99.373573 
3476.000000	99.373580 
3475.000000	99.373491 
3474.000000	99.373711 
3473.000000	99.374437 
3472.000000	99.375301 
3471.000000	99.375749 
3470.000000	99.375712 
3469.000000	99.375613 
3468.000000	99.375758 
3467.000000	99.375945 
3466.000000	99.375824 
3465.000000	99.375433 
3464.000000	99.375146 
3463.000000	99.375184 
3462.000000	99.375385 
3461.000000	99.375497 
3460.000000	99.375502 
3459.000000	99.375570 
3458.000000	99.375818 
3457.000000	99.376152 
3456.000000	99.376321 
3455.000000	99.376070 
3454.000000	99.375333 
3453.000000	99.374382 
3452.000000	99.373603 
3451.000000	99.373189 
3450.000000	99.373069 
3449.000000	99.373054 
3448.000000	99.372953 
3447.000000	99.372607 
3446.000000	99.371992 
3445.000000	99.371347 
3444.000000	99.371039 
3443.000000	99.371191 
3442.000000	99.371500 
3441.000000	99.371512 
3440.000000	99.371094 
3439.000000	99.370491 
3438.000000	99.369954 
3437.000000	99.369432 
3436.000000	99.368729 
3435.000000	99.367892 
3434.000000	99.367283 
3433.000000	99.367259 
3432.000000	99.367846 
3431.000000	99.368705 
3430.000000	99.369347 
3429.000000	99.369501 
3428.000000	99.369266 
3427.000000	99.368929 
3426.000000	99.368619 
3425.000000	99.368185 
3424.000000	99.367471 
3423.000000	99.366588 
3422.000000	99.365813 
3421.000000	99.365237 
3420.000000	99.364733 
3419.000000	99.364284 
3418.000000	99.364127 
3417.000000	99.364436 
3416.000000	99.364996 
3415.000000	99.365348 
3414.000000	99.365227 
3413.000000	99.364735 
3412.000000	99.364161 
3411.000000	99.363772 
3410.000000	99.363729 
3409.000000	99.364001 
3408.000000	99.364258 
3407.000000	99.364025 
3406.000000	99.363116 
3405.000000	99.361871 
3404.000000	99.360896 
3403.000000	99.360531 
3402.000000	99.360664 
3401.000000	99.361012 
3400.000000	99.361460 
3399.000000	99.362049 
3398.000000	99.362733 
3397.000000	99.363269 
3396.000000	99.363372 
3395.000000	99.362913 
3394.000000	99.361979 
3393.000000	99.360787 
3392.000000	99.359575 
3391.000000	99.358564 
3390.000000	99.357990 
3389.000000	99.358074 
3388.000000	99.358894 
3387.000000	99.360267 
3386.000000	99.361811 
3385.000000	99.363206 
3384.000000	99.364331 
3383.000000	99.365112 
3382.000000	99.365311 
3381.000000	99.364689 
3380.000000	99.363374 
3379.000000	99.361990 
3378.000000	99.361224 
3377.000000	99.361233 
3376.000000	99.361583 
3375.000000	99.361723 
3374.000000	99.361516 
3373.000000	99.361266 
3372.000000	99.361314 
3371.000000	99.361669 
3370.000000	99.362027 
3369.000000	99.362062 
3368.000000	99.361699 
3367.000000	99.361164 
3366.000000	99.360820 
3365.000000	99.360879 
3364.000000	99.361243 
3363.000000	99.361601 
3362.000000	99.361721 
3361.000000	99.361575 
3360.000000	99.361191 
3359.000000	99.360511 
3358.000000	99.359533 
3357.000000	99.358585 
3356.000000	99.358213 
3355.000000	99.358670 
3354.000000	99.359600 
3353.000000	99.360286 
3352.000000	99.360332 
3351.000000	99.359932 
3350.000000	99.359565 
3349.000000	99.359513 
3348.000000	99.359734 
3347.000000	99.360046 
3346.000000	99.360305 
3345.000000	99.360424 
3344.000000	99.360375 
3343.000000	99.360253 
3342.000000	99.360235 
3341.000000	99.360374 
3340.000000	99.360459 
3339.000000	99.360222 
3338.000000	99.359707 
3337.000000	99.359337 
3336.000000	99.359521 
3335.000000	99.360261 
3334.000000	99.361190 
3333.000000	99.361952 
3332.000000	99.362437 
3331.000000	99.362689 
3330.000000	99.362768 
3329.000000	99.362713 
3328.000000	99.362560 
3327.000000	99.362321 
3326.000000	99.361967 
3325.000000	99.361417 
3324.000000	99.360562 
3323.000000	99.359368 
3322.000000	99.358037 
3321.000000	99.356942 
3320.000000	99.356327 
3319.000000	99.356134 
3318.000000	99.356171 
3317.000000	99.356345 
3316.000000	99.356589 
3315.000000	99.356709 
3314.000000	99.356562 
3313.000000	99.356347 
3312.000000	99.356434 
3311.000000	99.356863 
3310.000000	99.357198 
3309.000000	99.356998 
3308.000000	99.356280 
3307.000000	99.355390 
3306.000000	99.354614 
3305.000000	99.354044 
3304.000000	99.353726 
3303.000000	99.353711 
3302.000000	99.353903 
3301.000000	99.353988 
3300.000000	99.353663 
3299.000000	99.352927 
3298.000000	99.352121 
3297.000000	99.351674 
3296.000000	99.351749 
3295.000000	99.352108 
3294.000000	99.352287 
3293.000000	99.352018 
3292.000000	99.351487 
3291.000000	99.351079 
3290.000000	99.350858 
3289.000000	99.350503 
3288.000000	99.349737 
3287.000000	99.348658 
3286.000000	99.347629 
3285.000000	99.346933 
3284.000000	99.346591 
3283.000000	99.346449 
3282.000000	99.346365 
3281.000000	99.346323 
3280.000000	99.346433 
3279.000000	99.346793 
3278.000000	99.347317 
3277.000000	99.347706 
3276.000000	99.347640 
3275.000000	99.347001 
3274.000000	99.345949 
3273.000000	99.344835 
3272.000000	99.344026 
3271.000000	99.343711 
3270.000000	99.343787 
3269.000000	99.343938 
3268.000000	99.343865 
3267.000000	99.343440 
3266.000000	99.342650 
3265.000000	99.341554 
3264.000000	99.340401 
3263.000000	99.339711 
3262.000000	99.340003 
3261.000000	99.341374 
3260.000000	99.343320 
3259.000000	99.344980 
3258.000000	99.345717 
3257.000000	99.345592 
3256.000000	99.345245 
3255.000000	99.345117 
3254.000000	99.344849 
3253.000000	99.343835 
3252.000000	99.342437 
3251.000000	99.342136 
3250.000000	99.344085 
3249.000000	99.347772 
3248.000000	99.351314 
3247.000000	99.353128 
3246.000000	99.353004 
3245.000000	99.351716 
3244.000000	99.350148 
3243.000000	99.348827 
3242.000000	99.347933 
3241.000000	99.347408 
3240.000000	99.347225 
3239.000000	99.347731 
3238.000000	99.349559 
3237.000000	99.352960 
3236.000000	99.357259 
3235.000000	99.361102 
3234.000000	99.363266 
3233.000000	99.363234 
3232.000000	99.361307 
3231.000000	99.358467 
3230.000000	99.355889 
3229.000000	99.354194 
3228.000000	99.353027 
3227.000000	99.351512 
3226.000000	99.349220 
3225.000000	99.346658 
3224.000000	99.344759 
3223.000000	99.343968 
3222.000000	99.343885 
3221.000000	99.343745 
3220.000000	99.343135 
3219.000000	99.342268 
3218.000000	99.341686 
3217.000000	99.341900 
3216.000000	99.343266 
3215.000000	99.345830 
3214.000000	99.349025 
3213.000000	99.351649 
3212.000000	99.352527 
3211.000000	99.351330 
3210.000000	99.348774 
3209.000000	99.346078 
3208.000000	99.344239 
3207.000000	99.343710 
3206.000000	99.344432 
3205.000000	99.345948 
3204.000000	99.347550 
3203.000000	99.348590 
3202.000000	99.348872 
3201.000000	99.348775 
3200.000000	99.349008 
3199.000000	99.350086 
3198.000000	99.351861 
3197.000000	99.353572 
3196.000000	99.354508 
3195.000000	99.354684 
3194.000000	99.354732 
3193.000000	99.355110 
3192.000000	99.355546 
3191.000000	99.355388 
3190.000000	99.354351 
3189.000000	99.352783 
3188.000000	99.351356 
3187.000000	99.350596 
3186.000000	99.350640 
3185.000000	99.351255 
3184.000000	99.351979 
3183.000000	99.352336 
3182.000000	99.352115 
3181.000000	99.351536 
3180.000000	99.351163 
3179.000000	99.351501 
3178.000000	99.352571 
3177.000000	99.353806 
3176.000000	99.354494 
3175.000000	99.354414 
3174.000000	99.353932 
3173.000000	99.353495 
3172.000000	99.353066 
3171.000000	99.352271 
3170.000000	99.351093 
3169.000000	99.350158 
3168.000000	99.350111 
3167.000000	99.350876 
3166.000000	99.351730 
3165.000000	99.352064 
3164.000000	99.351913 
3163.000000	99.351709 
3162.000000	99.351756 
3161.000000	99.352090 
3160.000000	99.352687 
3159.000000	99.353520 
3158.000000	99.354364 
3157.000000	99.354755 
3156.000000	99.354338 
3155.000000	99.353185 
3154.000000	99.351668 
3153.000000	99.350076 
3152.000000	99.348526 
3151.000000	99.347244 
3150.000000	99.346659 
3149.000000	99.347041 
3148.000000	99.348180 
3147.000000	99.349565 
3146.000000	99.350866 
3145.000000	99.352068 
3144.000000	99.353159 
3143.000000	99.353937 
3142.000000	99.354248 
3141.000000	99.354222 
3140.000000	99.354114 
3139.000000	99.353966 
3138.000000	99.353584 
3137.000000	99.352866 
3136.000000	99.352076 
3135.000000	99.351699 
3134.000000	99.352013 
3133.000000	99.352825 
3132.000000	99.353554 
3131.000000	99.353688 
3130.000000	99.353175 
3129.000000	99.352446 
3128.000000	99.352059 
3127.000000	99.352257 
3126.000000	99.352844 
3125.000000	99.353371 
3124.000000	99.353452 
3123.000000	99.352983 
3122.000000	99.352185 
3121.000000	99.351497 
3120.000000	99.351260 
3119.000000	99.351463 
3118.000000	99.351779 
3117.000000	99.351913 
3116.000000	99.351889 
3115.000000	99.351957 
3114.000000	99.352245 
3113.000000	99.352587 
3112.000000	99.352723 
3111.000000	99.352617 
3110.000000	99.352501 
3109.000000	99.352573 
3108.000000	99.352702 
3107.000000	99.352525 
3106.000000	99.351858 
3105.000000	99.350938 
3104.000000	99.350246 
3103.000000	99.350075 
3102.000000	99.350352 
3101.000000	99.350863 
3100.000000	99.351526 
3099.000000	99.352359 
3098.000000	99.353273 
3097.000000	99.354012 
3096.000000	99.354340 
3095.000000	99.354222 
3094.000000	99.353799 
3093.000000	99.353186 
3092.000000	99.352348 
3091.000000	99.351251 
3090.000000	99.350135 
3089.000000	99.349485 
3088.000000	99.349576 
3087.000000	99.350046 
3086.000000	99.350110 
3085.000000	99.349312 
3084.000000	99.347874 
3083.000000	99.346201 
3082.000000	99.344334 
3081.000000	99.342249 
3080.000000	99.340518 
3079.000000	99.340144 
3078.000000	99.341618 
3077.000000	99.344357 
3076.000000	99.347176 
3075.000000	99.349155 
3074.000000	99.349929 
3073.000000	99.349518 
3072.000000	99.348203 
3071.000000	99.346408 
3070.000000	99.344429 
3069.000000	99.342304 
3068.000000	99.340147 
3067.000000	99.338591 
3066.000000	99.338689 
3065.000000	99.341197 
3064.000000	99.345717 
3063.000000	99.350338 
3062.000000	99.352435 
3061.000000	99.350403 
3060.000000	99.345054 
3059.000000	99.339271 
3058.000000	99.335966 
3057.000000	99.336259 
3056.000000	99.339315 
3055.000000	99.343287 
3054.000000	99.346209 
3053.000000	99.346611 
3052.000000	99.344049 
3051.000000	99.339313 
3050.000000	99.334040 
3049.000000	99.330010 
3048.000000	99.328361 
3047.000000	99.328754 
3046.000000	99.329092 
3045.000000	99.326854 
3044.000000	99.321468 
3043.000000	99.315217 
3042.000000	99.311279 
3041.000000	99.310828 
3040.000000	99.312289 
3039.000000	99.313067 
3038.000000	99.311439 
3037.000000	99.307097 
3036.000000	99.300738 
3035.000000	99.293484 
3034.000000	99.286226 
3033.000000	99.279080 
3032.000000	99.271576 
3031.000000	99.263427 
3030.000000	99.254940 
3029.000000	99.246803 
3028.000000	99.239831 
3027.000000	99.234755 
3026.000000	99.231578 
3025.000000	99.228911 
3024.000000	99.224474 
3023.000000	99.216828 
3022.000000	99.206620 
3021.000000	99.195837 
3020.000000	99.185759 
3019.000000	99.175910 
3018.000000	99.165164 
3017.000000	99.153489 
3016.000000	99.141977 
3015.000000	99.131147 
3014.000000	99.120042 
3013.000000	99.107667 
3012.000000	99.094789 
3011.000000	99.083279 
3010.000000	99.073694 
3009.000000	99.064526 
3008.000000	99.054136 
3007.000000	99.042517 
3006.000000	99.030657 
3005.000000	99.019028 
3004.000000	99.007570 
3003.000000	98.996586 
3002.000000	98.986599 
3001.000000	98.977358 
3000.000000	98.967747 
2999.000000	98.956902 
2998.000000	98.945194 
2997.000000	98.934265 
2996.000000	98.926112 
2995.000000	98.921257 
2994.000000	98.916974 
2993.000000	98.908084 
2992.000000	98.891084 
2991.000000	98.867975 
2990.000000	98.845391 
2989.000000	98.829664 
2988.000000	98.823178 
2987.000000	98.824773 
2986.000000	98.831695 
2985.000000	98.840605 
2984.000000	98.848039 
2983.000000	98.851655 
2982.000000	98.851281 
2981.000000	98.848408 
2980.000000	98.844736 
2979.000000	98.841422 
2978.000000	98.839099 
2977.000000	98.837714 
2976.000000	98.836326 
2975.000000	98.833712 
2974.000000	98.829557 
2973.000000	98.824985 
2972.000000	98.821863 
2971.000000	98.821528 
2970.000000	98.823944 
2969.000000	98.827860 
2968.000000	98.832006 
2967.000000	98.836455 
2966.000000	98.842639 
2965.000000	98.851631 
2964.000000	98.862467 
2963.000000	98.872521 
2962.000000	98.879670 
2961.000000	98.883860 
2960.000000	98.886454 
2959.000000	98.888553 
2958.000000	98.890361 
2957.000000	98.891998 
2956.000000	98.894250 
2955.000000	98.898202 
2954.000000	98.904452 
2953.000000	98.912890 
2952.000000	98.922875 
2951.000000	98.933149 
2950.000000	98.941864 
2949.000000	98.947526 
2948.000000	98.950087 
2947.000000	98.950675 
2946.000000	98.950308 
2945.000000	98.949463 
2944.000000	98.948675 
2943.000000	98.948576 
2942.000000	98.948845 
2941.000000	98.947918 
2940.000000	98.944604 
2939.000000	98.939799 
2938.000000	98.935870 
2937.000000	98.934473 
2936.000000	98.935477 
2935.000000	98.937626 
2934.000000	98.939447 
2933.000000	98.939610 
2932.000000	98.937241 
2931.000000	98.932238 
2930.000000	98.925262 
2929.000000	98.917599 
2928.000000	98.910977 
2927.000000	98.906665 
2926.000000	98.904145 
2925.000000	98.901300 
2924.000000	98.896814 
2923.000000	98.891979 
2922.000000	98.889178 
2921.000000	98.888912 
2920.000000	98.889465 
2919.000000	98.889287 
2918.000000	98.888548 
2917.000000	98.888127 
2916.000000	98.888227 
2915.000000	98.888449 
2914.000000	98.888515 
2913.000000	98.888458 
2912.000000	98.888653 
2911.000000	98.889851 
2910.000000	98.892521 
2909.000000	98.895937 
2908.000000	98.898535 
2907.000000	98.899460 
2906.000000	98.898956 
2905.000000	98.897006 
2904.000000	98.892681 
2903.000000	98.885971 
2902.000000	98.879741 
2901.000000	98.878773 
2900.000000	98.885737 
2899.000000	98.899145 
2898.000000	98.914139 
2897.000000	98.925712 
2896.000000	98.931820 
2895.000000	98.934024 
2894.000000	98.935674 
2893.000000	98.939206 
2892.000000	98.944852 
2891.000000	98.951441 
2890.000000	98.957843 
2889.000000	98.963465 
2888.000000	98.967956 
2887.000000	98.971183 
2886.000000	98.973584 
2885.000000	98.976122 
2884.000000	98.979746 
2883.000000	98.984983 
2882.000000	98.991946 
2881.000000	99.000395 
2880.000000	99.009698 
2879.000000	99.018943 
2878.000000	99.027262 
2877.000000	99.034162 
2876.000000	99.039686 
2875.000000	99.044334 
2874.000000	99.048748 
2873.000000	99.053287 
2872.000000	99.057863 
2871.000000	99.062150 
2870.000000	99.065962 
2869.000000	99.069564 
2868.000000	99.073797 
2867.000000	99.079693 
2866.000000	99.087518 
2865.000000	99.096107 
2864.000000	99.103552 
2863.000000	99.108754 
2862.000000	99.111993 
2861.000000	99.114020 
2860.000000	99.115274 
2859.000000	99.116383 
2858.000000	99.118682 
2857.000000	99.123243 
2856.000000	99.129478 
2855.000000	99.135656 
2854.000000	99.140839 
2853.000000	99.145810 
2852.000000	99.152053 
2851.000000	99.160355 
2850.000000	99.170501 
2849.000000	99.181744 
2848.000000	99.193142 
2847.000000	99.203671 
2846.000000	99.212498 
2845.000000	99.219396 
2844.000000	99.224899 
2843.000000	99.229973 
2842.000000	99.235508 
2841.000000	99.242017 
2840.000000	99.249606 
2839.000000	99.257926 
2838.000000	99.266074 
2837.000000	99.272870 
2836.000000	99.277628 
2835.000000	99.280702 
2834.000000	99.283019 
2833.000000	99.285065 
2832.000000	99.286602 
2831.000000	99.287305 
2830.000000	99.287231 
2829.000000	99.286646 
2828.000000	99.285930 
2827.000000	99.285876 
2826.000000	99.287553 
2825.000000	99.291236 
2824.000000	99.295662 
2823.000000	99.298834 
2822.000000	99.299691 
2821.000000	99.298849 
2820.000000	99.297875 
2819.000000	99.298048 
2818.000000	99.299634 
2817.000000	99.302030 
2816.000000	99.304397 
2815.000000	99.306175 
2814.000000	99.307063 
2813.000000	99.306837 
2812.000000	99.305671 
2811.000000	99.304690 
2810.000000	99.305540 
2809.000000	99.308839 
2808.000000	99.313196 
2807.000000	99.316257 
2806.000000	99.316808 
2805.000000	99.315619 
2804.000000	99.314427 
2803.000000	99.314440 
2802.000000	99.315763 
2801.000000	99.317792 
2800.000000	99.319822 
2799.000000	99.321392 
2798.000000	99.322311 
2797.000000	99.322497 
2796.000000	99.322002 
2795.000000	99.321228 
2794.000000	99.320908 
2793.000000	99.321526 
2792.000000	99.322800 
2791.000000	99.323936 
2790.000000	99.324429 
2789.000000	99.324461 
2788.000000	99.324558 
2787.000000	99.325016 
2786.000000	99.325688 
2785.000000	99.326200 
2784.000000	99.326310 
2783.000000	99.326101 
2782.000000	99.325901 
2781.000000	99.326006 
2780.000000	99.326467 
2779.000000	99.327125 
2778.000000	99.327766 
2777.000000	99.328308 
2776.000000	99.328833 
2775.000000	99.329442 
2774.000000	99.330090 
2773.000000	99.330602 
2772.000000	99.330871 
2771.000000	99.331002 
2770.000000	99.331222 
2769.000000	99.331641 
2768.000000	99.332151 
2767.000000	99.332581 
2766.000000	99.332881 
2765.000000	99.333094 
2764.000000	99.333182 
2763.000000	99.333023 
2762.000000	99.332612 
2761.000000	99.332174 
2760.000000	99.332015 
2759.000000	99.332248 
2758.000000	99.332748 
2757.000000	99.333308 
2756.000000	99.333792 
2755.000000	99.334136 
2754.000000	99.334291 
2753.000000	99.334276 
2752.000000	99.334245 
2751.000000	99.334410 
2750.000000	99.334848 
2749.000000	99.335429 
2748.000000	99.335951 
2747.000000	99.336318 
2746.000000	99.336569 
2745.000000	99.336751 
2744.000000	99.336842 
2743.000000	99.336794 
2742.000000	99.336640 
2741.000000	99.336522 
2740.000000	99.336580 
2739.000000	99.336820 
2738.000000	99.337117 
2737.000000	99.337339 
2736.000000	99.337480 
2735.000000	99.337609 
2734.000000	99.337734 
2733.000000	99.337776 
2732.000000	99.337706 
2731.000000	99.337603 
2730.000000	99.337593 
2729.000000	99.337705 
2728.000000	99.337876 
2727.000000	99.338029 
2726.000000	99.338146 
2725.000000	99.338247 
2724.000000	99.338353 
2723.000000	99.338477 
2722.000000	99.338628 
2721.000000	99.338801 
2720.000000	99.338975 
2719.000000	99.339121 
2718.000000	99.339224 
2717.000000	99.339289 
2716.000000	99.339336 
2715.000000	99.339383 
2714.000000	99.339433 
2713.000000	99.339477 
2712.000000	99.339515 
2711.000000	99.339553 
2710.000000	99.339599 
2709.000000	99.339653 
2708.000000	99.339708 
2707.000000	99.339754 
2706.000000	99.339779 
2705.000000	99.339784 
2704.000000	99.339786 
2703.000000	99.339812 
2702.000000	99.339875 
2701.000000	99.339964 
2700.000000	99.340046 
2699.000000	99.340109 
2698.000000	99.340175 
2697.000000	99.340277 
2696.000000	99.340417 
2695.000000	99.340563 
2694.000000	99.340683 
2693.000000	99.340777 
2692.000000	99.340878 
2691.000000	99.341006 
2690.000000	99.341138 
2689.000000	99.341233 
2688.000000	99.341284 
2687.000000	99.341329 
2686.000000	99.341424 
2685.000000	99.341593 
2684.000000	99.341812 
2683.000000	99.342028 
2682.000000	99.342189 
2681.000000	99.342262 
2680.000000	99.342255 
2679.000000	99.342235 
2678.000000	99.342295 
2677.000000	99.342486 
2676.000000	99.342791 
2675.000000	99.343144 
2674.000000	99.343471 
2673.000000	99.343729 
2672.000000	99.343927 
2671.000000	99.344122 
2670.000000	99.344367 
2669.000000	99.344662 
2668.000000	99.344960 
2667.000000	99.345229 
2666.000000	99.345482 
2665.000000	99.345753 
2664.000000	99.346060 
2663.000000	99.346390 
2662.000000	99.346721 
2661.000000	99.347033 
2660.000000	99.347321 
2659.000000	99.347595 
2658.000000	99.347870 
2657.000000	99.348156 
2656.000000	99.348449 
2655.000000	99.348739 
2654.000000	99.349009 
2653.000000	99.349253 
2652.000000	99.349479 
2651.000000	99.349721 
2650.000000	99.350005 
2649.000000	99.350334 
2648.000000	99.350648 
2647.000000	99.350885 
2646.000000	99.351043 
2645.000000	99.351184 
2644.000000	99.351369 
2643.000000	99.351594 
2642.000000	99.351807 
2641.000000	99.351963 
2640.000000	99.352065 
2639.000000	99.352173 
2638.000000	99.352348 
2637.000000	99.352587 
2636.000000	99.352838 
2635.000000	99.353064 
2634.000000	99.353258 
2633.000000	99.353426 
2632.000000	99.353588 
2631.000000	99.353812 
2630.000000	99.354169 
2629.000000	99.354599 
2628.000000	99.354882 
2627.000000	99.354849 
2626.000000	99.354576 
2625.000000	99.354342 
2624.000000	99.354313 
2623.000000	99.354382 
2622.000000	99.354353 
2621.000000	99.354208 
2620.000000	99.354088 
2619.000000	99.354088 
2618.000000	99.354166 
2617.000000	99.354292 
2616.000000	99.354564 
2615.000000	99.355114 
2614.000000	99.355894 
2613.000000	99.356635 
2612.000000	99.357056 
2611.000000	99.357069 
2610.000000	99.356719 
2609.000000	99.356026 
2608.000000	99.355017 
2607.000000	99.353949 
2606.000000	99.353351 
2605.000000	99.353675 
2604.000000	99.354878 
2603.000000	99.356318 
2602.000000	99.357232 
2601.000000	99.357394 
2600.000000	99.357280 
2599.000000	99.357408 
2598.000000	99.357520 
2597.000000	99.356765 
2596.000000	99.354722 
2595.000000	99.351989 
2594.000000	99.349730 
2593.000000	99.348671 
2592.000000	99.348775 
2591.000000	99.349617 
2590.000000	99.350782 
2589.000000	99.351983 
2588.000000	99.353068 
2587.000000	99.353976 
2586.000000	99.354615 
2585.000000	99.354833 
2584.000000	99.354607 
2583.000000	99.354115 
2582.000000	99.353457 
2581.000000	99.352508 
2580.000000	99.351284 
2579.000000	99.350207 
2578.000000	99.349647 
2577.000000	99.349403 
2576.000000	99.349004 
2575.000000	99.348473 
2574.000000	99.348346 
2573.000000	99.348905 
2572.000000	99.349769 
2571.000000	99.350314 
2570.000000	99.350246 
2569.000000	99.349735 
2568.000000	99.349268 
2567.000000	99.349386 
2566.000000	99.350288 
2565.000000	99.351568 
2564.000000	99.352524 
2563.000000	99.352877 
2562.000000	99.352919 
2561.000000	99.353016 
2560.000000	99.353149 
2559.000000	99.353066 
2558.000000	99.352683 
2557.000000	99.352196 
2556.000000	99.351922 
2555.000000	99.352070 
2554.000000	99.352613 
2553.000000	99.353274 
2552.000000	99.353686 
2551.000000	99.353700 
2550.000000	99.353445 
2549.000000	99.353138 
2548.000000	99.352877 
2547.000000	99.352657 
2546.000000	99.352486 
2545.000000	99.352412 
2544.000000	99.352466 
2543.000000	99.352622 
2542.000000	99.352788 
2541.000000	99.352858 
2540.000000	99.352802 
2539.000000	99.352700 
2538.000000	99.352686 
2537.000000	99.352813 
2536.000000	99.353016 
2535.000000	99.353206 
2534.000000	99.353356 
2533.000000	99.353486 
2532.000000	99.353606 
2531.000000	99.353712 
2530.000000	99.353817 
2529.000000	99.353950 
2528.000000	99.354126 
2527.000000	99.354323 
2526.000000	99.354501 
2525.000000	99.354638 
2524.000000	99.354773 
2523.000000	99.354983 
2522.000000	99.355299 
2521.000000	99.355685 
2520.000000	99.356066 
2519.000000	99.356378 
2518.000000	99.356582 
2517.000000	99.356664 
2516.000000	99.356656 
2515.000000	99.356650 
2514.000000	99.356745 
2513.000000	99.356982 
2512.000000	99.357338 
2511.000000	99.357778 
2510.000000	99.358266 
2509.000000	99.358745 
2508.000000	99.359165 
2507.000000	99.359539 
2506.000000	99.359912 
2505.000000	99.360259 
2504.000000	99.360470 
2503.000000	99.360495 
2502.000000	99.360447 
2501.000000	99.360532 
2500.000000	99.360871 
2499.000000	99.361442 
2498.000000	99.362127 
2497.000000	99.362762 
2496.000000	99.363199 
2495.000000	99.363376 
2494.000000	99.363369 
2493.000000	99.363345 
2492.000000	99.363435 
2491.000000	99.363689 
2490.000000	99.364113 
2489.000000	99.364709 
2488.000000	99.365453 
2487.000000	99.366250 
2486.000000	99.366886 
2485.000000	99.367090 
2484.000000	99.366742 
2483.000000	99.366018 
2482.000000	99.365323 
2481.000000	99.364950 
2480.000000	99.364917 
2479.000000	99.365054 
2478.000000	99.365169 
2477.000000	99.365149 
2476.000000	99.364989 
2475.000000	99.364796 
2474.000000	99.364733 
2473.000000	99.364862 
2472.000000	99.365058 
2471.000000	99.365125 
2470.000000	99.365003 
2469.000000	99.364788 
2468.000000	99.364594 
2467.000000	99.364426 
2466.000000	99.364234 
2465.000000	99.364015 
2464.000000	99.363812 
2463.000000	99.363645 
2462.000000	99.363505 
2461.000000	99.363380 
2460.000000	99.363253 
2459.000000	99.363089 
2458.000000	99.362860 
2457.000000	99.362602 
2456.000000	99.362398 
2455.000000	99.362287 
2454.000000	99.362228 
2453.000000	99.362148 
2452.000000	99.361997 
2451.000000	99.361721 
2450.000000	99.361230 
2449.000000	99.360478 
2448.000000	99.359606 
2447.000000	99.358935 
2446.000000	99.358714 
2445.000000	99.358899 
2444.000000	99.359177 
2443.000000	99.359213 
2442.000000	99.358859 
2441.000000	99.358157 
2440.000000	99.357317 
2439.000000	99.356671 
2438.000000	99.356500 
2437.000000	99.356806 
2436.000000	99.357256 
2435.000000	99.357455 
2434.000000	99.357284 
2433.000000	99.356979 
2432.000000	99.356932 
2431.000000	99.357379 
2430.000000	99.358144 
2429.000000	99.358613 
2428.000000	99.358154 
2427.000000	99.356690 
2426.000000	99.354874 
2425.000000	99.353564 
2424.000000	99.353120 
2423.000000	99.353378 
2422.000000	99.354116 
2421.000000	99.355205 
2420.000000	99.356229 
2419.000000	99.356341 
2418.000000	99.354950 
2417.000000	99.352389 
2416.000000	99.349765 
2415.000000	99.347947 
2414.000000	99.346909 
2413.000000	99.346119 
2412.000000	99.345251 
2411.000000	99.344394 
2410.000000	99.343700 
2409.000000	99.343170 
2408.000000	99.342796 
2407.000000	99.342621 
2406.000000	99.342602 
2405.000000	99.342614 
2404.000000	99.342636 
2403.000000	99.342747 
2402.000000	99.342856 
2401.000000	99.342626 
2400.000000	99.341807 
2399.000000	99.340513 
2398.000000	99.339109 
2397.000000	99.337943 
2396.000000	99.337254 
2395.000000	99.337093 
2394.000000	99.337142 
2393.000000	99.336852 
2392.000000	99.336044 
2391.000000	99.335174 
2390.000000	99.334766 
2389.000000	99.334781 
2388.000000	99.334860 
2387.000000	99.334985 
2386.000000	99.335443 
2385.000000	99.336166 
2384.000000	99.336600 
2383.000000	99.336393 
2382.000000	99.335823 
2381.000000	99.335359 
2380.000000	99.335072 
2379.000000	99.334774 
2378.000000	99.334571 
2377.000000	99.334831 
2376.000000	99.335650 
2375.000000	99.336610 
2374.000000	99.337183 
2373.000000	99.337167 
2372.000000	99.336610 
2371.000000	99.335625 
2370.000000	99.334504 
2369.000000	99.333844 
2368.000000	99.334119 
2367.000000	99.335229 
2366.000000	99.336575 
2365.000000	99.337660 
2364.000000	99.338428 
2363.000000	99.338955 
2362.000000	99.339134 
2361.000000	99.338817 
2360.000000	99.338104 
2359.000000	99.337214 
2358.000000	99.336340 
2357.000000	99.335758 
2356.000000	99.335800 
2355.000000	99.336589 
2354.000000	99.337823 
2353.000000	99.338978 
2352.000000	99.339741 
2351.000000	99.340164 
2350.000000	99.340479 
2349.000000	99.340823 
2348.000000	99.341250 
2347.000000	99.341814 
2346.000000	99.342465 
2345.000000	99.343020 
2344.000000	99.343367 
2343.000000	99.343721 
2342.000000	99.344283 
2341.000000	99.344950 
2340.000000	99.345544 
2339.000000	99.346105 
2338.000000	99.346803 
2337.000000	99.347583 
2336.000000	99.348181 
2335.000000	99.348486 
2334.000000	99.348790 
2333.000000	99.349426 
2332.000000	99.350395 
2331.000000	99.351375 
2330.000000	99.352134 
2329.000000	99.352691 
2328.000000	99.353285 
2327.000000	99.354177 
2326.000000	99.355460 
2325.000000	99.356921 
2324.000000	99.358113 
2323.000000	99.358881 
2322.000000	99.359505 
2321.000000	99.360275 
2320.000000	99.360982 
2319.000000	99.361191 
2318.000000	99.360893 
2317.000000	99.360595 
2316.000000	99.360829 
2315.000000	99.361657 
2314.000000	99.362834 
2313.000000	99.364082 
2312.000000	99.365307 
2311.000000	99.366446 
2310.000000	99.367388 
2309.000000	99.367878 
2308.000000	99.367756 
2307.000000	99.367181 
2306.000000	99.366683 
2305.000000	99.366751 
2304.000000	99.367513 
2303.000000	99.368741 
2302.000000	99.370084 
2301.000000	99.371187 
2300.000000	99.371960 
2299.000000	99.372781 
2298.000000	99.374108 
2297.000000	99.375548 
2296.000000	99.375868 
2295.000000	99.374373 
2294.000000	99.371983 
2293.000000	99.370544 
2292.000000	99.370992 
2291.000000	99.372694 
2290.000000	99.374303 
2289.000000	99.374871 
2288.000000	99.374198 
2287.000000	99.372659 
2286.000000	99.370840 
2285.000000	99.368971 
2284.000000	99.366830 
2283.000000	99.364500 
2282.000000	99.362903 
2281.000000	99.362892 
2280.000000	99.363923 
2279.000000	99.364346 
2278.000000	99.363224 
2277.000000	99.361292 
2276.000000	99.359892 
2275.000000	99.359591 
2274.000000	99.360092 
2273.000000	99.360935 
2272.000000	99.361791 
2271.000000	99.362415 
2270.000000	99.362692 
2269.000000	99.362622 
2268.000000	99.362222 
2267.000000	99.361588 
2266.000000	99.361015 
2265.000000	99.360720 
2264.000000	99.360494 
2263.000000	99.359964 
2262.000000	99.359234 
2261.000000	99.358843 
2260.000000	99.359043 
2259.000000	99.359434 
2258.000000	99.359495 
2257.000000	99.359256 
2256.000000	99.359179 
2255.000000	99.359622 
2254.000000	99.360605 
2253.000000	99.361885 
2252.000000	99.363094 
2251.000000	99.363891 
2250.000000	99.364077 
2249.000000	99.363694 
2248.000000	99.363026 
2247.000000	99.362451 
2246.000000	99.362119 
2245.000000	99.361943 
2244.000000	99.361832 
2243.000000	99.361871 
2242.000000	99.362192 
2241.000000	99.362755 
2240.000000	99.363406 
2239.000000	99.364075 
2238.000000	99.364715 
2237.000000	99.365177 
2236.000000	99.365341 
2235.000000	99.365297 
2234.000000	99.365267 
2233.000000	99.365394 
2232.000000	99.365652 
2231.000000	99.365966 
2230.000000	99.366303 
2229.000000	99.366673 
2228.000000	99.367093 
2227.000000	99.367556 
2226.000000	99.368039 
2225.000000	99.368533 
2224.000000	99.369024 
2223.000000	99.369504 
2222.000000	99.369970 
2221.000000	99.370421 
2220.000000	99.370857 
2219.000000	99.371280 
2218.000000	99.371698 
2217.000000	99.372119 
2216.000000	99.372543 
2215.000000	99.372955 
2214.000000	99.373340 
2213.000000	99.373699 
2212.000000	99.374055 
2211.000000	99.374438 
2210.000000	99.374871 
2209.000000	99.375366 
2208.000000	99.375925 
2207.000000	99.376560 
2206.000000	99.377232 
2205.000000	99.377800 
2204.000000	99.378177 
2203.000000	99.378613 
2202.000000	99.379697 
2201.000000	99.381766 
2200.000000	99.384176 
2199.000000	99.385665 
2198.000000	99.385566 
2197.000000	99.384551 
2196.000000	99.383955 
2195.000000	99.384397 
2194.000000	99.385489 
2193.000000	99.386694 
2192.000000	99.387937 
2191.000000	99.389348 
2190.000000	99.391099 
2189.000000	99.393625 
2188.000000	99.397032 
2187.000000	99.399794 
2186.000000	99.399061 
2185.000000	99.393333 
2184.000000	99.384645 
2183.000000	99.377420 
2182.000000	99.374819 
2181.000000	99.376946 
2180.000000	99.381767 
2179.000000	99.386726 
2178.000000	99.389767 
2177.000000	99.390167 
2176.000000	99.389100 
2175.000000	99.388566 
2174.000000	99.389414 
2173.000000	99.391353 
2172.000000	99.394954 
2171.000000	99.401864 
2170.000000	99.411974 
2169.000000	99.421751 
2168.000000	99.427199 
2167.000000	99.427793 
2166.000000	99.426160 
2165.000000	99.424751 
2164.000000	99.424548 
2163.000000	99.426310 
2162.000000	99.430109 
2161.000000	99.432779 
2160.000000	99.428629 
2159.000000	99.414901 
2158.000000	99.395616 
2157.000000	99.378601 
2156.000000	99.368711 
2155.000000	99.365812 
2154.000000	99.367736 
2153.000000	99.372724 
2152.000000	99.379290 
2151.000000	99.385230 
2150.000000	99.387978 
2149.000000	99.386722 
2148.000000	99.384033 
2147.000000	99.384046 
2146.000000	99.387970 
2145.000000	99.392104 
2144.000000	99.391635 
2143.000000	99.386000 
2142.000000	99.379138 
2141.000000	99.374619 
2140.000000	99.372163 
2139.000000	99.369645 
2138.000000	99.366752 
2137.000000	99.365193 
2136.000000	99.365898 
2135.000000	99.367535 
2134.000000	99.368146 
2133.000000	99.367525 
2132.000000	99.367224 
2131.000000	99.368252 
2130.000000	99.369466 
2129.000000	99.368777 
2128.000000	99.365877 
2127.000000	99.362910 
2126.000000	99.362093 
2125.000000	99.363510 
2124.000000	99.365843 
2123.000000	99.368501 
2122.000000	99.371752 
2121.000000	99.375222 
2120.000000	99.377757 
2119.000000	99.378878 
2118.000000	99.379270 
2117.000000	99.379605 
2116.000000	99.379732 
2115.000000	99.379460 
2114.000000	99.379317 
2113.000000	99.379881 
2112.000000	99.380805 
2111.000000	99.381378 
2110.000000	99.381691 
2109.000000	99.382483 
2108.000000	99.383871 
2107.000000	99.384860 
2106.000000	99.384425 
2105.000000	99.382724 
2104.000000	99.381080 
2103.000000	99.380848 
2102.000000	99.382258 
2101.000000	99.384250 
2100.000000	99.385356 
2099.000000	99.384958 
2098.000000	99.383680 
2097.000000	99.382762 
2096.000000	99.382953 
2095.000000	99.384088 
2094.000000	99.385535 
2093.000000	99.386826 
2092.000000	99.387890 
2091.000000	99.388856 
2090.000000	99.389829 
2089.000000	99.390789 
2088.000000	99.391518 
2087.000000	99.391584 
2086.000000	99.390577 
2085.000000	99.388722 
2084.000000	99.387256 
2083.000000	99.387745 
2082.000000	99.390778 
2081.000000	99.395303 
2080.000000	99.399421 
2079.000000	99.402059 
2078.000000	99.403547 
2077.000000	99.404755 
2076.000000	99.405997 
2075.000000	99.406687 
2074.000000	99.405818 
2073.000000	99.402909 
2072.000000	99.398973 
2071.000000	99.396087 
2070.000000	99.395447 
2069.000000	99.396130 
2068.000000	99.396205 
2067.000000	99.394919 
2066.000000	99.393096 
2065.000000	99.391998 
2064.000000	99.392739 
2063.000000	99.396237 
2062.000000	99.402099 
2061.000000	99.407576 
2060.000000	99.409613 
2059.000000	99.408251 
2058.000000	99.406734 
2057.000000	99.407873 
2056.000000	99.411386 
2055.000000	99.415273 
2054.000000	99.418516 
2053.000000	99.421398 
2052.000000	99.424098 
2051.000000	99.426088 
2050.000000	99.426642 
2049.000000	99.425371 
2048.000000	99.422641 
2047.000000	99.419807 
2046.000000	99.418486 
2045.000000	99.419045 
2044.000000	99.420208 
2043.000000	99.420517 
2042.000000	99.419789 
2041.000000	99.418761 
2040.000000	99.417866 
2039.000000	99.416930 
2038.000000	99.415730 
2037.000000	99.414371 
2036.000000	99.413185 
2035.000000	99.412355 
2034.000000	99.411553 
2033.000000	99.410126 
2032.000000	99.408021 
2031.000000	99.406342 
2030.000000	99.406307 
2029.000000	99.407763 
2028.000000	99.409063 
2027.000000	99.408765 
2026.000000	99.406876 
2025.000000	99.404320 
2024.000000	99.402097 
2023.000000	99.400964 
2022.000000	99.401408 
2021.000000	99.403097 
2020.000000	99.404528 
2019.000000	99.404348 
2018.000000	99.402839 
2017.000000	99.401407 
2016.000000	99.400630 
2015.000000	99.399846 
2014.000000	99.398597 
2013.000000	99.397161 
2012.000000	99.395733 
2011.000000	99.394345 
2010.000000	99.393648 
2009.000000	99.394476 
2008.000000	99.396365 
2007.000000	99.397772 
2006.000000	99.398176 
2005.000000	99.398754 
2004.000000	99.400424 
2003.000000	99.402283 
2002.000000	99.402544 
2001.000000	99.400119 
2000.000000	99.394966 
1999.000000	99.387918 
1998.000000	99.380710 
1997.000000	99.375484 
1996.000000	99.373630 
1995.000000	99.375288 
1994.000000	99.379873 
1993.000000	99.386486 
1992.000000	99.393650 
1991.000000	99.399465 
1990.000000	99.402552 
1989.000000	99.402665 
1988.000000	99.400986 
1987.000000	99.400222 
1986.000000	99.403449 
1985.000000	99.411700 
1984.000000	99.422547 
1983.000000	99.431602 
1982.000000	99.435561 
1981.000000	99.433493 
1980.000000	99.426657 
1979.000000	99.418251 
1978.000000	99.411955 
1977.000000	99.408914 
1976.000000	99.406616 
1975.000000	99.402277 
1974.000000	99.396964 
1973.000000	99.394649 
1972.000000	99.397174 
1971.000000	99.402023 
1970.000000	99.405667 
1969.000000	99.407875 
1968.000000	99.411286 
1967.000000	99.417026 
1966.000000	99.422578 
1965.000000	99.424904 
1964.000000	99.424160 
1963.000000	99.422942 
1962.000000	99.422795 
1961.000000	99.422833 
1960.000000	99.421651 
1959.000000	99.419043 
1958.000000	99.415451 
1957.000000	99.411257 
1956.000000	99.407237 
1955.000000	99.404305 
1954.000000	99.401918 
1953.000000	99.398022 
1952.000000	99.391826 
1951.000000	99.385795 
1950.000000	99.383479 
1949.000000	99.385636 
1948.000000	99.389684 
1947.000000	99.392734 
1946.000000	99.393933 
1945.000000	99.393563 
1944.000000	99.391706 
1943.000000	99.388789 
1942.000000	99.386142 
1941.000000	99.384658 
1940.000000	99.383769 
1939.000000	99.382548 
1938.000000	99.380952 
1937.000000	99.379688 
1936.000000	99.379372 
1935.000000	99.380008 
1934.000000	99.380972 
1933.000000	99.381498 
1932.000000	99.381483 
1931.000000	99.381823 
1930.000000	99.383524 
1929.000000	99.386263 
1928.000000	99.388314 
1927.000000	99.388305 
1926.000000	99.386470 
1925.000000	99.384077 
1924.000000	99.382247 
1923.000000	99.381350 
1922.000000	99.381311 
1921.000000	99.381898 
1920.000000	99.382745 
1919.000000	99.383408 
1918.000000	99.383590 
1917.000000	99.383319 
1916.000000	99.382886 
1915.000000	99.382637 
1914.000000	99.382744 
1913.000000	99.383117 
1912.000000	99.383485 
1911.000000	99.383639 
1910.000000	99.383599 
1909.000000	99.383516 
1908.000000	99.383472 
1907.000000	99.383463 
1906.000000	99.383469 
1905.000000	99.383447 
1904.000000	99.383286 
1903.000000	99.382872 
1902.000000	99.382222 
1901.000000	99.381498 
1900.000000	99.380923 
1899.000000	99.380651 
1898.000000	99.380690 
1897.000000	99.380865 
1896.000000	99.380908 
1895.000000	99.380706 
1894.000000	99.380390 
1893.000000	99.380192 
1892.000000	99.380193 
1891.000000	99.380256 
1890.000000	99.380199 
1889.000000	99.379998 
1888.000000	99.379742 
1887.000000	99.379520 
1886.000000	99.379354 
1885.000000	99.379154 
1884.000000	99.378733 
1883.000000	99.378025 
1882.000000	99.377221 
1881.000000	99.376568 
1880.000000	99.376139 
1879.000000	99.375866 
1878.000000	99.375628 
1877.000000	99.375236 
1876.000000	99.374566 
1875.000000	99.373912 
1874.000000	99.373920 
1873.000000	99.374831 
1872.000000	99.375955 
1871.000000	99.376246 
1870.000000	99.375379 
1869.000000	99.373973 
1868.000000	99.372592 
1867.000000	99.371073 
1866.000000	99.369300 
1865.000000	99.367741 
1864.000000	99.367113 
1863.000000	99.367909 
1862.000000	99.370083 
1861.000000	99.372826 
1860.000000	99.374847 
1859.000000	99.375497 
1858.000000	99.375383 
1857.000000	99.375587 
1856.000000	99.376450 
1855.000000	99.377521 
1854.000000	99.378336 
1853.000000	99.378652 
1852.000000	99.378267 
1851.000000	99.377171 
1850.000000	99.375820 
1849.000000	99.374949 
1848.000000	99.374939 
1847.000000	99.375636 
1846.000000	99.376667 
1845.000000	99.377458 
1844.000000	99.377276 
1843.000000	99.376056 
1842.000000	99.374872 
1841.000000	99.374782 
1840.000000	99.375945 
1839.000000	99.377828 
1838.000000	99.379732 
1837.000000	99.381200 
1836.000000	99.382003 
1835.000000	99.382185 
1834.000000	99.382147 
1833.000000	99.382378 
1832.000000	99.383025 
1831.000000	99.383674 
1830.000000	99.383763 
1829.000000	99.383378 
1828.000000	99.383200 
1827.000000	99.383515 
1826.000000	99.383917 
1825.000000	99.384058 
1824.000000	99.384075 
1823.000000	99.384250 
1822.000000	99.384576 
1821.000000	99.384601 
1820.000000	99.383731 
1819.000000	99.381822 
1818.000000	99.379679 
1817.000000	99.378575 
1816.000000	99.378822 
1815.000000	99.379519 
1814.000000	99.379980 
1813.000000	99.380604 
1812.000000	99.382170 
1811.000000	99.384585 
1810.000000	99.387123 
1809.000000	99.389423 
1808.000000	99.391187 
1807.000000	99.391824 
1806.000000	99.391198 
1805.000000	99.390025 
1804.000000	99.389033 
1803.000000	99.388242 
1802.000000	99.387576 
1801.000000	99.387491 
1800.000000	99.387980 
1799.000000	99.388071 
1798.000000	99.387406 
1797.000000	99.386853 
1796.000000	99.387264 
1795.000000	99.388581 
1794.000000	99.390005 
1793.000000	99.390636 
1792.000000	99.390375 
1791.000000	99.389852 
1790.000000	99.389690 
1789.000000	99.390002 
1788.000000	99.390506 
1787.000000	99.390862 
1786.000000	99.390938 
1785.000000	99.390759 
1784.000000	99.390322 
1783.000000	99.389770 
1782.000000	99.389409 
1781.000000	99.389317 
1780.000000	99.389188 
1779.000000	99.388763 
1778.000000	99.388262 
1777.000000	99.388047 
1776.000000	99.388136 
1775.000000	99.388335 
1774.000000	99.388502 
1773.000000	99.388589 
1772.000000	99.388556 
1771.000000	99.388366 
1770.000000	99.388060 
1769.000000	99.387722 
1768.000000	99.387437 
1767.000000	99.387235 
1766.000000	99.387087 
1765.000000	99.386964 
1764.000000	99.386853 
1763.000000	99.386742 
1762.000000	99.386627 
1761.000000	99.386514 
1760.000000	99.386412 
1759.000000	99.386304 
1758.000000	99.386168 
1757.000000	99.386003 
1756.000000	99.385828 
1755.000000	99.385646 
1754.000000	99.385442 
1753.000000	99.385226 
1752.000000	99.385082 
1751.000000	99.385095 
1750.000000	99.385240 
1749.000000	99.385393 
1748.000000	99.385471 
1747.000000	99.385488 
1746.000000	99.385490 
1745.000000	99.385517 
1744.000000	99.385586 
1743.000000	99.385689 
1742.000000	99.385803 
1741.000000	99.385919 
1740.000000	99.386046 
1739.000000	99.386194 
1738.000000	99.386365 
1737.000000	99.386554 
1736.000000	99.386745 
1735.000000	99.386907 
1734.000000	99.387029 
1733.000000	99.387184 
1732.000000	99.387464 
1731.000000	99.387877 
1730.000000	99.388355 
1729.000000	99.388812 
1728.000000	99.389210 
1727.000000	99.389557 
1726.000000	99.389869 
1725.000000	99.390147 
1724.000000	99.390404 
1723.000000	99.390678 
1722.000000	99.391002 
1721.000000	99.391383 
1720.000000	99.391783 
1719.000000	99.392125 
1718.000000	99.392345 
1717.000000	99.392470 
1716.000000	99.392594 
1715.000000	99.392748 
1714.000000	99.392935 
1713.000000	99.393159 
1712.000000	99.393383 
1711.000000	99.393555 
1710.000000	99.393660 
1709.000000	99.393719 
1708.000000	99.393757 
1707.000000	99.393797 
1706.000000	99.393897 
1705.000000	99.394092 
1704.000000	99.394250 
1703.000000	99.394172 
1702.000000	99.393803 
1701.000000	99.393387 
1700.000000	99.393290 
1699.000000	99.393408 
1698.000000	99.393532 
1697.000000	99.393711 
1696.000000	99.393985 
1695.000000	99.394079 
1694.000000	99.393841 
1693.000000	99.393377 
1692.000000	99.392698 
1691.000000	99.391851 
1690.000000	99.391047 
1689.000000	99.390466 
1688.000000	99.390009 
1687.000000	99.389364 
1686.000000	99.388391 
1685.000000	99.387372 
1684.000000	99.386640 
1683.000000	99.385981 
1682.000000	99.385340 
1681.000000	99.384718 
1680.000000	99.384201 
1679.000000	99.383804 
1678.000000	99.383334 
1677.000000	99.382568 
1676.000000	99.381562 
1675.000000	99.380714 
1674.000000	99.380171 
1673.000000	99.379785 
1672.000000	99.379447 
1671.000000	99.379261 
1670.000000	99.379290 
1669.000000	99.379125 
1668.000000	99.378581 
1667.000000	99.377944 
1666.000000	99.376998 
1665.000000	99.375383 
1664.000000	99.373538 
1663.000000	99.372670 
1662.000000	99.373269 
1661.000000	99.374254 
1660.000000	99.374361 
1659.000000	99.373587 
1658.000000	99.372628 
1657.000000	99.371468 
1656.000000	99.369062 
1655.000000	99.365389 
1654.000000	99.363310 
1653.000000	99.364275 
1652.000000	99.364184 
1651.000000	99.364009 
1650.000000	99.363942 
1649.000000	99.363119 
1648.000000	99.361496 
1647.000000	99.359577 
1646.000000	99.357580 
1645.000000	99.356743 
1644.000000	99.357976 
1643.000000	99.360499 
1642.000000	99.363080 
1641.000000	99.365030 
1640.000000	99.366096 
1639.000000	99.366257 
1638.000000	99.365960 
1637.000000	99.366174 
1636.000000	99.366958 
1635.000000	99.366922 
1634.000000	99.366592 
1633.000000	99.367287 
1632.000000	99.368594 
1631.000000	99.369896 
1630.000000	99.371020 
1629.000000	99.371806 
1628.000000	99.371973 
1627.000000	99.371801 
1626.000000	99.372090 
1625.000000	99.373442 
1624.000000	99.375830 
1623.000000	99.378510 
1622.000000	99.380548 
1621.000000	99.381467 
1620.000000	99.381004 
1619.000000	99.379406 
1618.000000	99.378065 
1617.000000	99.378241 
1616.000000	99.379127 
1615.000000	99.379597 
1614.000000	99.379048 
1613.000000	99.377049 
1612.000000	99.374393 
1611.000000	99.372493 
1610.000000	99.371753 
1609.000000	99.371196 
1608.000000	99.370116 
1607.000000	99.368988 
1606.000000	99.368415 
1605.000000	99.368512 
1604.000000	99.369499 
1603.000000	99.371596 
1602.000000	99.374046 
1601.000000	99.375402 
1600.000000	99.375371 
1599.000000	99.375243 
1598.000000	99.376020 
1597.000000	99.377312 
1596.000000	99.378359 
1595.000000	99.379165 
1594.000000	99.380054 
1593.000000	99.380737 
1592.000000	99.380867 
1591.000000	99.380909 
1590.000000	99.381553 
1589.000000	99.382570 
1588.000000	99.383201 
1587.000000	99.383264 
1586.000000	99.382996 
1585.000000	99.382308 
1584.000000	99.381030 
1583.000000	99.379517 
1582.000000	99.378472 
1581.000000	99.378170 
1580.000000	99.378356 
1579.000000	99.378754 
1578.000000	99.379293 
1577.000000	99.379808 
1576.000000	99.379926 
1575.000000	99.379794 
1574.000000	99.379893 
1573.000000	99.380100 
1572.000000	99.380202 
1571.000000	99.380319 
1570.000000	99.380632 
1569.000000	99.380997 
1568.000000	99.381189 
1567.000000	99.381217 
1566.000000	99.381171 
1565.000000	99.381131 
1564.000000	99.381143 
1563.000000	99.381206 
1562.000000	99.381295 
1561.000000	99.381384 
1560.000000	99.381467 
1559.000000	99.381547 
1558.000000	99.381625 
1557.000000	99.381727 
1556.000000	99.381849 
1555.000000	99.381980 
1554.000000	99.382113 
1553.000000	99.382250 
1552.000000	99.382392 
1551.000000	99.382544 
1550.000000	99.382706 
1549.000000	99.382880 
1548.000000	99.383063 
1547.000000	99.383252 
1546.000000	99.383450 
1545.000000	99.383664 
1544.000000	99.383901 
1543.000000	99.384169 
1542.000000	99.384470 
1541.000000	99.384806 
1540.000000	99.385169 
1539.000000	99.385553 
1538.000000	99.385950 
1537.000000	99.386358 
1536.000000	99.386787 
1535.000000	99.387232 
1534.000000	99.387747 
1533.000000	99.388418 
1532.000000	99.389117 
1531.000000	99.389586 
1530.000000	99.389800 
1529.000000	99.389999 
1528.000000	99.390361 
1527.000000	99.390849 
1526.000000	99.391334 
1525.000000	99.391760 
1524.000000	99.392120 
1523.000000	99.392573 
1522.000000	99.393674 
1521.000000	99.395554 
1520.000000	99.396900 
1519.000000	99.396723 
1518.000000	99.395380 
1517.000000	99.394134 
1516.000000	99.393809 
1515.000000	99.394002 
1514.000000	99.394056 
1513.000000	99.393730 
1512.000000	99.393098 
1511.000000	99.392283 
1510.000000	99.391358 
1509.000000	99.390737 
1508.000000	99.392020 
1507.000000	99.396360 
1506.000000	99.399725 
1505.000000	99.399792 
1504.000000	99.399144 
1503.000000	99.398741 
1502.000000	99.398569 
1501.000000	99.398962 
1500.000000	99.400202 
1499.000000	99.401830 
1498.000000	99.402817 
1497.000000	99.403231 
1496.000000	99.403854 
1495.000000	99.404073 
1494.000000	99.402743 
1493.000000	99.399594 
1492.000000	99.394915 
1491.000000	99.389551 
1490.000000	99.385010 
1489.000000	99.382523 
1488.000000	99.381467 
1487.000000	99.380517 
1486.000000	99.379933 
1485.000000	99.380108 
1484.000000	99.380379 
1483.000000	99.379943 
1482.000000	99.378290 
1481.000000	99.375592 
1480.000000	99.372479 
1479.000000	99.369607 
1478.000000	99.367371 
1477.000000	99.365711 
1476.000000	99.363890 
1475.000000	99.360730 
1474.000000	99.356965 
1473.000000	99.355633 
1472.000000	99.357737 
1471.000000	99.359764 
1470.000000	99.359338 
1469.000000	99.357538 
1468.000000	99.356126 
1467.000000	99.355618 
1466.000000	99.355792 
1465.000000	99.356477 
1464.000000	99.357214 
1463.000000	99.357462 
1462.000000	99.357315 
1461.000000	99.357458 
1460.000000	99.357967 
1459.000000	99.357848 
1458.000000	99.355081 
1457.000000	99.348910 
1456.000000	99.341649 
1455.000000	99.336136 
1454.000000	99.332952 
1453.000000	99.331566 
1452.000000	99.331199 
1451.000000	99.331041 
1450.000000	99.331348 
1449.000000	99.333588 
1448.000000	99.337764 
1447.000000	99.340901 
1446.000000	99.341164 
1445.000000	99.340453 
1444.000000	99.341011 
1443.000000	99.342125 
1442.000000	99.341872 
1441.000000	99.340240 
1440.000000	99.339123 
1439.000000	99.339744 
1438.000000	99.340910 
1437.000000	99.341002 
1436.000000	99.339601 
1435.000000	99.336456 
1434.000000	99.332267 
1433.000000	99.329114 
1432.000000	99.328401 
1431.000000	99.330029 
1430.000000	99.331978 
1429.000000	99.332246 
1428.000000	99.330615 
1427.000000	99.327800 
1426.000000	99.324363 
1425.000000	99.320435 
1424.000000	99.317067 
1423.000000	99.314965 
1422.000000	99.312495 
1421.000000	99.307774 
1420.000000	99.300879 
1419.000000	99.293549 
1418.000000	99.285325 
1417.000000	99.275333 
1416.000000	99.265459 
1415.000000	99.257050 
1414.000000	99.248957 
1413.000000	99.239596 
1412.000000	99.229947 
1411.000000	99.222547 
1410.000000	99.217639 
1409.000000	99.213782 
1408.000000	99.210806 
1407.000000	99.209332 
1406.000000	99.209356 
1405.000000	99.211031 
1404.000000	99.215528 
1403.000000	99.222202 
1402.000000	99.227767 
1401.000000	99.230419 
1400.000000	99.231846 
1399.000000	99.234316 
1398.000000	99.235466 
1397.000000	99.230259 
1396.000000	99.217921 
1395.000000	99.204912 
1394.000000	99.199855 
1393.000000	99.205474 
1392.000000	99.219021 
1391.000000	99.235513 
1390.000000	99.249721 
1389.000000	99.258003 
1388.000000	99.259751 
1387.000000	99.257242 
1386.000000	99.253220 
1385.000000	99.249407 
1384.000000	99.246903 
1383.000000	99.246280 
1382.000000	99.247329 
1381.000000	99.249830 
1380.000000	99.253808 
1379.000000	99.258975 
1378.000000	99.264232 
1377.000000	99.268370 
1376.000000	99.271551 
1375.000000	99.275623 
1374.000000	99.282161 
1373.000000	99.290113 
1372.000000	99.297241 
1371.000000	99.303225 
1370.000000	99.309644 
1369.000000	99.317027 
1368.000000	99.324461 
1367.000000	99.331000 
1366.000000	99.336414 
1365.000000	99.340744 
1364.000000	99.343716 
1363.000000	99.345553 
1362.000000	99.347601 
1361.000000	99.350753 
1360.000000	99.354450 
1359.000000	99.358120 
1358.000000	99.362470 
1357.000000	99.368528 
1356.000000	99.375972 
1355.000000	99.383029 
1354.000000	99.388174 
1353.000000	99.391328 
1352.000000	99.392663 
1351.000000	99.391854 
1350.000000	99.390171 
1349.000000	99.389357 
1348.000000	99.390097 
1347.000000	99.392144 
1346.000000	99.395649 
1345.000000	99.400521 
1344.000000	99.405196 
1343.000000	99.407531 
1342.000000	99.407096 
1341.000000	99.405426 
1340.000000	99.404228 
1339.000000	99.404045 
1338.000000	99.404594 
1337.000000	99.405789 
1336.000000	99.407646 
1335.000000	99.409698 
1334.000000	99.411655 
1333.000000	99.413988 
1332.000000	99.416908 
1331.000000	99.419533 
1330.000000	99.420834 
1329.000000	99.420778 
1328.000000	99.420203 
1327.000000	99.419802 
1326.000000	99.419730 
1325.000000	99.419482 
1324.000000	99.419004 
1323.000000	99.418809 
1322.000000	99.418957 
1321.000000	99.418655 
1320.000000	99.417435 
1319.000000	99.416108 
1318.000000	99.415833 
1317.000000	99.416598 
1316.000000	99.417202 
1315.000000	99.416731 
1314.000000	99.415649 
1313.000000	99.415439 
1312.000000	99.417093 
1311.000000	99.420054 
1310.000000	99.422798 
1309.000000	99.424342 
1308.000000	99.424866 
1307.000000	99.424816 
1306.000000	99.424163 
1305.000000	99.422635 
1304.000000	99.421006 
1303.000000	99.420869 
1302.000000	99.423034 
1301.000000	99.426457 
1300.000000	99.429049 
1299.000000	99.429310 
1298.000000	99.427219 
1297.000000	99.424075 
1296.000000	99.421571 
1295.000000	99.420921 
1294.000000	99.422388 
1293.000000	99.425405 
1292.000000	99.428709 
1291.000000	99.430468 
1290.000000	99.429292 
1289.000000	99.425716 
1288.000000	99.422018 
1287.000000	99.419762 
1286.000000	99.418081 
1285.000000	99.415435 
1284.000000	99.412315 
1283.000000	99.410706 
1282.000000	99.411198 
1281.000000	99.412269 
1280.000000	99.412489 
1279.000000	99.411884 
1278.000000	99.410669 
1277.000000	99.408296 
1276.000000	99.404449 
1275.000000	99.400068 
1274.000000	99.396422 
1273.000000	99.393774 
1272.000000	99.391583 
1271.000000	99.389313 
1270.000000	99.386408 
1269.000000	99.382273 
1268.000000	99.377116 
1267.000000	99.372193 
1266.000000	99.368365 
1265.000000	99.365074 
1264.000000	99.361307 
1263.000000	99.356798 
1262.000000	99.351726 
1261.000000	99.346104 
1260.000000	99.340288 
1259.000000	99.335429 
1258.000000	99.332309 
1257.000000	99.330433 
1256.000000	99.328944 
1255.000000	99.327848 
1254.000000	99.327471 
1253.000000	99.327309 
1252.000000	99.326470 
1251.000000	99.325078 
1250.000000	99.324284 
1249.000000	99.324987 
1248.000000	99.327343 
1247.000000	99.331090 
1246.000000	99.335133 
1245.000000	99.337056 
1244.000000	99.334640 
1243.000000	99.328643 
1242.000000	99.323345 
1241.000000	99.323076 
1240.000000	99.328354 
1239.000000	99.335621 
1238.000000	99.340541 
1237.000000	99.341353 
1236.000000	99.339025 
1235.000000	99.335315 
1234.000000	99.331244 
1233.000000	99.327081 
1232.000000	99.323022 
1231.000000	99.319315 
1230.000000	99.315862 
1229.000000	99.312270 
1228.000000	99.308603 
1227.000000	99.305888 
1226.000000	99.305514 
1225.000000	99.307922 
1224.000000	99.311880 
1223.000000	99.315166 
1222.000000	99.316290 
1221.000000	99.315680 
1220.000000	99.315088 
1219.000000	99.315763 
1218.000000	99.317283 
1217.000000	99.318285 
1216.000000	99.317920 
1215.000000	99.316271 
1214.000000	99.313872 
1213.000000	99.311470 
1212.000000	99.309911 
1211.000000	99.309183 
1210.000000	99.307669 
1209.000000	99.303498 
1208.000000	99.296834 
1207.000000	99.289987 
1206.000000	99.284953 
1205.000000	99.281712 
1204.000000	99.279224 
1203.000000	99.276776 
1202.000000	99.273468 
1201.000000	99.267685 
1200.000000	99.258704 
1199.000000	99.248381 
1198.000000	99.239803 
1197.000000	99.234134 
1196.000000	99.229826 
1195.000000	99.224902 
1194.000000	99.218843 
1193.000000	99.211911 
1192.000000	99.203869 
1191.000000	99.194366 
1190.000000	99.184214 
1189.000000	99.175526 
1188.000000	99.170284 
1187.000000	99.168655 
1186.000000	99.168490 
1185.000000	99.166567 
1184.000000	99.160675 
1183.000000	99.150717 
1182.000000	99.138264 
1181.000000	99.125461 
1180.000000	99.114217 
1179.000000	99.105569 
1178.000000	99.098912 
1177.000000	99.092113 
1176.000000	99.083324 
1175.000000	99.072823 
1174.000000	99.062522 
1173.000000	99.053657 
1172.000000	99.045798 
1171.000000	99.038177 
1170.000000	99.030846 
1169.000000	99.023913 
1168.000000	99.016512 
1167.000000	99.007617 
1166.000000	98.997676 
1165.000000	98.988665 
1164.000000	98.982496 
1163.000000	98.979842 
1162.000000	98.980279 
1161.000000	98.982757 
1160.000000	98.985716 
1159.000000	98.987599 
1158.000000	98.987835 
1157.000000	98.986896 
1156.000000	98.984851 
1155.000000	98.980327 
1154.000000	98.971753 
1153.000000	98.959497 
1152.000000	98.946088 
1151.000000	98.934265 
1150.000000	98.925172 
1149.000000	98.918300 
1148.000000	98.912147 
1147.000000	98.904510 
1146.000000	98.893271 
1145.000000	98.878141 
1144.000000	98.861608 
1143.000000	98.847330 
1142.000000	98.837171 
1141.000000	98.829897 
1140.000000	98.822543 
1139.000000	98.812688 
1138.000000	98.799911 
1137.000000	98.785911 
1136.000000	98.773180 
1135.000000	98.762891 
1134.000000	98.753979 
1133.000000	98.744621 
1132.000000	98.734160 
1131.000000	98.722918 
1130.000000	98.710684 
1129.000000	98.696639 
1128.000000	98.680819 
1127.000000	98.664567 
1126.000000	98.649175 
1125.000000	98.634866 
1124.000000	98.621230 
1123.000000	98.607725 
1122.000000	98.593459 
1121.000000	98.577586 
1120.000000	98.560501 
1119.000000	98.543776 
1118.000000	98.528295 
1117.000000	98.513133 
1116.000000	98.496873 
1115.000000	98.479243 
1114.000000	98.460762 
1113.000000	98.441508 
1112.000000	98.421353 
1111.000000	98.401275 
1110.000000	98.383260 
1109.000000	98.368415 
1108.000000	98.355507 
1107.000000	98.341756 
1106.000000	98.325525 
1105.000000	98.307734 
1104.000000	98.290308 
1103.000000	98.273653 
1102.000000	98.256758 
1101.000000	98.239621 
1100.000000	98.224318 
1099.000000	98.211938 
1098.000000	98.200960 
1097.000000	98.189066 
1096.000000	98.175752 
1095.000000	98.161544 
1094.000000	98.145600 
1093.000000	98.126267 
1092.000000	98.103769 
1091.000000	98.080363 
1090.000000	98.057413 
1089.000000	98.033853 
1088.000000	98.008265 
1087.000000	97.981163 
1086.000000	97.954498 
1085.000000	97.929748 
1084.000000	97.907199 
1083.000000	97.886246 
1082.000000	97.865557 
1081.000000	97.843598 
1080.000000	97.819857 
1079.000000	97.795258 
1078.000000	97.771128 
1077.000000	97.748462 
1076.000000	97.728421 
1075.000000	97.712315 
1074.000000	97.700357 
1073.000000	97.691157 
1072.000000	97.682262 
1071.000000	97.669654 
1070.000000	97.647359 
1069.000000	97.611219 
1068.000000	97.565248 
1067.000000	97.522311 
1066.000000	97.494978 
1065.000000	97.485667 
1064.000000	97.486370 
1063.000000	97.485894 
1062.000000	97.476106 
1061.000000	97.453553 
1060.000000	97.419737 
1059.000000	97.381419 
1058.000000	97.347689 
1057.000000	97.323710 
1056.000000	97.306999 
1055.000000	97.290156 
1054.000000	97.267395 
1053.000000	97.238940 
1052.000000	97.209617 
1051.000000	97.183471 
1050.000000	97.160221 
1049.000000	97.137464 
1048.000000	97.115145 
1047.000000	97.095771 
1046.000000	97.080401 
1045.000000	97.066655 
1044.000000	97.051471 
1043.000000	97.034586 
1042.000000	97.018473 
1041.000000	97.005442 
1040.000000	96.995587 
1039.000000	96.987607 
1038.000000	96.981344 
1037.000000	96.979167 
1036.000000	96.984165 
1035.000000	96.996777 
1034.000000	97.013902 
1033.000000	97.031118 
1032.000000	97.044234 
1031.000000	97.049031 
1030.000000	97.043355 
1029.000000	97.032003 
1028.000000	97.026689 
1027.000000	97.037021 
1026.000000	97.061520 
1025.000000	97.089575 
1024.000000	97.111537 
1023.000000	97.124528 
1022.000000	97.130172 
1021.000000	97.131373 
1020.000000	97.131900 
1019.000000	97.135338 
1018.000000	97.142303 
1017.000000	97.150338 
1016.000000	97.157471 
1015.000000	97.164347 
1014.000000	97.172470 
1013.000000	97.182081 
1012.000000	97.192288 
1011.000000	97.201904 
1010.000000	97.210087 
1009.000000	97.217600 
1008.000000	97.227147 
1007.000000	97.240826 
1006.000000	97.257618 
1005.000000	97.275079 
1004.000000	97.292842 
1003.000000	97.312117 
1002.000000	97.332393 
1001.000000	97.351654 
1000.000000	97.369976 
999.000000	 97.389784 
998.000000	 97.411606 
997.000000	 97.432325 
996.000000	 97.449259 
995.000000	 97.464196 
994.000000	 97.481656 
993.000000	 97.504000 
992.000000	 97.529196 
991.000000	 97.552721 
990.000000	 97.571315 
989.000000	 97.585665 
988.000000	 97.599569 
987.000000	 97.615907 
986.000000	 97.634113 
985.000000	 97.652806 
984.000000	 97.673631 
983.000000	 97.699924 
982.000000	 97.732026 
981.000000	 97.766404 
980.000000	 97.799567 
979.000000	 97.830606 
978.000000	 97.859620 
977.000000	 97.886634 
976.000000	 97.913286 
975.000000	 97.942976 
974.000000	 97.977432 
973.000000	 98.014593 
972.000000	 98.051227 
971.000000	 98.086058 
970.000000	 98.119036 
969.000000	 98.149413 
968.000000	 98.176699 
967.000000	 98.202567 
966.000000	 98.229507 
965.000000	 98.257591 
964.000000	 98.284192 
963.000000	 98.307110 
962.000000	 98.326739 
961.000000	 98.345050 
960.000000	 98.363678 
959.000000	 98.383388 
958.000000	 98.404276 
957.000000	 98.425623 
956.000000	 98.446094 
955.000000	 98.464971 
954.000000	 98.483095 
953.000000	 98.501835 
952.000000	 98.520858 
951.000000	 98.537582 
950.000000	 98.549502 
949.000000	 98.556929 
948.000000	 98.563030 
947.000000	 98.571286 
946.000000	 98.583049 
945.000000	 98.597191 
944.000000	 98.611315 
943.000000	 98.623128 
942.000000	 98.631465 
941.000000	 98.636703 
940.000000	 98.640154 
939.000000	 98.643046 
938.000000	 98.646318 
937.000000	 98.650959 
936.000000	 98.657264 
935.000000	 98.663462 
934.000000	 98.666603 
933.000000	 98.666009 
932.000000	 98.664954 
931.000000	 98.667613 
930.000000	 98.674668 
929.000000	 98.683322 
928.000000	 98.691303 
927.000000	 98.699087 
926.000000	 98.707767 
925.000000	 98.716307 
924.000000	 98.722063 
923.000000	 98.723352 
922.000000	 98.720661 
921.000000	 98.715854 
920.000000	 98.711210 
919.000000	 98.709026 
918.000000	 98.710846 
917.000000	 98.716226 
916.000000	 98.722511 
915.000000	 98.726570 
914.000000	 98.727313 
913.000000	 98.726622 
912.000000	 98.727700 
911.000000	 98.732394 
910.000000	 98.739901 
909.000000	 98.747876 
908.000000	 98.754836 
907.000000	 98.761448 
906.000000	 98.769455 
905.000000	 98.779583 
904.000000	 98.790999 
903.000000	 98.803131 
902.000000	 98.817384 
901.000000	 98.835786 
900.000000	 98.857912 
899.000000	 98.880558 
898.000000	 98.900927 
897.000000	 98.918596 
896.000000	 98.933319 
895.000000	 98.943347 
894.000000	 98.948577 
893.000000	 98.953838 
892.000000	 98.965416 
891.000000	 98.983976 
890.000000	 99.003871 
889.000000	 99.020433 
888.000000	 99.035129 
887.000000	 99.051577 
886.000000	 99.068915 
885.000000	 99.082220 
884.000000	 99.088898 
883.000000	 99.092067 
882.000000	 99.097360 
881.000000	 99.107642 
880.000000	 99.121468 
879.000000	 99.135586 
878.000000	 99.147959 
877.000000	 99.158448 
876.000000	 99.167145 
875.000000	 99.172976 
874.000000	 99.174890 
873.000000	 99.174309 
872.000000	 99.175348 
871.000000	 99.181773 
870.000000	 99.193775 
869.000000	 99.207669 
868.000000	 99.218806 
867.000000	 99.225401 
866.000000	 99.230331 
865.000000	 99.238818 
864.000000	 99.253360 
863.000000	 99.271229 
862.000000	 99.287672 
861.000000	 99.300760 
860.000000	 99.311622 
859.000000	 99.321246 
858.000000	 99.330114 
857.000000	 99.340586 
856.000000	 99.355540 
855.000000	 99.373027 
854.000000	 99.385891 
853.000000	 99.389429 
852.000000	 99.386983 
851.000000	 99.385589 
850.000000	 99.388012 
849.000000	 99.392158 
848.000000	 99.396452 
847.000000	 99.401606 
846.000000	 99.407646 
845.000000	 99.413109 
844.000000	 99.417798 
843.000000	 99.423292 
842.000000	 99.429555 
841.000000	 99.433400 
840.000000	 99.432053 
839.000000	 99.427067 
838.000000	 99.423232 
837.000000	 99.423496 
836.000000	 99.425867 
835.000000	 99.426091 
834.000000	 99.423265 
833.000000	 99.421212 
832.000000	 99.422549 
831.000000	 99.422818 
830.000000	 99.414848 
829.000000	 99.400237 
828.000000	 99.391636 
827.000000	 99.398779 
826.000000	 99.414999 
825.000000	 99.424210 
824.000000	 99.420648 
823.000000	 99.414432 
822.000000	 99.416746 
821.000000	 99.426523 
820.000000	 99.434773 
819.000000	 99.435961 
818.000000	 99.431628 
817.000000	 99.426340 
816.000000	 99.422867 
815.000000	 99.419829 
814.000000	 99.412600 
813.000000	 99.397826 
812.000000	 99.377841 
811.000000	 99.359031 
810.000000	 99.344769 
809.000000	 99.331376 
808.000000	 99.311979 
807.000000	 99.282475 
806.000000	 99.242824 
805.000000	 99.194992 
804.000000	 99.142467 
803.000000	 99.091190 
802.000000	 99.048008 
801.000000	 99.017028 
800.000000	 98.997992 
799.000000	 98.988161 
798.000000	 98.985595 
797.000000	 98.990849 
796.000000	 99.005026 
795.000000	 99.025849 
794.000000	 99.047268 
793.000000	 99.064533 
792.000000	 99.077778 
791.000000	 99.088138 
790.000000	 99.092395 
789.000000	 99.085966 
788.000000	 99.071054 
787.000000	 99.057008 
786.000000	 99.050469 
785.000000	 99.048391 
784.000000	 99.043144 
783.000000	 99.031956 
782.000000	 99.018920 
781.000000	 99.009745 
780.000000	 99.007324 
779.000000	 99.010928 
778.000000	 99.017041 
777.000000	 99.022312 
776.000000	 99.027707 
775.000000	 99.038324 
774.000000	 99.057193 
773.000000	 99.080762 
772.000000	 99.102543 
771.000000	 99.119538 
770.000000	 99.132329 
769.000000	 99.140567 
768.000000	 99.142885 
767.000000	 99.141522 
766.000000	 99.142615 
765.000000	 99.149452 
764.000000	 99.158053 
763.000000	 99.162001 
762.000000	 99.160265 
761.000000	 99.157936 
760.000000	 99.160086 
759.000000	 99.167164 
758.000000	 99.176043 
757.000000	 99.183549 
756.000000	 99.188726 
755.000000	 99.193313 
754.000000	 99.200678 
753.000000	 99.213022 
752.000000	 99.228875 
751.000000	 99.243702 
750.000000	 99.253554 
749.000000	 99.257860 
748.000000	 99.258864 
747.000000	 99.259730 
746.000000	 99.263574 
745.000000	 99.272278 
744.000000	 99.284262 
743.000000	 99.294284 
742.000000	 99.297960 
741.000000	 99.296639 
740.000000	 99.296263 
739.000000	 99.301187 
738.000000	 99.310709 
737.000000	 99.321645 
736.000000	 99.332045 
735.000000	 99.341789 
734.000000	 99.351710 
733.000000	 99.363358 
732.000000	 99.377586 
731.000000	 99.391461 
730.000000	 99.398762 
729.000000	 99.396166 
728.000000	 99.387989 
727.000000	 99.382380 
726.000000	 99.382768 
725.000000	 99.386389 
724.000000	 99.390795 
723.000000	 99.397666 
722.000000	 99.408887 
721.000000	 99.421845 
720.000000	 99.430921 
719.000000	 99.432762 
718.000000	 99.428822 
717.000000	 99.423363 
716.000000	 99.420087 
715.000000	 99.419768 
714.000000	 99.420116 
713.000000	 99.418598 
712.000000	 99.415849 
711.000000	 99.415507 
710.000000	 99.420381 
709.000000	 99.429138 
708.000000	 99.436769 
707.000000	 99.438355 
706.000000	 99.432597 
705.000000	 99.423036 
704.000000	 99.415252 
703.000000	 99.411144 
702.000000	 99.406887 
701.000000	 99.398168 
700.000000	 99.385438 
699.000000	 99.371910 
698.000000	 99.357285 
697.000000	 99.337532 
696.000000	 99.311932 
695.000000	 99.286839 
694.000000	 99.271440 
693.000000	 99.271258 
692.000000	 99.285575 
691.000000	 99.308156 
690.000000	 99.329912 
689.000000	 99.344530 
688.000000	 99.352873 
687.000000	 99.360110 
686.000000	 99.368764 
685.000000	 99.376806 
684.000000	 99.381791 
683.000000	 99.383477 
682.000000	 99.382822 
681.000000	 99.382428 
680.000000	 99.387805 
679.000000	 99.403235 
678.000000	 99.423968 
677.000000	 99.436858 
676.000000	 99.434904 
675.000000	 99.425872 
674.000000	 99.422338 
673.000000	 99.426647 
672.000000	 99.430407 
671.000000	 99.426646 
670.000000	 99.416937 
669.000000	 99.407869 
668.000000	 99.397452 
667.000000	 99.381494 
666.000000	 99.375009 
665.000000	 99.383833 
664.000000	 99.400434 
663.000000	 99.416752 
662.000000	 99.427224 
661.000000	 99.432955 
660.000000	 99.440248 
659.000000	 99.450133 
658.000000	 99.452607 
657.000000	 99.437130 
656.000000	 99.407425 
655.000000	 99.381052 
654.000000	 99.370241 
653.000000	 99.367593 
652.000000	 99.357526 
651.000000	 99.335173 
650.000000	 99.310747 

