4000.000000	99.324384 
3999.000000	99.326451 
3998.000000	99.328358 
3997.000000	99.328623 
3996.000000	99.327383 
3995.000000	99.325915 
3994.000000	99.325352 
3993.000000	99.325922 
3992.000000	99.327133 
3991.000000	99.328356 
3990.000000	99.329230 
3989.000000	99.329855 
3988.000000	99.330787 
3987.000000	99.332679 
3986.000000	99.335570 
3985.000000	99.338386 
3984.000000	99.339340 
3983.000000	99.337229 
3982.000000	99.332587 
3981.000000	99.327413 
3980.000000	99.323429 
3979.000000	99.320670 
3978.000000	99.318025 
3977.000000	99.315082 
3976.000000	99.313208 
3975.000000	99.314611 
3974.000000	99.320326 
3973.000000	99.328956 
3972.000000	99.337253 
3971.000000	99.342121 
3970.000000	99.342403 
3969.000000	99.339216 
3968.000000	99.334751 
3967.000000	99.330759 
3966.000000	99.328057 
3965.000000	99.326961 
3964.000000	99.327462 
3963.000000	99.328778 
3962.000000	99.329293 
3961.000000	99.327632 
3960.000000	99.323986 
3959.000000	99.320176 
3958.000000	99.318070 
3957.000000	99.317984 
3956.000000	99.318798 
3955.000000	99.319380 
3954.000000	99.319565 
3953.000000	99.319603 
3952.000000	99.319225 
3951.000000	99.317999 
3950.000000	99.316439 
3949.000000	99.316138 
3948.000000	99.318101 
3947.000000	99.321310 
3946.000000	99.323651 
3945.000000	99.323987 
3944.000000	99.323016 
3943.000000	99.322090 
3942.000000	99.321699 
3941.000000	99.321152 
3940.000000	99.319395 
3939.000000	99.315880 
3938.000000	99.310999 
3937.000000	99.306204 
3936.000000	99.303689 
3935.000000	99.305340 
3934.000000	99.311633 
3933.000000	99.321062 
3932.000000	99.330549 
3931.000000	99.336732 
3930.000000	99.337644 
3929.000000	99.333755 
3928.000000	99.327461 
3927.000000	99.321665 
3926.000000	99.318624 
3925.000000	99.318956 
3924.000000	99.321224 
3923.000000	99.323106 
3922.000000	99.323196 
3921.000000	99.321916 
3920.000000	99.320890 
3919.000000	99.321806 
3918.000000	99.325419 
3917.000000	99.330824 
3916.000000	99.335787 
3915.000000	99.338370 
3914.000000	99.338603 
3913.000000	99.338229 
3912.000000	99.338921 
3911.000000	99.341089 
3910.000000	99.344209 
3909.000000	99.347784 
3908.000000	99.351546 
3907.000000	99.354514 
3906.000000	99.354735 
3905.000000	99.350492 
3904.000000	99.341969 
3903.000000	99.331770 
3902.000000	99.323450 
3901.000000	99.319636 
3900.000000	99.320918 
3899.000000	99.325525 
3898.000000	99.330610 
3897.000000	99.334124 
3896.000000	99.335331 
3895.000000	99.334128 
3894.000000	99.330625 
3893.000000	99.325615 
3892.000000	99.321097 
3891.000000	99.319042 
3890.000000	99.319715 
3889.000000	99.321891 
3888.000000	99.324066 
3887.000000	99.325158 
3886.000000	99.324990 
3885.000000	99.324068 
3884.000000	99.322678 
3883.000000	99.320969 
3882.000000	99.319673 
3881.000000	99.320032 
3880.000000	99.322523 
3879.000000	99.325815 
3878.000000	99.328534 
3877.000000	99.330892 
3876.000000	99.333711 
3875.000000	99.336674 
3874.000000	99.338039 
3873.000000	99.336246 
3872.000000	99.331999 
3871.000000	99.328294 
3870.000000	99.327797 
3869.000000	99.330225 
3868.000000	99.333274 
3867.000000	99.335629 
3866.000000	99.337592 
3865.000000	99.339264 
3864.000000	99.339581 
3863.000000	99.337791 
3862.000000	99.335019 
3861.000000	99.333716 
3860.000000	99.335515 
3859.000000	99.339714 
3858.000000	99.343921 
3857.000000	99.345824 
3856.000000	99.344334 
3855.000000	99.340286 
3854.000000	99.336922 
3853.000000	99.337083 
3852.000000	99.339198 
3851.000000	99.340807 
3850.000000	99.342000 
3849.000000	99.343679 
3848.000000	99.345497 
3847.000000	99.345876 
3846.000000	99.343615 
3845.000000	99.339375 
3844.000000	99.335798 
3843.000000	99.335327 
3842.000000	99.337665 
3841.000000	99.340328 
3840.000000	99.341399 
3839.000000	99.340817 
3838.000000	99.339350 
3837.000000	99.337271 
3836.000000	99.334855 
3835.000000	99.333430 
3834.000000	99.334894 
3833.000000	99.340161 
3832.000000	99.347829 
3831.000000	99.354506 
3830.000000	99.357220 
3829.000000	99.355346 
3828.000000	99.350701 
3827.000000	99.346367 
3826.000000	99.344787 
3825.000000	99.346345 
3824.000000	99.349637 
3823.000000	99.352559 
3822.000000	99.353570 
3821.000000	99.352594 
3820.000000	99.350397 
3819.000000	99.348163 
3818.000000	99.347388 
3817.000000	99.348729 
3816.000000	99.350486 
3815.000000	99.349357 
3814.000000	99.344243 
3813.000000	99.338065 
3812.000000	99.335035 
3811.000000	99.337198 
3810.000000	99.343440 
3809.000000	99.350935 
3808.000000	99.357150 
3807.000000	99.360450 
3806.000000	99.359844 
3805.000000	99.355615 
3804.000000	99.350013 
3803.000000	99.346460 
3802.000000	99.347125 
3801.000000	99.350002 
3800.000000	99.350754 
3799.000000	99.348020 
3798.000000	99.343953 
3797.000000	99.340926 
3796.000000	99.339243 
3795.000000	99.337665 
3794.000000	99.335484 
3793.000000	99.333241 
3792.000000	99.331707 
3791.000000	99.331187 
3790.000000	99.331853 
3789.000000	99.333889 
3788.000000	99.336793 
3787.000000	99.339033 
3786.000000	99.339249 
3785.000000	99.337810 
3784.000000	99.336563 
3783.000000	99.336947 
3782.000000	99.338946 
3781.000000	99.341689 
3780.000000	99.344341 
3779.000000	99.346100 
3778.000000	99.345933 
3777.000000	99.343217 
3776.000000	99.338546 
3775.000000	99.333574 
3774.000000	99.330110 
3773.000000	99.329337 
3772.000000	99.331465 
3771.000000	99.335296 
3770.000000	99.338135 
3769.000000	99.337572 
3768.000000	99.334061 
3767.000000	99.330690 
3766.000000	99.330209 
3765.000000	99.332603 
3764.000000	99.335589 
3763.000000	99.337140 
3762.000000	99.336905 
3761.000000	99.335546 
3760.000000	99.333834 
3759.000000	99.332757 
3758.000000	99.333509 
3757.000000	99.336527 
3756.000000	99.340896 
3755.000000	99.345116 
3754.000000	99.348393 
3753.000000	99.351379 
3752.000000	99.355432 
3751.000000	99.360572 
3750.000000	99.364591 
3749.000000	99.365608 
3748.000000	99.364312 
3747.000000	99.362620 
3746.000000	99.361863 
3745.000000	99.361941 
3744.000000	99.361312 
3743.000000	99.358356 
3742.000000	99.353393 
3741.000000	99.348087 
3740.000000	99.343552 
3739.000000	99.340022 
3738.000000	99.337748 
3737.000000	99.337009 
3736.000000	99.336916 
3735.000000	99.335366 
3734.000000	99.331454 
3733.000000	99.327353 
3732.000000	99.325963 
3731.000000	99.327571 
3730.000000	99.330486 
3729.000000	99.333553 
3728.000000	99.336783 
3727.000000	99.339744 
3726.000000	99.340542 
3725.000000	99.337510 
3724.000000	99.331701 
3723.000000	99.326494 
3722.000000	99.324655 
3721.000000	99.326261 
3720.000000	99.328935 
3719.000000	99.329840 
3718.000000	99.327757 
3717.000000	99.323390 
3716.000000	99.318220 
3715.000000	99.313418 
3714.000000	99.309647 
3713.000000	99.307548 
3712.000000	99.307796 
3711.000000	99.310106 
3710.000000	99.312007 
3709.000000	99.309708 
3708.000000	99.301149 
3707.000000	99.287748 
3706.000000	99.273470 
3705.000000	99.262309 
3704.000000	99.256012 
3703.000000	99.253501 
3702.000000	99.251975 
3701.000000	99.248916 
3700.000000	99.243523 
3699.000000	99.236608 
3698.000000	99.229744 
3697.000000	99.224455 
3696.000000	99.221755 
3695.000000	99.222259 
3694.000000	99.226022 
3693.000000	99.231579 
3692.000000	99.235426 
3691.000000	99.234028 
3690.000000	99.227822 
3689.000000	99.222020 
3688.000000	99.221068 
3687.000000	99.223950 
3686.000000	99.226994 
3685.000000	99.228477 
3684.000000	99.229102 
3683.000000	99.229675 
3682.000000	99.229359 
3681.000000	99.226408 
3680.000000	99.220120 
3679.000000	99.211467 
3678.000000	99.202545 
3677.000000	99.196194 
3676.000000	99.194448 
3675.000000	99.194789 
3674.000000	99.191286 
3673.000000	99.181700 
3672.000000	99.169267 
3671.000000	99.159055 
3670.000000	99.153279 
3669.000000	99.149064 
3668.000000	99.142667 
3667.000000	99.134311 
3666.000000	99.126791 
3665.000000	99.121582 
3664.000000	99.117506 
3663.000000	99.112267 
3662.000000	99.104306 
3661.000000	99.093105 
3660.000000	99.078873 
3659.000000	99.062799 
3658.000000	99.047556 
3657.000000	99.036195 
3656.000000	99.029218 
3655.000000	99.023829 
3654.000000	99.017164 
3653.000000	99.008501 
3652.000000	98.997779 
3651.000000	98.984312 
3650.000000	98.968483 
3649.000000	98.953625 
3648.000000	98.943083 
3647.000000	98.936233 
3646.000000	98.930139 
3645.000000	98.923437 
3644.000000	98.917152 
3643.000000	98.912771 
3642.000000	98.910471 
3641.000000	98.908888 
3640.000000	98.906230 
3639.000000	98.901141 
3638.000000	98.893019 
3637.000000	98.882459 
3636.000000	98.871226 
3635.000000	98.860879 
3634.000000	98.850981 
3633.000000	98.839791 
3632.000000	98.827298 
3631.000000	98.816565 
3630.000000	98.811062 
3629.000000	98.809271 
3628.000000	98.803918 
3627.000000	98.791268 
3626.000000	98.776091 
3625.000000	98.764987 
3624.000000	98.759910 
3623.000000	98.758305 
3622.000000	98.757508 
3621.000000	98.758553 
3620.000000	98.765010 
3619.000000	98.777671 
3618.000000	98.792156 
3617.000000	98.803754 
3616.000000	98.812342 
3615.000000	98.820981 
3614.000000	98.831220 
3613.000000	98.841146 
3612.000000	98.848305 
3611.000000	98.853510 
3610.000000	98.860092 
3609.000000	98.869345 
3608.000000	98.878527 
3607.000000	98.884673 
3606.000000	98.888845 
3605.000000	98.894826 
3604.000000	98.904665 
3603.000000	98.916841 
3602.000000	98.928311 
3601.000000	98.937315 
3600.000000	98.943555 
3599.000000	98.946799 
3598.000000	98.946913 
3597.000000	98.944900 
3596.000000	98.943403 
3595.000000	98.945523 
3594.000000	98.952384 
3593.000000	98.962198 
3592.000000	98.971700 
3591.000000	98.977932 
3590.000000	98.979486 
3589.000000	98.977220 
3588.000000	98.974212 
3587.000000	98.973107 
3586.000000	98.973707 
3585.000000	98.974705 
3584.000000	98.976167 
3583.000000	98.978594 
3582.000000	98.981224 
3581.000000	98.982262 
3580.000000	98.980768 
3579.000000	98.977691 
3578.000000	98.974894 
3577.000000	98.973632 
3576.000000	98.973978 
3575.000000	98.975313 
3574.000000	98.976778 
3573.000000	98.977664 
3572.000000	98.978017 
3571.000000	98.978549 
3570.000000	98.979438 
3569.000000	98.979681 
3568.000000	98.978350 
3567.000000	98.976130 
3566.000000	98.974277 
3565.000000	98.972783 
3564.000000	98.970982 
3563.000000	98.969068 
3562.000000	98.968063 
3561.000000	98.968442 
3560.000000	98.969208 
3559.000000	98.968774 
3558.000000	98.966835 
3557.000000	98.964884 
3556.000000	98.964555 
3555.000000	98.965660 
3554.000000	98.966104 
3553.000000	98.963639 
3552.000000	98.957881 
3551.000000	98.950666 
3550.000000	98.944334 
3549.000000	98.939925 
3548.000000	98.936948 
3547.000000	98.934532 
3546.000000	98.932391 
3545.000000	98.930439 
3544.000000	98.928368 
3543.000000	98.926470 
3542.000000	98.926296 
3541.000000	98.929345 
3540.000000	98.934996 
3539.000000	98.940338 
3538.000000	98.942796 
3537.000000	98.942648 
3536.000000	98.942369 
3535.000000	98.943367 
3534.000000	98.944405 
3533.000000	98.943758 
3532.000000	98.942028 
3531.000000	98.941853 
3530.000000	98.944694 
3529.000000	98.948703 
3528.000000	98.950495 
3527.000000	98.948650 
3526.000000	98.944665 
3525.000000	98.940759 
3524.000000	98.937853 
3523.000000	98.935861 
3522.000000	98.934883 
3521.000000	98.935206 
3520.000000	98.936697 
3519.000000	98.938910 
3518.000000	98.941627 
3517.000000	98.944496 
3516.000000	98.946236 
3515.000000	98.945169 
3514.000000	98.940970 
3513.000000	98.935373 
3512.000000	98.930621 
3511.000000	98.927473 
3510.000000	98.925102 
3509.000000	98.922754 
3508.000000	98.920923 
3507.000000	98.920823 
3506.000000	98.922995 
3505.000000	98.926298 
3504.000000	98.928211 
3503.000000	98.926893 
3502.000000	98.923682 
3501.000000	98.923043 
3500.000000	98.928754 
3499.000000	98.939679 
3498.000000	98.949648 
3497.000000	98.952142 
3496.000000	98.945607 
3495.000000	98.934273 
3494.000000	98.924263 
3493.000000	98.919249 
3492.000000	98.919245 
3491.000000	98.922126 
3490.000000	98.925573 
3489.000000	98.928129 
3488.000000	98.929224 
3487.000000	98.928766 
3486.000000	98.926949 
3485.000000	98.924352 
3484.000000	98.921817 
3483.000000	98.919878 
3482.000000	98.918354 
3481.000000	98.916770 
3480.000000	98.914989 
3479.000000	98.912962 
3478.000000	98.910091 
3477.000000	98.905867 
3476.000000	98.901631 
3475.000000	98.900781 
3474.000000	98.905743 
3473.000000	98.914577 
3472.000000	98.921775 
3471.000000	98.923245 
3470.000000	98.920145 
3469.000000	98.917136 
3468.000000	98.917215 
3467.000000	98.919054 
3466.000000	98.919446 
3465.000000	98.917205 
3464.000000	98.913861 
3463.000000	98.911241 
3462.000000	98.909649 
3461.000000	98.908651 
3460.000000	98.908507 
3459.000000	98.909857 
3458.000000	98.912235 
3457.000000	98.913741 
3456.000000	98.912598 
3455.000000	98.908807 
3454.000000	98.904097 
3453.000000	98.900340 
3452.000000	98.898092 
3451.000000	98.896507 
3450.000000	98.894477 
3449.000000	98.891777 
3448.000000	98.889073 
3447.000000	98.886890 
3446.000000	98.884910 
3445.000000	98.882697 
3444.000000	98.880736 
3443.000000	98.879976 
3442.000000	98.880291 
3441.000000	98.880095 
3440.000000	98.878002 
3439.000000	98.874325 
3438.000000	98.870345 
3437.000000	98.866483 
3436.000000	98.862200 
3435.000000	98.857807 
3434.000000	98.855401 
3433.000000	98.857112 
3432.000000	98.862460 
3431.000000	98.868165 
3430.000000	98.870884 
3429.000000	98.870026 
3428.000000	98.867747 
3427.000000	98.866298 
3426.000000	98.865802 
3425.000000	98.864745 
3424.000000	98.862194 
3423.000000	98.858853 
3422.000000	98.855908 
3421.000000	98.853651 
3420.000000	98.851878 
3419.000000	98.851069 
3418.000000	98.852084 
3417.000000	98.854610 
3416.000000	98.856836 
3415.000000	98.857127 
3414.000000	98.855553 
3413.000000	98.853431 
3412.000000	98.851808 
3411.000000	98.850927 
3410.000000	98.850689 
3409.000000	98.850719 
3408.000000	98.849878 
3407.000000	98.846598 
3406.000000	98.840507 
3405.000000	98.833551 
3404.000000	98.828909 
3403.000000	98.828457 
3402.000000	98.831378 
3401.000000	98.835340 
3400.000000	98.838772 
3399.000000	98.841718 
3398.000000	98.844792 
3397.000000	98.847857 
3396.000000	98.849846 
3395.000000	98.849504 
3394.000000	98.846112 
3393.000000	98.840056 
3392.000000	98.833235 
3391.000000	98.828558 
3390.000000	98.828268 
3389.000000	98.832363 
3388.000000	98.838832 
3387.000000	98.845504 
3386.000000	98.851598 
3385.000000	98.857524 
3384.000000	98.863398 
3383.000000	98.867909 
3382.000000	98.868799 
3381.000000	98.864822 
3380.000000	98.857586 
3379.000000	98.851256 
3378.000000	98.849620 
3377.000000	98.853026 
3376.000000	98.858324 
3375.000000	98.861911 
3374.000000	98.862587 
3373.000000	98.861617 
3372.000000	98.860764 
3371.000000	98.860763 
3370.000000	98.861258 
3369.000000	98.861530 
3368.000000	98.861291 
3367.000000	98.861137 
3366.000000	98.862119 
3365.000000	98.864440 
3364.000000	98.866765 
3363.000000	98.867455 
3362.000000	98.866548 
3361.000000	98.865797 
3360.000000	98.866430 
3359.000000	98.867532 
3358.000000	98.867349 
3357.000000	98.865888 
3356.000000	98.865221 
3355.000000	98.866826 
3354.000000	98.869341 
3353.000000	98.869798 
3352.000000	98.866997 
3351.000000	98.863111 
3350.000000	98.861704 
3349.000000	98.864520 
3348.000000	98.870326 
3347.000000	98.876382 
3346.000000	98.880515 
3345.000000	98.882079 
3344.000000	98.881840 
3343.000000	98.881282 
3342.000000	98.881401 
3341.000000	98.881701 
3340.000000	98.880712 
3339.000000	98.878067 
3338.000000	98.875765 
3337.000000	98.876564 
3336.000000	98.880914 
3335.000000	98.886165 
3334.000000	98.889267 
3333.000000	98.889809 
3332.000000	98.889946 
3331.000000	98.891613 
3330.000000	98.894400 
3329.000000	98.896260 
3328.000000	98.895829 
3327.000000	98.893769 
3326.000000	98.891947 
3325.000000	98.891504 
3324.000000	98.891806 
3323.000000	98.891320 
3322.000000	98.889447 
3321.000000	98.887349 
3320.000000	98.886921 
3319.000000	98.889140 
3318.000000	98.893476 
3317.000000	98.898467 
3316.000000	98.902419 
3315.000000	98.904030 
3314.000000	98.903346 
3313.000000	98.902325 
3312.000000	98.903541 
3311.000000	98.907581 
3310.000000	98.912013 
3309.000000	98.913573 
3308.000000	98.911332 
3307.000000	98.907371 
3306.000000	98.904680 
3305.000000	98.904959 
3304.000000	98.908151 
3303.000000	98.912975 
3302.000000	98.917413 
3301.000000	98.919314 
3300.000000	98.917513 
3299.000000	98.912822 
3298.000000	98.907888 
3297.000000	98.905649 
3296.000000	98.907284 
3295.000000	98.911294 
3294.000000	98.914900 
3293.000000	98.916814 
3292.000000	98.918440 
3291.000000	98.921722 
3290.000000	98.926059 
3289.000000	98.928387 
3288.000000	98.926611 
3287.000000	98.922135 
3286.000000	98.918344 
3285.000000	98.917105 
3284.000000	98.917458 
3283.000000	98.917506 
3282.000000	98.916841 
3281.000000	98.916959 
3280.000000	98.919612 
3279.000000	98.924822 
3278.000000	98.930307 
3277.000000	98.932931 
3276.000000	98.931094 
3275.000000	98.925958 
3274.000000	98.920474 
3273.000000	98.917290 
3272.000000	98.917362 
3271.000000	98.919865 
3270.000000	98.922993 
3269.000000	98.925102 
3268.000000	98.925609 
3267.000000	98.924893 
3266.000000	98.923491 
3265.000000	98.921872 
3264.000000	98.921125 
3263.000000	98.923069 
3262.000000	98.928715 
3261.000000	98.936607 
3260.000000	98.943369 
3259.000000	98.946292 
3258.000000	98.945352 
3257.000000	98.942783 
3256.000000	98.940877 
3255.000000	98.940168 
3254.000000	98.939658 
3253.000000	98.938742 
3252.000000	98.938589 
3251.000000	98.941027 
3250.000000	98.946061 
3249.000000	98.951346 
3248.000000	98.954585 
3247.000000	98.955720 
3246.000000	98.955982 
3245.000000	98.955476 
3244.000000	98.953061 
3243.000000	98.948677 
3242.000000	98.944462 
3241.000000	98.942959 
3240.000000	98.944951 
3239.000000	98.949684 
3238.000000	98.956573 
3237.000000	98.965693 
3236.000000	98.976357 
3235.000000	98.985936 
3234.000000	98.990942 
3233.000000	98.989744 
3232.000000	98.984229 
3231.000000	98.978456 
3230.000000	98.975479 
3229.000000	98.975440 
3228.000000	98.976461 
3227.000000	98.976709 
3226.000000	98.975484 
3225.000000	98.973144 
3224.000000	98.970814 
3223.000000	98.969919 
3222.000000	98.971162 
3221.000000	98.973733 
3220.000000	98.975872 
3219.000000	98.976344 
3218.000000	98.975341 
3217.000000	98.974361 
3216.000000	98.975540 
3215.000000	98.980476 
3214.000000	98.988669 
3213.000000	98.997052 
3212.000000	99.001821 
3211.000000	99.001127 
3210.000000	98.996047 
3209.000000	98.989392 
3208.000000	98.984067 
3207.000000	98.982057 
3206.000000	98.983830 
3205.000000	98.988258 
3204.000000	98.993534 
3203.000000	98.998335 
3202.000000	99.001961 
3201.000000	99.003824 
3200.000000	99.003702 
3199.000000	99.002461 
3198.000000	99.001664 
3197.000000	99.002284 
3196.000000	99.004323 
3195.000000	99.007480 
3194.000000	99.011205 
3193.000000	99.014090 
3192.000000	99.014519 
3191.000000	99.012561 
3190.000000	99.010308 
3189.000000	99.009663 
3188.000000	99.010443 
3187.000000	99.011311 
3186.000000	99.011837 
3185.000000	99.012738 
3184.000000	99.014455 
3183.000000	99.016388 
3182.000000	99.017629 
3181.000000	99.017984 
3180.000000	99.018321 
3179.000000	99.020051 
3178.000000	99.023937 
3177.000000	99.029167 
3176.000000	99.034035 
3175.000000	99.037772 
3174.000000	99.040987 
3173.000000	99.043823 
3172.000000	99.044603 
3171.000000	99.041596 
3170.000000	99.035984 
3169.000000	99.031751 
3168.000000	99.032047 
3167.000000	99.036250 
3166.000000	99.040995 
3165.000000	99.043538 
3164.000000	99.043679 
3163.000000	99.042926 
3162.000000	99.042686 
3161.000000	99.043428 
3160.000000	99.044930 
3159.000000	99.046641 
3158.000000	99.047748 
3157.000000	99.047397 
3156.000000	99.045267 
3155.000000	99.041849 
3154.000000	99.037948 
3153.000000	99.034042 
3152.000000	99.030445 
3151.000000	99.027929 
3150.000000	99.027604 
3149.000000	99.029933 
3148.000000	99.034139 
3147.000000	99.038753 
3146.000000	99.042580 
3145.000000	99.045153 
3144.000000	99.046711 
3143.000000	99.047970 
3142.000000	99.049582 
3141.000000	99.051490 
3140.000000	99.052966 
3139.000000	99.053453 
3138.000000	99.053252 
3137.000000	99.053336 
3136.000000	99.054703 
3135.000000	99.057803 
3134.000000	99.062038 
3133.000000	99.065597 
3132.000000	99.066415 
3131.000000	99.063928 
3130.000000	99.059789 
3129.000000	99.056705 
3128.000000	99.056776 
3127.000000	99.060836 
3126.000000	99.068349 
3125.000000	99.077078 
3124.000000	99.083408 
3123.000000	99.084387 
3122.000000	99.080050 
3121.000000	99.073326 
3120.000000	99.067491 
3119.000000	99.064092 
3118.000000	99.063221 
3117.000000	99.064828 
3116.000000	99.068982 
3115.000000	99.075055 
3114.000000	99.081344 
3113.000000	99.085797 
3112.000000	99.087177 
3111.000000	99.085670 
3110.000000	99.082635 
3109.000000	99.079733 
3108.000000	99.078017 
3107.000000	99.077550 
3106.000000	99.077714 
3105.000000	99.077912 
3104.000000	99.078129 
3103.000000	99.078964 
3102.000000	99.081067 
3101.000000	99.084464 
3100.000000	99.088444 
3099.000000	99.092185 
3098.000000	99.095361 
3097.000000	99.098075 
3096.000000	99.100300 
3095.000000	99.101583 
3094.000000	99.101285 
3093.000000	99.099114 
3092.000000	99.095604 
3091.000000	99.092266 
3090.000000	99.090961 
3089.000000	99.092532 
3088.000000	99.095867 
3087.000000	99.098679 
3086.000000	99.099526 
3085.000000	99.098894 
3084.000000	99.098074 
3083.000000	99.097337 
3082.000000	99.095766 
3081.000000	99.092891 
3080.000000	99.090016 
3079.000000	99.089664 
3078.000000	99.093804 
3077.000000	99.102375 
3076.000000	99.112898 
3075.000000	99.121394 
3074.000000	99.124633 
3073.000000	99.122487 
3072.000000	99.118030 
3071.000000	99.114564 
3070.000000	99.112524 
3069.000000	99.109846 
3068.000000	99.105365 
3067.000000	99.101069 
3066.000000	99.100570 
3065.000000	99.105658 
3064.000000	99.114506 
3063.000000	99.122736 
3062.000000	99.126096 
3061.000000	99.122975 
3060.000000	99.115347 
3059.000000	99.107415 
3058.000000	99.102958 
3057.000000	99.103663 
3056.000000	99.109251 
3055.000000	99.118054 
3054.000000	99.127098 
3053.000000	99.132809 
3052.000000	99.133058 
3051.000000	99.128771 
3050.000000	99.123149 
3049.000000	99.119407 
3048.000000	99.119175 
3047.000000	99.122013 
3046.000000	99.125413 
3045.000000	99.125970 
3044.000000	99.122252 
3043.000000	99.116847 
3042.000000	99.114477 
3041.000000	99.117563 
3040.000000	99.124192 
3039.000000	99.130478 
3038.000000	99.133863 
3037.000000	99.133867 
3036.000000	99.131018 
3035.000000	99.126368 
3034.000000	99.121562 
3033.000000	99.118073 
3032.000000	99.116049 
3031.000000	99.114435 
3030.000000	99.112421 
3029.000000	99.110546 
3028.000000	99.110429 
3027.000000	99.113596 
3026.000000	99.120172 
3025.000000	99.128157 
3024.000000	99.134241 
3023.000000	99.136124 
3022.000000	99.134265 
3021.000000	99.130940 
3020.000000	99.127599 
3019.000000	99.123802 
3018.000000	99.119021 
3017.000000	99.114548 
3016.000000	99.112523 
3015.000000	99.113292 
3014.000000	99.114965 
3013.000000	99.116013 
3012.000000	99.117250 
3011.000000	99.120271 
3010.000000	99.124516 
3009.000000	99.127328 
3008.000000	99.127119 
3007.000000	99.125387 
3006.000000	99.124810 
3005.000000	99.125916 
3004.000000	99.126506 
3003.000000	99.124433 
3002.000000	99.120304 
3001.000000	99.117128 
3000.000000	99.117465 
2999.000000	99.121192 
2998.000000	99.126103 
2997.000000	99.130392 
2996.000000	99.133999 
2995.000000	99.137355 
2994.000000	99.139618 
2993.000000	99.139214 
2992.000000	99.135995 
2991.000000	99.131782 
2990.000000	99.128497 
2989.000000	99.126632 
2988.000000	99.125946 
2987.000000	99.126621 
2986.000000	99.128881 
2985.000000	99.132104 
2984.000000	99.135211 
2983.000000	99.137641 
2982.000000	99.139321 
2981.000000	99.140151 
2980.000000	99.140332 
2979.000000	99.140830 
2978.000000	99.142580 
2977.000000	99.145283 
2976.000000	99.147696 
2975.000000	99.148975 
2974.000000	99.149160 
2973.000000	99.148705 
2972.000000	99.148422 
2971.000000	99.149642 
2970.000000	99.153270 
2969.000000	99.158408 
2968.000000	99.162808 
2967.000000	99.165026 
2966.000000	99.165523 
2965.000000	99.165478 
2964.000000	99.165356 
2963.000000	99.165113 
2962.000000	99.165132 
2961.000000	99.166228 
2960.000000	99.168813 
2959.000000	99.172393 
2958.000000	99.175743 
2957.000000	99.177476 
2956.000000	99.176799 
2955.000000	99.174190 
2954.000000	99.171391 
2953.000000	99.170456 
2952.000000	99.172365 
2951.000000	99.176164 
2950.000000	99.179487 
2949.000000	99.180442 
2948.000000	99.179259 
2947.000000	99.177899 
2946.000000	99.178046 
2945.000000	99.180021 
2944.000000	99.183562 
2943.000000	99.188400 
2942.000000	99.193267 
2941.000000	99.195580 
2940.000000	99.193820 
2939.000000	99.190155 
2938.000000	99.189323 
2937.000000	99.194522 
2936.000000	99.205011 
2935.000000	99.217467 
2934.000000	99.228566 
2933.000000	99.236206 
2932.000000	99.239703 
2931.000000	99.239732 
2930.000000	99.237882 
2929.000000	99.236013 
2928.000000	99.235911 
2927.000000	99.238623 
2926.000000	99.243122 
2925.000000	99.246276 
2924.000000	99.245654 
2923.000000	99.242258 
2922.000000	99.239013 
2921.000000	99.236624 
2920.000000	99.232712 
2919.000000	99.225418 
2918.000000	99.216116 
2917.000000	99.207682 
2916.000000	99.201497 
2915.000000	99.197235 
2914.000000	99.194476 
2913.000000	99.193119 
2912.000000	99.192760 
2911.000000	99.192787 
2910.000000	99.192905 
2909.000000	99.192787 
2908.000000	99.191603 
2907.000000	99.188802 
2906.000000	99.185187 
2905.000000	99.182332 
2904.000000	99.180855 
2903.000000	99.179716 
2902.000000	99.177734 
2901.000000	99.175119 
2900.000000	99.173664 
2899.000000	99.175183 
2898.000000	99.179387 
2897.000000	99.183532 
2896.000000	99.184579 
2895.000000	99.181965 
2894.000000	99.177861 
2893.000000	99.174757 
2892.000000	99.173496 
2891.000000	99.173629 
2890.000000	99.174583 
2889.000000	99.175761 
2888.000000	99.176366 
2887.000000	99.176092 
2886.000000	99.175569 
2885.000000	99.175382 
2884.000000	99.175085 
2883.000000	99.174111 
2882.000000	99.173351 
2881.000000	99.174663 
2880.000000	99.178613 
2879.000000	99.183469 
2878.000000	99.186836 
2877.000000	99.187894 
2876.000000	99.187870 
2875.000000	99.188723 
2874.000000	99.191574 
2873.000000	99.195963 
2872.000000	99.200209 
2871.000000	99.202579 
2870.000000	99.202475 
2869.000000	99.200840 
2868.000000	99.199588 
2867.000000	99.200409 
2866.000000	99.203620 
2865.000000	99.207829 
2864.000000	99.210906 
2863.000000	99.211510 
2862.000000	99.209744 
2861.000000	99.206635 
2860.000000	99.203571 
2859.000000	99.202292 
2858.000000	99.204354 
2857.000000	99.209613 
2856.000000	99.215437 
2855.000000	99.218387 
2854.000000	99.217064 
2853.000000	99.213106 
2852.000000	99.209377 
2851.000000	99.207523 
2850.000000	99.207291 
2849.000000	99.207620 
2848.000000	99.207828 
2847.000000	99.207782 
2846.000000	99.207364 
2845.000000	99.206153 
2844.000000	99.203684 
2843.000000	99.199891 
2842.000000	99.195337 
2841.000000	99.191181 
2840.000000	99.188866 
2839.000000	99.189344 
2838.000000	99.192152 
2837.000000	99.195346 
2836.000000	99.196882 
2835.000000	99.196271 
2834.000000	99.194751 
2833.000000	99.193856 
2832.000000	99.193970 
2831.000000	99.194193 
2830.000000	99.193304 
2829.000000	99.190919 
2828.000000	99.188119 
2827.000000	99.186951 
2826.000000	99.188865 
2825.000000	99.193298 
2824.000000	99.197948 
2823.000000	99.200606 
2822.000000	99.200726 
2821.000000	99.199452 
2820.000000	99.198436 
2819.000000	99.198510 
2818.000000	99.199006 
2817.000000	99.198349 
2816.000000	99.195706 
2815.000000	99.192119 
2814.000000	99.189544 
2813.000000	99.188810 
2812.000000	99.189173 
2811.000000	99.189989 
2810.000000	99.191941 
2809.000000	99.195896 
2808.000000	99.201048 
2807.000000	99.205022 
2806.000000	99.205902 
2805.000000	99.203756 
2804.000000	99.200308 
2803.000000	99.197540 
2802.000000	99.196570 
2801.000000	99.197304 
2800.000000	99.198786 
2799.000000	99.199939 
2798.000000	99.200069 
2797.000000	99.198837 
2796.000000	99.196174 
2795.000000	99.192640 
2794.000000	99.189723 
2793.000000	99.189077 
2792.000000	99.190970 
2791.000000	99.193729 
2790.000000	99.195273 
2789.000000	99.195355 
2788.000000	99.195820 
2787.000000	99.198279 
2786.000000	99.201849 
2785.000000	99.203823 
2784.000000	99.202579 
2783.000000	99.199203 
2782.000000	99.196087 
2781.000000	99.194653 
2780.000000	99.194854 
2779.000000	99.196157 
2778.000000	99.198015 
2777.000000	99.199658 
2776.000000	99.200490 
2775.000000	99.200932 
2774.000000	99.202123 
2773.000000	99.204470 
2772.000000	99.207047 
2771.000000	99.208689 
2770.000000	99.209121 
2769.000000	99.208695 
2768.000000	99.207623 
2767.000000	99.206111 
2766.000000	99.204838 
2765.000000	99.204498 
2764.000000	99.204755 
2763.000000	99.204237 
2762.000000	99.201913 
2761.000000	99.198272 
2760.000000	99.194908 
2759.000000	99.193159 
2758.000000	99.193486 
2757.000000	99.195995 
2756.000000	99.200724 
2755.000000	99.206726 
2754.000000	99.211322 
2753.000000	99.211569 
2752.000000	99.207235 
2751.000000	99.201765 
2750.000000	99.199458 
2749.000000	99.201642 
2748.000000	99.205950 
2747.000000	99.209071 
2746.000000	99.209558 
2745.000000	99.208086 
2744.000000	99.205904 
2743.000000	99.203706 
2742.000000	99.201811 
2741.000000	99.200775 
2740.000000	99.201304 
2739.000000	99.203382 
2738.000000	99.205882 
2737.000000	99.207621 
2736.000000	99.208777 
2735.000000	99.210481 
2734.000000	99.212762 
2733.000000	99.213814 
2732.000000	99.212043 
2731.000000	99.208181 
2730.000000	99.204484 
2729.000000	99.202339 
2728.000000	99.201591 
2727.000000	99.201708 
2726.000000	99.202260 
2725.000000	99.202409 
2724.000000	99.201489 
2723.000000	99.200497 
2722.000000	99.201688 
2721.000000	99.205891 
2720.000000	99.211066 
2719.000000	99.214297 
2718.000000	99.214527 
2717.000000	99.212714 
2716.000000	99.210102 
2715.000000	99.207428 
2714.000000	99.205489 
2713.000000	99.205206 
2712.000000	99.206715 
2711.000000	99.209017 
2710.000000	99.211022 
2709.000000	99.212674 
2708.000000	99.214593 
2707.000000	99.216602 
2706.000000	99.217179 
2705.000000	99.215043 
2704.000000	99.211193 
2703.000000	99.208491 
2702.000000	99.208694 
2701.000000	99.210520 
2700.000000	99.211594 
2699.000000	99.211828 
2698.000000	99.213517 
2697.000000	99.217897 
2696.000000	99.222906 
2695.000000	99.225252 
2694.000000	99.224070 
2693.000000	99.221604 
2692.000000	99.220488 
2691.000000	99.221082 
2690.000000	99.221569 
2689.000000	99.220201 
2688.000000	99.217189 
2687.000000	99.214507 
2686.000000	99.214074 
2685.000000	99.216250 
2684.000000	99.219898 
2683.000000	99.223375 
2682.000000	99.225171 
2681.000000	99.224169 
2680.000000	99.220199 
2679.000000	99.214584 
2678.000000	99.209713 
2677.000000	99.207874 
2676.000000	99.210255 
2675.000000	99.216281 
2674.000000	99.223259 
2673.000000	99.227383 
2672.000000	99.226523 
2671.000000	99.222244 
2670.000000	99.218206 
2669.000000	99.216405 
2668.000000	99.215819 
2667.000000	99.214776 
2666.000000	99.213304 
2665.000000	99.212433 
2664.000000	99.212124 
2663.000000	99.211044 
2662.000000	99.208288 
2661.000000	99.204683 
2660.000000	99.202256 
2659.000000	99.202473 
2658.000000	99.204862 
2657.000000	99.207433 
2656.000000	99.208668 
2655.000000	99.208730 
2654.000000	99.208237 
2653.000000	99.206686 
2652.000000	99.203592 
2651.000000	99.200841 
2650.000000	99.201616 
2649.000000	99.206072 
2648.000000	99.210019 
2647.000000	99.209634 
2646.000000	99.206428 
2645.000000	99.205668 
2644.000000	99.210199 
2643.000000	99.217334 
2642.000000	99.221754 
2641.000000	99.220339 
2640.000000	99.214262 
2639.000000	99.207532 
2638.000000	99.203780 
2637.000000	99.203643 
2636.000000	99.204961 
2635.000000	99.205605 
2634.000000	99.205578 
2633.000000	99.206080 
2632.000000	99.207578 
2631.000000	99.209806 
2630.000000	99.212601 
2629.000000	99.215245 
2628.000000	99.215869 
2627.000000	99.213583 
2626.000000	99.210854 
2625.000000	99.211405 
2624.000000	99.215390 
2623.000000	99.218811 
2622.000000	99.218524 
2621.000000	99.215769 
2620.000000	99.213518 
2619.000000	99.212364 
2618.000000	99.211030 
2617.000000	99.209723 
2616.000000	99.210548 
2615.000000	99.214634 
2614.000000	99.220573 
2613.000000	99.225878 
2612.000000	99.228705 
2611.000000	99.228143 
2610.000000	99.224335 
2609.000000	99.219029 
2608.000000	99.215080 
2607.000000	99.214643 
2606.000000	99.218050 
2605.000000	99.224279 
2604.000000	99.231633 
2603.000000	99.237836 
2602.000000	99.240760 
2601.000000	99.240134 
2600.000000	99.238167 
2599.000000	99.237610 
2598.000000	99.239088 
2597.000000	99.240560 
2596.000000	99.239222 
2595.000000	99.233841 
2594.000000	99.225756 
2593.000000	99.218067 
2592.000000	99.213632 
2591.000000	99.213463 
2590.000000	99.216917 
2589.000000	99.222892 
2588.000000	99.229921 
2587.000000	99.235332 
2586.000000	99.236171 
2585.000000	99.232219 
2584.000000	99.227109 
2583.000000	99.224928 
2582.000000	99.226074 
2581.000000	99.227689 
2580.000000	99.227679 
2579.000000	99.226664 
2578.000000	99.226017 
2577.000000	99.225753 
2576.000000	99.224894 
2575.000000	99.222672 
2574.000000	99.218845 
2573.000000	99.213960 
2572.000000	99.209805 
2571.000000	99.208407 
2570.000000	99.209888 
2569.000000	99.212218 
2568.000000	99.213620 
2567.000000	99.214249 
2566.000000	99.215112 
2565.000000	99.216616 
2564.000000	99.218916 
2563.000000	99.222380 
2562.000000	99.226601 
2561.000000	99.229836 
2560.000000	99.230337 
2559.000000	99.227541 
2558.000000	99.221646 
2557.000000	99.213700 
2556.000000	99.207020 
2555.000000	99.206426 
2554.000000	99.213719 
2553.000000	99.224736 
2552.000000	99.232872 
2551.000000	99.235113 
2550.000000	99.233102 
2549.000000	99.229322 
2548.000000	99.224702 
2547.000000	99.219938 
2546.000000	99.216835 
2545.000000	99.217305 
2544.000000	99.221728 
2543.000000	99.228223 
2542.000000	99.232821 
2541.000000	99.231452 
2540.000000	99.223749 
2539.000000	99.214527 
2538.000000	99.209437 
2537.000000	99.209143 
2536.000000	99.209802 
2535.000000	99.209148 
2534.000000	99.209149 
2533.000000	99.211534 
2532.000000	99.213575 
2531.000000	99.211057 
2530.000000	99.204321 
2529.000000	99.198579 
2528.000000	99.197879 
2527.000000	99.200729 
2526.000000	99.202836 
2525.000000	99.203073 
2524.000000	99.205041 
2523.000000	99.212408 
2522.000000	99.223896 
2521.000000	99.233964 
2520.000000	99.237897 
2519.000000	99.234972 
2518.000000	99.227118 
2517.000000	99.216736 
2516.000000	99.206604 
2515.000000	99.199798 
2514.000000	99.197763 
2513.000000	99.199310 
2512.000000	99.202780 
2511.000000	99.208081 
2510.000000	99.215163 
2509.000000	99.221967 
2508.000000	99.226267 
2507.000000	99.228738 
2506.000000	99.231690 
2505.000000	99.234976 
2504.000000	99.235664 
2503.000000	99.232107 
2502.000000	99.226269 
2501.000000	99.221603 
2500.000000	99.220346 
2499.000000	99.223092 
2498.000000	99.228850 
2497.000000	99.234692 
2496.000000	99.237049 
2495.000000	99.234532 
2494.000000	99.228746 
2493.000000	99.222136 
2492.000000	99.216313 
2491.000000	99.212659 
2490.000000	99.212917 
2489.000000	99.218284 
2488.000000	99.228483 
2487.000000	99.241545 
2486.000000	99.253311 
2485.000000	99.257950 
2484.000000	99.251819 
2483.000000	99.237821 
2482.000000	99.224099 
2481.000000	99.217200 
2480.000000	99.217412 
2479.000000	99.220862 
2478.000000	99.224000 
2477.000000	99.225105 
2476.000000	99.223842 
2475.000000	99.221554 
2474.000000	99.220919 
2473.000000	99.223278 
2472.000000	99.226567 
2471.000000	99.227323 
2470.000000	99.224539 
2469.000000	99.220546 
2468.000000	99.218330 
2467.000000	99.218956 
2466.000000	99.221471 
2465.000000	99.224304 
2464.000000	99.226398 
2463.000000	99.227359 
2462.000000	99.226937 
2461.000000	99.224743 
2460.000000	99.220770 
2459.000000	99.215975 
2458.000000	99.211896 
2457.000000	99.209729 
2456.000000	99.209988 
2455.000000	99.212537 
2454.000000	99.216276 
2453.000000	99.219238 
2452.000000	99.219844 
2451.000000	99.217934 
2450.000000	99.214126 
2449.000000	99.209157 
2448.000000	99.204961 
2447.000000	99.205148 
2446.000000	99.212056 
2445.000000	99.223131 
2444.000000	99.231963 
2443.000000	99.233494 
2442.000000	99.227482 
2441.000000	99.217642 
2440.000000	99.209197 
2439.000000	99.206749 
2438.000000	99.211717 
2437.000000	99.220659 
2436.000000	99.227644 
2435.000000	99.229307 
2434.000000	99.227015 
2433.000000	99.224472 
2432.000000	99.224749 
2431.000000	99.229131 
2430.000000	99.236195 
2429.000000	99.241433 
2428.000000	99.240384 
2427.000000	99.233570 
2426.000000	99.226562 
2425.000000	99.224021 
2424.000000	99.225485 
2423.000000	99.228168 
2422.000000	99.231544 
2421.000000	99.236582 
2420.000000	99.241691 
2419.000000	99.242572 
2418.000000	99.236881 
2417.000000	99.227470 
2416.000000	99.220025 
2415.000000	99.217858 
2414.000000	99.219390 
2413.000000	99.220390 
2412.000000	99.218195 
2411.000000	99.213617 
2410.000000	99.209315 
2409.000000	99.207361 
2408.000000	99.208465 
2407.000000	99.212125 
2406.000000	99.216462 
2405.000000	99.219083 
2404.000000	99.219527 
2403.000000	99.219994 
2402.000000	99.222122 
2401.000000	99.224048 
2400.000000	99.222609 
2399.000000	99.217763 
2398.000000	99.212704 
2397.000000	99.210075 
2396.000000	99.210274 
2395.000000	99.212915 
2394.000000	99.217210 
2393.000000	99.220849 
2392.000000	99.221334 
2391.000000	99.219048 
2390.000000	99.216777 
2389.000000	99.216018 
2388.000000	99.216286 
2387.000000	99.218068 
2386.000000	99.222930 
2385.000000	99.229645 
2384.000000	99.233698 
2383.000000	99.232662 
2382.000000	99.229269 
2381.000000	99.226920 
2380.000000	99.224897 
2379.000000	99.221090 
2378.000000	99.217380 
2377.000000	99.218327 
2376.000000	99.224976 
2375.000000	99.233119 
2374.000000	99.237732 
2373.000000	99.236748 
2372.000000	99.230915 
2371.000000	99.222935 
2370.000000	99.216965 
2369.000000	99.216326 
2368.000000	99.221009 
2367.000000	99.228595 
2366.000000	99.237085 
2365.000000	99.245429 
2364.000000	99.252003 
2363.000000	99.254739 
2362.000000	99.252600 
2361.000000	99.245942 
2360.000000	99.237128 
2359.000000	99.229226 
2358.000000	99.224383 
2357.000000	99.223442 
2356.000000	99.227553 
2355.000000	99.237537 
2354.000000	99.248901 
2353.000000	99.254733 
2352.000000	99.252526 
2351.000000	99.246434 
2350.000000	99.242709 
2349.000000	99.243188 
2348.000000	99.245892 
2347.000000	99.247219 
2346.000000	99.246824 
2345.000000	99.247831 
2344.000000	99.251407 
2343.000000	99.255283 
2342.000000	99.255434 
2341.000000	99.251248 
2340.000000	99.245773 
2339.000000	99.243971 
2338.000000	99.247730 
2337.000000	99.253379 
2336.000000	99.254993 
2335.000000	99.250826 
2334.000000	99.244768 
2333.000000	99.242836 
2332.000000	99.246786 
2331.000000	99.252084 
2330.000000	99.253520 
2329.000000	99.250368 
2328.000000	99.247527 
2327.000000	99.248047 
2326.000000	99.250443 
2325.000000	99.250935 
2324.000000	99.247785 
2323.000000	99.244266 
2322.000000	99.244835 
2321.000000	99.250736 
2320.000000	99.256396 
2319.000000	99.255056 
2318.000000	99.246148 
2317.000000	99.236278 
2316.000000	99.232100 
2315.000000	99.234063 
2314.000000	99.238513 
2313.000000	99.242735 
2312.000000	99.246751 
2311.000000	99.250029 
2310.000000	99.250311 
2309.000000	99.246039 
2308.000000	99.239215 
2307.000000	99.234238 
2306.000000	99.233981 
2305.000000	99.237459 
2304.000000	99.241202 
2303.000000	99.243040 
2302.000000	99.243792 
2301.000000	99.245683 
2300.000000	99.249945 
2299.000000	99.256249 
2298.000000	99.263354 
2297.000000	99.268745 
2296.000000	99.269405 
2295.000000	99.264396 
2294.000000	99.257110 
2293.000000	99.252930 
2292.000000	99.254591 
2291.000000	99.260341 
2290.000000	99.266426 
2289.000000	99.270158 
2288.000000	99.270730 
2287.000000	99.268707 
2286.000000	99.265095 
2285.000000	99.260393 
2284.000000	99.254644 
2283.000000	99.249349 
2282.000000	99.248020 
2281.000000	99.252740 
2280.000000	99.260495 
2279.000000	99.265746 
2278.000000	99.266802 
2277.000000	99.267145 
2276.000000	99.269775 
2275.000000	99.272854 
2274.000000	99.272417 
2273.000000	99.267194 
2272.000000	99.259300 
2271.000000	99.252101 
2270.000000	99.249248 
2269.000000	99.253637 
2268.000000	99.264395 
2267.000000	99.275800 
2266.000000	99.281845 
2265.000000	99.281727 
2264.000000	99.278963 
2263.000000	99.275718 
2262.000000	99.270970 
2261.000000	99.264495 
2260.000000	99.259412 
2259.000000	99.259087 
2258.000000	99.263356 
2257.000000	99.269802 
2256.000000	99.277285 
2255.000000	99.285995 
2254.000000	99.294701 
2253.000000	99.300788 
2252.000000	99.303677 
2251.000000	99.305861 
2250.000000	99.309458 
2249.000000	99.313143 
2248.000000	99.314073 
2247.000000	99.311542 
2246.000000	99.307141 
2245.000000	99.302439 
2244.000000	99.298103 
2243.000000	99.294740 
2242.000000	99.292736 
2241.000000	99.291847 
2240.000000	99.292976 
2239.000000	99.299570 
2238.000000	99.313659 
2237.000000	99.329623 
2236.000000	99.335669 
2235.000000	99.324796 
2234.000000	99.303176 
2233.000000	99.285266 
2232.000000	99.280751 
2231.000000	99.287452 
2230.000000	99.295893 
2229.000000	99.298656 
2228.000000	99.295634 
2227.000000	99.292213 
2226.000000	99.293330 
2225.000000	99.299163 
2224.000000	99.306442 
2223.000000	99.312924 
2222.000000	99.318208 
2221.000000	99.320032 
2220.000000	99.313936 
2219.000000	99.300067 
2218.000000	99.287931 
2217.000000	99.289240 
2216.000000	99.305268 
2215.000000	99.324988 
2214.000000	99.336731 
2213.000000	99.338520 
2212.000000	99.335919 
2211.000000	99.333845 
2210.000000	99.334062 
2209.000000	99.337803 
2208.000000	99.345173 
2207.000000	99.351477 
2206.000000	99.349048 
2205.000000	99.336179 
2204.000000	99.322301 
2203.000000	99.320584 
2202.000000	99.334835 
2201.000000	99.355230 
2200.000000	99.367586 
2199.000000	99.365959 
2198.000000	99.355902 
2197.000000	99.347303 
2196.000000	99.345821 
2195.000000	99.350847 
2194.000000	99.359159 
2193.000000	99.367917 
2192.000000	99.374365 
2191.000000	99.375879 
2190.000000	99.373151 
2189.000000	99.372014 
2188.000000	99.377677 
2187.000000	99.385947 
2186.000000	99.384643 
2185.000000	99.367714 
2184.000000	99.345101 
2183.000000	99.333163 
2182.000000	99.336496 
2181.000000	99.345005 
2180.000000	99.349118 
2179.000000	99.351041 
2178.000000	99.358180 
2177.000000	99.371484 
2176.000000	99.384664 
2175.000000	99.391358 
2174.000000	99.389274 
2173.000000	99.380661 
2172.000000	99.372837 
2171.000000	99.375066 
2170.000000	99.389902 
2169.000000	99.408899 
2168.000000	99.420933 
2167.000000	99.423386 
2166.000000	99.421525 
2165.000000	99.420159 
2164.000000	99.422000 
2163.000000	99.431707 
2162.000000	99.452332 
2161.000000	99.475555 
2160.000000	99.483441 
2159.000000	99.465622 
2158.000000	99.430531 
2157.000000	99.395112 
2156.000000	99.368810 
2155.000000	99.352735 
2154.000000	99.347750 
2153.000000	99.355292 
2152.000000	99.371786 
2151.000000	99.387807 
2150.000000	99.395104 
2149.000000	99.394112 
2148.000000	99.393581 
2147.000000	99.401237 
2146.000000	99.414291 
2145.000000	99.420739 
2144.000000	99.411614 
2143.000000	99.390581 
2142.000000	99.369758 
2141.000000	99.357762 
2140.000000	99.354046 
2139.000000	99.353706 
2138.000000	99.354219 
2137.000000	99.356244 
2136.000000	99.360084 
2135.000000	99.363435 
2134.000000	99.363197 
2133.000000	99.359499 
2132.000000	99.356731 
2131.000000	99.358437 
2130.000000	99.361375 
2129.000000	99.357693 
2128.000000	99.344415 
2127.000000	99.327925 
2126.000000	99.316851 
2125.000000	99.313337 
2124.000000	99.314394 
2123.000000	99.318999 
2122.000000	99.328538 
2121.000000	99.340961 
2120.000000	99.350184 
2119.000000	99.352935 
2118.000000	99.352265 
2117.000000	99.352514 
2116.000000	99.353857 
2115.000000	99.353773 
2114.000000	99.351483 
2113.000000	99.348671 
2112.000000	99.347103 
2111.000000	99.347204 
2110.000000	99.348211 
2109.000000	99.348625 
2108.000000	99.346920 
2107.000000	99.342163 
2106.000000	99.333755 
2105.000000	99.321881 
2104.000000	99.309781 
2103.000000	99.303962 
2102.000000	99.308767 
2101.000000	99.320491 
2100.000000	99.329890 
2099.000000	99.331247 
2098.000000	99.326799 
2097.000000	99.322498 
2096.000000	99.322593 
2095.000000	99.328631 
2094.000000	99.339781 
2093.000000	99.352056 
2092.000000	99.360063 
2091.000000	99.361824 
2090.000000	99.360599 
2089.000000	99.360709 
2088.000000	99.362476 
2087.000000	99.361948 
2086.000000	99.354845 
2085.000000	99.341285 
2084.000000	99.328367 
2083.000000	99.327079 
2082.000000	99.343214 
2081.000000	99.370292 
2080.000000	99.394202 
2079.000000	99.406099 
2078.000000	99.408667 
2077.000000	99.409858 
2076.000000	99.413721 
2075.000000	99.418096 
2074.000000	99.418095 
2073.000000	99.410343 
2072.000000	99.396368 
2071.000000	99.382898 
2070.000000	99.376478 
2069.000000	99.376847 
2068.000000	99.377841 
2067.000000	99.375393 
2066.000000	99.371903 
2065.000000	99.372419 
2064.000000	99.379772 
2063.000000	99.393893 
2062.000000	99.411459 
2061.000000	99.424804 
2060.000000	99.426459 
2059.000000	99.417853 
2058.000000	99.409790 
2057.000000	99.411360 
2056.000000	99.421142 
2055.000000	99.431521 
2054.000000	99.438113 
2053.000000	99.441827 
2052.000000	99.444806 
2051.000000	99.448346 
2050.000000	99.453430 
2049.000000	99.460102 
2048.000000	99.467069 
2047.000000	99.473900 
2046.000000	99.481747 
2045.000000	99.489705 
2044.000000	99.492923 
2043.000000	99.487487 
2042.000000	99.476146 
2041.000000	99.466828 
2040.000000	99.465540 
2039.000000	99.471846 
2038.000000	99.480481 
2037.000000	99.486152 
2036.000000	99.487492 
2035.000000	99.486517 
2034.000000	99.484119 
2033.000000	99.479105 
2032.000000	99.474490 
2031.000000	99.480267 
2030.000000	99.502799 
2029.000000	99.532403 
2028.000000	99.549198 
2027.000000	99.542795 
2026.000000	99.520357 
2025.000000	99.495854 
2024.000000	99.478728 
2023.000000	99.473548 
2022.000000	99.481409 
2021.000000	99.496380 
2020.000000	99.507244 
2019.000000	99.508356 
2018.000000	99.504643 
2017.000000	99.502672 
2016.000000	99.502061 
2015.000000	99.499783 
2014.000000	99.496841 
2013.000000	99.494974 
2012.000000	99.491954 
2011.000000	99.486180 
2010.000000	99.482497 
2009.000000	99.487535 
2008.000000	99.501007 
2007.000000	99.516370 
2006.000000	99.528109 
2005.000000	99.534137 
2004.000000	99.533608 
2003.000000	99.526926 
2002.000000	99.516493 
2001.000000	99.503966 
2000.000000	99.487861 
1999.000000	99.466506 
1998.000000	99.442272 
1997.000000	99.421017 
1996.000000	99.408764 
1995.000000	99.409910 
1994.000000	99.425291 
1993.000000	99.448352 
1992.000000	99.465998 
1991.000000	99.468535 
1990.000000	99.457914 
1989.000000	99.443813 
1988.000000	99.435042 
1987.000000	99.436711 
1986.000000	99.450841 
1985.000000	99.474573 
1984.000000	99.499102 
1983.000000	99.514425 
1982.000000	99.515857 
1981.000000	99.506223 
1980.000000	99.494238 
1979.000000	99.490686 
1978.000000	99.500504 
1977.000000	99.515042 
1976.000000	99.518027 
1975.000000	99.503882 
1974.000000	99.485002 
1973.000000	99.477105 
1972.000000	99.482288 
1971.000000	99.491467 
1970.000000	99.498928 
1969.000000	99.506947 
1968.000000	99.517169 
1967.000000	99.524594 
1966.000000	99.523358 
1965.000000	99.514705 
1964.000000	99.505780 
1963.000000	99.502339 
1962.000000	99.504673 
1961.000000	99.509263 
1960.000000	99.512394 
1959.000000	99.511494 
1958.000000	99.504231 
1957.000000	99.489208 
1956.000000	99.468591 
1955.000000	99.447504 
1954.000000	99.428721 
1953.000000	99.410146 
1952.000000	99.390794 
1951.000000	99.377170 
1950.000000	99.378200 
1949.000000	99.393433 
1948.000000	99.411571 
1947.000000	99.422273 
1946.000000	99.424241 
1945.000000	99.420182 
1944.000000	99.410086 
1943.000000	99.393956 
1942.000000	99.376723 
1941.000000	99.364041 
1940.000000	99.356089 
1939.000000	99.350558 
1938.000000	99.348384 
1937.000000	99.352253 
1936.000000	99.361266 
1935.000000	99.370512 
1934.000000	99.375204 
1933.000000	99.373247 
1932.000000	99.365880 
1931.000000	99.358600 
1930.000000	99.359193 
1929.000000	99.370542 
1928.000000	99.385883 
1927.000000	99.394383 
1926.000000	99.390367 
1925.000000	99.375111 
1924.000000	99.353230 
1923.000000	99.331842 
1922.000000	99.320368 
1921.000000	99.324430 
1920.000000	99.339785 
1919.000000	99.354878 
1918.000000	99.359702 
1917.000000	99.353056 
1916.000000	99.341350 
1915.000000	99.332255 
1914.000000	99.330975 
1913.000000	99.338135 
1912.000000	99.348176 
1911.000000	99.352579 
1910.000000	99.346920 
1909.000000	99.334388 
1908.000000	99.322298 
1907.000000	99.316553 
1906.000000	99.319085 
1905.000000	99.326721 
1904.000000	99.331444 
1903.000000	99.325262 
1902.000000	99.307204 
1901.000000	99.285311 
1900.000000	99.270810 
1899.000000	99.269640 
1898.000000	99.278598 
1897.000000	99.288191 
1896.000000	99.290230 
1895.000000	99.285031 
1894.000000	99.280717 
1893.000000	99.283903 
1892.000000	99.292621 
1891.000000	99.299353 
1890.000000	99.299123 
1889.000000	99.293577 
1888.000000	99.287640 
1887.000000	99.284507 
1886.000000	99.284494 
1885.000000	99.285760 
1884.000000	99.285237 
1883.000000	99.280935 
1882.000000	99.274103 
1881.000000	99.268349 
1880.000000	99.266298 
1879.000000	99.267165 
1878.000000	99.267246 
1877.000000	99.262847 
1876.000000	99.254066 
1875.000000	99.246316 
1874.000000	99.246539 
1873.000000	99.256043 
1872.000000	99.268026 
1871.000000	99.273501 
1870.000000	99.269121 
1869.000000	99.259091 
1868.000000	99.248720 
1867.000000	99.238470 
1866.000000	99.227080 
1865.000000	99.216619 
1864.000000	99.212001 
1863.000000	99.216711 
1862.000000	99.228975 
1861.000000	99.242061 
1860.000000	99.249625 
1859.000000	99.251485 
1858.000000	99.252814 
1857.000000	99.257328 
1856.000000	99.263441 
1855.000000	99.267920 
1854.000000	99.270108 
1853.000000	99.270920 
1852.000000	99.270194 
1851.000000	99.267065 
1850.000000	99.262208 
1849.000000	99.257909 
1848.000000	99.255887 
1847.000000	99.256150 
1846.000000	99.257498 
1845.000000	99.257458 
1844.000000	99.253280 
1843.000000	99.246261 
1842.000000	99.241992 
1841.000000	99.244211 
1840.000000	99.251645 
1839.000000	99.260033 
1838.000000	99.265611 
1837.000000	99.267287 
1836.000000	99.266404 
1835.000000	99.265463 
1834.000000	99.266306 
1833.000000	99.268520 
1832.000000	99.269621 
1831.000000	99.267220 
1830.000000	99.262422 
1829.000000	99.259499 
1828.000000	99.260465 
1827.000000	99.262753 
1826.000000	99.262756 
1825.000000	99.260154 
1824.000000	99.257961 
1823.000000	99.258168 
1822.000000	99.259014 
1821.000000	99.256628 
1820.000000	99.249026 
1819.000000	99.239066 
1818.000000	99.232893 
1817.000000	99.234040 
1816.000000	99.239379 
1815.000000	99.242818 
1814.000000	99.241961 
1813.000000	99.239712 
1812.000000	99.240573 
1811.000000	99.246315 
1810.000000	99.255299 
1809.000000	99.264337 
1808.000000	99.270025 
1807.000000	99.270159 
1806.000000	99.265488 
1805.000000	99.259323 
1804.000000	99.254748 
1803.000000	99.252433 
1802.000000	99.251441 
1801.000000	99.251104 
1800.000000	99.250318 
1799.000000	99.247276 
1798.000000	99.241808 
1797.000000	99.236139 
1796.000000	99.233048 
1795.000000	99.233888 
1794.000000	99.237496 
1793.000000	99.240458 
1792.000000	99.240314 
1791.000000	99.238815 
1790.000000	99.239522 
1789.000000	99.243540 
1788.000000	99.249317 
1787.000000	99.254443 
1786.000000	99.256830 
1785.000000	99.255023 
1784.000000	99.249264 
1783.000000	99.242711 
1782.000000	99.239657 
1781.000000	99.241640 
1780.000000	99.245088 
1779.000000	99.245058 
1778.000000	99.241414 
1777.000000	99.238344 
1776.000000	99.239536 
1775.000000	99.245928 
1774.000000	99.256088 
1773.000000	99.266151 
1772.000000	99.270904 
1771.000000	99.269140 
1770.000000	99.264711 
1769.000000	99.260920 
1768.000000	99.258680 
1767.000000	99.257856 
1766.000000	99.258112 
1765.000000	99.258766 
1764.000000	99.258437 
1763.000000	99.256557 
1762.000000	99.255184 
1761.000000	99.257118 
1760.000000	99.261824 
1759.000000	99.266144 
1758.000000	99.268002 
1757.000000	99.267830 
1756.000000	99.267251 
1755.000000	99.266981 
1754.000000	99.266673 
1753.000000	99.266201 
1752.000000	99.266708 
1751.000000	99.270244 
1750.000000	99.276925 
1749.000000	99.283314 
1748.000000	99.285501 
1747.000000	99.282533 
1746.000000	99.276499 
1745.000000	99.270232 
1744.000000	99.265547 
1743.000000	99.263257 
1742.000000	99.263528 
1741.000000	99.265754 
1740.000000	99.268108 
1739.000000	99.268959 
1738.000000	99.268644 
1737.000000	99.267690 
1736.000000	99.264851 
1735.000000	99.257968 
1734.000000	99.248030 
1733.000000	99.241256 
1732.000000	99.241347 
1731.000000	99.244982 
1730.000000	99.247759 
1729.000000	99.248481 
1728.000000	99.248617 
1727.000000	99.249474 
1726.000000	99.250670 
1725.000000	99.250729 
1724.000000	99.249037 
1723.000000	99.247684 
1722.000000	99.249878 
1721.000000	99.255964 
1720.000000	99.262374 
1719.000000	99.264155 
1718.000000	99.259067 
1717.000000	99.250230 
1716.000000	99.241861 
1715.000000	99.235238 
1714.000000	99.230881 
1713.000000	99.228976 
1712.000000	99.227842 
1711.000000	99.225555 
1710.000000	99.222314 
1709.000000	99.219898 
1708.000000	99.218766 
1707.000000	99.217543 
1706.000000	99.216490 
1705.000000	99.217693 
1704.000000	99.219598 
1703.000000	99.217071 
1702.000000	99.207388 
1701.000000	99.194713 
1700.000000	99.186615 
1699.000000	99.184361 
1698.000000	99.183793 
1697.000000	99.182453 
1696.000000	99.180820 
1695.000000	99.179218 
1694.000000	99.177628 
1693.000000	99.175583 
1692.000000	99.171311 
1691.000000	99.165012 
1690.000000	99.158932 
1689.000000	99.154211 
1688.000000	99.148963 
1687.000000	99.140511 
1686.000000	99.129410 
1685.000000	99.119991 
1684.000000	99.116336 
1683.000000	99.116505 
1682.000000	99.115467 
1681.000000	99.111640 
1680.000000	99.107706 
1679.000000	99.106641 
1678.000000	99.108090 
1677.000000	99.109064 
1676.000000	99.107136 
1675.000000	99.102431 
1674.000000	99.097564 
1673.000000	99.095160 
1672.000000	99.095402 
1671.000000	99.097027 
1670.000000	99.097869 
1669.000000	99.095430 
1668.000000	99.090153 
1667.000000	99.084411 
1666.000000	99.078560 
1665.000000	99.071708 
1664.000000	99.064692 
1663.000000	99.060552 
1662.000000	99.061019 
1661.000000	99.063974 
1660.000000	99.066242 
1659.000000	99.066333 
1658.000000	99.064410 
1657.000000	99.059399 
1656.000000	99.049474 
1655.000000	99.034774 
1654.000000	99.023009 
1653.000000	99.019958 
1652.000000	99.019706 
1651.000000	99.020488 
1650.000000	99.020475 
1649.000000	99.014481 
1648.000000	99.003531 
1647.000000	98.993729 
1646.000000	98.989967 
1645.000000	98.992074 
1644.000000	98.997792 
1643.000000	99.004163 
1642.000000	99.008381 
1641.000000	99.009709 
1640.000000	99.008555 
1639.000000	99.005161 
1638.000000	98.999964 
1637.000000	98.995021 
1636.000000	98.993143 
1635.000000	98.994587 
1634.000000	98.998205 
1633.000000	99.002810 
1632.000000	99.006129 
1631.000000	99.006827 
1630.000000	99.005813 
1629.000000	99.004941 
1628.000000	99.005625 
1627.000000	99.007960 
1626.000000	99.011285 
1625.000000	99.015474 
1624.000000	99.020882 
1623.000000	99.027022 
1622.000000	99.032427 
1621.000000	99.036230 
1620.000000	99.038265 
1619.000000	99.038783 
1618.000000	99.039545 
1617.000000	99.042388 
1616.000000	99.046867 
1615.000000	99.051497 
1614.000000	99.054893 
1613.000000	99.056150 
1612.000000	99.056134 
1611.000000	99.056201 
1610.000000	99.056552 
1609.000000	99.057325 
1608.000000	99.059542 
1607.000000	99.063346 
1606.000000	99.067052 
1605.000000	99.070028 
1604.000000	99.074200 
1603.000000	99.081069 
1602.000000	99.088756 
1601.000000	99.093824 
1600.000000	99.095625 
1599.000000	99.096816 
1598.000000	99.099939 
1597.000000	99.105265 
1596.000000	99.111822 
1595.000000	99.118861 
1594.000000	99.125581 
1593.000000	99.130758 
1592.000000	99.133907 
1591.000000	99.136217 
1590.000000	99.139393 
1589.000000	99.143816 
1588.000000	99.148493 
1587.000000	99.152477 
1586.000000	99.155229 
1585.000000	99.156439 
1584.000000	99.156371 
1583.000000	99.155813 
1582.000000	99.156009 
1581.000000	99.158172 
1580.000000	99.162347 
1579.000000	99.166967 
1578.000000	99.170340 
1577.000000	99.172055 
1576.000000	99.173302 
1575.000000	99.177053 
1574.000000	99.184272 
1573.000000	99.190851 
1572.000000	99.192623 
1571.000000	99.190337 
1570.000000	99.188787 
1569.000000	99.191479 
1568.000000	99.196766 
1567.000000	99.200824 
1566.000000	99.201858 
1565.000000	99.200931 
1564.000000	99.200480 
1563.000000	99.200826 
1562.000000	99.200705 
1561.000000	99.199630 
1560.000000	99.198197 
1559.000000	99.197754 
1558.000000	99.198533 
1557.000000	99.201483 
1556.000000	99.206863 
1555.000000	99.211327 
1554.000000	99.212197 
1553.000000	99.210598 
1552.000000	99.209150 
1551.000000	99.209771 
1550.000000	99.213101 
1549.000000	99.217926 
1548.000000	99.221481 
1547.000000	99.221712 
1546.000000	99.217774 
1545.000000	99.210808 
1544.000000	99.204024 
1543.000000	99.200144 
1542.000000	99.200039 
1541.000000	99.202553 
1540.000000	99.202488 
1539.000000	99.197411 
1538.000000	99.194117 
1537.000000	99.196462 
1536.000000	99.200135 
1535.000000	99.201399 
1534.000000	99.200642 
1533.000000	99.199551 
1532.000000	99.197907 
1531.000000	99.195276 
1530.000000	99.193291 
1529.000000	99.193098 
1528.000000	99.193229 
1527.000000	99.192012 
1526.000000	99.190541 
1525.000000	99.190915 
1524.000000	99.192689 
1523.000000	99.194108 
1522.000000	99.196224 
1521.000000	99.200690 
1520.000000	99.204691 
1519.000000	99.204306 
1518.000000	99.199087 
1517.000000	99.192457 
1516.000000	99.188226 
1515.000000	99.186790 
1514.000000	99.187151 
1513.000000	99.189038 
1512.000000	99.191923 
1511.000000	99.194202 
1510.000000	99.194510 
1509.000000	99.193117 
1508.000000	99.193088 
1507.000000	99.197760 
1506.000000	99.201547 
1505.000000	99.199896 
1504.000000	99.198096 
1503.000000	99.197650 
1502.000000	99.196815 
1501.000000	99.196270 
1500.000000	99.196560 
1499.000000	99.196503 
1498.000000	99.194797 
1497.000000	99.193828 
1496.000000	99.196770 
1495.000000	99.202546 
1494.000000	99.207456 
1493.000000	99.209017 
1492.000000	99.206714 
1491.000000	99.201729 
1490.000000	99.196535 
1489.000000	99.192718 
1488.000000	99.188778 
1487.000000	99.183890 
1486.000000	99.180732 
1485.000000	99.181502 
1484.000000	99.185410 
1483.000000	99.189722 
1482.000000	99.191800 
1481.000000	99.190946 
1480.000000	99.188426 
1479.000000	99.185878 
1478.000000	99.183941 
1477.000000	99.182277 
1476.000000	99.180361 
1475.000000	99.178167 
1474.000000	99.176880 
1473.000000	99.178257 
1472.000000	99.180862 
1471.000000	99.180545 
1470.000000	99.176540 
1469.000000	99.171517 
1468.000000	99.167961 
1467.000000	99.167102 
1466.000000	99.169061 
1465.000000	99.172549 
1464.000000	99.174897 
1463.000000	99.174859 
1462.000000	99.174259 
1461.000000	99.174857 
1460.000000	99.175560 
1459.000000	99.173194 
1458.000000	99.165840 
1457.000000	99.156776 
1456.000000	99.151082 
1455.000000	99.149369 
1454.000000	99.149181 
1453.000000	99.148657 
1452.000000	99.147405 
1451.000000	99.145541 
1450.000000	99.143267 
1449.000000	99.141574 
1448.000000	99.141060 
1447.000000	99.140740 
1446.000000	99.139485 
1445.000000	99.137932 
1444.000000	99.136887 
1443.000000	99.135701 
1442.000000	99.133798 
1441.000000	99.132014 
1440.000000	99.131582 
1439.000000	99.132563 
1438.000000	99.133508 
1437.000000	99.132233 
1436.000000	99.127297 
1435.000000	99.119327 
1434.000000	99.111012 
1433.000000	99.105393 
1432.000000	99.104319 
1431.000000	99.107789 
1430.000000	99.113697 
1429.000000	99.119324 
1428.000000	99.122747 
1427.000000	99.123457 
1426.000000	99.122510 
1425.000000	99.122029 
1424.000000	99.123687 
1423.000000	99.126018 
1422.000000	99.125738 
1421.000000	99.122241 
1420.000000	99.118319 
1419.000000	99.116912 
1418.000000	99.117477 
1417.000000	99.117909 
1416.000000	99.118170 
1415.000000	99.118792 
1414.000000	99.119101 
1413.000000	99.118262 
1412.000000	99.116721 
1411.000000	99.115663 
1410.000000	99.115565 
1409.000000	99.116663 
1408.000000	99.119218 
1407.000000	99.122470 
1406.000000	99.125202 
1405.000000	99.128374 
1404.000000	99.134473 
1403.000000	99.142495 
1402.000000	99.148031 
1401.000000	99.148885 
1400.000000	99.147756 
1399.000000	99.149292 
1398.000000	99.154124 
1397.000000	99.158703 
1396.000000	99.160583 
1395.000000	99.160626 
1394.000000	99.160837 
1393.000000	99.162795 
1392.000000	99.168079 
1391.000000	99.176866 
1390.000000	99.187048 
1389.000000	99.195701 
1388.000000	99.200873 
1387.000000	99.202288 
1386.000000	99.200807 
1385.000000	99.198339 
1384.000000	99.197420 
1383.000000	99.199440 
1382.000000	99.203619 
1381.000000	99.208304 
1380.000000	99.212503 
1379.000000	99.215837 
1378.000000	99.217531 
1377.000000	99.216593 
1376.000000	99.213456 
1375.000000	99.210780 
1374.000000	99.211133 
1373.000000	99.213627 
1372.000000	99.215345 
1371.000000	99.215965 
1370.000000	99.217821 
1369.000000	99.221968 
1368.000000	99.227004 
1367.000000	99.231069 
1366.000000	99.233534 
1365.000000	99.234289 
1364.000000	99.232671 
1363.000000	99.229120 
1362.000000	99.226276 
1361.000000	99.225863 
1360.000000	99.226656 
1359.000000	99.227211 
1358.000000	99.228309 
1357.000000	99.231474 
1356.000000	99.236190 
1355.000000	99.240038 
1354.000000	99.241430 
1353.000000	99.240607 
1352.000000	99.237562 
1351.000000	99.231826 
1350.000000	99.224855 
1349.000000	99.219708 
1348.000000	99.218441 
1347.000000	99.220693 
1346.000000	99.224986 
1345.000000	99.229982 
1344.000000	99.234406 
1343.000000	99.237235 
1342.000000	99.238399 
1341.000000	99.238394 
1340.000000	99.237233 
1339.000000	99.234704 
1338.000000	99.231475 
1337.000000	99.228998 
1336.000000	99.227993 
1335.000000	99.227947 
1334.000000	99.228500 
1333.000000	99.230069 
1332.000000	99.232408 
1331.000000	99.233925 
1330.000000	99.233295 
1329.000000	99.230884 
1328.000000	99.227968 
1327.000000	99.225404 
1326.000000	99.223444 
1325.000000	99.221918 
1324.000000	99.220662 
1323.000000	99.219610 
1322.000000	99.218647 
1321.000000	99.217383 
1320.000000	99.215269 
1319.000000	99.212343 
1318.000000	99.209656 
1317.000000	99.208264 
1316.000000	99.207645 
1315.000000	99.206017 
1314.000000	99.202631 
1313.000000	99.199122 
1312.000000	99.197714 
1311.000000	99.198683 
1310.000000	99.200492 
1309.000000	99.201755 
1308.000000	99.201777 
1307.000000	99.199713 
1306.000000	99.194865 
1305.000000	99.188118 
1304.000000	99.182219 
1303.000000	99.179538 
1302.000000	99.179951 
1301.000000	99.181280 
1300.000000	99.181346 
1299.000000	99.179221 
1298.000000	99.175179 
1297.000000	99.170288 
1296.000000	99.165938 
1295.000000	99.163304 
1294.000000	99.162708 
1293.000000	99.163225 
1292.000000	99.162822 
1291.000000	99.159386 
1290.000000	99.152543 
1289.000000	99.144396 
1288.000000	99.137540 
1287.000000	99.132225 
1286.000000	99.126374 
1285.000000	99.118756 
1284.000000	99.110939 
1283.000000	99.105201 
1282.000000	99.101532 
1281.000000	99.097916 
1280.000000	99.093057 
1279.000000	99.087399 
1278.000000	99.081590 
1277.000000	99.075434 
1276.000000	99.068887 
1275.000000	99.063203 
1274.000000	99.060198 
1273.000000	99.060433 
1272.000000	99.062315 
1271.000000	99.062794 
1270.000000	99.059261 
1269.000000	99.051500 
1268.000000	99.041981 
1267.000000	99.033706 
1266.000000	99.027568 
1265.000000	99.022327 
1264.000000	99.016974 
1263.000000	99.011986 
1262.000000	99.008003 
1261.000000	99.004464 
1260.000000	99.000475 
1259.000000	98.996309 
1258.000000	98.992932 
1257.000000	98.990325 
1256.000000	98.987129 
1255.000000	98.982114 
1254.000000	98.975585 
1253.000000	98.969004 
1252.000000	98.963141 
1251.000000	98.956808 
1250.000000	98.947814 
1249.000000	98.935472 
1248.000000	98.921895 
1247.000000	98.910189 
1246.000000	98.901354 
1245.000000	98.893565 
1244.000000	98.884390 
1243.000000	98.872890 
1242.000000	98.859701 
1241.000000	98.846255 
1240.000000	98.834241 
1239.000000	98.824526 
1238.000000	98.815794 
1237.000000	98.805124 
1236.000000	98.790765 
1235.000000	98.773725 
1234.000000	98.756096 
1233.000000	98.738778 
1232.000000	98.721627 
1231.000000	98.704626 
1230.000000	98.687313 
1229.000000	98.667739 
1228.000000	98.643833 
1227.000000	98.616129 
1226.000000	98.587787 
1225.000000	98.561036 
1224.000000	98.534188 
1223.000000	98.502867 
1222.000000	98.464245 
1221.000000	98.419755 
1220.000000	98.373477 
1219.000000	98.327990 
1218.000000	98.282164 
1217.000000	98.233265 
1216.000000	98.180363 
1215.000000	98.124617 
1214.000000	98.067025 
1213.000000	98.007781 
1212.000000	97.947603 
1211.000000	97.887309 
1210.000000	97.825863 
1209.000000	97.761453 
1208.000000	97.695198 
1207.000000	97.630995 
1206.000000	97.570465 
1205.000000	97.510753 
1204.000000	97.448871 
1203.000000	97.385442 
1202.000000	97.322212 
1201.000000	97.258686 
1200.000000	97.193961 
1199.000000	97.129762 
1198.000000	97.068601 
1197.000000	97.010187 
1196.000000	96.951966 
1195.000000	96.891996 
1194.000000	96.829543 
1193.000000	96.764396 
1192.000000	96.697498 
1191.000000	96.630778 
1190.000000	96.564706 
1189.000000	96.497782 
1188.000000	96.429858 
1187.000000	96.363443 
1186.000000	96.299569 
1185.000000	96.234666 
1184.000000	96.164031 
1183.000000	96.086671 
1182.000000	96.004993 
1181.000000	95.921903 
1180.000000	95.840088 
1179.000000	95.761338 
1178.000000	95.683674 
1177.000000	95.601409 
1176.000000	95.510978 
1175.000000	95.415102 
1174.000000	95.318999 
1173.000000	95.224602 
1172.000000	95.130960 
1171.000000	95.037765 
1170.000000	94.945314 
1169.000000	94.852980 
1168.000000	94.760971 
1167.000000	94.672664 
1166.000000	94.593594 
1165.000000	94.530183 
1164.000000	94.490652 
1163.000000	94.483196 
1162.000000	94.509249 
1161.000000	94.559556 
1160.000000	94.618185 
1159.000000	94.668829 
1158.000000	94.697961 
1157.000000	94.696844 
1156.000000	94.663994 
1155.000000	94.604844 
1154.000000	94.527683 
1153.000000	94.440380 
1152.000000	94.350093 
1151.000000	94.262221 
1150.000000	94.177942 
1149.000000	94.095520 
1148.000000	94.014734 
1147.000000	93.936563 
1146.000000	93.858332 
1145.000000	93.774664 
1144.000000	93.685370 
1143.000000	93.597443 
1142.000000	93.516252 
1141.000000	93.438981 
1140.000000	93.359596 
1139.000000	93.275976 
1138.000000	93.189135 
1137.000000	93.099734 
1136.000000	93.008950 
1135.000000	92.919230 
1134.000000	92.830765 
1133.000000	92.740311 
1132.000000	92.646088 
1131.000000	92.550449 
1130.000000	92.455428 
1129.000000	92.359625 
1128.000000	92.261883 
1127.000000	92.163703 
1126.000000	92.065358 
1125.000000	91.964115 
1124.000000	91.859263 
1123.000000	91.754502 
1122.000000	91.652280 
1121.000000	91.550112 
1120.000000	91.445599 
1119.000000	91.340814 
1118.000000	91.238748 
1117.000000	91.139704 
1116.000000	91.043862 
1115.000000	90.952733 
1114.000000	90.865315 
1113.000000	90.777636 
1112.000000	90.688876 
1111.000000	90.603259 
1110.000000	90.523300 
1109.000000	90.446028 
1108.000000	90.368230 
1107.000000	90.290044 
1106.000000	90.211131 
1105.000000	90.128838 
1104.000000	90.042826 
1103.000000	89.956661 
1102.000000	89.872650 
1101.000000	89.790147 
1100.000000	89.709861 
1099.000000	89.633688 
1098.000000	89.559909 
1097.000000	89.484737 
1096.000000	89.409877 
1095.000000	89.341041 
1094.000000	89.278092 
1093.000000	89.214938 
1092.000000	89.150531 
1091.000000	89.090559 
1090.000000	89.035614 
1089.000000	88.977434 
1088.000000	88.911343 
1087.000000	88.844061 
1086.000000	88.784482 
1085.000000	88.733718 
1084.000000	88.688094 
1083.000000	88.644742 
1082.000000	88.600348 
1081.000000	88.551180 
1080.000000	88.498075 
1079.000000	88.445549 
1078.000000	88.393738 
1077.000000	88.337698 
1076.000000	88.275963 
1075.000000	88.211677 
1074.000000	88.143237 
1073.000000	88.062249 
1072.000000	87.963301 
1071.000000	87.847775 
1070.000000	87.716202 
1069.000000	87.565973 
1068.000000	87.399567 
1067.000000	87.226011 
1066.000000	87.050550 
1065.000000	86.871447 
1064.000000	86.690120 
1063.000000	86.514607 
1062.000000	86.348722 
1061.000000	86.187159 
1060.000000	86.025718 
1059.000000	85.867200 
1058.000000	85.713060 
1057.000000	85.558478 
1056.000000	85.399780 
1055.000000	85.237670 
1054.000000	85.069683 
1053.000000	84.889521 
1052.000000	84.698245 
1051.000000	84.505425 
1050.000000	84.314044 
1049.000000	84.116075 
1048.000000	83.907976 
1047.000000	83.696959 
1046.000000	83.486974 
1045.000000	83.272204 
1044.000000	83.049611 
1043.000000	82.825838 
1042.000000	82.606789 
1041.000000	82.391401 
1040.000000	82.180425 
1039.000000	81.980069 
1038.000000	81.792079 
1037.000000	81.611534 
1036.000000	81.439247 
1035.000000	81.284759 
1034.000000	81.152357 
1033.000000	81.035489 
1032.000000	80.929003 
1031.000000	80.835062 
1030.000000	80.753523 
1029.000000	80.679226 
1028.000000	80.612640 
1027.000000	80.560423 
1026.000000	80.521421 
1025.000000	80.484657 
1024.000000	80.444657 
1023.000000	80.405859 
1022.000000	80.368880 
1021.000000	80.326457 
1020.000000	80.277260 
1019.000000	80.229924 
1018.000000	80.188274 
1017.000000	80.145311 
1016.000000	80.096750 
1015.000000	80.048121 
1014.000000	80.003664 
1013.000000	79.960039 
1012.000000	79.915419 
1011.000000	79.873330 
1010.000000	79.834040 
1009.000000	79.794201 
1008.000000	79.758112 
1007.000000	79.736613 
1006.000000	79.731221 
1005.000000	79.731963 
1004.000000	79.734239 
1003.000000	79.744816 
1002.000000	79.767715 
1001.000000	79.797514 
1000.000000	79.830694 
999.000000	 79.870502 
998.000000	 79.916238 
997.000000	 79.960549 
996.000000	 80.002195 
995.000000	 80.049739 
994.000000	 80.107954 
993.000000	 80.171517 
992.000000	 80.235903 
991.000000	 80.303562 
990.000000	 80.376056 
989.000000	 80.451229 
988.000000	 80.531363 
987.000000	 80.623258 
986.000000	 80.727493 
985.000000	 80.838430 
984.000000	 80.956710 
983.000000	 81.090073 
982.000000	 81.239805 
981.000000	 81.398480 
980.000000	 81.563316 
979.000000	 81.739482 
978.000000	 81.927800 
977.000000	 82.121813 
976.000000	 82.320218 
975.000000	 82.529938 
974.000000	 82.752822 
973.000000	 82.980413 
972.000000	 83.205903 
971.000000	 83.431074 
970.000000	 83.657915 
969.000000	 83.883435 
968.000000	 84.106749 
967.000000	 84.331928 
966.000000	 84.559280 
965.000000	 84.781435 
964.000000	 84.991969 
963.000000	 85.191516 
962.000000	 85.382963 
961.000000	 85.567242 
960.000000	 85.746119 
959.000000	 85.922551 
958.000000	 86.095644 
957.000000	 86.260749 
956.000000	 86.416414 
955.000000	 86.566241 
954.000000	 86.712850 
953.000000	 86.854907 
952.000000	 86.990477 
951.000000	 87.118071 
950.000000	 87.234365 
949.000000	 87.336412 
948.000000	 87.426613 
947.000000	 87.510978 
946.000000	 87.592798 
945.000000	 87.672190 
944.000000	 87.749823 
943.000000	 87.825136 
942.000000	 87.892697 
941.000000	 87.947216 
940.000000	 87.991512 
939.000000	 88.033547 
938.000000	 88.077108 
937.000000	 88.121785 
936.000000	 88.169867 
935.000000	 88.224774 
934.000000	 88.283289 
933.000000	 88.337795 
932.000000	 88.386744 
931.000000	 88.435730 
930.000000	 88.488511 
929.000000	 88.544387 
928.000000	 88.603786 
927.000000	 88.667816 
926.000000	 88.731640 
925.000000	 88.786476 
924.000000	 88.829529 
923.000000	 88.865039 
922.000000	 88.895119 
921.000000	 88.917145 
920.000000	 88.931350 
919.000000	 88.943540 
918.000000	 88.958163 
917.000000	 88.974652 
916.000000	 88.992105 
915.000000	 89.012245 
914.000000	 89.037502 
913.000000	 89.071930 
912.000000	 89.123499 
911.000000	 89.198533 
910.000000	 89.293782 
909.000000	 89.400701 
908.000000	 89.516993 
907.000000	 89.646837 
906.000000	 89.791056 
905.000000	 89.945394 
904.000000	 90.108106 
903.000000	 90.281162 
902.000000	 90.463680 
901.000000	 90.651061 
900.000000	 90.840034 
899.000000	 91.027803 
898.000000	 91.207577 
897.000000	 91.372517 
896.000000	 91.523758 
895.000000	 91.668329 
894.000000	 91.810087 
893.000000	 91.948485 
892.000000	 92.084117 
891.000000	 92.218045 
890.000000	 92.346690 
889.000000	 92.464768 
888.000000	 92.573055 
887.000000	 92.676496 
886.000000	 92.775114 
885.000000	 92.864152 
884.000000	 92.944086 
883.000000	 93.023491 
882.000000	 93.109426 
881.000000	 93.199870 
880.000000	 93.287842 
879.000000	 93.369442 
878.000000	 93.446586 
877.000000	 93.524372 
876.000000	 93.605884 
875.000000	 93.687914 
874.000000	 93.763977 
873.000000	 93.834074 
872.000000	 93.907760 
871.000000	 93.993291 
870.000000	 94.086825 
869.000000	 94.177086 
868.000000	 94.257895 
867.000000	 94.331794 
866.000000	 94.404674 
865.000000	 94.481546 
864.000000	 94.564498 
863.000000	 94.649614 
862.000000	 94.728176 
861.000000	 94.795455 
860.000000	 94.855960 
859.000000	 94.916516 
858.000000	 94.978207 
857.000000	 95.039372 
856.000000	 95.101068 
855.000000	 95.162661 
854.000000	 95.216534 
853.000000	 95.255667 
852.000000	 95.283988 
851.000000	 95.311151 
850.000000	 95.338937 
849.000000	 95.361148 
848.000000	 95.375719 
847.000000	 95.387888 
846.000000	 95.400776 
845.000000	 95.411215 
844.000000	 95.416419 
843.000000	 95.416804 
842.000000	 95.409761 
841.000000	 95.388266 
840.000000	 95.349986 
839.000000	 95.302649 
838.000000	 95.256015 
837.000000	 95.211613 
836.000000	 95.163783 
835.000000	 95.108832 
834.000000	 95.051105 
833.000000	 95.000815 
832.000000	 94.965196 
831.000000	 94.940152 
830.000000	 94.914250 
829.000000	 94.886180 
828.000000	 94.873665 
827.000000	 94.894941 
826.000000	 94.943082 
825.000000	 94.991317 
824.000000	 95.024569 
823.000000	 95.051300 
822.000000	 95.081869 
821.000000	 95.111516 
820.000000	 95.130522 
819.000000	 95.137204 
818.000000	 95.133947 
817.000000	 95.119745 
816.000000	 95.092383 
815.000000	 95.051004 
814.000000	 94.991335 
813.000000	 94.904043 
812.000000	 94.782226 
811.000000	 94.624854 
810.000000	 94.428396 
809.000000	 94.181541 
808.000000	 93.874761 
807.000000	 93.510959 
806.000000	 93.102177 
805.000000	 92.662459 
804.000000	 92.211404 
803.000000	 91.778084 
802.000000	 91.391007 
801.000000	 91.067024 
800.000000	 90.815479 
799.000000	 90.645116 
798.000000	 90.559010 
797.000000	 90.549674 
796.000000	 90.605068 
795.000000	 90.711810 
794.000000	 90.849460 
793.000000	 90.992854 
792.000000	 91.125413 
791.000000	 91.241159 
790.000000	 91.330759 
789.000000	 91.378153 
788.000000	 91.377560 
787.000000	 91.341912 
786.000000	 91.284282 
785.000000	 91.199696 
784.000000	 91.076886 
783.000000	 90.921925 
782.000000	 90.758719 
781.000000	 90.610246 
780.000000	 90.489926 
779.000000	 90.407376 
778.000000	 90.370962 
777.000000	 90.385151 
776.000000	 90.451660 
775.000000	 90.569304 
774.000000	 90.726259 
773.000000	 90.897688 
772.000000	 91.059341 
771.000000	 91.201761 
770.000000	 91.326394 
769.000000	 91.431888 
768.000000	 91.511940 
767.000000	 91.565443 
766.000000	 91.601192 
765.000000	 91.630436 
764.000000	 91.658450 
763.000000	 91.683763 
762.000000	 91.702616 
761.000000	 91.714576 
760.000000	 91.726202 
759.000000	 91.747733 
758.000000	 91.783548 
757.000000	 91.828135 
756.000000	 91.874243 
755.000000	 91.921714 
754.000000	 91.974104 
753.000000	 92.029728 
752.000000	 92.082053 
751.000000	 92.128044 
750.000000	 92.170513 
749.000000	 92.211473 
748.000000	 92.248567 
747.000000	 92.281215 
746.000000	 92.316974 
745.000000	 92.367505 
744.000000	 92.438060 
743.000000	 92.523064 
742.000000	 92.612466 
741.000000	 92.700612 
740.000000	 92.787635 
739.000000	 92.874541 
738.000000	 92.960586 
737.000000	 93.045166 
736.000000	 93.128309 
735.000000	 93.208097 
734.000000	 93.281237 
733.000000	 93.347824 
732.000000	 93.411285 
731.000000	 93.470136 
730.000000	 93.514065 
729.000000	 93.534277 
728.000000	 93.535335 
727.000000	 93.531616 
726.000000	 93.533623 
725.000000	 93.542534 
724.000000	 93.557843 
723.000000	 93.583850 
722.000000	 93.625093 
721.000000	 93.678567 
720.000000	 93.733850 
719.000000	 93.781018 
718.000000	 93.817988 
717.000000	 93.850674 
716.000000	 93.886862 
715.000000	 93.928788 
714.000000	 93.970413 
713.000000	 94.002579 
712.000000	 94.020657 
711.000000	 94.026327 
710.000000	 94.022834 
709.000000	 94.011066 
708.000000	 93.990406 
707.000000	 93.961079 
706.000000	 93.925365 
705.000000	 93.886150 
704.000000	 93.842948 
703.000000	 93.788402 
702.000000	 93.708055 
701.000000	 93.585872 
700.000000	 93.412646 
699.000000	 93.190193 
698.000000	 92.932429 
697.000000	 92.666066 
696.000000	 92.428924 
695.000000	 92.261392 
694.000000	 92.190855 
693.000000	 92.220890 
692.000000	 92.331145 
691.000000	 92.483852 
690.000000	 92.638768 
689.000000	 92.771420 
688.000000	 92.880416 
687.000000	 92.976205 
686.000000	 93.062708 
685.000000	 93.134587 
684.000000	 93.189093 
683.000000	 93.231553 
682.000000	 93.270404 
681.000000	 93.313073 
680.000000	 93.365026 
679.000000	 93.424008 
678.000000	 93.475427 
677.000000	 93.505415 
676.000000	 93.518161 
675.000000	 93.530462 
674.000000	 93.551919 
673.000000	 93.576020 
672.000000	 93.589008 
671.000000	 93.583868 
670.000000	 93.564745 
669.000000	 93.550694 
668.000000	 93.574299 
667.000000	 93.639038 
666.000000	 93.719357 
665.000000	 93.808717 
664.000000	 93.891973 
663.000000	 93.942326 
662.000000	 93.950119 
661.000000	 93.943892 
660.000000	 93.957026 
659.000000	 93.982056 
658.000000	 93.980104 
657.000000	 93.933915 
656.000000	 93.867875 
655.000000	 93.815550 
654.000000	 93.788361 
653.000000	 93.772665 
652.000000	 93.745864 
651.000000	 93.699583 
650.000000	 93.655406 

