4000.000000	98.569763 
3999.000000	98.569267 
3998.000000	98.568298 
3997.000000	98.567017 
3996.000000	98.565445 
3995.000000	98.563541 
3994.000000	98.561541 
3993.000000	98.559861 
3992.000000	98.558622 
3991.000000	98.557590 
3990.000000	98.556612 
3989.000000	98.555767 
3988.000000	98.555048 
3987.000000	98.554290 
3986.000000	98.553530 
3985.000000	98.553114 
3984.000000	98.553247 
3983.000000	98.553525 
3982.000000	98.553195 
3981.000000	98.551888 
3980.000000	98.549925 
3979.000000	98.547991 
3978.000000	98.546535 
3977.000000	98.545556 
3976.000000	98.544810 
3975.000000	98.544177 
3974.000000	98.543807 
3973.000000	98.543889 
3972.000000	98.544272 
3971.000000	98.544382 
3970.000000	98.543774 
3969.000000	98.542609 
3968.000000	98.541441 
3967.000000	98.540622 
3966.000000	98.540009 
3965.000000	98.539234 
3964.000000	98.538083 
3963.000000	98.536656 
3962.000000	98.535309 
3961.000000	98.534458 
3960.000000	98.534262 
3959.000000	98.534444 
3958.000000	98.534590 
3957.000000	98.534530 
3956.000000	98.534344 
3955.000000	98.534105 
3954.000000	98.533760 
3953.000000	98.533219 
3952.000000	98.532330 
3951.000000	98.530920 
3950.000000	98.528970 
3949.000000	98.526728 
3948.000000	98.524642 
3947.000000	98.523197 
3946.000000	98.522627 
3945.000000	98.522551 
3944.000000	98.522085 
3943.000000	98.520719 
3942.000000	98.519024 
3941.000000	98.518186 
3940.000000	98.518724 
3939.000000	98.519816 
3938.000000	98.520317 
3937.000000	98.519905 
3936.000000	98.518854 
3935.000000	98.517265 
3934.000000	98.515157 
3933.000000	98.513295 
3932.000000	98.512695 
3931.000000	98.513272 
3930.000000	98.513738 
3929.000000	98.513056 
3928.000000	98.511666 
3927.000000	98.510615 
3926.000000	98.510013 
3925.000000	98.509163 
3924.000000	98.507862 
3923.000000	98.506555 
3922.000000	98.505179 
3921.000000	98.503301 
3920.000000	98.501461 
3919.000000	98.500838 
3918.000000	98.501569 
3917.000000	98.502493 
3916.000000	98.502806 
3915.000000	98.502816 
3914.000000	98.502852 
3913.000000	98.502556 
3912.000000	98.501734 
3911.000000	98.500559 
3910.000000	98.499189 
3909.000000	98.497578 
3908.000000	98.495653 
3907.000000	98.493592 
3906.000000	98.491646 
3905.000000	98.490039 
3904.000000	98.488917 
3903.000000	98.488349 
3902.000000	98.488165 
3901.000000	98.487962 
3900.000000	98.487482 
3899.000000	98.486831 
3898.000000	98.486147 
3897.000000	98.485437 
3896.000000	98.484695 
3895.000000	98.483933 
3894.000000	98.483146 
3893.000000	98.482330 
3892.000000	98.481489 
3891.000000	98.480636 
3890.000000	98.479788 
3889.000000	98.478966 
3888.000000	98.478180 
3887.000000	98.477423 
3886.000000	98.476687 
3885.000000	98.475972 
3884.000000	98.475284 
3883.000000	98.474623 
3882.000000	98.473975 
3881.000000	98.473328 
3880.000000	98.472685 
3879.000000	98.472051 
3878.000000	98.471429 
3877.000000	98.470803 
3876.000000	98.470155 
3875.000000	98.469482 
3874.000000	98.468804 
3873.000000	98.468155 
3872.000000	98.467557 
3871.000000	98.467009 
3870.000000	98.466505 
3869.000000	98.466049 
3868.000000	98.465655 
3867.000000	98.465320 
3866.000000	98.465021 
3865.000000	98.464742 
3864.000000	98.464482 
3863.000000	98.464237 
3862.000000	98.463980 
3861.000000	98.463691 
3860.000000	98.463368 
3859.000000	98.463026 
3858.000000	98.462685 
3857.000000	98.462365 
3856.000000	98.462097 
3855.000000	98.461906 
3854.000000	98.461795 
3853.000000	98.461744 
3852.000000	98.461758 
3851.000000	98.461864 
3850.000000	98.462055 
3849.000000	98.462293 
3848.000000	98.462536 
3847.000000	98.462757 
3846.000000	98.462946 
3845.000000	98.463104 
3844.000000	98.463239 
3843.000000	98.463350 
3842.000000	98.463440 
3841.000000	98.463519 
3840.000000	98.463607 
3839.000000	98.463717 
3838.000000	98.463845 
3837.000000	98.463979 
3836.000000	98.464119 
3835.000000	98.464272 
3834.000000	98.464452 
3833.000000	98.464663 
3832.000000	98.464896 
3831.000000	98.465136 
3830.000000	98.465363 
3829.000000	98.465567 
3828.000000	98.465743 
3827.000000	98.465891 
3826.000000	98.466012 
3825.000000	98.466113 
3824.000000	98.466214 
3823.000000	98.466326 
3822.000000	98.466445 
3821.000000	98.466564 
3820.000000	98.466692 
3819.000000	98.466852 
3818.000000	98.467046 
3817.000000	98.467250 
3816.000000	98.467442 
3815.000000	98.467623 
3814.000000	98.467801 
3813.000000	98.467964 
3812.000000	98.468082 
3811.000000	98.468146 
3810.000000	98.468169 
3809.000000	98.468158 
3808.000000	98.468109 
3807.000000	98.468028 
3806.000000	98.467939 
3805.000000	98.467877 
3804.000000	98.467853 
3803.000000	98.467854 
3802.000000	98.467861 
3801.000000	98.467870 
3800.000000	98.467893 
3799.000000	98.467930 
3798.000000	98.467957 
3797.000000	98.467941 
3796.000000	98.467873 
3795.000000	98.467757 
3794.000000	98.467603 
3793.000000	98.467407 
3792.000000	98.467159 
3791.000000	98.466844 
3790.000000	98.466454 
3789.000000	98.465990 
3788.000000	98.465463 
3787.000000	98.464905 
3786.000000	98.464313 
3785.000000	98.463649 
3784.000000	98.462874 
3783.000000	98.462058 
3782.000000	98.461359 
3781.000000	98.460822 
3780.000000	98.460273 
3779.000000	98.459480 
3778.000000	98.458490 
3777.000000	98.457575 
3776.000000	98.456621 
3775.000000	98.455237 
3774.000000	98.453460 
3773.000000	98.451812 
3772.000000	98.450565 
3771.000000	98.449326 
3770.000000	98.447661 
3769.000000	98.445991 
3768.000000	98.445451 
3767.000000	98.446078 
3766.000000	98.446010 
3765.000000	98.443858 
3764.000000	98.440849 
3763.000000	98.439261 
3762.000000	98.438594 
3761.000000	98.436381 
3760.000000	98.432765 
3759.000000	98.429527 
3758.000000	98.426211 
3757.000000	98.421411 
3756.000000	98.416130 
3755.000000	98.412048 
3754.000000	98.408156 
3753.000000	98.403830 
3752.000000	98.402214 
3751.000000	98.403242 
3750.000000	98.398694 
3749.000000	98.386614 
3748.000000	98.378730 
3747.000000	98.382378 
3746.000000	98.391668 
3745.000000	98.395417 
3744.000000	98.383233 
3743.000000	98.365981 
3742.000000	98.365657 
3741.000000	98.374091 
3740.000000	98.373798 
3739.000000	98.367955 
3738.000000	98.366397 
3737.000000	98.369272 
3736.000000	98.370029 
3735.000000	98.370059 
3734.000000	98.376263 
3733.000000	98.386271 
3732.000000	98.391228 
3731.000000	98.391395 
3730.000000	98.394637 
3729.000000	98.400842 
3728.000000	98.401258 
3727.000000	98.392511 
3726.000000	98.381303 
3725.000000	98.375933 
3724.000000	98.375895 
3723.000000	98.374847 
3722.000000	98.371123 
3721.000000	98.367824 
3720.000000	98.367237 
3719.000000	98.366067 
3718.000000	98.357902 
3717.000000	98.340715 
3716.000000	98.318438 
3715.000000	98.295314 
3714.000000	98.272475 
3713.000000	98.251588 
3712.000000	98.233873 
3711.000000	98.216430 
3710.000000	98.197911 
3709.000000	98.180375 
3708.000000	98.163381 
3707.000000	98.144109 
3706.000000	98.121217 
3705.000000	98.095286 
3704.000000	98.067347 
3703.000000	98.039324 
3702.000000	98.013325 
3701.000000	97.990680 
3700.000000	97.974074 
3699.000000	97.964712 
3698.000000	97.956679 
3697.000000	97.943451 
3696.000000	97.926707 
3695.000000	97.912634 
3694.000000	97.902506 
3693.000000	97.893402 
3692.000000	97.887104 
3691.000000	97.889691 
3690.000000	97.900688 
3689.000000	97.907969 
3688.000000	97.903874 
3687.000000	97.899851 
3686.000000	97.907294 
3685.000000	97.917392 
3684.000000	97.916931 
3683.000000	97.906088 
3682.000000	97.891527 
3681.000000	97.872657 
3680.000000	97.842410 
3679.000000	97.803208 
3678.000000	97.767092 
3677.000000	97.740892 
3676.000000	97.715744 
3675.000000	97.676450 
3674.000000	97.634721 
3673.000000	97.611283 
3672.000000	97.594125 
3671.000000	97.568206 
3670.000000	97.537285 
3669.000000	97.507322 
3668.000000	97.482928 
3667.000000	97.461481 
3666.000000	97.434401 
3665.000000	97.399710 
3664.000000	97.362290 
3663.000000	97.325119 
3662.000000	97.285325 
3661.000000	97.238970 
3660.000000	97.187259 
3659.000000	97.137410 
3658.000000	97.095495 
3657.000000	97.059231 
3656.000000	97.018444 
3655.000000	96.969822 
3654.000000	96.919346 
3653.000000	96.866674 
3652.000000	96.810510 
3651.000000	96.763736 
3650.000000	96.739603 
3649.000000	96.727699 
3648.000000	96.707470 
3647.000000	96.675979 
3646.000000	96.644282 
3645.000000	96.617845 
3644.000000	96.592857 
3643.000000	96.564134 
3642.000000	96.531246 
3641.000000	96.497010 
3640.000000	96.462111 
3639.000000	96.423795 
3638.000000	96.380308 
3637.000000	96.335395 
3636.000000	96.292620 
3635.000000	96.248453 
3634.000000	96.195736 
3633.000000	96.133103 
3632.000000	96.066813 
3631.000000	96.006776 
3630.000000	95.968243 
3629.000000	95.956089 
3628.000000	95.954590 
3627.000000	95.955120 
3626.000000	95.953599 
3625.000000	95.937627 
3624.000000	95.905861 
3623.000000	95.870484 
3622.000000	95.843501 
3621.000000	95.832122 
3620.000000	95.840441 
3619.000000	95.865244 
3618.000000	95.896364 
3617.000000	95.927966 
3616.000000	95.959831 
3615.000000	95.991985 
3614.000000	96.023410 
3613.000000	96.051937 
3612.000000	96.077310 
3611.000000	96.103806 
3610.000000	96.136885 
3609.000000	96.177716 
3608.000000	96.220427 
3607.000000	96.255768 
3606.000000	96.278880 
3605.000000	96.291607 
3604.000000	96.300370 
3603.000000	96.312627 
3602.000000	96.330585 
3601.000000	96.349603 
3600.000000	96.365005 
3599.000000	96.377479 
3598.000000	96.390213 
3597.000000	96.406083 
3596.000000	96.425552 
3595.000000	96.444785 
3594.000000	96.457231 
3593.000000	96.458895 
3592.000000	96.451556 
3591.000000	96.440860 
3590.000000	96.434239 
3589.000000	96.438341 
3588.000000	96.453222 
3587.000000	96.470263 
3586.000000	96.482669 
3585.000000	96.490431 
3584.000000	96.494024 
3583.000000	96.493056 
3582.000000	96.488342 
3581.000000	96.481236 
3580.000000	96.472653 
3579.000000	96.464064 
3578.000000	96.457356 
3577.000000	96.453360 
3576.000000	96.450676 
3575.000000	96.445782 
3574.000000	96.435498 
3573.000000	96.418932 
3572.000000	96.397658 
3571.000000	96.374477 
3570.000000	96.352750 
3569.000000	96.336494 
3568.000000	96.329260 
3567.000000	96.330288 
3566.000000	96.334524 
3565.000000	96.337815 
3564.000000	96.337894 
3563.000000	96.334411 
3562.000000	96.329627 
3561.000000	96.325396 
3560.000000	96.320274 
3559.000000	96.311396 
3558.000000	96.298281 
3557.000000	96.283501 
3556.000000	96.270539 
3555.000000	96.261276 
3554.000000	96.255110 
3553.000000	96.249902 
3552.000000	96.243510 
3551.000000	96.234856 
3550.000000	96.223670 
3549.000000	96.210451 
3548.000000	96.197827 
3547.000000	96.189982 
3546.000000	96.188590 
3545.000000	96.190642 
3544.000000	96.191414 
3543.000000	96.188310 
3542.000000	96.181623 
3541.000000	96.172935 
3540.000000	96.163867 
3539.000000	96.155574 
3538.000000	96.148627 
3537.000000	96.143103 
3536.000000	96.138517 
3535.000000	96.133990 
3534.000000	96.128563 
3533.000000	96.121881 
3532.000000	96.114582 
3531.000000	96.107860 
3530.000000	96.102268 
3529.000000	96.097065 
3528.000000	96.091150 
3527.000000	96.084529 
3526.000000	96.078467 
3525.000000	96.074131 
3524.000000	96.071555 
3523.000000	96.069771 
3522.000000	96.067761 
3521.000000	96.065291 
3520.000000	96.062872 
3519.000000	96.060884 
3518.000000	96.058823 
3517.000000	96.055599 
3516.000000	96.050445 
3515.000000	96.043538 
3514.000000	96.035927 
3513.000000	96.028977 
3512.000000	96.023740 
3511.000000	96.020602 
3510.000000	96.019030 
3509.000000	96.017505 
3508.000000	96.014288 
3507.000000	96.008611 
3506.000000	96.001130 
3505.000000	95.993564 
3504.000000	95.987750 
3503.000000	95.984451 
3502.000000	95.982952 
3501.000000	95.981578 
3500.000000	95.978662 
3499.000000	95.973483 
3498.000000	95.966725 
3497.000000	95.960094 
3496.000000	95.955049 
3495.000000	95.951690 
3494.000000	95.948976 
3493.000000	95.945961 
3492.000000	95.942486 
3491.000000	95.938762 
3490.000000	95.934710 
3489.000000	95.929927 
3488.000000	95.924193 
3487.000000	95.917777 
3486.000000	95.911141 
3485.000000	95.904393 
3484.000000	95.897141 
3483.000000	95.889061 
3482.000000	95.880609 
3481.000000	95.872961 
3480.000000	95.866942 
3479.000000	95.862065 
3478.000000	95.857015 
3477.000000	95.851087 
3476.000000	95.844781 
3475.000000	95.838823 
3474.000000	95.833131 
3473.000000	95.827167 
3472.000000	95.820818 
3471.000000	95.814293 
3470.000000	95.807362 
3469.000000	95.799268 
3468.000000	95.789657 
3467.000000	95.779412 
3466.000000	95.770301 
3465.000000	95.763578 
3464.000000	95.758817 
3463.000000	95.754133 
3462.000000	95.747658 
3461.000000	95.738857 
3460.000000	95.728702 
3459.000000	95.718849 
3458.000000	95.710617 
3457.000000	95.704213 
3456.000000	95.698351 
3455.000000	95.691075 
3454.000000	95.681427 
3453.000000	95.670345 
3452.000000	95.659754 
3451.000000	95.650706 
3450.000000	95.642635 
3449.000000	95.634342 
3448.000000	95.625311 
3447.000000	95.615849 
3446.000000	95.606536 
3445.000000	95.598016 
3444.000000	95.590924 
3443.000000	95.585218 
3442.000000	95.579454 
3441.000000	95.571459 
3440.000000	95.560455 
3439.000000	95.548081 
3438.000000	95.536831 
3437.000000	95.527705 
3436.000000	95.519904 
3435.000000	95.512702 
3434.000000	95.506434 
3433.000000	95.501420 
3432.000000	95.496842 
3431.000000	95.491221 
3430.000000	95.483581 
3429.000000	95.473925 
3428.000000	95.463152 
3427.000000	95.452687 
3426.000000	95.443865 
3425.000000	95.437284 
3424.000000	95.432734 
3423.000000	95.429677 
3422.000000	95.427562 
3421.000000	95.425729 
3420.000000	95.423328 
3419.000000	95.419680 
3418.000000	95.414724 
3417.000000	95.409093 
3416.000000	95.403620 
3415.000000	95.398542 
3414.000000	95.393034 
3413.000000	95.385797 
3412.000000	95.376567 
3411.000000	95.367095 
3410.000000	95.360301 
3409.000000	95.358135 
3408.000000	95.360034 
3407.000000	95.363187 
3406.000000	95.364522 
3405.000000	95.362664 
3404.000000	95.358137 
3403.000000	95.352158 
3402.000000	95.345778 
3401.000000	95.340063 
3400.000000	95.336019 
3399.000000	95.333638 
3398.000000	95.331575 
3397.000000	95.328628 
3396.000000	95.325522 
3395.000000	95.324527 
3394.000000	95.327139 
3393.000000	95.332396 
3392.000000	95.337511 
3391.000000	95.340139 
3390.000000	95.340135 
3389.000000	95.339283 
3388.000000	95.339480 
3387.000000	95.341147 
3386.000000	95.343344 
3385.000000	95.345217 
3384.000000	95.346873 
3383.000000	95.348782 
3382.000000	95.350839 
3381.000000	95.352336 
3380.000000	95.352577 
3379.000000	95.351357 
3378.000000	95.349248 
3377.000000	95.347526 
3376.000000	95.347300 
3375.000000	95.348446 
3374.000000	95.349751 
3373.000000	95.350310 
3372.000000	95.350474 
3371.000000	95.351387 
3370.000000	95.354082 
3369.000000	95.359077 
3368.000000	95.366048 
3367.000000	95.373494 
3366.000000	95.379367 
3365.000000	95.382786 
3364.000000	95.384817 
3363.000000	95.387165 
3362.000000	95.390445 
3361.000000	95.394183 
3360.000000	95.397976 
3359.000000	95.401794 
3358.000000	95.405322 
3357.000000	95.408035 
3356.000000	95.410314 
3355.000000	95.413759 
3354.000000	95.419619 
3353.000000	95.427100 
3352.000000	95.433737 
3351.000000	95.437807 
3350.000000	95.440165 
3349.000000	95.443365 
3348.000000	95.448940 
3347.000000	95.455910 
3346.000000	95.462050 
3345.000000	95.466262 
3344.000000	95.469244 
3343.000000	95.472197 
3342.000000	95.475582 
3341.000000	95.479277 
3340.000000	95.483251 
3339.000000	95.487657 
3338.000000	95.492560 
3337.000000	95.497896 
3336.000000	95.503508 
3335.000000	95.509026 
3334.000000	95.513996 
3333.000000	95.518405 
3332.000000	95.522886 
3331.000000	95.528109 
3330.000000	95.534076 
3329.000000	95.540205 
3328.000000	95.546003 
3327.000000	95.551435 
3326.000000	95.556707 
3325.000000	95.561954 
3324.000000	95.567171 
3323.000000	95.572299 
3322.000000	95.577272 
3321.000000	95.582055 
3320.000000	95.586675 
3319.000000	95.591270 
3318.000000	95.596067 
3317.000000	95.601258 
3316.000000	95.606889 
3315.000000	95.612808 
3314.000000	95.618753 
3313.000000	95.624474 
3312.000000	95.629798 
3311.000000	95.634671 
3310.000000	95.639238 
3309.000000	95.643826 
3308.000000	95.648731 
3307.000000	95.653954 
3306.000000	95.659264 
3305.000000	95.664517 
3304.000000	95.669803 
3303.000000	95.675273 
3302.000000	95.680919 
3301.000000	95.686589 
3300.000000	95.692135 
3299.000000	95.697489 
3298.000000	95.702678 
3297.000000	95.707804 
3296.000000	95.713004 
3295.000000	95.718344 
3294.000000	95.723774 
3293.000000	95.729199 
3292.000000	95.734601 
3291.000000	95.740050 
3290.000000	95.745590 
3289.000000	95.751178 
3288.000000	95.756741 
3287.000000	95.762245 
3286.000000	95.767704 
3285.000000	95.773153 
3284.000000	95.778625 
3283.000000	95.784136 
3282.000000	95.789675 
3281.000000	95.795198 
3280.000000	95.800654 
3279.000000	95.806035 
3278.000000	95.811436 
3277.000000	95.817024 
3276.000000	95.822893 
3275.000000	95.828953 
3274.000000	95.834975 
3273.000000	95.840814 
3272.000000	95.846512 
3271.000000	95.852239 
3270.000000	95.858128 
3269.000000	95.864196 
3268.000000	95.870379 
3267.000000	95.876579 
3266.000000	95.882686 
3265.000000	95.888618 
3264.000000	95.894415 
3263.000000	95.900239 
3262.000000	95.906268 
3261.000000	95.912562 
3260.000000	95.919066 
3259.000000	95.925666 
3258.000000	95.932234 
3257.000000	95.938639 
3256.000000	95.944812 
3255.000000	95.950839 
3254.000000	95.956952 
3253.000000	95.963378 
3252.000000	95.970176 
3251.000000	95.977193 
3250.000000	95.984142 
3249.000000	95.990780 
3248.000000	95.997071 
3247.000000	96.003264 
3246.000000	96.009774 
3245.000000	96.016835 
3244.000000	96.024287 
3243.000000	96.031667 
3242.000000	96.038629 
3241.000000	96.045211 
3240.000000	96.051733 
3239.000000	96.058509 
3238.000000	96.065688 
3237.000000	96.073313 
3236.000000	96.081334 
3235.000000	96.089537 
3234.000000	96.097537 
3233.000000	96.105034 
3232.000000	96.112028 
3231.000000	96.118788 
3230.000000	96.125638 
3229.000000	96.132753 
3228.000000	96.140172 
3227.000000	96.147908 
3226.000000	96.155938 
3225.000000	96.164109 
3224.000000	96.172128 
3223.000000	96.179723 
3222.000000	96.186841 
3221.000000	96.193727 
3220.000000	96.200734 
3219.000000	96.208035 
3218.000000	96.215543 
3217.000000	96.223068 
3216.000000	96.230503 
3215.000000	96.237854 
3214.000000	96.245163 
3213.000000	96.252468 
3212.000000	96.259852 
3211.000000	96.267439 
3210.000000	96.275295 
3209.000000	96.283320 
3208.000000	96.291283 
3207.000000	96.299007 
3206.000000	96.306498 
3205.000000	96.313895 
3204.000000	96.321278 
3203.000000	96.328598 
3202.000000	96.335818 
3201.000000	96.343073 
3200.000000	96.350597 
3199.000000	96.358508 
3198.000000	96.366681 
3197.000000	96.374831 
3196.000000	96.382721 
3195.000000	96.390248 
3194.000000	96.397429 
3193.000000	96.404374 
3192.000000	96.411252 
3191.000000	96.418205 
3190.000000	96.425270 
3189.000000	96.432410 
3188.000000	96.439643 
3187.000000	96.447118 
3186.000000	96.454995 
3185.000000	96.463249 
3184.000000	96.471579 
3183.000000	96.479555 
3182.000000	96.486956 
3181.000000	96.493949 
3180.000000	96.501014 
3179.000000	96.508561 
3178.000000	96.516605 
3177.000000	96.524773 
3176.000000	96.532631 
3175.000000	96.540054 
3174.000000	96.547256 
3173.000000	96.554531 
3172.000000	96.561994 
3171.000000	96.569564 
3170.000000	96.577146 
3169.000000	96.584739 
3168.000000	96.592310 
3167.000000	96.599669 
3166.000000	96.606591 
3165.000000	96.613107 
3164.000000	96.619615 
3163.000000	96.626612 
3162.000000	96.634299 
3161.000000	96.642418 
3160.000000	96.650389 
3159.000000	96.657734 
3158.000000	96.664386 
3157.000000	96.670663 
3156.000000	96.676998 
3155.000000	96.683623 
3154.000000	96.690478 
3153.000000	96.697346 
3152.000000	96.704020 
3151.000000	96.710440 
3150.000000	96.716736 
3149.000000	96.723144 
3148.000000	96.729819 
3147.000000	96.736723 
3146.000000	96.743693 
3145.000000	96.750585 
3144.000000	96.757326 
3143.000000	96.763858 
3142.000000	96.770178 
3141.000000	96.776453 
3140.000000	96.782973 
3139.000000	96.789822 
3138.000000	96.796652 
3137.000000	96.802979 
3136.000000	96.808700 
3135.000000	96.814256 
3134.000000	96.820178 
3133.000000	96.826581 
3132.000000	96.833146 
3131.000000	96.839478 
3130.000000	96.845427 
3129.000000	96.851103 
3128.000000	96.856727 
3127.000000	96.862485 
3126.000000	96.868447 
3125.000000	96.874552 
3124.000000	96.880708 
3123.000000	96.886920 
3122.000000	96.893248 
3121.000000	96.899615 
3120.000000	96.905780 
3119.000000	96.911616 
3118.000000	96.917334 
3117.000000	96.923266 
3116.000000	96.929481 
3115.000000	96.935729 
3114.000000	96.941736 
3113.000000	96.947439 
3112.000000	96.952938 
3111.000000	96.958367 
3110.000000	96.963867 
3109.000000	96.969574 
3108.000000	96.975538 
3107.000000	96.981694 
3106.000000	96.987908 
3105.000000	96.993966 
3104.000000	96.999634 
3103.000000	97.004886 
3102.000000	97.010079 
3101.000000	97.015718 
3100.000000	97.021902 
3099.000000	97.028089 
3098.000000	97.033591 
3097.000000	97.038214 
3096.000000	97.042343 
3095.000000	97.046532 
3094.000000	97.051143 
3093.000000	97.056296 
3092.000000	97.061883 
3091.000000	97.067588 
3090.000000	97.073048 
3089.000000	97.078121 
3088.000000	97.082931 
3087.000000	97.087693 
3086.000000	97.092563 
3085.000000	97.097631 
3084.000000	97.102892 
3083.000000	97.108169 
3082.000000	97.113168 
3081.000000	97.117734 
3080.000000	97.122018 
3079.000000	97.126386 
3078.000000	97.131147 
3077.000000	97.136346 
3076.000000	97.141717 
3075.000000	97.146846 
3074.000000	97.151485 
3073.000000	97.155741 
3072.000000	97.159957 
3071.000000	97.164387 
3070.000000	97.169015 
3069.000000	97.173687 
3068.000000	97.178294 
3067.000000	97.182801 
3066.000000	97.187178 
3065.000000	97.191399 
3064.000000	97.195514 
3063.000000	97.199668 
3062.000000	97.203997 
3061.000000	97.208518 
3060.000000	97.213113 
3059.000000	97.217632 
3058.000000	97.222031 
3057.000000	97.226370 
3056.000000	97.230669 
3055.000000	97.234833 
3054.000000	97.238778 
3053.000000	97.242614 
3052.000000	97.246645 
3051.000000	97.251118 
3050.000000	97.256040 
3049.000000	97.261217 
3048.000000	97.266413 
3047.000000	97.271414 
3046.000000	97.276027 
3045.000000	97.280214 
3044.000000	97.284207 
3043.000000	97.288307 
3042.000000	97.292625 
3041.000000	97.297148 
3040.000000	97.301842 
3039.000000	97.306430 
3038.000000	97.310324 
3037.000000	97.313232 
3036.000000	97.315790 
3035.000000	97.319130 
3034.000000	97.323725 
3033.000000	97.328963 
3032.000000	97.333825 
3031.000000	97.337815 
3030.000000	97.341241 
3029.000000	97.344913 
3028.000000	97.349496 
3027.000000	97.354838 
3026.000000	97.359968 
3025.000000	97.364086 
3024.000000	97.367482 
3023.000000	97.371058 
3022.000000	97.375054 
3021.000000	97.378883 
3020.000000	97.382305 
3019.000000	97.386067 
3018.000000	97.391058 
3017.000000	97.397267 
3016.000000	97.403817 
3015.000000	97.409739 
3014.000000	97.414609 
3013.000000	97.418819 
3012.000000	97.423274 
3011.000000	97.428382 
3010.000000	97.433347 
3009.000000	97.436964 
3008.000000	97.439111 
3007.000000	97.440958 
3006.000000	97.443616 
3005.000000	97.447069 
3004.000000	97.450467 
3003.000000	97.452907 
3002.000000	97.453874 
3001.000000	97.453616 
3000.000000	97.453327 
2999.000000	97.454359 
2998.000000	97.456921 
2997.000000	97.460011 
2996.000000	97.462836 
2995.000000	97.465768 
2994.000000	97.469487 
2993.000000	97.473643 
2992.000000	97.476989 
2991.000000	97.478745 
2990.000000	97.479402 
2989.000000	97.480217 
2988.000000	97.482199 
2987.000000	97.485480 
2986.000000	97.489344 
2985.000000	97.492732 
2984.000000	97.494867 
2983.000000	97.495616 
2982.000000	97.495453 
2981.000000	97.495177 
2980.000000	97.495500 
2979.000000	97.496718 
2978.000000	97.498608 
2977.000000	97.500588 
2976.000000	97.501970 
2975.000000	97.502235 
2974.000000	97.501362 
2973.000000	97.500058 
2972.000000	97.499429 
2971.000000	97.500160 
2970.000000	97.502057 
2969.000000	97.504362 
2968.000000	97.506331 
2967.000000	97.507476 
2966.000000	97.507584 
2965.000000	97.506985 
2964.000000	97.506756 
2963.000000	97.508033 
2962.000000	97.510822 
2961.000000	97.513738 
2960.000000	97.515167 
2959.000000	97.514567 
2958.000000	97.512671 
2957.000000	97.510827 
2956.000000	97.510193 
2955.000000	97.511150 
2954.000000	97.513241 
2953.000000	97.515864 
2952.000000	97.518991 
2951.000000	97.522795 
2950.000000	97.526602 
2949.000000	97.528973 
2948.000000	97.529222 
2947.000000	97.528410 
2946.000000	97.528366 
2945.000000	97.529945 
2944.000000	97.532591 
2943.000000	97.535293 
2942.000000	97.537439 
2941.000000	97.538781 
2940.000000	97.538997 
2939.000000	97.537546 
2938.000000	97.534076 
2937.000000	97.529151 
2936.000000	97.524489 
2935.000000	97.521973 
2934.000000	97.522112 
2933.000000	97.523607 
2932.000000	97.524567 
2931.000000	97.523997 
2930.000000	97.522042 
2929.000000	97.519306 
2928.000000	97.516500 
2927.000000	97.514672 
2926.000000	97.515158 
2925.000000	97.518812 
2924.000000	97.525171 
2923.000000	97.532566 
2922.000000	97.539282 
2921.000000	97.544688 
2920.000000	97.549069 
2919.000000	97.552662 
2918.000000	97.555564 
2917.000000	97.558696 
2916.000000	97.563883 
2915.000000	97.572058 
2914.000000	97.581782 
2913.000000	97.590502 
2912.000000	97.597370 
2911.000000	97.603834 
2910.000000	97.611221 
2909.000000	97.618785 
2908.000000	97.624721 
2907.000000	97.628347 
2906.000000	97.630601 
2905.000000	97.632871 
2904.000000	97.636116 
2903.000000	97.640941 
2902.000000	97.647601 
2901.000000	97.655645 
2900.000000	97.663830 
2899.000000	97.670913 
2898.000000	97.676394 
2897.000000	97.680515 
2896.000000	97.683767 
2895.000000	97.686323 
2894.000000	97.687969 
2893.000000	97.688602 
2892.000000	97.688786 
2891.000000	97.689654 
2890.000000	97.692083 
2889.000000	97.696073 
2888.000000	97.700935 
2887.000000	97.705867 
2886.000000	97.710268 
2885.000000	97.713781 
2884.000000	97.716377 
2883.000000	97.718488 
2882.000000	97.720923 
2881.000000	97.724383 
2880.000000	97.728783 
2879.000000	97.732906 
2878.000000	97.735083 
2877.000000	97.734684 
2876.000000	97.732977 
2875.000000	97.732178 
2874.000000	97.733461 
2873.000000	97.736165 
2872.000000	97.738967 
2871.000000	97.741262 
2870.000000	97.743114 
2869.000000	97.744423 
2868.000000	97.744883 
2867.000000	97.744752 
2866.000000	97.745072 
2865.000000	97.746739 
2864.000000	97.749507 
2863.000000	97.752092 
2862.000000	97.753301 
2861.000000	97.753059 
2860.000000	97.752392 
2859.000000	97.752441 
2858.000000	97.753470 
2857.000000	97.754886 
2856.000000	97.756089 
2855.000000	97.757033 
2854.000000	97.757888 
2853.000000	97.758504 
2852.000000	97.758729 
2851.000000	97.759293 
2850.000000	97.761845 
2849.000000	97.767646 
2848.000000	97.776213 
2847.000000	97.785375 
2846.000000	97.792873 
2845.000000	97.797873 
2844.000000	97.801007 
2843.000000	97.803483 
2842.000000	97.806471 
2841.000000	97.810868 
2840.000000	97.816866 
2839.000000	97.823510 
2838.000000	97.829172 
2837.000000	97.832873 
2836.000000	97.834929 
2835.000000	97.836240 
2834.000000	97.837340 
2833.000000	97.838451 
2832.000000	97.840044 
2831.000000	97.842668 
2830.000000	97.846220 
2829.000000	97.849899 
2828.000000	97.853020 
2827.000000	97.855599 
2826.000000	97.858076 
2825.000000	97.860774 
2824.000000	97.863728 
2823.000000	97.866769 
2822.000000	97.869645 
2821.000000	97.872204 
2820.000000	97.874536 
2819.000000	97.876881 
2818.000000	97.879413 
2817.000000	97.882199 
2816.000000	97.885224 
2815.000000	97.888278 
2814.000000	97.890970 
2813.000000	97.893118 
2812.000000	97.895119 
2811.000000	97.897661 
2810.000000	97.901061 
2809.000000	97.905025 
2808.000000	97.908978 
2807.000000	97.912378 
2806.000000	97.914812 
2805.000000	97.916088 
2804.000000	97.916285 
2803.000000	97.915623 
2802.000000	97.914405 
2801.000000	97.913264 
2800.000000	97.913249 
2799.000000	97.915132 
2798.000000	97.918575 
2797.000000	97.922244 
2796.000000	97.925007 
2795.000000	97.926782 
2794.000000	97.928135 
2793.000000	97.929469 
2792.000000	97.930834 
2791.000000	97.932172 
2790.000000	97.933362 
2789.000000	97.934150 
2788.000000	97.934452 
2787.000000	97.934734 
2786.000000	97.935815 
2785.000000	97.938146 
2784.000000	97.941376 
2783.000000	97.944640 
2782.000000	97.947299 
2781.000000	97.949342 
2780.000000	97.951107 
2779.000000	97.952756 
2778.000000	97.954170 
2777.000000	97.955337 
2776.000000	97.956561 
2775.000000	97.958134 
2774.000000	97.959948 
2773.000000	97.961658 
2772.000000	97.963116 
2771.000000	97.964396 
2770.000000	97.965467 
2769.000000	97.966173 
2768.000000	97.966561 
2767.000000	97.966963 
2766.000000	97.967626 
2765.000000	97.968467 
2764.000000	97.969312 
2763.000000	97.970222 
2762.000000	97.971463 
2761.000000	97.973194 
2760.000000	97.975255 
2759.000000	97.977218 
2758.000000	97.978734 
2757.000000	97.979858 
2756.000000	97.980984 
2755.000000	97.982331 
2754.000000	97.983615 
2753.000000	97.984463 
2752.000000	97.985016 
2751.000000	97.985852 
2750.000000	97.987277 
2749.000000	97.989001 
2748.000000	97.990563 
2747.000000	97.991876 
2746.000000	97.993148 
2745.000000	97.994485 
2744.000000	97.995811 
2743.000000	97.997075 
2742.000000	97.998321 
2741.000000	97.999607 
2740.000000	98.001011 
2739.000000	98.002656 
2738.000000	98.004532 
2737.000000	98.006315 
2736.000000	98.007585 
2735.000000	98.008244 
2734.000000	98.008621 
2733.000000	98.009155 
2732.000000	98.010001 
2731.000000	98.011039 
2730.000000	98.012124 
2729.000000	98.013257 
2728.000000	98.014539 
2727.000000	98.016003 
2726.000000	98.017475 
2725.000000	98.018645 
2724.000000	98.019398 
2723.000000	98.020073 
2722.000000	98.021209 
2721.000000	98.022937 
2720.000000	98.024819 
2719.000000	98.026426 
2718.000000	98.027933 
2717.000000	98.029818 
2716.000000	98.031923 
2715.000000	98.033242 
2714.000000	98.032985 
2713.000000	98.031667 
2712.000000	98.030885 
2711.000000	98.031928 
2710.000000	98.034648 
2709.000000	98.037522 
2708.000000	98.038863 
2707.000000	98.038172 
2706.000000	98.036432 
2705.000000	98.035062 
2704.000000	98.034734 
2703.000000	98.035303 
2702.000000	98.036573 
2701.000000	98.038593 
2700.000000	98.041138 
2699.000000	98.043367 
2698.000000	98.044378 
2697.000000	98.044026 
2696.000000	98.042991 
2695.000000	98.042069 
2694.000000	98.041546 
2693.000000	98.041247 
2692.000000	98.040989 
2691.000000	98.040790 
2690.000000	98.040634 
2689.000000	98.040173 
2688.000000	98.038934 
2687.000000	98.036976 
2686.000000	98.035173 
2685.000000	98.034486 
2684.000000	98.034871 
2683.000000	98.035329 
2682.000000	98.035310 
2681.000000	98.035654 
2680.000000	98.037619 
2679.000000	98.041201 
2678.000000	98.045102 
2677.000000	98.048337 
2676.000000	98.050942 
2675.000000	98.052814 
2674.000000	98.052932 
2673.000000	98.050687 
2672.000000	98.047348 
2671.000000	98.044962 
2670.000000	98.043786 
2669.000000	98.041878 
2668.000000	98.037448 
2667.000000	98.030473 
2666.000000	98.021583 
2665.000000	98.010469 
2664.000000	97.996337 
2663.000000	97.979431 
2662.000000	97.961332 
2661.000000	97.944019 
2660.000000	97.929245 
2659.000000	97.918428 
2658.000000	97.911984 
2657.000000	97.908536 
2656.000000	97.905540 
2655.000000	97.901218 
2654.000000	97.895664 
2653.000000	97.890035 
2652.000000	97.885213 
2651.000000	97.881450 
2650.000000	97.878658 
2649.000000	97.876531 
2648.000000	97.874595 
2647.000000	97.872434 
2646.000000	97.869728 
2645.000000	97.866144 
2644.000000	97.861727 
2643.000000	97.857584 
2642.000000	97.855517 
2641.000000	97.856415 
2640.000000	97.859351 
2639.000000	97.862696 
2638.000000	97.865666 
2637.000000	97.868167 
2636.000000	97.869625 
2635.000000	97.869109 
2634.000000	97.866593 
2633.000000	97.863098 
2632.000000	97.859386 
2631.000000	97.855594 
2630.000000	97.852573 
2629.000000	97.852262 
2628.000000	97.855508 
2627.000000	97.860171 
2626.000000	97.862899 
2625.000000	97.862936 
2624.000000	97.862892 
2623.000000	97.865416 
2622.000000	97.870324 
2621.000000	97.875501 
2620.000000	97.879509 
2619.000000	97.882361 
2618.000000	97.884546 
2617.000000	97.886553 
2616.000000	97.888967 
2615.000000	97.891760 
2614.000000	97.893655 
2613.000000	97.893512 
2612.000000	97.892455 
2611.000000	97.893309 
2610.000000	97.897336 
2609.000000	97.902646 
2608.000000	97.906545 
2607.000000	97.908591 
2606.000000	97.910308 
2605.000000	97.912567 
2604.000000	97.914618 
2603.000000	97.915666 
2602.000000	97.916150 
2601.000000	97.917012 
2600.000000	97.918518 
2599.000000	97.920397 
2598.000000	97.922629 
2597.000000	97.925396 
2596.000000	97.928454 
2595.000000	97.931114 
2594.000000	97.933035 
2593.000000	97.934752 
2592.000000	97.937205 
2591.000000	97.940797 
2590.000000	97.945051 
2589.000000	97.949043 
2588.000000	97.952128 
2587.000000	97.954355 
2586.000000	97.956267 
2585.000000	97.958409 
2584.000000	97.960947 
2583.000000	97.963665 
2582.000000	97.966256 
2581.000000	97.968572 
2580.000000	97.970608 
2579.000000	97.972428 
2578.000000	97.974234 
2577.000000	97.976367 
2576.000000	97.979020 
2575.000000	97.981942 
2574.000000	97.984622 
2573.000000	97.986891 
2572.000000	97.989126 
2571.000000	97.991705 
2570.000000	97.994452 
2569.000000	97.996848 
2568.000000	97.998684 
2567.000000	98.000270 
2566.000000	98.002039 
2565.000000	98.004109 
2564.000000	98.006274 
2563.000000	98.008237 
2562.000000	98.009832 
2561.000000	98.011145 
2560.000000	98.012488 
2559.000000	98.014154 
2558.000000	98.016153 
2557.000000	98.018247 
2556.000000	98.020209 
2555.000000	98.022031 
2554.000000	98.023856 
2553.000000	98.025796 
2552.000000	98.027819 
2551.000000	98.029771 
2550.000000	98.031487 
2549.000000	98.032922 
2548.000000	98.034187 
2547.000000	98.035488 
2546.000000	98.036963 
2545.000000	98.038599 
2544.000000	98.040289 
2543.000000	98.041935 
2542.000000	98.043493 
2541.000000	98.044964 
2540.000000	98.046397 
2539.000000	98.047872 
2538.000000	98.049436 
2537.000000	98.051031 
2536.000000	98.052527 
2535.000000	98.053849 
2534.000000	98.055041 
2533.000000	98.056233 
2532.000000	98.057547 
2531.000000	98.059022 
2530.000000	98.060586 
2529.000000	98.062073 
2528.000000	98.063348 
2527.000000	98.064433 
2526.000000	98.065473 
2525.000000	98.066555 
2524.000000	98.067596 
2523.000000	98.068483 
2522.000000	98.069256 
2521.000000	98.070096 
2520.000000	98.071155 
2519.000000	98.072460 
2518.000000	98.073903 
2517.000000	98.075321 
2516.000000	98.076592 
2515.000000	98.077698 
2514.000000	98.078762 
2513.000000	98.079931 
2512.000000	98.081159 
2511.000000	98.082152 
2510.000000	98.082653 
2509.000000	98.082792 
2508.000000	98.083069 
2507.000000	98.083884 
2506.000000	98.085138 
2505.000000	98.086285 
2504.000000	98.086803 
2503.000000	98.086638 
2502.000000	98.086231 
2501.000000	98.086146 
2500.000000	98.086651 
2499.000000	98.087557 
2498.000000	98.088460 
2497.000000	98.089179 
2496.000000	98.089934 
2495.000000	98.090972 
2494.000000	98.092017 
2493.000000	98.092334 
2492.000000	98.091495 
2491.000000	98.089992 
2490.000000	98.088834 
2489.000000	98.088571 
2488.000000	98.088966 
2487.000000	98.089529 
2486.000000	98.090032 
2485.000000	98.090332 
2484.000000	98.090122 
2483.000000	98.089455 
2482.000000	98.089379 
2481.000000	98.091229 
2480.000000	98.094811 
2479.000000	98.097936 
2478.000000	98.098674 
2477.000000	98.097781 
2476.000000	98.097944 
2475.000000	98.100263 
2474.000000	98.102434 
2473.000000	98.101351 
2472.000000	98.096915 
2471.000000	98.092460 
2470.000000	98.091310 
2469.000000	98.093404 
2468.000000	98.095575 
2467.000000	98.094813 
2466.000000	98.091095 
2465.000000	98.087281 
2464.000000	98.086172 
2463.000000	98.087389 
2462.000000	98.087318 
2461.000000	98.082651 
2460.000000	98.074097 
2459.000000	98.066195 
2458.000000	98.062981 
2457.000000	98.064283 
2456.000000	98.066390 
2455.000000	98.066029 
2454.000000	98.063458 
2453.000000	98.061698 
2452.000000	98.063275 
2451.000000	98.067776 
2450.000000	98.072184 
2449.000000	98.073548 
2448.000000	98.071659 
2447.000000	98.069197 
2446.000000	98.069180 
2445.000000	98.072371 
2444.000000	98.077205 
2443.000000	98.081938 
2442.000000	98.086477 
2441.000000	98.092013 
2440.000000	98.099204 
2439.000000	98.106981 
2438.000000	98.113104 
2437.000000	98.115925 
2436.000000	98.115687 
2435.000000	98.114298 
2434.000000	98.113913 
2433.000000	98.115633 
2432.000000	98.119311 
2431.000000	98.124132 
2430.000000	98.129216 
2429.000000	98.133979 
2428.000000	98.138302 
2427.000000	98.142319 
2426.000000	98.145899 
2425.000000	98.148444 
2424.000000	98.149500 
2423.000000	98.149502 
2422.000000	98.149614 
2421.000000	98.150798 
2420.000000	98.153312 
2419.000000	98.157119 
2418.000000	98.162274 
2417.000000	98.168523 
2416.000000	98.174789 
2415.000000	98.179488 
2414.000000	98.181585 
2413.000000	98.181270 
2412.000000	98.179883 
2411.000000	98.179445 
2410.000000	98.182030 
2409.000000	98.188922 
2408.000000	98.199431 
2407.000000	98.210479 
2406.000000	98.218471 
2405.000000	98.222237 
2404.000000	98.223786 
2403.000000	98.225936 
2402.000000	98.229395 
2401.000000	98.232699 
2400.000000	98.234582 
2399.000000	98.235372 
2398.000000	98.236011 
2397.000000	98.236788 
2396.000000	98.237711 
2395.000000	98.239337 
2394.000000	98.242196 
2393.000000	98.245587 
2392.000000	98.247926 
2391.000000	98.248657 
2390.000000	98.249053 
2389.000000	98.250674 
2388.000000	98.253546 
2387.000000	98.256670 
2386.000000	98.259850 
2385.000000	98.264158 
2384.000000	98.270902 
2383.000000	98.280666 
2382.000000	98.293195 
2381.000000	98.307590 
2380.000000	98.322316 
2379.000000	98.335518 
2378.000000	98.346016 
2377.000000	98.354115 
2376.000000	98.361172 
2375.000000	98.367995 
2374.000000	98.373754 
2373.000000	98.376552 
2372.000000	98.375295 
2371.000000	98.371367 
2370.000000	98.368303 
2369.000000	98.368950 
2368.000000	98.372881 
2367.000000	98.377038 
2366.000000	98.378884 
2365.000000	98.378287 
2364.000000	98.376111 
2363.000000	98.372469 
2362.000000	98.367425 
2361.000000	98.362563 
2360.000000	98.359573 
2359.000000	98.358479 
2358.000000	98.358162 
2357.000000	98.357810 
2356.000000	98.358188 
2355.000000	98.359879 
2354.000000	98.362540 
2353.000000	98.365661 
2352.000000	98.367222 
2351.000000	98.362773 
2350.000000	98.347629 
2349.000000	98.322766 
2348.000000	98.296026 
2347.000000	98.276878 
2346.000000	98.270609 
2345.000000	98.273789 
2344.000000	98.277578 
2343.000000	98.275439 
2342.000000	98.268148 
2341.000000	98.260139 
2340.000000	98.252574 
2339.000000	98.245054 
2338.000000	98.238068 
2337.000000	98.233008 
2336.000000	98.229674 
2335.000000	98.226188 
2334.000000	98.221022 
2333.000000	98.215015 
2332.000000	98.210514 
2331.000000	98.208527 
2330.000000	98.204898 
2329.000000	98.190439 
2328.000000	98.156032 
2327.000000	98.099689 
2326.000000	98.033063 
2325.000000	97.976944 
2324.000000	97.949340 
2323.000000	97.953650 
2322.000000	97.978492 
2321.000000	98.007319 
2320.000000	98.029564 
2319.000000	98.043410 
2318.000000	98.049751 
2317.000000	98.049962 
2316.000000	98.046683 
2315.000000	98.044556 
2314.000000	98.047004 
2313.000000	98.053398 
2312.000000	98.059949 
2311.000000	98.063054 
2310.000000	98.062035 
2309.000000	98.058386 
2308.000000	98.053907 
2307.000000	98.048598 
2306.000000	98.041364 
2305.000000	98.031473 
2304.000000	98.020070 
2303.000000	98.009224 
2302.000000	98.000293 
2301.000000	97.992812 
2300.000000	97.985075 
2299.000000	97.975150 
2298.000000	97.962090 
2297.000000	97.946349 
2296.000000	97.929494 
2295.000000	97.912257 
2294.000000	97.893566 
2293.000000	97.871489 
2292.000000	97.846177 
2291.000000	97.820532 
2290.000000	97.798148 
2289.000000	97.780430 
2288.000000	97.766598 
2287.000000	97.756078 
2286.000000	97.750352 
2285.000000	97.751580 
2284.000000	97.759422 
2283.000000	97.770360 
2282.000000	97.780801 
2281.000000	97.790009 
2280.000000	97.799678 
2279.000000	97.811728 
2278.000000	97.826865 
2277.000000	97.844711 
2276.000000	97.864374 
2275.000000	97.884389 
2274.000000	97.902496 
2273.000000	97.916702 
2272.000000	97.926457 
2271.000000	97.932221 
2270.000000	97.934643 
2269.000000	97.935037 
2268.000000	97.935906 
2267.000000	97.939354 
2266.000000	97.945027 
2265.000000	97.950723 
2264.000000	97.954669 
2263.000000	97.955873 
2262.000000	97.952868 
2261.000000	97.944550 
2260.000000	97.933445 
2259.000000	97.926347 
2258.000000	97.929807 
2257.000000	97.944840 
2256.000000	97.966187 
2255.000000	97.986138 
2254.000000	97.998733 
2253.000000	98.001745 
2252.000000	97.997063 
2251.000000	97.990036 
2250.000000	97.986678 
2249.000000	97.989152 
2248.000000	97.993993 
2247.000000	97.995980 
2246.000000	97.993851 
2245.000000	97.990880 
2244.000000	97.990114 
2243.000000	97.990988 
2242.000000	97.991525 
2241.000000	97.991788 
2240.000000	97.993482 
2239.000000	97.997222 
2238.000000	98.001872 
2237.000000	98.006244 
2236.000000	98.010155 
2235.000000	98.013612 
2234.000000	98.016001 
2233.000000	98.016750 
2232.000000	98.016287 
2231.000000	98.015671 
2230.000000	98.015571 
2229.000000	98.016088 
2228.000000	98.017145 
2227.000000	98.018336 
2226.000000	98.018838 
2225.000000	98.018601 
2224.000000	98.019238 
2223.000000	98.022147 
2222.000000	98.025867 
2221.000000	98.027320 
2220.000000	98.025736 
2219.000000	98.023477 
2218.000000	98.023103 
2217.000000	98.025296 
2216.000000	98.029521 
2215.000000	98.034358 
2214.000000	98.037257 
2213.000000	98.036789 
2212.000000	98.035724 
2211.000000	98.039355 
2210.000000	98.049141 
2209.000000	98.059310 
2208.000000	98.062138 
2207.000000	98.056194 
2206.000000	98.047404 
2205.000000	98.041944 
2204.000000	98.041031 
2203.000000	98.042651 
2202.000000	98.044657 
2201.000000	98.045176 
2200.000000	98.042881 
2199.000000	98.038233 
2198.000000	98.032359 
2197.000000	98.025534 
2196.000000	98.018415 
2195.000000	98.013350 
2194.000000	98.012485 
2193.000000	98.014887 
2192.000000	98.017233 
2191.000000	98.017266 
2190.000000	98.015073 
2189.000000	98.011338 
2188.000000	98.006445 
2187.000000	98.001860 
2186.000000	98.000902 
2185.000000	98.007312 
2184.000000	98.023396 
2183.000000	98.048980 
2182.000000	98.080176 
2181.000000	98.109004 
2180.000000	98.127138 
2179.000000	98.132260 
2178.000000	98.130300 
2177.000000	98.130354 
2176.000000	98.136605 
2175.000000	98.144992 
2174.000000	98.147489 
2173.000000	98.139137 
2172.000000	98.120977 
2171.000000	98.097232 
2170.000000	98.071366 
2169.000000	98.045833 
2168.000000	98.024658 
2167.000000	98.013486 
2166.000000	98.014140 
2165.000000	98.019107 
2164.000000	98.016789 
2163.000000	98.008722 
2162.000000	98.020670 
2161.000000	98.088247 
2160.000000	98.224436 
2159.000000	98.397732 
2158.000000	98.547997 
2157.000000	98.633824 
2156.000000	98.655942 
2155.000000	98.639278 
2154.000000	98.607281 
2153.000000	98.573311 
2152.000000	98.544376 
2151.000000	98.523461 
2150.000000	98.510118 
2149.000000	98.503852 
2148.000000	98.506254 
2147.000000	98.516776 
2146.000000	98.528080 
2145.000000	98.529901 
2144.000000	98.518175 
2143.000000	98.498067 
2142.000000	98.478655 
2141.000000	98.466931 
2140.000000	98.465679 
2139.000000	98.474177 
2138.000000	98.490517 
2137.000000	98.514343 
2136.000000	98.546208 
2135.000000	98.582200 
2134.000000	98.610971 
2133.000000	98.620350 
2132.000000	98.607477 
2131.000000	98.579971 
2130.000000	98.547777 
2129.000000	98.516154 
2128.000000	98.485696 
2127.000000	98.455985 
2126.000000	98.427919 
2125.000000	98.403458 
2124.000000	98.383592 
2123.000000	98.366433 
2122.000000	98.348090 
2121.000000	98.326249 
2120.000000	98.301951 
2119.000000	98.276927 
2118.000000	98.251082 
2117.000000	98.224385 
2116.000000	98.199764 
2115.000000	98.181599 
2114.000000	98.170370 
2113.000000	98.161581 
2112.000000	98.152691 
2111.000000	98.146625 
2110.000000	98.146800 
2109.000000	98.152686 
2108.000000	98.161374 
2107.000000	98.170327 
2106.000000	98.176963 
2105.000000	98.178389 
2104.000000	98.174111 
2103.000000	98.167515 
2102.000000	98.162754 
2101.000000	98.161081 
2100.000000	98.161764 
2099.000000	98.165759 
2098.000000	98.176897 
2097.000000	98.198762 
2096.000000	98.229552 
2095.000000	98.259781 
2094.000000	98.276480 
2093.000000	98.271719 
2092.000000	98.249301 
2091.000000	98.221341 
2090.000000	98.198234 
2089.000000	98.183629 
2088.000000	98.175717 
2087.000000	98.170719 
2086.000000	98.165321 
2085.000000	98.158000 
2084.000000	98.149438 
2083.000000	98.141380 
2082.000000	98.135136 
2081.000000	98.131524 
2080.000000	98.131404 
2079.000000	98.134917 
2078.000000	98.140428 
2077.000000	98.145532 
2076.000000	98.149195 
2075.000000	98.152022 
2074.000000	98.154615 
2073.000000	98.156993 
2072.000000	98.159349 
2071.000000	98.162029 
2070.000000	98.164680 
2069.000000	98.166307 
2068.000000	98.166506 
2067.000000	98.166087 
2066.000000	98.166472 
2065.000000	98.168850 
2064.000000	98.173566 
2063.000000	98.179609 
2062.000000	98.184839 
2061.000000	98.187461 
2060.000000	98.187399 
2059.000000	98.185925 
2058.000000	98.184541 
2057.000000	98.184727 
2056.000000	98.187230 
2055.000000	98.189618 
2054.000000	98.185778 
2053.000000	98.171447 
2052.000000	98.151779 
2051.000000	98.140401 
2050.000000	98.147132 
2049.000000	98.170019 
2048.000000	98.197332 
2047.000000	98.218138 
2046.000000	98.230013 
2045.000000	98.235705 
2044.000000	98.238314 
2043.000000	98.240071 
2042.000000	98.242451 
2041.000000	98.245556 
2040.000000	98.248077 
2039.000000	98.248974 
2038.000000	98.249316 
2037.000000	98.252563 
2036.000000	98.262760 
2035.000000	98.281084 
2034.000000	98.303120 
2033.000000	98.321001 
2032.000000	98.330616 
2031.000000	98.335477 
2030.000000	98.341929 
2029.000000	98.351827 
2028.000000	98.361767 
2027.000000	98.368385 
2026.000000	98.371708 
2025.000000	98.373799 
2024.000000	98.376743 
2023.000000	98.381716 
2022.000000	98.388271 
2021.000000	98.394135 
2020.000000	98.397432 
2019.000000	98.399307 
2018.000000	98.403185 
2017.000000	98.410727 
2016.000000	98.419549 
2015.000000	98.425394 
2014.000000	98.425365 
2013.000000	98.419319 
2012.000000	98.409655 
2011.000000	98.400613 
2010.000000	98.398100 
2009.000000	98.408980 
2008.000000	98.436634 
2007.000000	98.473782 
2006.000000	98.502373 
2005.000000	98.506679 
2004.000000	98.487391 
2003.000000	98.460298 
2002.000000	98.440542 
2001.000000	98.430757 
2000.000000	98.424988 
1999.000000	98.418262 
1998.000000	98.408572 
1997.000000	98.394758 
1996.000000	98.377373 
1995.000000	98.360834 
1994.000000	98.350683 
1993.000000	98.347930 
1992.000000	98.347401 
1991.000000	98.343176 
1990.000000	98.334387 
1989.000000	98.324153 
1988.000000	98.314479 
1987.000000	98.304319 
1986.000000	98.292553 
1985.000000	98.280118 
1984.000000	98.266367 
1983.000000	98.245445 
1982.000000	98.213546 
1981.000000	98.182859 
1980.000000	98.180995 
1979.000000	98.227930 
1978.000000	98.313932 
1977.000000	98.403414 
1976.000000	98.466357 
1975.000000	98.498898 
1974.000000	98.510798 
1973.000000	98.509587 
1972.000000	98.500862 
1971.000000	98.492344 
1970.000000	98.489392 
1969.000000	98.491167 
1968.000000	98.495923 
1967.000000	98.505634 
1966.000000	98.520644 
1965.000000	98.534416 
1964.000000	98.539966 
1963.000000	98.539021 
1962.000000	98.540552 
1961.000000	98.551222 
1960.000000	98.569425 
1959.000000	98.587144 
1958.000000	98.595390 
1957.000000	98.589637 
1956.000000	98.573076 
1955.000000	98.554540 
1954.000000	98.541818 
1953.000000	98.537480 
1952.000000	98.540047 
1951.000000	98.546031 
1950.000000	98.550178 
1949.000000	98.546605 
1948.000000	98.534199 
1947.000000	98.519340 
1946.000000	98.510196 
1945.000000	98.508994 
1944.000000	98.511515 
1943.000000	98.512590 
1942.000000	98.510185 
1941.000000	98.505381 
1940.000000	98.500302 
1939.000000	98.496086 
1938.000000	98.492613 
1937.000000	98.490062 
1936.000000	98.490247 
1935.000000	98.494542 
1934.000000	98.500167 
1933.000000	98.500800 
1932.000000	98.493184 
1931.000000	98.481635 
1930.000000	98.473440 
1929.000000	98.470829 
1928.000000	98.471227 
1927.000000	98.472113 
1926.000000	98.472923 
1925.000000	98.472711 
1924.000000	98.468371 
1923.000000	98.458572 
1922.000000	98.446067 
1921.000000	98.435229 
1920.000000	98.428054 
1919.000000	98.423754 
1918.000000	98.420400 
1917.000000	98.416441 
1916.000000	98.411879 
1915.000000	98.407729 
1914.000000	98.404539 
1913.000000	98.402058 
1912.000000	98.399370 
1911.000000	98.395445 
1910.000000	98.389953 
1909.000000	98.383659 
1908.000000	98.378259 
1907.000000	98.375056 
1906.000000	98.373797 
1905.000000	98.372760 
1904.000000	98.370055 
1903.000000	98.365901 
1902.000000	98.361848 
1901.000000	98.358303 
1900.000000	98.354427 
1899.000000	98.349564 
1898.000000	98.343714 
1897.000000	98.337422 
1896.000000	98.331461 
1895.000000	98.327151 
1894.000000	98.324780 
1893.000000	98.322335 
1892.000000	98.317645 
1891.000000	98.311635 
1890.000000	98.307561 
1889.000000	98.306666 
1888.000000	98.307096 
1887.000000	98.307222 
1886.000000	98.307010 
1885.000000	98.306898 
1884.000000	98.306696 
1883.000000	98.306094 
1882.000000	98.305121 
1881.000000	98.304000 
1880.000000	98.304330 
1879.000000	98.307785 
1878.000000	98.313082 
1877.000000	98.316615 
1876.000000	98.315690 
1875.000000	98.310951 
1874.000000	98.305448 
1873.000000	98.301105 
1872.000000	98.297314 
1871.000000	98.292649 
1870.000000	98.286703 
1869.000000	98.280488 
1868.000000	98.276409 
1867.000000	98.277349 
1866.000000	98.282952 
1865.000000	98.289483 
1864.000000	98.294720 
1863.000000	98.299992 
1862.000000	98.306920 
1861.000000	98.314417 
1860.000000	98.320603 
1859.000000	98.325660 
1858.000000	98.330410 
1857.000000	98.334483 
1856.000000	98.337838 
1855.000000	98.341713 
1854.000000	98.346142 
1853.000000	98.348353 
1852.000000	98.347950 
1851.000000	98.349252 
1850.000000	98.355062 
1849.000000	98.364328 
1848.000000	98.374187 
1847.000000	98.383225 
1846.000000	98.389886 
1845.000000	98.391476 
1844.000000	98.387282 
1843.000000	98.382339 
1842.000000	98.382162 
1841.000000	98.384785 
1840.000000	98.386133 
1839.000000	98.385850 
1838.000000	98.385877 
1837.000000	98.386975 
1836.000000	98.388159 
1835.000000	98.389770 
1834.000000	98.392255 
1833.000000	98.393730 
1832.000000	98.391896 
1831.000000	98.386786 
1830.000000	98.380775 
1829.000000	98.377415 
1828.000000	98.378223 
1827.000000	98.380976 
1826.000000	98.382446 
1825.000000	98.382140 
1824.000000	98.381779 
1823.000000	98.383211 
1822.000000	98.386554 
1821.000000	98.391106 
1820.000000	98.397864 
1819.000000	98.408607 
1818.000000	98.422869 
1817.000000	98.435357 
1816.000000	98.439287 
1815.000000	98.434125 
1814.000000	98.425144 
1813.000000	98.417479 
1812.000000	98.411841 
1811.000000	98.406241 
1810.000000	98.401293 
1809.000000	98.398363 
1808.000000	98.396580 
1807.000000	98.394821 
1806.000000	98.393197 
1805.000000	98.391474 
1804.000000	98.388650 
1803.000000	98.385795 
1802.000000	98.385297 
1801.000000	98.387183 
1800.000000	98.388263 
1799.000000	98.385732 
1798.000000	98.381883 
1797.000000	98.380047 
1796.000000	98.381119 
1795.000000	98.383811 
1794.000000	98.385922 
1793.000000	98.385517 
1792.000000	98.382129 
1791.000000	98.378228 
1790.000000	98.377918 
1789.000000	98.380798 
1788.000000	98.384260 
1787.000000	98.387603 
1786.000000	98.391348 
1785.000000	98.394257 
1784.000000	98.394623 
1783.000000	98.394240 
1782.000000	98.394641 
1781.000000	98.395875 
1780.000000	98.399673 
1779.000000	98.406760 
1778.000000	98.416178 
1777.000000	98.423592 
1776.000000	98.427053 
1775.000000	98.428475 
1774.000000	98.429589 
1773.000000	98.430610 
1772.000000	98.430701 
1771.000000	98.430564 
1770.000000	98.432777 
1769.000000	98.436401 
1768.000000	98.438240 
1767.000000	98.437003 
1766.000000	98.433946 
1765.000000	98.431369 
1764.000000	98.430672 
1763.000000	98.432134 
1762.000000	98.433423 
1761.000000	98.431553 
1760.000000	98.427471 
1759.000000	98.423441 
1758.000000	98.421695 
1757.000000	98.422388 
1756.000000	98.425504 
1755.000000	98.429262 
1754.000000	98.430102 
1753.000000	98.426186 
1752.000000	98.420789 
1751.000000	98.417476 
1750.000000	98.415852 
1749.000000	98.414084 
1748.000000	98.411289 
1747.000000	98.409285 
1746.000000	98.406940 
1745.000000	98.402749 
1744.000000	98.397676 
1743.000000	98.393116 
1742.000000	98.389922 
1741.000000	98.386550 
1740.000000	98.380048 
1739.000000	98.371270 
1738.000000	98.366255 
1737.000000	98.365107 
1736.000000	98.362674 
1735.000000	98.360346 
1734.000000	98.360588 
1733.000000	98.359998 
1732.000000	98.359813 
1731.000000	98.356579 
1730.000000	98.348141 
1729.000000	98.338261 
1728.000000	98.331551 
1727.000000	98.328974 
1726.000000	98.326481 
1725.000000	98.321116 
1724.000000	98.312300 
1723.000000	98.301712 
1722.000000	98.294570 
1721.000000	98.292193 
1720.000000	98.290984 
1719.000000	98.287986 
1718.000000	98.283809 
1717.000000	98.276729 
1716.000000	98.264043 
1715.000000	98.248802 
1714.000000	98.236010 
1713.000000	98.226294 
1712.000000	98.215946 
1711.000000	98.204574 
1710.000000	98.195472 
1709.000000	98.189315 
1708.000000	98.182758 
1707.000000	98.171684 
1706.000000	98.155770 
1705.000000	98.138784 
1704.000000	98.124962 
1703.000000	98.114636 
1702.000000	98.103678 
1701.000000	98.090557 
1700.000000	98.071669 
1699.000000	98.052417 
1698.000000	98.044058 
1697.000000	98.036480 
1696.000000	98.019868 
1695.000000	97.995860 
1694.000000	97.975349 
1693.000000	97.960015 
1692.000000	97.942214 
1691.000000	97.921518 
1690.000000	97.902501 
1689.000000	97.886755 
1688.000000	97.874434 
1687.000000	97.863306 
1686.000000	97.850480 
1685.000000	97.835750 
1684.000000	97.814676 
1683.000000	97.790694 
1682.000000	97.773257 
1681.000000	97.755487 
1680.000000	97.735517 
1679.000000	97.719092 
1678.000000	97.706662 
1677.000000	97.693356 
1676.000000	97.676999 
1675.000000	97.658842 
1674.000000	97.639664 
1673.000000	97.620711 
1672.000000	97.601503 
1671.000000	97.583172 
1670.000000	97.568527 
1669.000000	97.553556 
1668.000000	97.537461 
1667.000000	97.522539 
1666.000000	97.506475 
1665.000000	97.486831 
1664.000000	97.465786 
1663.000000	97.449255 
1662.000000	97.438139 
1661.000000	97.426601 
1660.000000	97.412145 
1659.000000	97.394410 
1658.000000	97.373664 
1657.000000	97.351311 
1656.000000	97.331447 
1655.000000	97.319314 
1654.000000	97.326689 
1653.000000	97.336863 
1652.000000	97.319073 
1651.000000	97.301660 
1650.000000	97.288366 
1649.000000	97.270488 
1648.000000	97.256849 
1647.000000	97.254469 
1646.000000	97.255708 
1645.000000	97.253651 
1644.000000	97.247552 
1643.000000	97.238908 
1642.000000	97.229849 
1641.000000	97.220706 
1640.000000	97.213104 
1639.000000	97.208520 
1638.000000	97.208374 
1637.000000	97.213945 
1636.000000	97.222428 
1635.000000	97.224263 
1634.000000	97.220990 
1633.000000	97.221155 
1632.000000	97.221388 
1631.000000	97.221682 
1630.000000	97.224278 
1629.000000	97.228843 
1628.000000	97.234373 
1627.000000	97.242794 
1626.000000	97.254533 
1625.000000	97.267066 
1624.000000	97.280356 
1623.000000	97.295235 
1622.000000	97.309644 
1621.000000	97.321059 
1620.000000	97.330692 
1619.000000	97.341644 
1618.000000	97.358782 
1617.000000	97.381049 
1616.000000	97.401889 
1615.000000	97.422760 
1614.000000	97.444406 
1613.000000	97.461624 
1612.000000	97.474875 
1611.000000	97.490266 
1610.000000	97.509266 
1609.000000	97.528936 
1608.000000	97.549921 
1607.000000	97.575073 
1606.000000	97.600875 
1605.000000	97.621330 
1604.000000	97.638550 
1603.000000	97.656664 
1602.000000	97.675444 
1601.000000	97.692668 
1600.000000	97.709436 
1599.000000	97.728299 
1598.000000	97.748211 
1597.000000	97.766228 
1596.000000	97.781307 
1595.000000	97.794319 
1594.000000	97.805568 
1593.000000	97.814994 
1592.000000	97.824706 
1591.000000	97.837592 
1590.000000	97.853459 
1589.000000	97.869351 
1588.000000	97.883841 
1587.000000	97.897523 
1586.000000	97.910048 
1585.000000	97.919193 
1584.000000	97.926860 
1583.000000	97.937372 
1582.000000	97.949319 
1581.000000	97.959380 
1580.000000	97.968020 
1579.000000	97.977151 
1578.000000	97.986249 
1577.000000	97.995968 
1576.000000	98.004941 
1575.000000	98.012677 
1574.000000	98.021726 
1573.000000	98.029883 
1572.000000	98.035168 
1571.000000	98.039804 
1570.000000	98.045211 
1569.000000	98.049513 
1568.000000	98.055713 
1567.000000	98.064610 
1566.000000	98.070849 
1565.000000	98.072574 
1564.000000	98.073571 
1563.000000	98.076019 
1562.000000	98.076715 
1561.000000	98.073584 
1560.000000	98.079321 
1559.000000	98.097526 
1558.000000	98.105026 
1557.000000	98.106985 
1556.000000	98.109728 
1555.000000	98.111636 
1554.000000	98.113447 
1553.000000	98.115880 
1552.000000	98.119222 
1551.000000	98.121866 
1550.000000	98.124071 
1549.000000	98.126818 
1548.000000	98.129913 
1547.000000	98.132927 
1546.000000	98.135522 
1545.000000	98.139128 
1544.000000	98.144458 
1543.000000	98.149670 
1542.000000	98.152741 
1541.000000	98.154160 
1540.000000	98.154636 
1539.000000	98.155684 
1538.000000	98.159522 
1537.000000	98.164763 
1536.000000	98.168848 
1535.000000	98.171932 
1534.000000	98.174806 
1533.000000	98.177687 
1532.000000	98.180872 
1531.000000	98.184358 
1530.000000	98.187891 
1529.000000	98.191279 
1528.000000	98.194425 
1527.000000	98.197464 
1526.000000	98.200499 
1525.000000	98.203497 
1524.000000	98.206565 
1523.000000	98.210157 
1522.000000	98.215371 
1521.000000	98.221494 
1520.000000	98.226243 
1519.000000	98.228776 
1518.000000	98.229370 
1517.000000	98.230894 
1516.000000	98.235739 
1515.000000	98.242880 
1514.000000	98.249280 
1513.000000	98.253148 
1512.000000	98.254843 
1511.000000	98.255274 
1510.000000	98.256338 
1509.000000	98.259662 
1508.000000	98.268468 
1507.000000	98.282227 
1506.000000	98.291032 
1505.000000	98.293184 
1504.000000	98.295103 
1503.000000	98.295689 
1502.000000	98.294055 
1501.000000	98.292135 
1500.000000	98.291215 
1499.000000	98.291320 
1498.000000	98.293589 
1497.000000	98.300948 
1496.000000	98.311300 
1495.000000	98.320998 
1494.000000	98.329422 
1493.000000	98.334900 
1492.000000	98.336287 
1491.000000	98.336726 
1490.000000	98.341915 
1489.000000	98.351502 
1488.000000	98.357591 
1487.000000	98.356638 
1486.000000	98.354046 
1485.000000	98.351950 
1484.000000	98.349688 
1483.000000	98.347285 
1482.000000	98.345442 
1481.000000	98.345456 
1480.000000	98.345844 
1479.000000	98.345073 
1478.000000	98.342456 
1477.000000	98.338382 
1476.000000	98.332219 
1475.000000	98.325637 
1474.000000	98.321389 
1473.000000	98.319253 
1472.000000	98.315685 
1471.000000	98.308939 
1470.000000	98.301870 
1469.000000	98.294664 
1468.000000	98.286034 
1467.000000	98.276724 
1466.000000	98.268763 
1465.000000	98.261871 
1464.000000	98.254883 
1463.000000	98.246483 
1462.000000	98.236859 
1461.000000	98.226691 
1460.000000	98.217052 
1459.000000	98.209386 
1458.000000	98.206102 
1457.000000	98.206505 
1456.000000	98.204113 
1455.000000	98.198326 
1454.000000	98.189603 
1453.000000	98.181257 
1452.000000	98.178545 
1451.000000	98.179781 
1450.000000	98.179495 
1449.000000	98.176099 
1448.000000	98.171638 
1447.000000	98.168504 
1446.000000	98.165681 
1445.000000	98.161454 
1444.000000	98.156542 
1443.000000	98.149135 
1442.000000	98.139655 
1441.000000	98.131851 
1440.000000	98.128537 
1439.000000	98.126368 
1438.000000	98.122469 
1437.000000	98.119941 
1436.000000	98.120206 
1435.000000	98.120046 
1434.000000	98.116786 
1433.000000	98.111930 
1432.000000	98.108694 
1431.000000	98.107124 
1430.000000	98.104356 
1429.000000	98.101198 
1428.000000	98.099495 
1427.000000	98.099258 
1426.000000	98.097726 
1425.000000	98.095262 
1424.000000	98.096758 
1423.000000	98.100837 
1422.000000	98.102640 
1421.000000	98.102159 
1420.000000	98.106107 
1419.000000	98.115499 
1418.000000	98.123277 
1417.000000	98.128226 
1416.000000	98.132328 
1415.000000	98.135204 
1414.000000	98.135852 
1413.000000	98.136206 
1412.000000	98.139662 
1411.000000	98.145352 
1410.000000	98.149998 
1409.000000	98.153879 
1408.000000	98.158731 
1407.000000	98.165506 
1406.000000	98.174159 
1405.000000	98.185901 
1404.000000	98.202818 
1403.000000	98.220817 
1402.000000	98.233440 
1401.000000	98.239787 
1400.000000	98.245796 
1399.000000	98.256503 
1398.000000	98.270465 
1397.000000	98.284219 
1396.000000	98.297007 
1395.000000	98.310035 
1394.000000	98.321733 
1393.000000	98.330854 
1392.000000	98.338792 
1391.000000	98.345635 
1390.000000	98.351053 
1389.000000	98.356214 
1388.000000	98.362816 
1387.000000	98.370633 
1386.000000	98.378087 
1385.000000	98.384939 
1384.000000	98.392268 
1383.000000	98.399098 
1382.000000	98.403393 
1381.000000	98.404937 
1380.000000	98.405791 
1379.000000	98.408072 
1378.000000	98.411419 
1377.000000	98.414622 
1376.000000	98.418237 
1375.000000	98.424297 
1374.000000	98.432652 
1373.000000	98.441002 
1372.000000	98.447799 
1371.000000	98.453209 
1370.000000	98.457662 
1369.000000	98.461471 
1368.000000	98.465597 
1367.000000	98.469769 
1366.000000	98.473043 
1365.000000	98.475769 
1364.000000	98.480101 
1363.000000	98.487316 
1362.000000	98.495706 
1361.000000	98.502769 
1360.000000	98.508088 
1359.000000	98.512391 
1358.000000	98.515667 
1357.000000	98.517913 
1356.000000	98.520344 
1355.000000	98.523943 
1354.000000	98.527881 
1353.000000	98.530763 
1352.000000	98.532098 
1351.000000	98.533138 
1350.000000	98.534997 
1349.000000	98.537655 
1348.000000	98.541490 
1347.000000	98.546283 
1346.000000	98.550743 
1345.000000	98.552957 
1344.000000	98.552180 
1343.000000	98.549130 
1342.000000	98.545371 
1341.000000	98.542571 
1340.000000	98.541893 
1339.000000	98.543207 
1338.000000	98.545790 
1337.000000	98.549938 
1336.000000	98.556205 
1335.000000	98.563232 
1334.000000	98.568277 
1333.000000	98.570143 
1332.000000	98.570150 
1331.000000	98.569970 
1330.000000	98.569876 
1329.000000	98.569922 
1328.000000	98.570956 
1327.000000	98.573256 
1326.000000	98.575234 
1325.000000	98.575165 
1324.000000	98.573349 
1323.000000	98.570836 
1322.000000	98.568028 
1321.000000	98.565394 
1320.000000	98.564239 
1319.000000	98.565169 
1318.000000	98.566927 
1317.000000	98.567938 
1316.000000	98.568053 
1315.000000	98.567939 
1314.000000	98.568019 
1313.000000	98.568778 
1312.000000	98.570581 
1311.000000	98.572392 
1310.000000	98.572181 
1309.000000	98.569760 
1308.000000	98.567706 
1307.000000	98.568545 
1306.000000	98.571675 
1305.000000	98.574447 
1304.000000	98.575385 
1303.000000	98.574704 
1302.000000	98.573256 
1301.000000	98.571939 
1300.000000	98.571504 
1299.000000	98.571672 
1298.000000	98.571329 
1297.000000	98.570146 
1296.000000	98.569179 
1295.000000	98.569335 
1294.000000	98.570421 
1293.000000	98.572266 
1292.000000	98.574948 
1291.000000	98.577106 
1290.000000	98.576041 
1289.000000	98.570995 
1288.000000	98.564809 
1287.000000	98.560782 
1286.000000	98.559157 
1285.000000	98.558399 
1284.000000	98.558254 
1283.000000	98.559356 
1282.000000	98.561105 
1281.000000	98.562152 
1280.000000	98.562476 
1279.000000	98.562957 
1278.000000	98.563583 
1277.000000	98.564011 
1276.000000	98.564904 
1275.000000	98.566587 
1274.000000	98.567123 
1273.000000	98.564406 
1272.000000	98.559916 
1271.000000	98.557887 
1270.000000	98.560306 
1269.000000	98.564728 
1268.000000	98.567485 
1267.000000	98.567200 
1266.000000	98.565119 
1265.000000	98.563843 
1264.000000	98.565743 
1263.000000	98.570952 
1262.000000	98.576611 
1261.000000	98.579422 
1260.000000	98.579224 
1259.000000	98.578724 
1258.000000	98.579707 
1257.000000	98.581068 
1256.000000	98.580548 
1255.000000	98.577235 
1254.000000	98.572351 
1253.000000	98.568612 
1252.000000	98.568515 
1251.000000	98.572016 
1250.000000	98.575846 
1249.000000	98.576256 
1248.000000	98.572449 
1247.000000	98.566575 
1246.000000	98.560964 
1245.000000	98.556456 
1244.000000	98.552728 
1243.000000	98.548963 
1242.000000	98.544377 
1241.000000	98.539129 
1240.000000	98.534398 
1239.000000	98.530722 
1238.000000	98.526958 
1237.000000	98.521772 
1236.000000	98.515233 
1235.000000	98.507852 
1234.000000	98.499087 
1233.000000	98.488081 
1232.000000	98.474814 
1231.000000	98.459172 
1230.000000	98.440212 
1229.000000	98.417817 
1228.000000	98.393498 
1227.000000	98.367785 
1226.000000	98.338415 
1225.000000	98.303269 
1224.000000	98.263354 
1223.000000	98.220164 
1222.000000	98.171826 
1221.000000	98.115382 
1220.000000	98.051674 
1219.000000	97.984122 
1218.000000	97.913379 
1217.000000	97.837481 
1216.000000	97.757205 
1215.000000	97.676568 
1214.000000	97.596975 
1213.000000	97.515204 
1212.000000	97.428603 
1211.000000	97.338353 
1210.000000	97.246191 
1209.000000	97.151825 
1208.000000	97.055407 
1207.000000	96.958865 
1206.000000	96.862995 
1205.000000	96.766544 
1204.000000	96.669414 
1203.000000	96.573108 
1202.000000	96.477055 
1201.000000	96.378465 
1200.000000	96.277022 
1199.000000	96.175869 
1198.000000	96.076747 
1197.000000	95.978072 
1196.000000	95.878714 
1195.000000	95.779137 
1194.000000	95.677626 
1193.000000	95.570346 
1192.000000	95.457074 
1191.000000	95.342638 
1190.000000	95.230920 
1189.000000	95.121325 
1188.000000	95.012082 
1187.000000	94.902071 
1186.000000	94.788245 
1185.000000	94.667030 
1184.000000	94.540412 
1183.000000	94.415315 
1182.000000	94.294327 
1181.000000	94.171937 
1180.000000	94.042348 
1179.000000	93.905872 
1178.000000	93.765005 
1177.000000	93.619603 
1176.000000	93.469223 
1175.000000	93.315473 
1174.000000	93.158660 
1173.000000	92.996308 
1172.000000	92.827730 
1171.000000	92.655750 
1170.000000	92.481839 
1169.000000	92.304662 
1168.000000	92.126019 
1167.000000	91.953385 
1166.000000	91.794731 
1165.000000	91.656626 
1164.000000	91.549342 
1163.000000	91.486662 
1162.000000	91.476331 
1161.000000	91.514117 
1160.000000	91.586945 
1159.000000	91.675429 
1158.000000	91.754264 
1157.000000	91.800204 
1156.000000	91.804109 
1155.000000	91.771628 
1154.000000	91.712335 
1153.000000	91.632920 
1152.000000	91.539778 
1151.000000	91.439989 
1150.000000	91.336965 
1149.000000	91.230600 
1148.000000	91.122956 
1147.000000	91.017996 
1146.000000	90.915242 
1145.000000	90.810432 
1144.000000	90.702961 
1143.000000	90.595659 
1142.000000	90.487188 
1141.000000	90.372781 
1140.000000	90.253096 
1139.000000	90.133992 
1138.000000	90.016553 
1137.000000	89.895553 
1136.000000	89.768501 
1135.000000	89.637656 
1134.000000	89.502936 
1133.000000	89.362424 
1132.000000	89.220415 
1131.000000	89.084405 
1130.000000	88.952516 
1129.000000	88.814261 
1128.000000	88.665436 
1127.000000	88.511956 
1126.000000	88.357912 
1125.000000	88.201034 
1124.000000	88.041656 
1123.000000	87.884222 
1122.000000	87.727384 
1121.000000	87.564534 
1120.000000	87.396898 
1119.000000	87.233959 
1118.000000	87.078081 
1117.000000	86.921785 
1116.000000	86.763143 
1115.000000	86.609773 
1114.000000	86.463752 
1113.000000	86.316728 
1112.000000	86.164660 
1111.000000	86.013493 
1110.000000	85.865674 
1109.000000	85.715207 
1108.000000	85.560398 
1107.000000	85.407523 
1106.000000	85.257526 
1105.000000	85.102695 
1104.000000	84.940788 
1103.000000	84.778630 
1102.000000	84.617977 
1101.000000	84.452015 
1100.000000	84.279595 
1099.000000	84.108414 
1098.000000	83.940562 
1097.000000	83.769921 
1096.000000	83.597374 
1095.000000	83.432805 
1094.000000	83.278143 
1093.000000	83.124634 
1092.000000	82.970705 
1091.000000	82.825708 
1090.000000	82.691874 
1089.000000	82.559989 
1088.000000	82.427395 
1087.000000	82.302705 
1086.000000	82.188047 
1085.000000	82.074538 
1084.000000	81.960161 
1083.000000	81.853766 
1082.000000	81.755940 
1081.000000	81.654265 
1080.000000	81.543574 
1079.000000	81.433230 
1078.000000	81.328622 
1077.000000	81.222665 
1076.000000	81.110801 
1075.000000	80.996258 
1074.000000	80.875361 
1073.000000	80.735940 
1072.000000	80.575450 
1071.000000	80.403033 
1070.000000	80.219476 
1069.000000	80.013648 
1068.000000	79.783637 
1067.000000	79.542654 
1066.000000	79.299001 
1065.000000	79.049111 
1064.000000	78.795818 
1063.000000	78.553166 
1062.000000	78.326209 
1061.000000	78.105126 
1060.000000	77.885271 
1059.000000	77.673432 
1058.000000	77.469168 
1057.000000	77.260662 
1056.000000	77.044971 
1055.000000	76.831947 
1054.000000	76.622033 
1053.000000	76.400446 
1052.000000	76.160048 
1051.000000	75.908860 
1050.000000	75.648208 
1049.000000	75.367425 
1048.000000	75.067225 
1047.000000	74.762496 
1046.000000	74.456173 
1045.000000	74.135597 
1044.000000	73.798585 
1043.000000	73.458669 
1042.000000	73.121022 
1041.000000	72.777702 
1040.000000	72.431027 
1039.000000	72.095966 
1038.000000	71.774046 
1037.000000	71.451660 
1036.000000	71.130302 
1035.000000	70.830681 
1034.000000	70.559681 
1033.000000	70.301400 
1032.000000	70.048617 
1031.000000	69.814935 
1030.000000	69.606733 
1029.000000	69.411457 
1028.000000	69.223353 
1027.000000	69.053442 
1026.000000	68.904102 
1025.000000	68.760524 
1024.000000	68.616591 
1023.000000	68.482702 
1022.000000	68.359266 
1021.000000	68.229743 
1020.000000	68.088899 
1019.000000	67.950958 
1018.000000	67.820938 
1017.000000	67.685046 
1016.000000	67.538121 
1015.000000	67.393514 
1014.000000	67.256641 
1013.000000	67.115546 
1012.000000	66.966757 
1011.000000	66.824301 
1010.000000	66.694141 
1009.000000	66.565396 
1008.000000	66.435004 
1007.000000	66.315650 
1006.000000	66.211909 
1005.000000	66.114111 
1004.000000	66.021834 
1003.000000	65.946842 
1002.000000	65.887121 
1001.000000	65.825898 
1000.000000	65.762513 
999.000000	 65.715915 
998.000000	 65.691059 
997.000000	 65.670392 
996.000000	 65.645187 
995.000000	 65.626760 
994.000000	 65.619571 
993.000000	 65.612200 
992.000000	 65.602510 
991.000000	 65.603494 
990.000000	 65.616727 
989.000000	 65.628035 
988.000000	 65.636372 
987.000000	 65.658966 
986.000000	 65.701259 
985.000000	 65.750349 
984.000000	 65.804525 
983.000000	 65.880199 
982.000000	 65.982287 
981.000000	 66.096602 
980.000000	 66.218691 
979.000000	 66.361642 
978.000000	 66.527898 
977.000000	 66.702057 
976.000000	 66.879358 
975.000000	 67.073789 
974.000000	 67.290493 
973.000000	 67.517211 
972.000000	 67.749596 
971.000000	 67.997979 
970.000000	 68.262426 
969.000000	 68.527918 
968.000000	 68.790524 
967.000000	 69.062243 
966.000000	 69.344442 
965.000000	 69.622861 
964.000000	 69.893985 
963.000000	 70.169874 
962.000000	 70.451775 
961.000000	 70.725422 
960.000000	 70.987674 
959.000000	 71.251765 
958.000000	 71.521136 
957.000000	 71.783688 
956.000000	 72.036315 
955.000000	 72.289060 
954.000000	 72.540547 
953.000000	 72.775548 
952.000000	 72.991651 
951.000000	 73.202521 
950.000000	 73.410813 
949.000000	 73.603848 
948.000000	 73.779992 
947.000000	 73.952277 
946.000000	 74.121435 
945.000000	 74.272592 
944.000000	 74.404008 
943.000000	 74.532238 
942.000000	 74.663193 
941.000000	 74.784819 
940.000000	 74.894616 
939.000000	 75.006959 
938.000000	 75.125854 
937.000000	 75.237236 
936.000000	 75.336599 
935.000000	 75.438608 
934.000000	 75.551469 
933.000000	 75.666881 
932.000000	 75.782607 
931.000000	 75.908829 
930.000000	 76.044128 
929.000000	 76.171093 
928.000000	 76.284628 
927.000000	 76.399977 
926.000000	 76.524397 
925.000000	 76.645496 
924.000000	 76.756005 
923.000000	 76.865527 
922.000000	 76.978546 
921.000000	 77.083975 
920.000000	 77.175095 
919.000000	 77.257875 
918.000000	 77.332926 
917.000000	 77.392497 
916.000000	 77.442101 
915.000000	 77.501656 
914.000000	 77.578852 
913.000000	 77.665415 
912.000000	 77.765002 
911.000000	 77.897839 
910.000000	 78.070077 
909.000000	 78.265478 
908.000000	 78.476146 
907.000000	 78.715183 
906.000000	 78.989642 
905.000000	 79.287368 
904.000000	 79.599822 
903.000000	 79.932754 
902.000000	 80.285267 
901.000000	 80.643058 
900.000000	 81.001155 
899.000000	 81.369547 
898.000000	 81.748453 
897.000000	 82.121837 
896.000000	 82.482814 
895.000000	 82.841765 
894.000000	 83.201616 
893.000000	 83.548421 
892.000000	 83.874832 
891.000000	 84.191030 
890.000000	 84.504147 
889.000000	 84.807448 
888.000000	 85.097634 
887.000000	 85.382957 
886.000000	 85.666708 
885.000000	 85.941856 
884.000000	 86.208605 
883.000000	 86.477912 
882.000000	 86.751433 
881.000000	 87.017628 
880.000000	 87.273563 
879.000000	 87.530352 
878.000000	 87.791659 
877.000000	 88.048578 
876.000000	 88.301853 
875.000000	 88.566699 
874.000000	 88.848800 
873.000000	 89.136926 
872.000000	 89.424809 
871.000000	 89.718511 
870.000000	 90.017337 
869.000000	 90.309772 
868.000000	 90.594225 
867.000000	 90.882989 
866.000000	 91.179225 
865.000000	 91.468828 
864.000000	 91.741588 
863.000000	 92.003685 
862.000000	 92.263914 
861.000000	 92.523253 
860.000000	 92.782588 
859.000000	 93.044678 
858.000000	 93.303299 
857.000000	 93.545158 
856.000000	 93.767050 
855.000000	 93.977946 
854.000000	 94.182065 
853.000000	 94.374318 
852.000000	 94.554298 
851.000000	 94.729134 
850.000000	 94.899562 
849.000000	 95.057812 
848.000000	 95.201008 
847.000000	 95.331156 
846.000000	 95.441060 
845.000000	 95.518184 
844.000000	 95.565439 
843.000000	 95.600564 
842.000000	 95.630148 
841.000000	 95.640285 
840.000000	 95.617173 
839.000000	 95.560877 
838.000000	 95.475894 
837.000000	 95.366747 
836.000000	 95.248690 
835.000000	 95.144270 
834.000000	 95.060453 
833.000000	 94.985292 
832.000000	 94.915088 
831.000000	 94.867262 
830.000000	 94.856285 
829.000000	 94.874281 
828.000000	 94.908108 
827.000000	 94.959648 
826.000000	 95.035240 
825.000000	 95.128328 
824.000000	 95.225396 
823.000000	 95.317607 
822.000000	 95.398321 
821.000000	 95.462634 
820.000000	 95.514611 
819.000000	 95.560508 
818.000000	 95.591612 
817.000000	 95.587972 
816.000000	 95.541158 
815.000000	 95.458724 
814.000000	 95.343382 
813.000000	 95.182699 
812.000000	 94.963041 
811.000000	 94.677524 
810.000000	 94.315054 
809.000000	 93.859108 
808.000000	 93.307138 
807.000000	 92.678179 
806.000000	 91.993847 
805.000000	 91.266746 
804.000000	 90.515787 
803.000000	 89.774829 
802.000000	 89.074416 
801.000000	 88.431863 
800.000000	 87.868894 
799.000000	 87.417357 
798.000000	 87.094340 
797.000000	 86.890766 
796.000000	 86.793344 
795.000000	 86.795127 
794.000000	 86.876030 
793.000000	 86.998236 
792.000000	 87.132202 
791.000000	 87.266507 
790.000000	 87.386088 
789.000000	 87.465209 
788.000000	 87.490182 
787.000000	 87.466018 
786.000000	 87.391874 
785.000000	 87.252145 
784.000000	 87.041877 
783.000000	 86.781524 
782.000000	 86.498849 
781.000000	 86.217286 
780.000000	 85.969045 
779.000000	 85.793605 
778.000000	 85.709569 
777.000000	 85.707930 
776.000000	 85.780779 
775.000000	 85.932350 
774.000000	 86.153273 
773.000000	 86.410415 
772.000000	 86.674262 
771.000000	 86.934960 
770.000000	 87.183657 
769.000000	 87.402265 
768.000000	 87.582016 
767.000000	 87.731417 
766.000000	 87.857468 
765.000000	 87.959278 
764.000000	 88.046734 
763.000000	 88.142063 
762.000000	 88.252455 
761.000000	 88.361630 
760.000000	 88.457938 
759.000000	 88.551085 
758.000000	 88.653402 
757.000000	 88.765814 
756.000000	 88.890202 
755.000000	 89.033703 
754.000000	 89.191625 
753.000000	 89.346532 
752.000000	 89.491912 
751.000000	 89.636408 
750.000000	 89.779220 
749.000000	 89.905501 
748.000000	 90.015582 
747.000000	 90.135821 
746.000000	 90.288142 
745.000000	 90.467793 
744.000000	 90.661128 
743.000000	 90.866116 
742.000000	 91.085229 
741.000000	 91.316532 
740.000000	 91.561319 
739.000000	 91.823199 
738.000000	 92.091583 
737.000000	 92.343304 
736.000000	 92.568094 
735.000000	 92.776413 
734.000000	 92.977416 
733.000000	 93.166502 
732.000000	 93.338806 
731.000000	 93.495935 
730.000000	 93.633654 
729.000000	 93.741454 
728.000000	 93.821563 
727.000000	 93.892191 
726.000000	 93.965998 
725.000000	 94.042410 
724.000000	 94.126257 
723.000000	 94.234456 
722.000000	 94.376430 
721.000000	 94.543905 
720.000000	 94.725206 
719.000000	 94.912261 
718.000000	 95.089223 
717.000000	 95.235709 
716.000000	 95.350510 
715.000000	 95.455159 
714.000000	 95.565616 
713.000000	 95.674666 
712.000000	 95.768469 
711.000000	 95.843757 
710.000000	 95.900864 
709.000000	 95.935520 
708.000000	 95.946687 
707.000000	 95.939845 
706.000000	 95.915599 
705.000000	 95.866670 
704.000000	 95.788881 
703.000000	 95.678807 
702.000000	 95.517920 
701.000000	 95.278664 
700.000000	 94.952667 
699.000000	 94.560249 
698.000000	 94.134276 
697.000000	 93.716601 
696.000000	 93.370572 
695.000000	 93.163859 
694.000000	 93.124399 
693.000000	 93.230525 
692.000000	 93.444623 
691.000000	 93.733108 
690.000000	 94.052651 
689.000000	 94.350889 
688.000000	 94.599684 
687.000000	 94.808070 
686.000000	 94.992887 
685.000000	 95.160989 
684.000000	 95.325221 
683.000000	 95.504835 
682.000000	 95.696095 
681.000000	 95.867805 
680.000000	 96.001371 
679.000000	 96.114343 
678.000000	 96.231588 
677.000000	 96.355069 
676.000000	 96.479583 
675.000000	 96.614214 
674.000000	 96.765374 
673.000000	 96.917166 
672.000000	 97.043602 
671.000000	 97.135072 
670.000000	 97.208271 
669.000000	 97.310194 
668.000000	 97.477704 
667.000000	 97.652334 
666.000000	 97.777075 
665.000000	 97.860381 
664.000000	 97.920674 
663.000000	 97.990173 
662.000000	 98.089284 
661.000000	 98.203958 
660.000000	 98.317298 
659.000000	 98.424758 
658.000000	 98.511599 
657.000000	 98.550849 
656.000000	 98.541038 
655.000000	 98.513696 
654.000000	 98.491706 
653.000000	 98.473106 
652.000000	 98.467071 
651.000000	 98.503649 
650.000000	 98.585348 

