4000.000000	99.530852 
3999.000000	99.533387 
3998.000000	99.535363 
3997.000000	99.534625 
3996.000000	99.530647 
3995.000000	99.525033 
3994.000000	99.520346 
3993.000000	99.518295 
3992.000000	99.518747 
3991.000000	99.520204 
3990.000000	99.521128 
3989.000000	99.521092 
3988.000000	99.520951 
3987.000000	99.521948 
3986.000000	99.524569 
3985.000000	99.528008 
3984.000000	99.530608 
3983.000000	99.530855 
3982.000000	99.528374 
3981.000000	99.524228 
3980.000000	99.520044 
3979.000000	99.516885 
3978.000000	99.515163 
3977.000000	99.515237 
3976.000000	99.517527 
3975.000000	99.521856 
3974.000000	99.527029 
3973.000000	99.531289 
3972.000000	99.533213 
3971.000000	99.532512 
3970.000000	99.530086 
3969.000000	99.527298 
3968.000000	99.525175 
3967.000000	99.524014 
3966.000000	99.523662 
3965.000000	99.524105 
3964.000000	99.525233 
3963.000000	99.526090 
3962.000000	99.525125 
3961.000000	99.521672 
3960.000000	99.516978 
3959.000000	99.513589 
3958.000000	99.513177 
3957.000000	99.514918 
3956.000000	99.516583 
3955.000000	99.516891 
3954.000000	99.516588 
3953.000000	99.517057 
3952.000000	99.518294 
3951.000000	99.518933 
3950.000000	99.517752 
3949.000000	99.515166 
3948.000000	99.512991 
3947.000000	99.512578 
3946.000000	99.513838 
3945.000000	99.515771 
3944.000000	99.517329 
3943.000000	99.517376 
3942.000000	99.515335 
3941.000000	99.512129 
3940.000000	99.509359 
3939.000000	99.507410 
3938.000000	99.504960 
3937.000000	99.500572 
3936.000000	99.494983 
3935.000000	99.491157 
3934.000000	99.492231 
3933.000000	99.498957 
3932.000000	99.508659 
3931.000000	99.516502 
3930.000000	99.518451 
3929.000000	99.514275 
3928.000000	99.507502 
3927.000000	99.502311 
3926.000000	99.501053 
3925.000000	99.503139 
3924.000000	99.505605 
3923.000000	99.505963 
3922.000000	99.503958 
3921.000000	99.501263 
3920.000000	99.499789 
3919.000000	99.500610 
3918.000000	99.504038 
3917.000000	99.509408 
3916.000000	99.515133 
3915.000000	99.519922 
3914.000000	99.524207 
3913.000000	99.529313 
3912.000000	99.535039 
3911.000000	99.539495 
3910.000000	99.541231 
3909.000000	99.540630 
3908.000000	99.539088 
3907.000000	99.536415 
3906.000000	99.530000 
3905.000000	99.517051 
3904.000000	99.498034 
3903.000000	99.478811 
3902.000000	99.467568 
3901.000000	99.468669 
3900.000000	99.479994 
3899.000000	99.494423 
3898.000000	99.505117 
3897.000000	99.509948 
3896.000000	99.510622 
3895.000000	99.509706 
3894.000000	99.508947 
3893.000000	99.508538 
3892.000000	99.507433 
3891.000000	99.504190 
3890.000000	99.498440 
3889.000000	99.491212 
3888.000000	99.484606 
3887.000000	99.481195 
3886.000000	99.481759 
3885.000000	99.483995 
3884.000000	99.485029 
3883.000000	99.485000 
3882.000000	99.486556 
3881.000000	99.490795 
3880.000000	99.495491 
3879.000000	99.497313 
3878.000000	99.495976 
3877.000000	99.494569 
3876.000000	99.496542 
3875.000000	99.501606 
3874.000000	99.504959 
3873.000000	99.501846 
3872.000000	99.493432 
3871.000000	99.486208 
3870.000000	99.484751 
3869.000000	99.487321 
3868.000000	99.489584 
3867.000000	99.490456 
3866.000000	99.492949 
3865.000000	99.498676 
3864.000000	99.503520 
3863.000000	99.503032 
3862.000000	99.498111 
3861.000000	99.493454 
3860.000000	99.492846 
3859.000000	99.496431 
3858.000000	99.500996 
3857.000000	99.503207 
3856.000000	99.502230 
3855.000000	99.501487 
3854.000000	99.503157 
3853.000000	99.505485 
3852.000000	99.506992 
3851.000000	99.507888 
3850.000000	99.508080 
3849.000000	99.508057 
3848.000000	99.507770 
3847.000000	99.506632 
3846.000000	99.504335 
3845.000000	99.500767 
3844.000000	99.496622 
3843.000000	99.493949 
3842.000000	99.493275 
3841.000000	99.492591 
3840.000000	99.490568 
3839.000000	99.488444 
3838.000000	99.488370 
3837.000000	99.490691 
3836.000000	99.493652 
3835.000000	99.496328 
3834.000000	99.499504 
3833.000000	99.504705 
3832.000000	99.512065 
3831.000000	99.519070 
3830.000000	99.522988 
3829.000000	99.523306 
3828.000000	99.521342 
3827.000000	99.518736 
3826.000000	99.515756 
3825.000000	99.510997 
3824.000000	99.503879 
3823.000000	99.497506 
3822.000000	99.495733 
3821.000000	99.497593 
3820.000000	99.498370 
3819.000000	99.496419 
3818.000000	99.494761 
3817.000000	99.497680 
3816.000000	99.505110 
3815.000000	99.511295 
3814.000000	99.511613 
3813.000000	99.508066 
3812.000000	99.506143 
3811.000000	99.508443 
3810.000000	99.512747 
3809.000000	99.515630 
3808.000000	99.516223 
3807.000000	99.515561 
3806.000000	99.513108 
3805.000000	99.507351 
3804.000000	99.499658 
3803.000000	99.495715 
3802.000000	99.500088 
3801.000000	99.509163 
3800.000000	99.515008 
3799.000000	99.514830 
3798.000000	99.511966 
3797.000000	99.510829 
3796.000000	99.512412 
3795.000000	99.514571 
3794.000000	99.515574 
3793.000000	99.516095 
3792.000000	99.517522 
3791.000000	99.519709 
3790.000000	99.521230 
3789.000000	99.521196 
3788.000000	99.520045 
3787.000000	99.518548 
3786.000000	99.516998 
3785.000000	99.515368 
3784.000000	99.513821 
3783.000000	99.512835 
3782.000000	99.513423 
3781.000000	99.516670 
3780.000000	99.522047 
3779.000000	99.526888 
3778.000000	99.528524 
3777.000000	99.526453 
3776.000000	99.522121 
3775.000000	99.517488 
3774.000000	99.513266 
3773.000000	99.508952 
3772.000000	99.504929 
3771.000000	99.503267 
3770.000000	99.504614 
3769.000000	99.506292 
3768.000000	99.505826 
3767.000000	99.503618 
3766.000000	99.501947 
3765.000000	99.502149 
3764.000000	99.502898 
3763.000000	99.502081 
3762.000000	99.499924 
3761.000000	99.498872 
3760.000000	99.500008 
3759.000000	99.501597 
3758.000000	99.501896 
3757.000000	99.500678 
3756.000000	99.497521 
3755.000000	99.491781 
3754.000000	99.484120 
3753.000000	99.477230 
3752.000000	99.473628 
3751.000000	99.472790 
3750.000000	99.473424 
3749.000000	99.475981 
3748.000000	99.480841 
3747.000000	99.486878 
3746.000000	99.493306 
3745.000000	99.499077 
3744.000000	99.501850 
3743.000000	99.500276 
3742.000000	99.495129 
3741.000000	99.487939 
3740.000000	99.479871 
3739.000000	99.470669 
3738.000000	99.461847 
3737.000000	99.459418 
3736.000000	99.469140 
3735.000000	99.488880 
3734.000000	99.508125 
3733.000000	99.518112 
3732.000000	99.518330 
3731.000000	99.512573 
3730.000000	99.503659 
3729.000000	99.492845 
3728.000000	99.482647 
3727.000000	99.476084 
3726.000000	99.472956 
3725.000000	99.470477 
3724.000000	99.468209 
3723.000000	99.469282 
3722.000000	99.475497 
3721.000000	99.485109 
3720.000000	99.493980 
3719.000000	99.497668 
3718.000000	99.494376 
3717.000000	99.485355 
3716.000000	99.473565 
3715.000000	99.461668 
3714.000000	99.450767 
3713.000000	99.441389 
3712.000000	99.434189 
3711.000000	99.430925 
3710.000000	99.432413 
3709.000000	99.436533 
3708.000000	99.440508 
3707.000000	99.442883 
3706.000000	99.444106 
3705.000000	99.445987 
3704.000000	99.450216 
3703.000000	99.455786 
3702.000000	99.457650 
3701.000000	99.450715 
3700.000000	99.435083 
3699.000000	99.415467 
3698.000000	99.397197 
3697.000000	99.382994 
3696.000000	99.371966 
3695.000000	99.361930 
3694.000000	99.353051 
3693.000000	99.347914 
3692.000000	99.347565 
3691.000000	99.349580 
3690.000000	99.349348 
3689.000000	99.344218 
3688.000000	99.335832 
3687.000000	99.327166 
3686.000000	99.319629 
3685.000000	99.314458 
3684.000000	99.313220 
3683.000000	99.315489 
3682.000000	99.317555 
3681.000000	99.314041 
3680.000000	99.301257 
3679.000000	99.278984 
3678.000000	99.252222 
3677.000000	99.233319 
3676.000000	99.233814 
3675.000000	99.248495 
3674.000000	99.260048 
3673.000000	99.259532 
3672.000000	99.251672 
3671.000000	99.248412 
3670.000000	99.255605 
3669.000000	99.267711 
3668.000000	99.277714 
3667.000000	99.284802 
3666.000000	99.291295 
3665.000000	99.297921 
3664.000000	99.302984 
3663.000000	99.304846 
3662.000000	99.303905 
3661.000000	99.301412 
3660.000000	99.298086 
3659.000000	99.295009 
3658.000000	99.295093 
3657.000000	99.301165 
3656.000000	99.311682 
3655.000000	99.321143 
3654.000000	99.325249 
3653.000000	99.323658 
3652.000000	99.317804 
3651.000000	99.308760 
3650.000000	99.298379 
3649.000000	99.292659 
3648.000000	99.297532 
3647.000000	99.310859 
3646.000000	99.325605 
3645.000000	99.337940 
3644.000000	99.349029 
3643.000000	99.361345 
3642.000000	99.375978 
3641.000000	99.391506 
3640.000000	99.405445 
3639.000000	99.415614 
3638.000000	99.420489 
3637.000000	99.419818 
3636.000000	99.415337 
3635.000000	99.410653 
3634.000000	99.408440 
3633.000000	99.407937 
3632.000000	99.406344 
3631.000000	99.402682 
3630.000000	99.399989 
3629.000000	99.401425 
3628.000000	99.405530 
3627.000000	99.409467 
3626.000000	99.414087 
3625.000000	99.422661 
3624.000000	99.436636 
3623.000000	99.453907 
3622.000000	99.470508 
3621.000000	99.483478 
3620.000000	99.489882 
3619.000000	99.485901 
3618.000000	99.471041 
3617.000000	99.451282 
3616.000000	99.435245 
3615.000000	99.428644 
3614.000000	99.430104 
3613.000000	99.432537 
3612.000000	99.430605 
3611.000000	99.425673 
3610.000000	99.422816 
3609.000000	99.425437 
3608.000000	99.432077 
3607.000000	99.439105 
3606.000000	99.445594 
3605.000000	99.452954 
3604.000000	99.461739 
3603.000000	99.470184 
3602.000000	99.476146 
3601.000000	99.480051 
3600.000000	99.483212 
3599.000000	99.484725 
3598.000000	99.482304 
3597.000000	99.475492 
3596.000000	99.467224 
3595.000000	99.462654 
3594.000000	99.464344 
3593.000000	99.470059 
3592.000000	99.475506 
3591.000000	99.477799 
3590.000000	99.477187 
3589.000000	99.476200 
3588.000000	99.476552 
3587.000000	99.476688 
3586.000000	99.474738 
3585.000000	99.471946 
3584.000000	99.472020 
3583.000000	99.476674 
3582.000000	99.484171 
3581.000000	99.490941 
3580.000000	99.494496 
3579.000000	99.494635 
3578.000000	99.492384 
3577.000000	99.489202 
3576.000000	99.486490 
3575.000000	99.485666 
3574.000000	99.487232 
3573.000000	99.489898 
3572.000000	99.491382 
3571.000000	99.489824 
3570.000000	99.484112 
3569.000000	99.474754 
3568.000000	99.464869 
3567.000000	99.458742 
3566.000000	99.458444 
3565.000000	99.462845 
3564.000000	99.469981 
3563.000000	99.479014 
3562.000000	99.489437 
3561.000000	99.499539 
3560.000000	99.506910 
3559.000000	99.510215 
3558.000000	99.510442 
3557.000000	99.509914 
3556.000000	99.510158 
3555.000000	99.510748 
3554.000000	99.510362 
3553.000000	99.508087 
3552.000000	99.504180 
3551.000000	99.499796 
3550.000000	99.495851 
3549.000000	99.492330 
3548.000000	99.489073 
3547.000000	99.486479 
3546.000000	99.485504 
3545.000000	99.486114 
3544.000000	99.487016 
3543.000000	99.487558 
3542.000000	99.489157 
3541.000000	99.493678 
3540.000000	99.501074 
3539.000000	99.508833 
3538.000000	99.514240 
3537.000000	99.516514 
3536.000000	99.516704 
3535.000000	99.516015 
3534.000000	99.514637 
3533.000000	99.512604 
3532.000000	99.510767 
3531.000000	99.510587 
3530.000000	99.512459 
3529.000000	99.514663 
3528.000000	99.514718 
3527.000000	99.512028 
3526.000000	99.508722 
3525.000000	99.507521 
3524.000000	99.508919 
3523.000000	99.510841 
3522.000000	99.511375 
3521.000000	99.510977 
3520.000000	99.511846 
3519.000000	99.515332 
3518.000000	99.520562 
3517.000000	99.525243 
3516.000000	99.527403 
3515.000000	99.526580 
3514.000000	99.523526 
3513.000000	99.519361 
3512.000000	99.515014 
3511.000000	99.511170 
3510.000000	99.508267 
3509.000000	99.506626 
3508.000000	99.506530 
3507.000000	99.508133 
3506.000000	99.511317 
3505.000000	99.515112 
3504.000000	99.517435 
3503.000000	99.516188 
3502.000000	99.511695 
3501.000000	99.507783 
3500.000000	99.509346 
3499.000000	99.517955 
3498.000000	99.529566 
3497.000000	99.537056 
3496.000000	99.535853 
3495.000000	99.527605 
3494.000000	99.518435 
3493.000000	99.513571 
3492.000000	99.513721 
3491.000000	99.516010 
3490.000000	99.517666 
3489.000000	99.518565 
3488.000000	99.520274 
3487.000000	99.523228 
3486.000000	99.525738 
3485.000000	99.525936 
3484.000000	99.523865 
3483.000000	99.521269 
3482.000000	99.519605 
3481.000000	99.518959 
3480.000000	99.518826 
3479.000000	99.518987 
3478.000000	99.519228 
3477.000000	99.519025 
3476.000000	99.518395 
3475.000000	99.518754 
3474.000000	99.521779 
3473.000000	99.526990 
3472.000000	99.531434 
3471.000000	99.532705 
3470.000000	99.531759 
3469.000000	99.531764 
3468.000000	99.534331 
3467.000000	99.537793 
3466.000000	99.539660 
3465.000000	99.539696 
3464.000000	99.539697 
3463.000000	99.540841 
3462.000000	99.542384 
3461.000000	99.543256 
3460.000000	99.543870 
3459.000000	99.545702 
3458.000000	99.549295 
3457.000000	99.553051 
3456.000000	99.554335 
3455.000000	99.551771 
3454.000000	99.546397 
3453.000000	99.540803 
3452.000000	99.536955 
3451.000000	99.535101 
3450.000000	99.534442 
3449.000000	99.534390 
3448.000000	99.534763 
3447.000000	99.535215 
3446.000000	99.535250 
3445.000000	99.535133 
3444.000000	99.536183 
3443.000000	99.539462 
3442.000000	99.544124 
3441.000000	99.547464 
3440.000000	99.547091 
3439.000000	99.543009 
3438.000000	99.537387 
3437.000000	99.532462 
3436.000000	99.529154 
3435.000000	99.527621 
3434.000000	99.528217 
3433.000000	99.531331 
3432.000000	99.536154 
3431.000000	99.540600 
3430.000000	99.542864 
3429.000000	99.543056 
3428.000000	99.542937 
3427.000000	99.543773 
3426.000000	99.544627 
3425.000000	99.543061 
3424.000000	99.537739 
3423.000000	99.530161 
3422.000000	99.523583 
3421.000000	99.520415 
3420.000000	99.521103 
3419.000000	99.525018 
3418.000000	99.531209 
3417.000000	99.537926 
3416.000000	99.542606 
3415.000000	99.543538 
3414.000000	99.541532 
3413.000000	99.539170 
3412.000000	99.538382 
3411.000000	99.539192 
3410.000000	99.540537 
3409.000000	99.541432 
3408.000000	99.541120 
3407.000000	99.538990 
3406.000000	99.535217 
3405.000000	99.531187 
3404.000000	99.528658 
3403.000000	99.528355 
3402.000000	99.529617 
3401.000000	99.531503 
3400.000000	99.533753 
3399.000000	99.536537 
3398.000000	99.539591 
3397.000000	99.542034 
3396.000000	99.542954 
3395.000000	99.541857 
3394.000000	99.538579 
3393.000000	99.533292 
3392.000000	99.526990 
3391.000000	99.521695 
3390.000000	99.519634 
3389.000000	99.521766 
3388.000000	99.527059 
3387.000000	99.533359 
3386.000000	99.539199 
3385.000000	99.544691 
3384.000000	99.550453 
3383.000000	99.555758 
3382.000000	99.558215 
3381.000000	99.555859 
3380.000000	99.549513 
3379.000000	99.542838 
3378.000000	99.539482 
3377.000000	99.540015 
3376.000000	99.541785 
3375.000000	99.541871 
3374.000000	99.540065 
3373.000000	99.538761 
3372.000000	99.540046 
3371.000000	99.543282 
3370.000000	99.545744 
3369.000000	99.545352 
3368.000000	99.542602 
3367.000000	99.539982 
3366.000000	99.539720 
3365.000000	99.541881 
3364.000000	99.544409 
3363.000000	99.545121 
3362.000000	99.543752 
3361.000000	99.541775 
3360.000000	99.540200 
3359.000000	99.538367 
3358.000000	99.535595 
3357.000000	99.533330 
3356.000000	99.534144 
3355.000000	99.538225 
3354.000000	99.542115 
3353.000000	99.541860 
3352.000000	99.536903 
3351.000000	99.530411 
3350.000000	99.526299 
3349.000000	99.526509 
3348.000000	99.530449 
3347.000000	99.535644 
3346.000000	99.538968 
3345.000000	99.538636 
3344.000000	99.535886 
3343.000000	99.534224 
3342.000000	99.535988 
3341.000000	99.539656 
3340.000000	99.541062 
3339.000000	99.537583 
3338.000000	99.530944 
3337.000000	99.525736 
3336.000000	99.525256 
3335.000000	99.528935 
3334.000000	99.533727 
3333.000000	99.537433 
3332.000000	99.540184 
3331.000000	99.542877 
3330.000000	99.544983 
3329.000000	99.544666 
3328.000000	99.541070 
3327.000000	99.535789 
3326.000000	99.531522 
3325.000000	99.529403 
3324.000000	99.528082 
3323.000000	99.525756 
3322.000000	99.522676 
3321.000000	99.521113 
3320.000000	99.522904 
3319.000000	99.527577 
3318.000000	99.533066 
3317.000000	99.537566 
3316.000000	99.540112 
3315.000000	99.540174 
3314.000000	99.538029 
3313.000000	99.535528 
3312.000000	99.535087 
3311.000000	99.537138 
3310.000000	99.539326 
3309.000000	99.539005 
3308.000000	99.536036 
3307.000000	99.532508 
3306.000000	99.530318 
3305.000000	99.529942 
3304.000000	99.531181 
3303.000000	99.533688 
3302.000000	99.536355 
3301.000000	99.537064 
3300.000000	99.534022 
3299.000000	99.527628 
3298.000000	99.520900 
3297.000000	99.517719 
3296.000000	99.519857 
3295.000000	99.525281 
3294.000000	99.529747 
3293.000000	99.530645 
3292.000000	99.529216 
3291.000000	99.528492 
3290.000000	99.529413 
3289.000000	99.529971 
3288.000000	99.528106 
3287.000000	99.524337 
3286.000000	99.520936 
3285.000000	99.519145 
3284.000000	99.518031 
3283.000000	99.516005 
3282.000000	99.512976 
3281.000000	99.510671 
3280.000000	99.510883 
3279.000000	99.513470 
3278.000000	99.516288 
3277.000000	99.517120 
3276.000000	99.515321 
3275.000000	99.511539 
3274.000000	99.506674 
3273.000000	99.501928 
3272.000000	99.499297 
3271.000000	99.500515 
3270.000000	99.505056 
3269.000000	99.510008 
3268.000000	99.512409 
3267.000000	99.511325 
3266.000000	99.507758 
3265.000000	99.503587 
3264.000000	99.500978 
3263.000000	99.501807 
3262.000000	99.506487 
3261.000000	99.513250 
3260.000000	99.519065 
3259.000000	99.521311 
3258.000000	99.518858 
3257.000000	99.512403 
3256.000000	99.504208 
3255.000000	99.496946 
3254.000000	99.492232 
3253.000000	99.490350 
3252.000000	99.491200 
3251.000000	99.494614 
3250.000000	99.499371 
3249.000000	99.503095 
3248.000000	99.504175 
3247.000000	99.503317 
3246.000000	99.502377 
3245.000000	99.502013 
3244.000000	99.501311 
3243.000000	99.499392 
3242.000000	99.496401 
3241.000000	99.493101 
3240.000000	99.490626 
3239.000000	99.490717 
3238.000000	99.495052 
3237.000000	99.503534 
3236.000000	99.513545 
3235.000000	99.521307 
3234.000000	99.524158 
3233.000000	99.521911 
3232.000000	99.516667 
3231.000000	99.511519 
3230.000000	99.508715 
3229.000000	99.508364 
3228.000000	99.508703 
3227.000000	99.507604 
3226.000000	99.504000 
3225.000000	99.498401 
3224.000000	99.492591 
3223.000000	99.488767 
3222.000000	99.488238 
3221.000000	99.490388 
3220.000000	99.492965 
3219.000000	99.493732 
3218.000000	99.492277 
3217.000000	99.490564 
3216.000000	99.491733 
3215.000000	99.497644 
3214.000000	99.506808 
3213.000000	99.514756 
3212.000000	99.517102 
3211.000000	99.512787 
3210.000000	99.504569 
3209.000000	99.496666 
3208.000000	99.491959 
3207.000000	99.490777 
3206.000000	99.491467 
3205.000000	99.491954 
3204.000000	99.491337 
3203.000000	99.490326 
3202.000000	99.490038 
3201.000000	99.490580 
3200.000000	99.491278 
3199.000000	99.492064 
3198.000000	99.493813 
3197.000000	99.497029 
3196.000000	99.500885 
3195.000000	99.503971 
3194.000000	99.505473 
3193.000000	99.505221 
3192.000000	99.503129 
3191.000000	99.499318 
3190.000000	99.494642 
3189.000000	99.490539 
3188.000000	99.488135 
3187.000000	99.487657 
3186.000000	99.488555 
3185.000000	99.489861 
3184.000000	99.490645 
3183.000000	99.490547 
3182.000000	99.490165 
3181.000000	99.490825 
3180.000000	99.493732 
3179.000000	99.498869 
3178.000000	99.504338 
3177.000000	99.507053 
3176.000000	99.505092 
3175.000000	99.499828 
3174.000000	99.495078 
3173.000000	99.493401 
3172.000000	99.493540 
3171.000000	99.492319 
3170.000000	99.488836 
3169.000000	99.485693 
3168.000000	99.485818 
3167.000000	99.489068 
3166.000000	99.492669 
3165.000000	99.494235 
3164.000000	99.493514 
3163.000000	99.491538 
3162.000000	99.489317 
3161.000000	99.487684 
3160.000000	99.487453 
3159.000000	99.488773 
3158.000000	99.490412 
3157.000000	99.490358 
3156.000000	99.487494 
3155.000000	99.482487 
3154.000000	99.476882 
3153.000000	99.471597 
3152.000000	99.466595 
3151.000000	99.461968 
3150.000000	99.458843 
3149.000000	99.458890 
3148.000000	99.462884 
3147.000000	99.469766 
3146.000000	99.477068 
3145.000000	99.482391 
3144.000000	99.484775 
3143.000000	99.484868 
3142.000000	99.483887 
3141.000000	99.482514 
3140.000000	99.480783 
3139.000000	99.478695 
3138.000000	99.476517 
3137.000000	99.474651 
3136.000000	99.473763 
3135.000000	99.474990 
3134.000000	99.479122 
3133.000000	99.484968 
3132.000000	99.489100 
3131.000000	99.488325 
3130.000000	99.482679 
3129.000000	99.475684 
3128.000000	99.471665 
3127.000000	99.472887 
3126.000000	99.478561 
3125.000000	99.485531 
3124.000000	99.489942 
3123.000000	99.489499 
3122.000000	99.485114 
3121.000000	99.480023 
3120.000000	99.476775 
3119.000000	99.475341 
3118.000000	99.474325 
3117.000000	99.473428 
3116.000000	99.473962 
3115.000000	99.477020 
3114.000000	99.481827 
3113.000000	99.486081 
3112.000000	99.487661 
3111.000000	99.486076 
3110.000000	99.482553 
3109.000000	99.478862 
3108.000000	99.475856 
3107.000000	99.473120 
3106.000000	99.469978 
3105.000000	99.466734 
3104.000000	99.464785 
3103.000000	99.465530 
3102.000000	99.469224 
3101.000000	99.474709 
3100.000000	99.480244 
3099.000000	99.484663 
3098.000000	99.487798 
3097.000000	99.489844 
3096.000000	99.490672 
3095.000000	99.490022 
3094.000000	99.488169 
3093.000000	99.485839 
3092.000000	99.483425 
3091.000000	99.480925 
3090.000000	99.478797 
3089.000000	99.478147 
3088.000000	99.479329 
3087.000000	99.480845 
3086.000000	99.480438 
3085.000000	99.477295 
3084.000000	99.472563 
3083.000000	99.467856 
3082.000000	99.464140 
3081.000000	99.462096 
3080.000000	99.462515 
3079.000000	99.465618 
3078.000000	99.470507 
3077.000000	99.475813 
3076.000000	99.480515 
3075.000000	99.483760 
3074.000000	99.484492 
3073.000000	99.482235 
3072.000000	99.478027 
3071.000000	99.473739 
3070.000000	99.470286 
3069.000000	99.467090 
3068.000000	99.463547 
3067.000000	99.460593 
3066.000000	99.460457 
3065.000000	99.464841 
3064.000000	99.473052 
3063.000000	99.481557 
3062.000000	99.485712 
3061.000000	99.482904 
3060.000000	99.474651 
3059.000000	99.465427 
3058.000000	99.459327 
3057.000000	99.457943 
3056.000000	99.460727 
3055.000000	99.466035 
3054.000000	99.471316 
3053.000000	99.473552 
3052.000000	99.470961 
3051.000000	99.464481 
3050.000000	99.457178 
3049.000000	99.452188 
3048.000000	99.451057 
3047.000000	99.453036 
3046.000000	99.455152 
3045.000000	99.453719 
3044.000000	99.447335 
3043.000000	99.438701 
3042.000000	99.432511 
3041.000000	99.431013 
3040.000000	99.432064 
3039.000000	99.431594 
3038.000000	99.427229 
3037.000000	99.419237 
3036.000000	99.408956 
3035.000000	99.397449 
3034.000000	99.385577 
3033.000000	99.374222 
3032.000000	99.363755 
3031.000000	99.353549 
3030.000000	99.342616 
3029.000000	99.330937 
3028.000000	99.319936 
3027.000000	99.311358 
3026.000000	99.305429 
3025.000000	99.300008 
3024.000000	99.291800 
3023.000000	99.278793 
3022.000000	99.261737 
3021.000000	99.243148 
3020.000000	99.224865 
3019.000000	99.206644 
3018.000000	99.187185 
3017.000000	99.166101 
3016.000000	99.144479 
3015.000000	99.123600 
3014.000000	99.103877 
3013.000000	99.085379 
3012.000000	99.068703 
3011.000000	99.054354 
3010.000000	99.041327 
3009.000000	99.027271 
3008.000000	99.010473 
3007.000000	98.991245 
3006.000000	98.971024 
3005.000000	98.950598 
3004.000000	98.929711 
3003.000000	98.908128 
3002.000000	98.886432 
3001.000000	98.865654 
3000.000000	98.846383 
2999.000000	98.828399 
2998.000000	98.811292 
2997.000000	98.795515 
2996.000000	98.782353 
2995.000000	98.771649 
2994.000000	98.759100 
2993.000000	98.737324 
2992.000000	98.701941 
2991.000000	98.657501 
2990.000000	98.616476 
2989.000000	98.591104 
2988.000000	98.585414 
2987.000000	98.594464 
2986.000000	98.609942 
2985.000000	98.625759 
2984.000000	98.639161 
2983.000000	98.648858 
2982.000000	98.653906 
2981.000000	98.654564 
2980.000000	98.653126 
2979.000000	98.652717 
2978.000000	98.654744 
2977.000000	98.657530 
2976.000000	98.657692 
2975.000000	98.653171 
2974.000000	98.645357 
2973.000000	98.638614 
2972.000000	98.637616 
2971.000000	98.644495 
2970.000000	98.657905 
2969.000000	98.674576 
2968.000000	98.691896 
2967.000000	98.709294 
2966.000000	98.727494 
2965.000000	98.746799 
2964.000000	98.766272 
2963.000000	98.784340 
2962.000000	98.799912 
2961.000000	98.812866 
2960.000000	98.823624 
2959.000000	98.832570 
2958.000000	98.840055 
2957.000000	98.846803 
2956.000000	98.853845 
2955.000000	98.861893 
2954.000000	98.871132 
2953.000000	98.881792 
2952.000000	98.894334 
2951.000000	98.908410 
2950.000000	98.921952 
2949.000000	98.932215 
2948.000000	98.937948 
2947.000000	98.940199 
2946.000000	98.941240 
2945.000000	98.943406 
2944.000000	98.948587 
2943.000000	98.957257 
2942.000000	98.967273 
2941.000000	98.974811 
2940.000000	98.977768 
2939.000000	98.978093 
2938.000000	98.980018 
2937.000000	98.986227 
2936.000000	98.996146 
2935.000000	99.007231 
2934.000000	99.016859 
2933.000000	99.023242 
2932.000000	99.025823 
2931.000000	99.025372 
2930.000000	99.023465 
2929.000000	99.021668 
2928.000000	99.020940 
2927.000000	99.021005 
2926.000000	99.019913 
2925.000000	99.015166 
2924.000000	99.006360 
2923.000000	98.996138 
2922.000000	98.987463 
2921.000000	98.980290 
2920.000000	98.972132 
2919.000000	98.961529 
2918.000000	98.949604 
2917.000000	98.938037 
2916.000000	98.926918 
2915.000000	98.915162 
2914.000000	98.902296 
2913.000000	98.889320 
2912.000000	98.878330 
2911.000000	98.871264 
2910.000000	98.868167 
2909.000000	98.866512 
2908.000000	98.862972 
2907.000000	98.856086 
2906.000000	98.846237 
2905.000000	98.833176 
2904.000000	98.815475 
2903.000000	98.794025 
2902.000000	98.775099 
2901.000000	98.768318 
2900.000000	98.778864 
2899.000000	98.803163 
2898.000000	98.830697 
2897.000000	98.850938 
2896.000000	98.859729 
2895.000000	98.860570 
2894.000000	98.860401 
2893.000000	98.863753 
2892.000000	98.870478 
2891.000000	98.877885 
2890.000000	98.883828 
2889.000000	98.887538 
2888.000000	98.889012 
2887.000000	98.889037 
2886.000000	98.889489 
2885.000000	98.892420 
2884.000000	98.898715 
2883.000000	98.908269 
2882.000000	98.921170 
2881.000000	98.937659 
2880.000000	98.956721 
2879.000000	98.975742 
2878.000000	98.992291 
2877.000000	99.005954 
2876.000000	99.017997 
2875.000000	99.029549 
2874.000000	99.040550 
2873.000000	99.050278 
2872.000000	99.058282 
2871.000000	99.064595 
2870.000000	99.069519 
2869.000000	99.073884 
2868.000000	99.079618 
2867.000000	99.089291 
2866.000000	99.104131 
2865.000000	99.122427 
2864.000000	99.140604 
2863.000000	99.156264 
2862.000000	99.169794 
2861.000000	99.182913 
2860.000000	99.196498 
2859.000000	99.210380 
2858.000000	99.224313 
2857.000000	99.237935 
2856.000000	99.250086 
2855.000000	99.259470 
2854.000000	99.266368 
2853.000000	99.272875 
2852.000000	99.280963 
2851.000000	99.290624 
2850.000000	99.300156 
2849.000000	99.307848 
2848.000000	99.313202 
2847.000000	99.316988 
2846.000000	99.320388 
2845.000000	99.323787 
2844.000000	99.326168 
2843.000000	99.326195 
2842.000000	99.324312 
2841.000000	99.323342 
2840.000000	99.326296 
2839.000000	99.333516 
2838.000000	99.342344 
2837.000000	99.349626 
2836.000000	99.354194 
2835.000000	99.357007 
2834.000000	99.359480 
2833.000000	99.362052 
2832.000000	99.364110 
2831.000000	99.364824 
2830.000000	99.364001 
2829.000000	99.362407 
2828.000000	99.361424 
2827.000000	99.362235 
2826.000000	99.365079 
2825.000000	99.369088 
2824.000000	99.372809 
2823.000000	99.375075 
2822.000000	99.375704 
2821.000000	99.375664 
2820.000000	99.376501 
2819.000000	99.379178 
2818.000000	99.383068 
2817.000000	99.386190 
2816.000000	99.386868 
2815.000000	99.385339 
2814.000000	99.383419 
2813.000000	99.382540 
2812.000000	99.382577 
2811.000000	99.382981 
2810.000000	99.384343 
2809.000000	99.387762 
2808.000000	99.392633 
2807.000000	99.396222 
2806.000000	99.396235 
2805.000000	99.393341 
2804.000000	99.390549 
2803.000000	99.390410 
2802.000000	99.393321 
2801.000000	99.398060 
2800.000000	99.402897 
2799.000000	99.406151 
2798.000000	99.406652 
2797.000000	99.404338 
2796.000000	99.400315 
2795.000000	99.396218 
2794.000000	99.393678 
2793.000000	99.393937 
2792.000000	99.397010 
2791.000000	99.401120 
2790.000000	99.403960 
2789.000000	99.405077 
2788.000000	99.406316 
2787.000000	99.409289 
2786.000000	99.413105 
2785.000000	99.415296 
2784.000000	99.414473 
2783.000000	99.411218 
2782.000000	99.406948 
2781.000000	99.403047 
2780.000000	99.400900 
2779.000000	99.401406 
2778.000000	99.404008 
2777.000000	99.407054 
2776.000000	99.409480 
2775.000000	99.411502 
2774.000000	99.413509 
2773.000000	99.415259 
2772.000000	99.416673 
2771.000000	99.418457 
2770.000000	99.420989 
2769.000000	99.423111 
2768.000000	99.423169 
2767.000000	99.421248 
2766.000000	99.419457 
2765.000000	99.419570 
2764.000000	99.420872 
2763.000000	99.420766 
2762.000000	99.417478 
2761.000000	99.411975 
2760.000000	99.407325 
2759.000000	99.406341 
2758.000000	99.409735 
2757.000000	99.416090 
2756.000000	99.422886 
2755.000000	99.427470 
2754.000000	99.427842 
2753.000000	99.423774 
2752.000000	99.417527 
2751.000000	99.412757 
2750.000000	99.411966 
2749.000000	99.414821 
2748.000000	99.418928 
2747.000000	99.422019 
2746.000000	99.423397 
2745.000000	99.423744 
2744.000000	99.423977 
2743.000000	99.424345 
2742.000000	99.424564 
2741.000000	99.424695 
2740.000000	99.425480 
2739.000000	99.427422 
2738.000000	99.429934 
2737.000000	99.432079 
2736.000000	99.433944 
2735.000000	99.436274 
2734.000000	99.438639 
2733.000000	99.439130 
2732.000000	99.436546 
2731.000000	99.432135 
2730.000000	99.428429 
2729.000000	99.426877 
2728.000000	99.427235 
2727.000000	99.428571 
2726.000000	99.429901 
2725.000000	99.430309 
2724.000000	99.429703 
2723.000000	99.429562 
2722.000000	99.431858 
2721.000000	99.436681 
2720.000000	99.441510 
2719.000000	99.443365 
2718.000000	99.441566 
2717.000000	99.438118 
2716.000000	99.435598 
2715.000000	99.434936 
2714.000000	99.435277 
2713.000000	99.435587 
2712.000000	99.435888 
2711.000000	99.436805 
2710.000000	99.438513 
2709.000000	99.440807 
2708.000000	99.443797 
2707.000000	99.447480 
2706.000000	99.450570 
2705.000000	99.451041 
2704.000000	99.448536 
2703.000000	99.445251 
2702.000000	99.443546 
2701.000000	99.443346 
2700.000000	99.442996 
2699.000000	99.442179 
2698.000000	99.442631 
2697.000000	99.445753 
2696.000000	99.450438 
2695.000000	99.453795 
2694.000000	99.453842 
2693.000000	99.451383 
2692.000000	99.449292 
2691.000000	99.449619 
2690.000000	99.451269 
2689.000000	99.451051 
2688.000000	99.447462 
2687.000000	99.442764 
2686.000000	99.440792 
2685.000000	99.443254 
2684.000000	99.448727 
2683.000000	99.454300 
2682.000000	99.457120 
2681.000000	99.455281 
2680.000000	99.449177 
2679.000000	99.442170 
2678.000000	99.438436 
2677.000000	99.439567 
2676.000000	99.443892 
2675.000000	99.448915 
2674.000000	99.453171 
2673.000000	99.455795 
2672.000000	99.456123 
2671.000000	99.454575 
2670.000000	99.452783 
2669.000000	99.451906 
2668.000000	99.451580 
2667.000000	99.451199 
2666.000000	99.451250 
2665.000000	99.452331 
2664.000000	99.453567 
2663.000000	99.453316 
2662.000000	99.451471 
2661.000000	99.450083 
2660.000000	99.451243 
2659.000000	99.454734 
2658.000000	99.458141 
2657.000000	99.459385 
2656.000000	99.458960 
2655.000000	99.459222 
2654.000000	99.461299 
2653.000000	99.463489 
2652.000000	99.463659 
2651.000000	99.462560 
2650.000000	99.463040 
2649.000000	99.465779 
2648.000000	99.467839 
2647.000000	99.466669 
2646.000000	99.464115 
2645.000000	99.464526 
2644.000000	99.469192 
2643.000000	99.474373 
2642.000000	99.475214 
2641.000000	99.470716 
2640.000000	99.464473 
2639.000000	99.461100 
2638.000000	99.462219 
2637.000000	99.465460 
2636.000000	99.466967 
2635.000000	99.464837 
2634.000000	99.460299 
2633.000000	99.456193 
2632.000000	99.454975 
2631.000000	99.457816 
2630.000000	99.464006 
2629.000000	99.470458 
2628.000000	99.473077 
2627.000000	99.470223 
2626.000000	99.464682 
2625.000000	99.461219 
2624.000000	99.462246 
2623.000000	99.466449 
2622.000000	99.471047 
2621.000000	99.474211 
2620.000000	99.475506 
2619.000000	99.475453 
2618.000000	99.475201 
2617.000000	99.475830 
2616.000000	99.477426 
2615.000000	99.479183 
2614.000000	99.480525 
2613.000000	99.481654 
2612.000000	99.482938 
2611.000000	99.484263 
2610.000000	99.485102 
2609.000000	99.484701 
2608.000000	99.482217 
2607.000000	99.477454 
2606.000000	99.471907 
2605.000000	99.468418 
2604.000000	99.468961 
2603.000000	99.472682 
2602.000000	99.476599 
2601.000000	99.478516 
2600.000000	99.479048 
2599.000000	99.480371 
2598.000000	99.482952 
2597.000000	99.484173 
2596.000000	99.480968 
2595.000000	99.473698 
2594.000000	99.466502 
2593.000000	99.463350 
2592.000000	99.464404 
2591.000000	99.466799 
2590.000000	99.468342 
2589.000000	99.469376 
2588.000000	99.471186 
2587.000000	99.473728 
2586.000000	99.475674 
2585.000000	99.476313 
2584.000000	99.476615 
2583.000000	99.478027 
2582.000000	99.480505 
2581.000000	99.482365 
2580.000000	99.482247 
2579.000000	99.480528 
2578.000000	99.478108 
2577.000000	99.474503 
2576.000000	99.468543 
2575.000000	99.461073 
2574.000000	99.455530 
2573.000000	99.454965 
2572.000000	99.459197 
2571.000000	99.465403 
2570.000000	99.470654 
2569.000000	99.473324 
2568.000000	99.473220 
2567.000000	99.471555 
2566.000000	99.470185 
2565.000000	99.469687 
2564.000000	99.468611 
2563.000000	99.465692 
2562.000000	99.462314 
2561.000000	99.461319 
2560.000000	99.463323 
2559.000000	99.465581 
2558.000000	99.465027 
2557.000000	99.461676 
2556.000000	99.458614 
2555.000000	99.459190 
2554.000000	99.464365 
2553.000000	99.472035 
2552.000000	99.478457 
2551.000000	99.480779 
2550.000000	99.478771 
2549.000000	99.474306 
2548.000000	99.469344 
2547.000000	99.464672 
2546.000000	99.460414 
2545.000000	99.457120 
2544.000000	99.455807 
2543.000000	99.456703 
2542.000000	99.458051 
2541.000000	99.456940 
2540.000000	99.452342 
2539.000000	99.447117 
2538.000000	99.445535 
2537.000000	99.448234 
2536.000000	99.451248 
2535.000000	99.451223 
2534.000000	99.449871 
2533.000000	99.450974 
2532.000000	99.454106 
2531.000000	99.454698 
2530.000000	99.450766 
2529.000000	99.446203 
2528.000000	99.445343 
2527.000000	99.446719 
2526.000000	99.445377 
2525.000000	99.440500 
2524.000000	99.437504 
2523.000000	99.441765 
2522.000000	99.452308 
2521.000000	99.462741 
2520.000000	99.467019 
2519.000000	99.463352 
2518.000000	99.454009 
2517.000000	99.443250 
2516.000000	99.435016 
2515.000000	99.430781 
2514.000000	99.429106 
2513.000000	99.428119 
2512.000000	99.428428 
2511.000000	99.432498 
2510.000000	99.440997 
2509.000000	99.451272 
2508.000000	99.460293 
2507.000000	99.467618 
2506.000000	99.473880 
2505.000000	99.477433 
2504.000000	99.475004 
2503.000000	99.466101 
2502.000000	99.454910 
2501.000000	99.446905 
2500.000000	99.444613 
2499.000000	99.447191 
2498.000000	99.452419 
2497.000000	99.457783 
2496.000000	99.460539 
2495.000000	99.458940 
2494.000000	99.453780 
2493.000000	99.447838 
2492.000000	99.443541 
2491.000000	99.441648 
2490.000000	99.442076 
2489.000000	99.445255 
2488.000000	99.452113 
2487.000000	99.462377 
2486.000000	99.472646 
2485.000000	99.477023 
2484.000000	99.471714 
2483.000000	99.459810 
2482.000000	99.449861 
2481.000000	99.448058 
2480.000000	99.452539 
2479.000000	99.456605 
2478.000000	99.456329 
2477.000000	99.453177 
2476.000000	99.450392 
2475.000000	99.449777 
2474.000000	99.451978 
2473.000000	99.456750 
2472.000000	99.461718 
2471.000000	99.463264 
2470.000000	99.460401 
2469.000000	99.456324 
2468.000000	99.454678 
2467.000000	99.455549 
2466.000000	99.456440 
2465.000000	99.455826 
2464.000000	99.454075 
2463.000000	99.452000 
2462.000000	99.450494 
2461.000000	99.450901 
2460.000000	99.453606 
2459.000000	99.456295 
2458.000000	99.455544 
2457.000000	99.450664 
2456.000000	99.444771 
2455.000000	99.441661 
2454.000000	99.442543 
2453.000000	99.445847 
2452.000000	99.448952 
2451.000000	99.449671 
2450.000000	99.447173 
2449.000000	99.442481 
2448.000000	99.437992 
2447.000000	99.436158 
2446.000000	99.438371 
2445.000000	99.444202 
2444.000000	99.450863 
2443.000000	99.454073 
2442.000000	99.451146 
2441.000000	99.443828 
2440.000000	99.437202 
2439.000000	99.435281 
2438.000000	99.437862 
2437.000000	99.441456 
2436.000000	99.442425 
2435.000000	99.439478 
2434.000000	99.434422 
2433.000000	99.431082 
2432.000000	99.432654 
2431.000000	99.439183 
2430.000000	99.447394 
2429.000000	99.452878 
2428.000000	99.452718 
2427.000000	99.447148 
2426.000000	99.439731 
2425.000000	99.435249 
2424.000000	99.436086 
2423.000000	99.440773 
2422.000000	99.446750 
2421.000000	99.453364 
2420.000000	99.460412 
2419.000000	99.464905 
2418.000000	99.462577 
2417.000000	99.453267 
2416.000000	99.442181 
2415.000000	99.434532 
2414.000000	99.430898 
2413.000000	99.428952 
2412.000000	99.427484 
2411.000000	99.426761 
2410.000000	99.426521 
2409.000000	99.425845 
2408.000000	99.424474 
2407.000000	99.422819 
2406.000000	99.421331 
2405.000000	99.420938 
2404.000000	99.422962 
2403.000000	99.427168 
2402.000000	99.430937 
2401.000000	99.431843 
2400.000000	99.430186 
2399.000000	99.427614 
2398.000000	99.424579 
2397.000000	99.421051 
2396.000000	99.418572 
2395.000000	99.418965 
2394.000000	99.421302 
2393.000000	99.422563 
2392.000000	99.421468 
2391.000000	99.419564 
2390.000000	99.418275 
2389.000000	99.417155 
2388.000000	99.415790 
2387.000000	99.415294 
2386.000000	99.416491 
2385.000000	99.417888 
2384.000000	99.417281 
2383.000000	99.415093 
2382.000000	99.414987 
2381.000000	99.420567 
2380.000000	99.431621 
2379.000000	99.443961 
2378.000000	99.453572 
2377.000000	99.459772 
2376.000000	99.463016 
2375.000000	99.461319 
2374.000000	99.452500 
2373.000000	99.438991 
2372.000000	99.426270 
2371.000000	99.416699 
2370.000000	99.409292 
2369.000000	99.404792 
2368.000000	99.404670 
2367.000000	99.406253 
2366.000000	99.406496 
2365.000000	99.408817 
2364.000000	99.417486 
2363.000000	99.426201 
2362.000000	99.422077 
2361.000000	99.403286 
2360.000000	99.380555 
2359.000000	99.362857 
2358.000000	99.353233 
2357.000000	99.352335 
2356.000000	99.360457 
2355.000000	99.375006 
2354.000000	99.397676 
2353.000000	99.423076 
2352.000000	99.436755 
2351.000000	99.430390 
2350.000000	99.408866 
2349.000000	99.384648 
2348.000000	99.368799 
2347.000000	99.370346 
2346.000000	99.385808 
2345.000000	99.395978 
2344.000000	99.389203 
2343.000000	99.372208 
2342.000000	99.361656 
2341.000000	99.362721 
2340.000000	99.371509 
2339.000000	99.383282 
2338.000000	99.396927 
2337.000000	99.409400 
2336.000000	99.410298 
2335.000000	99.397467 
2334.000000	99.382677 
2333.000000	99.380145 
2332.000000	99.384852 
2331.000000	99.388563 
2330.000000	99.387385 
2329.000000	99.387053 
2328.000000	99.384648 
2327.000000	99.382139 
2326.000000	99.382921 
2325.000000	99.388085 
2324.000000	99.390647 
2323.000000	99.387422 
2322.000000	99.383806 
2321.000000	99.383410 
2320.000000	99.379934 
2319.000000	99.370072 
2318.000000	99.359189 
2317.000000	99.358926 
2316.000000	99.369224 
2315.000000	99.384362 
2314.000000	99.395475 
2313.000000	99.402623 
2312.000000	99.406190 
2311.000000	99.409873 
2310.000000	99.412907 
2309.000000	99.414565 
2308.000000	99.412409 
2307.000000	99.409640 
2306.000000	99.409759 
2305.000000	99.414696 
2304.000000	99.421805 
2303.000000	99.430469 
2302.000000	99.439812 
2301.000000	99.448768 
2300.000000	99.454465 
2299.000000	99.458966 
2298.000000	99.464751 
2297.000000	99.472202 
2296.000000	99.476248 
2295.000000	99.475429 
2294.000000	99.472986 
2293.000000	99.474011 
2292.000000	99.478433 
2291.000000	99.483094 
2290.000000	99.485097 
2289.000000	99.483575 
2288.000000	99.479844 
2287.000000	99.477168 
2286.000000	99.478305 
2285.000000	99.480957 
2284.000000	99.480094 
2283.000000	99.474695 
2282.000000	99.470410 
2281.000000	99.471976 
2280.000000	99.477323 
2279.000000	99.480869 
2278.000000	99.480930 
2277.000000	99.480290 
2276.000000	99.481428 
2275.000000	99.484665 
2274.000000	99.489126 
2273.000000	99.492919 
2272.000000	99.493038 
2271.000000	99.488893 
2270.000000	99.484300 
2269.000000	99.483604 
2268.000000	99.486405 
2267.000000	99.489196 
2266.000000	99.490194 
2265.000000	99.489353 
2264.000000	99.484666 
2263.000000	99.473200 
2262.000000	99.456879 
2261.000000	99.443818 
2260.000000	99.441957 
2259.000000	99.451748 
2258.000000	99.466088 
2257.000000	99.476258 
2256.000000	99.478309 
2255.000000	99.474253 
2254.000000	99.468297 
2253.000000	99.463396 
2252.000000	99.461396 
2251.000000	99.464362 
2250.000000	99.472289 
2249.000000	99.480977 
2248.000000	99.484790 
2247.000000	99.483247 
2246.000000	99.480432 
2245.000000	99.479013 
2244.000000	99.477863 
2243.000000	99.476252 
2242.000000	99.476058 
2241.000000	99.478481 
2240.000000	99.482642 
2239.000000	99.488990 
2238.000000	99.499368 
2237.000000	99.510856 
2236.000000	99.514487 
2235.000000	99.504745 
2234.000000	99.487595 
2233.000000	99.474749 
2232.000000	99.471779 
2231.000000	99.475308 
2230.000000	99.479460 
2229.000000	99.480635 
2228.000000	99.477407 
2227.000000	99.470293 
2226.000000	99.462006 
2225.000000	99.455774 
2224.000000	99.453805 
2223.000000	99.458103 
2222.000000	99.469343 
2221.000000	99.482286 
2220.000000	99.486658 
2219.000000	99.478093 
2218.000000	99.465861 
2217.000000	99.463971 
2216.000000	99.475159 
2215.000000	99.488959 
2214.000000	99.495145 
2213.000000	99.493393 
2212.000000	99.489081 
2211.000000	99.485711 
2210.000000	99.484794 
2209.000000	99.488741 
2208.000000	99.498699 
2207.000000	99.510168 
2206.000000	99.514395 
2205.000000	99.505972 
2204.000000	99.488981 
2203.000000	99.474777 
2202.000000	99.472591 
2201.000000	99.481256 
2200.000000	99.490549 
2199.000000	99.491523 
2198.000000	99.484705 
2197.000000	99.477681 
2196.000000	99.476684 
2195.000000	99.482529 
2194.000000	99.492859 
2193.000000	99.504366 
2192.000000	99.512860 
2191.000000	99.515184 
2190.000000	99.513188 
2189.000000	99.513405 
2188.000000	99.519498 
2187.000000	99.525475 
2186.000000	99.519829 
2185.000000	99.498634 
2184.000000	99.473177 
2183.000000	99.461500 
2182.000000	99.471621 
2181.000000	99.494489 
2180.000000	99.513911 
2179.000000	99.521015 
2178.000000	99.517637 
2177.000000	99.509713 
2176.000000	99.501553 
2175.000000	99.495052 
2174.000000	99.490584 
2173.000000	99.488306 
2172.000000	99.490429 
2171.000000	99.501007 
2170.000000	99.520678 
2169.000000	99.542686 
2168.000000	99.557695 
2167.000000	99.562203 
2166.000000	99.559437 
2165.000000	99.554043 
2164.000000	99.550262 
2163.000000	99.552897 
2162.000000	99.562536 
2161.000000	99.569039 
2160.000000	99.557732 
2159.000000	99.526075 
2158.000000	99.487701 
2157.000000	99.456167 
2156.000000	99.432875 
2155.000000	99.415190 
2154.000000	99.406555 
2153.000000	99.411937 
2152.000000	99.428706 
2151.000000	99.447975 
2150.000000	99.463065 
2149.000000	99.473347 
2148.000000	99.481509 
2147.000000	99.489362 
2146.000000	99.495209 
2145.000000	99.494505 
2144.000000	99.485060 
2143.000000	99.471637 
2142.000000	99.462225 
2141.000000	99.459167 
2140.000000	99.457432 
2139.000000	99.452789 
2138.000000	99.447577 
2137.000000	99.446007 
2136.000000	99.447375 
2135.000000	99.447659 
2134.000000	99.446097 
2133.000000	99.446636 
2132.000000	99.452707 
2131.000000	99.462149 
2130.000000	99.467699 
2129.000000	99.463076 
2128.000000	99.449736 
2127.000000	99.436623 
2126.000000	99.431382 
2125.000000	99.433026 
2124.000000	99.435857 
2123.000000	99.438747 
2122.000000	99.445348 
2121.000000	99.455383 
2120.000000	99.462317 
2119.000000	99.462400 
2118.000000	99.460706 
2117.000000	99.464236 
2116.000000	99.472666 
2115.000000	99.480073 
2114.000000	99.482975 
2113.000000	99.482230 
2112.000000	99.479158 
2111.000000	99.474776 
2110.000000	99.472158 
2109.000000	99.474509 
2108.000000	99.479797 
2107.000000	99.480935 
2106.000000	99.473284 
2105.000000	99.460459 
2104.000000	99.451503 
2103.000000	99.452759 
2102.000000	99.462438 
2101.000000	99.472217 
2100.000000	99.474337 
2099.000000	99.467903 
2098.000000	99.458460 
2097.000000	99.452085 
2096.000000	99.451027 
2095.000000	99.454605 
2094.000000	99.461486 
2093.000000	99.469671 
2092.000000	99.476630 
2091.000000	99.481381 
2090.000000	99.485111 
2089.000000	99.488370 
2088.000000	99.488739 
2087.000000	99.482572 
2086.000000	99.468569 
2085.000000	99.449920 
2084.000000	99.434435 
2083.000000	99.431545 
2082.000000	99.445239 
2081.000000	99.468268 
2080.000000	99.486791 
2079.000000	99.493693 
2078.000000	99.495158 
2077.000000	99.501936 
2076.000000	99.516157 
2075.000000	99.529097 
2074.000000	99.530200 
2073.000000	99.516411 
2072.000000	99.494699 
2071.000000	99.477172 
2070.000000	99.471954 
2069.000000	99.476577 
2068.000000	99.480789 
2067.000000	99.476784 
2066.000000	99.465372 
2065.000000	99.453031 
2064.000000	99.446388 
2063.000000	99.449814 
2062.000000	99.463009 
2061.000000	99.478120 
2060.000000	99.484641 
2059.000000	99.481404 
2058.000000	99.479347 
2057.000000	99.488014 
2056.000000	99.503595 
2055.000000	99.515804 
2054.000000	99.522744 
2053.000000	99.531815 
2052.000000	99.547378 
2051.000000	99.564400 
2050.000000	99.574778 
2049.000000	99.575051 
2048.000000	99.566915 
2047.000000	99.554070 
2046.000000	99.540842 
2045.000000	99.530720 
2044.000000	99.523657 
2043.000000	99.516995 
2042.000000	99.510481 
2041.000000	99.507580 
2040.000000	99.509952 
2039.000000	99.513465 
2038.000000	99.512364 
2037.000000	99.506181 
2036.000000	99.499873 
2035.000000	99.496073 
2034.000000	99.489559 
2033.000000	99.473513 
2032.000000	99.452355 
2031.000000	99.442827 
2030.000000	99.456588 
2029.000000	99.483639 
2028.000000	99.500019 
2027.000000	99.493118 
2026.000000	99.472642 
2025.000000	99.456334 
2024.000000	99.452620 
2023.000000	99.459843 
2022.000000	99.473298 
2021.000000	99.485936 
2020.000000	99.488536 
2019.000000	99.477804 
2018.000000	99.462075 
2017.000000	99.452776 
2016.000000	99.451462 
2015.000000	99.450914 
2014.000000	99.446117 
2013.000000	99.437858 
2012.000000	99.429291 
2011.000000	99.425480 
2010.000000	99.433708 
2009.000000	99.456621 
2008.000000	99.485035 
2007.000000	99.504176 
2006.000000	99.507545 
2005.000000	99.500449 
2004.000000	99.491273 
2003.000000	99.484396 
2002.000000	99.480638 
2001.000000	99.478707 
2000.000000	99.475636 
1999.000000	99.469276 
1998.000000	99.460224 
1997.000000	99.449738 
1996.000000	99.438148 
1995.000000	99.427222 
1994.000000	99.421664 
1993.000000	99.425123 
1992.000000	99.435059 
1991.000000	99.444376 
1990.000000	99.447829 
1989.000000	99.444720 
1988.000000	99.438671 
1987.000000	99.437403 
1986.000000	99.448529 
1985.000000	99.471174 
1984.000000	99.494188 
1983.000000	99.506484 
1982.000000	99.507030 
1981.000000	99.502037 
1980.000000	99.496165 
1979.000000	99.490506 
1978.000000	99.485264 
1977.000000	99.478541 
1976.000000	99.465642 
1975.000000	99.446080 
1974.000000	99.429448 
1973.000000	99.427463 
1972.000000	99.439920 
1971.000000	99.454408 
1970.000000	99.460931 
1969.000000	99.462207 
1968.000000	99.467517 
1967.000000	99.479449 
1966.000000	99.490983 
1965.000000	99.494908 
1964.000000	99.491685 
1963.000000	99.486762 
1962.000000	99.483508 
1961.000000	99.481473 
1960.000000	99.480098 
1959.000000	99.480151 
1958.000000	99.480483 
1957.000000	99.477193 
1956.000000	99.468428 
1955.000000	99.456846 
1954.000000	99.444402 
1953.000000	99.428132 
1952.000000	99.405831 
1951.000000	99.384373 
1950.000000	99.376338 
1949.000000	99.386563 
1948.000000	99.406138 
1947.000000	99.421744 
1946.000000	99.426477 
1945.000000	99.420304 
1944.000000	99.406263 
1943.000000	99.390624 
1942.000000	99.381831 
1941.000000	99.382728 
1940.000000	99.387590 
1939.000000	99.390711 
1938.000000	99.393291 
1937.000000	99.399436 
1936.000000	99.408780 
1935.000000	99.416396 
1934.000000	99.418510 
1933.000000	99.415353 
1932.000000	99.409123 
1931.000000	99.402776 
1930.000000	99.400537 
1929.000000	99.404902 
1928.000000	99.412795 
1927.000000	99.418164 
1926.000000	99.417772 
1925.000000	99.411697 
1924.000000	99.400951 
1923.000000	99.388641 
1922.000000	99.382185 
1921.000000	99.387532 
1920.000000	99.401507 
1919.000000	99.413833 
1918.000000	99.416331 
1917.000000	99.409337 
1916.000000	99.399238 
1915.000000	99.392910 
1914.000000	99.394562 
1913.000000	99.403155 
1912.000000	99.412139 
1911.000000	99.415244 
1910.000000	99.412640 
1909.000000	99.408690 
1908.000000	99.405864 
1907.000000	99.405184 
1906.000000	99.409463 
1905.000000	99.419355 
1904.000000	99.428032 
1903.000000	99.426297 
1902.000000	99.413233 
1901.000000	99.396648 
1900.000000	99.384370 
1899.000000	99.379250 
1898.000000	99.381148 
1897.000000	99.388265 
1896.000000	99.396185 
1895.000000	99.400915 
1894.000000	99.404148 
1893.000000	99.410266 
1892.000000	99.418563 
1891.000000	99.423342 
1890.000000	99.421325 
1889.000000	99.415625 
1888.000000	99.410844 
1887.000000	99.408686 
1886.000000	99.409258 
1885.000000	99.412117 
1884.000000	99.415098 
1883.000000	99.415380 
1882.000000	99.412687 
1881.000000	99.409351 
1880.000000	99.408028 
1879.000000	99.409996 
1878.000000	99.413774 
1877.000000	99.414826 
1876.000000	99.409603 
1875.000000	99.401474 
1874.000000	99.399180 
1873.000000	99.406092 
1872.000000	99.414014 
1871.000000	99.412036 
1870.000000	99.399817 
1869.000000	99.387677 
1868.000000	99.381038 
1867.000000	99.375065 
1866.000000	99.367717 
1865.000000	99.363933 
1864.000000	99.368149 
1863.000000	99.379691 
1862.000000	99.394790 
1861.000000	99.408852 
1860.000000	99.416767 
1859.000000	99.416057 
1858.000000	99.410951 
1857.000000	99.408683 
1856.000000	99.411402 
1855.000000	99.415751 
1854.000000	99.418476 
1853.000000	99.418470 
1852.000000	99.415098 
1851.000000	99.408215 
1850.000000	99.400306 
1849.000000	99.395220 
1848.000000	99.394287 
1847.000000	99.395595 
1846.000000	99.397248 
1845.000000	99.398051 
1844.000000	99.395913 
1843.000000	99.390593 
1842.000000	99.386570 
1841.000000	99.387626 
1840.000000	99.393496 
1839.000000	99.401433 
1838.000000	99.408626 
1837.000000	99.413238 
1836.000000	99.414402 
1835.000000	99.412953 
1834.000000	99.411305 
1833.000000	99.411516 
1832.000000	99.414334 
1831.000000	99.418454 
1830.000000	99.421082 
1829.000000	99.420910 
1828.000000	99.419877 
1827.000000	99.419569 
1826.000000	99.419538 
1825.000000	99.419636 
1824.000000	99.420171 
1823.000000	99.420716 
1822.000000	99.420447 
1821.000000	99.418091 
1820.000000	99.411839 
1819.000000	99.401168 
1818.000000	99.390300 
1817.000000	99.386194 
1816.000000	99.389954 
1815.000000	99.395147 
1814.000000	99.396969 
1813.000000	99.398246 
1812.000000	99.404285 
1811.000000	99.414172 
1810.000000	99.423402 
1809.000000	99.431317 
1808.000000	99.437747 
1807.000000	99.439383 
1806.000000	99.434934 
1805.000000	99.428116 
1804.000000	99.422410 
1803.000000	99.416973 
1802.000000	99.410841 
1801.000000	99.407876 
1800.000000	99.410361 
1799.000000	99.413667 
1798.000000	99.414128 
1797.000000	99.413785 
1796.000000	99.414994 
1795.000000	99.417099 
1794.000000	99.418844 
1793.000000	99.420599 
1792.000000	99.422289 
1791.000000	99.421347 
1790.000000	99.418295 
1789.000000	99.417478 
1788.000000	99.420865 
1787.000000	99.426175 
1786.000000	99.430277 
1785.000000	99.431979 
1784.000000	99.430725 
1783.000000	99.426831 
1782.000000	99.422444 
1781.000000	99.419829 
1780.000000	99.417699 
1779.000000	99.412821 
1778.000000	99.405947 
1777.000000	99.401210 
1776.000000	99.401087 
1775.000000	99.405503 
1774.000000	99.413802 
1773.000000	99.424367 
1772.000000	99.432826 
1771.000000	99.434258 
1770.000000	99.429029 
1769.000000	99.421663 
1768.000000	99.417473 
1767.000000	99.417836 
1766.000000	99.419870 
1765.000000	99.421592 
1764.000000	99.423368 
1763.000000	99.425835 
1762.000000	99.427993 
1761.000000	99.429314 
1760.000000	99.430819 
1759.000000	99.432283 
1758.000000	99.432193 
1757.000000	99.430468 
1756.000000	99.429112 
1755.000000	99.428392 
1754.000000	99.424458 
1753.000000	99.414321 
1752.000000	99.403319 
1751.000000	99.404099 
1750.000000	99.420516 
1749.000000	99.440870 
1748.000000	99.454090 
1747.000000	99.459072 
1746.000000	99.459044 
1745.000000	99.456338 
1744.000000	99.453267 
1743.000000	99.451786 
1742.000000	99.451209 
1741.000000	99.450455 
1740.000000	99.450393 
1739.000000	99.451477 
1738.000000	99.451397 
1737.000000	99.447518 
1736.000000	99.438642 
1735.000000	99.426059 
1734.000000	99.415958 
1733.000000	99.414293 
1732.000000	99.421187 
1731.000000	99.432430 
1730.000000	99.443192 
1729.000000	99.449128 
1728.000000	99.449892 
1727.000000	99.448743 
1726.000000	99.447398 
1725.000000	99.444548 
1724.000000	99.439528 
1723.000000	99.435518 
1722.000000	99.436704 
1721.000000	99.444071 
1720.000000	99.454232 
1719.000000	99.460559 
1718.000000	99.456639 
1717.000000	99.446896 
1716.000000	99.439248 
1715.000000	99.433161 
1714.000000	99.429012 
1713.000000	99.429492 
1712.000000	99.432679 
1711.000000	99.434885 
1710.000000	99.435375 
1709.000000	99.436304 
1708.000000	99.438948 
1707.000000	99.442042 
1706.000000	99.446231 
1705.000000	99.453565 
1704.000000	99.459641 
1703.000000	99.454777 
1702.000000	99.436872 
1701.000000	99.420165 
1700.000000	99.422537 
1699.000000	99.431482 
1698.000000	99.433502 
1697.000000	99.433280 
1696.000000	99.437391 
1695.000000	99.441473 
1694.000000	99.441664 
1693.000000	99.440341 
1692.000000	99.437867 
1691.000000	99.434105 
1690.000000	99.430661 
1689.000000	99.429550 
1688.000000	99.429889 
1687.000000	99.427681 
1686.000000	99.422912 
1685.000000	99.422283 
1684.000000	99.429344 
1683.000000	99.434752 
1682.000000	99.436585 
1681.000000	99.435661 
1680.000000	99.434989 
1679.000000	99.436445 
1678.000000	99.438737 
1677.000000	99.438962 
1676.000000	99.436609 
1675.000000	99.435111 
1674.000000	99.435907 
1673.000000	99.438076 
1672.000000	99.440947 
1671.000000	99.445466 
1670.000000	99.451390 
1669.000000	99.454397 
1668.000000	99.452930 
1667.000000	99.450764 
1666.000000	99.448110 
1665.000000	99.443340 
1664.000000	99.438052 
1663.000000	99.436803 
1662.000000	99.441065 
1661.000000	99.446629 
1660.000000	99.449285 
1659.000000	99.450487 
1658.000000	99.453328 
1657.000000	99.456852 
1656.000000	99.455160 
1655.000000	99.448301 
1654.000000	99.446351 
1653.000000	99.453531 
1652.000000	99.453428 
1651.000000	99.452278 
1650.000000	99.449245 
1649.000000	99.442883 
1648.000000	99.432970 
1647.000000	99.421816 
1646.000000	99.412699 
1645.000000	99.411282 
1644.000000	99.417598 
1643.000000	99.425669 
1642.000000	99.431067 
1641.000000	99.433339 
1640.000000	99.433397 
1639.000000	99.431805 
1638.000000	99.429559 
1637.000000	99.428495 
1636.000000	99.428272 
1635.000000	99.427451 
1634.000000	99.428639 
1633.000000	99.432259 
1632.000000	99.434473 
1631.000000	99.434476 
1630.000000	99.434726 
1629.000000	99.437032 
1628.000000	99.440005 
1627.000000	99.442366 
1626.000000	99.444772 
1625.000000	99.447850 
1624.000000	99.450792 
1623.000000	99.452803 
1622.000000	99.454004 
1621.000000	99.453909 
1620.000000	99.451255 
1619.000000	99.446827 
1618.000000	99.444360 
1617.000000	99.445369 
1616.000000	99.445699 
1615.000000	99.444569 
1614.000000	99.443438 
1613.000000	99.440012 
1612.000000	99.433553 
1611.000000	99.427451 
1610.000000	99.425575 
1609.000000	99.426550 
1608.000000	99.426393 
1607.000000	99.425101 
1606.000000	99.424673 
1605.000000	99.424695 
1604.000000	99.424256 
1603.000000	99.425027 
1602.000000	99.427963 
1601.000000	99.429991 
1600.000000	99.428811 
1599.000000	99.427634 
1598.000000	99.430549 
1597.000000	99.436629 
1596.000000	99.442086 
1595.000000	99.445981 
1594.000000	99.450000 
1593.000000	99.453381 
1592.000000	99.453746 
1591.000000	99.452233 
1590.000000	99.452509 
1589.000000	99.454596 
1588.000000	99.455317 
1587.000000	99.454396 
1586.000000	99.454041 
1585.000000	99.453387 
1584.000000	99.449807 
1583.000000	99.444558 
1582.000000	99.442509 
1581.000000	99.444709 
1580.000000	99.447486 
1579.000000	99.448612 
1578.000000	99.449925 
1577.000000	99.452025 
1576.000000	99.451590 
1575.000000	99.450373 
1574.000000	99.453463 
1573.000000	99.456990 
1572.000000	99.456053 
1571.000000	99.452553 
1570.000000	99.452462 
1569.000000	99.455148 
1568.000000	99.456208 
1567.000000	99.456399 
1566.000000	99.457259 
1565.000000	99.458762 
1564.000000	99.460751 
1563.000000	99.463671 
1562.000000	99.466570 
1561.000000	99.464566 
1560.000000	99.454543 
1559.000000	99.444993 
1558.000000	99.442633 
1557.000000	99.445823 
1556.000000	99.448698 
1555.000000	99.448449 
1554.000000	99.446029 
1553.000000	99.443540 
1552.000000	99.443043 
1551.000000	99.445619 
1550.000000	99.451258 
1549.000000	99.456706 
1548.000000	99.458148 
1547.000000	99.454371 
1546.000000	99.446947 
1545.000000	99.440140 
1544.000000	99.437322 
1543.000000	99.437087 
1542.000000	99.438094 
1541.000000	99.442693 
1540.000000	99.446104 
1539.000000	99.441495 
1538.000000	99.437989 
1537.000000	99.439627 
1536.000000	99.441611 
1535.000000	99.441726 
1534.000000	99.442470 
1533.000000	99.445155 
1532.000000	99.445607 
1531.000000	99.440739 
1530.000000	99.433512 
1529.000000	99.429038 
1528.000000	99.427930 
1527.000000	99.427369 
1526.000000	99.426212 
1525.000000	99.426513 
1524.000000	99.427944 
1523.000000	99.428109 
1522.000000	99.428757 
1521.000000	99.434153 
1520.000000	99.440239 
1519.000000	99.440240 
1518.000000	99.432922 
1517.000000	99.423121 
1516.000000	99.415474 
1515.000000	99.410727 
1514.000000	99.407760 
1513.000000	99.406415 
1512.000000	99.407303 
1511.000000	99.408569 
1510.000000	99.406801 
1509.000000	99.402468 
1508.000000	99.403100 
1507.000000	99.411297 
1506.000000	99.413414 
1505.000000	99.408485 
1504.000000	99.405138 
1503.000000	99.403051 
1502.000000	99.402319 
1501.000000	99.405097 
1500.000000	99.412581 
1499.000000	99.420998 
1498.000000	99.423924 
1497.000000	99.422944 
1496.000000	99.425466 
1495.000000	99.429105 
1494.000000	99.425806 
1493.000000	99.414200 
1492.000000	99.399367 
1491.000000	99.388050 
1490.000000	99.383549 
1489.000000	99.384715 
1488.000000	99.386473 
1487.000000	99.384125 
1486.000000	99.380866 
1485.000000	99.380943 
1484.000000	99.383392 
1483.000000	99.385067 
1482.000000	99.383541 
1481.000000	99.379076 
1480.000000	99.373430 
1479.000000	99.367794 
1478.000000	99.363275 
1477.000000	99.361139 
1476.000000	99.360250 
1475.000000	99.355936 
1474.000000	99.349126 
1473.000000	99.349457 
1472.000000	99.360903 
1471.000000	99.372144 
1470.000000	99.375807 
1469.000000	99.375814 
1468.000000	99.377984 
1467.000000	99.382669 
1466.000000	99.386439 
1465.000000	99.387462 
1464.000000	99.386441 
1463.000000	99.385024 
1462.000000	99.384518 
1461.000000	99.386063 
1460.000000	99.388820 
1459.000000	99.389013 
1458.000000	99.379700 
1457.000000	99.360142 
1456.000000	99.342258 
1455.000000	99.333328 
1454.000000	99.328793 
1453.000000	99.325835 
1452.000000	99.324705 
1451.000000	99.324974 
1450.000000	99.326091 
1449.000000	99.330412 
1448.000000	99.339504 
1447.000000	99.348239 
1446.000000	99.350818 
1445.000000	99.349251 
1444.000000	99.348520 
1443.000000	99.349757 
1442.000000	99.350861 
1441.000000	99.350833 
1440.000000	99.351251 
1439.000000	99.353041 
1438.000000	99.353653 
1437.000000	99.351271 
1436.000000	99.348582 
1435.000000	99.346350 
1434.000000	99.342846 
1433.000000	99.339481 
1432.000000	99.339008 
1431.000000	99.341998 
1430.000000	99.344594 
1429.000000	99.343266 
1428.000000	99.339455 
1427.000000	99.335220 
1426.000000	99.329305 
1425.000000	99.319576 
1424.000000	99.308925 
1423.000000	99.301994 
1422.000000	99.296012 
1421.000000	99.284876 
1420.000000	99.268482 
1419.000000	99.252991 
1418.000000	99.237747 
1417.000000	99.219247 
1416.000000	99.201096 
1415.000000	99.186256 
1414.000000	99.171483 
1413.000000	99.152018 
1412.000000	99.129968 
1411.000000	99.112274 
1410.000000	99.100119 
1409.000000	99.089883 
1408.000000	99.081556 
1407.000000	99.077823 
1406.000000	99.078709 
1405.000000	99.082729 
1404.000000	99.091957 
1403.000000	99.106947 
1402.000000	99.121001 
1401.000000	99.128230 
1400.000000	99.131087 
1399.000000	99.135708 
1398.000000	99.137008 
1397.000000	99.120383 
1396.000000	99.081425 
1395.000000	99.038669 
1394.000000	99.020748 
1393.000000	99.037816 
1392.000000	99.078472 
1391.000000	99.124023 
1390.000000	99.158963 
1389.000000	99.175692 
1388.000000	99.175869 
1387.000000	99.167691 
1386.000000	99.158342 
1385.000000	99.150502 
1384.000000	99.144918 
1383.000000	99.142140 
1382.000000	99.141992 
1381.000000	99.144440 
1380.000000	99.149601 
1379.000000	99.157191 
1378.000000	99.166201 
1377.000000	99.175464 
1376.000000	99.185221 
1375.000000	99.197096 
1374.000000	99.211236 
1373.000000	99.224606 
1372.000000	99.235269 
1371.000000	99.245715 
1370.000000	99.260027 
1369.000000	99.277452 
1368.000000	99.293877 
1367.000000	99.306995 
1366.000000	99.317412 
1365.000000	99.326301 
1364.000000	99.333391 
1363.000000	99.338184 
1362.000000	99.341963 
1361.000000	99.346157 
1360.000000	99.350705 
1359.000000	99.355728 
1358.000000	99.362544 
1357.000000	99.371376 
1356.000000	99.380123 
1355.000000	99.386392 
1354.000000	99.390053 
1353.000000	99.392536 
1352.000000	99.393344 
1351.000000	99.390565 
1350.000000	99.386067 
1349.000000	99.383278 
1348.000000	99.384098 
1347.000000	99.388310 
1346.000000	99.395003 
1345.000000	99.402173 
1344.000000	99.407020 
1343.000000	99.408464 
1342.000000	99.408736 
1341.000000	99.410340 
1340.000000	99.412480 
1339.000000	99.412533 
1338.000000	99.410146 
1337.000000	99.407925 
1336.000000	99.408167 
1335.000000	99.410419 
1334.000000	99.412917 
1333.000000	99.414951 
1332.000000	99.416833 
1331.000000	99.418734 
1330.000000	99.420108 
1329.000000	99.419599 
1328.000000	99.416314 
1327.000000	99.411482 
1326.000000	99.407995 
1325.000000	99.406661 
1324.000000	99.406443 
1323.000000	99.406746 
1322.000000	99.407701 
1321.000000	99.408688 
1320.000000	99.408633 
1319.000000	99.407638 
1318.000000	99.406769 
1317.000000	99.406303 
1316.000000	99.405181 
1315.000000	99.402573 
1314.000000	99.399216 
1313.000000	99.397157 
1312.000000	99.398052 
1311.000000	99.401680 
1310.000000	99.406202 
1309.000000	99.409795 
1308.000000	99.411828 
1307.000000	99.412335 
1306.000000	99.411413 
1305.000000	99.408940 
1304.000000	99.406215 
1303.000000	99.405633 
1302.000000	99.408399 
1301.000000	99.412938 
1300.000000	99.416185 
1299.000000	99.415869 
1298.000000	99.411812 
1297.000000	99.406022 
1296.000000	99.401503 
1295.000000	99.400522 
1294.000000	99.403039 
1293.000000	99.407019 
1292.000000	99.409935 
1291.000000	99.409666 
1290.000000	99.405232 
1289.000000	99.398032 
1288.000000	99.391615 
1287.000000	99.388592 
1286.000000	99.387855 
1285.000000	99.386402 
1284.000000	99.383360 
1283.000000	99.380096 
1282.000000	99.377068 
1281.000000	99.373204 
1280.000000	99.368435 
1279.000000	99.364298 
1278.000000	99.360829 
1277.000000	99.355547 
1276.000000	99.346778 
1275.000000	99.336477 
1274.000000	99.327971 
1273.000000	99.322311 
1272.000000	99.318150 
1271.000000	99.313678 
1270.000000	99.307294 
1269.000000	99.298043 
1268.000000	99.287123 
1267.000000	99.277336 
1266.000000	99.269135 
1265.000000	99.259406 
1264.000000	99.245926 
1263.000000	99.230887 
1262.000000	99.217944 
1261.000000	99.207800 
1260.000000	99.199142 
1259.000000	99.192123 
1258.000000	99.187340 
1257.000000	99.183138 
1256.000000	99.177135 
1255.000000	99.169731 
1254.000000	99.163156 
1253.000000	99.157698 
1252.000000	99.151827 
1251.000000	99.146160 
1250.000000	99.144220 
1249.000000	99.148724 
1248.000000	99.159345 
1247.000000	99.173710 
1246.000000	99.187255 
1245.000000	99.192598 
1244.000000	99.183823 
1243.000000	99.164507 
1242.000000	99.148857 
1241.000000	99.150586 
1240.000000	99.170067 
1239.000000	99.193893 
1238.000000	99.207239 
1237.000000	99.205683 
1236.000000	99.195276 
1235.000000	99.183725 
1234.000000	99.173566 
1233.000000	99.163144 
1232.000000	99.151669 
1231.000000	99.141217 
1230.000000	99.134087 
1229.000000	99.130145 
1228.000000	99.127784 
1227.000000	99.126599 
1226.000000	99.127908 
1225.000000	99.132587 
1224.000000	99.139278 
1223.000000	99.145251 
1222.000000	99.148883 
1221.000000	99.150913 
1220.000000	99.153249 
1219.000000	99.156941 
1218.000000	99.161443 
1217.000000	99.165622 
1216.000000	99.168829 
1215.000000	99.170918 
1214.000000	99.172011 
1213.000000	99.172677 
1212.000000	99.173543 
1211.000000	99.173836 
1210.000000	99.171248 
1209.000000	99.164442 
1208.000000	99.155197 
1207.000000	99.146877 
1206.000000	99.141119 
1205.000000	99.137057 
1204.000000	99.133289 
1203.000000	99.129045 
1202.000000	99.123482 
1201.000000	99.115569 
1200.000000	99.105447 
1199.000000	99.094867 
1198.000000	99.085401 
1197.000000	99.077072 
1196.000000	99.069194 
1195.000000	99.061563 
1194.000000	99.054225 
1193.000000	99.046661 
1192.000000	99.037933 
1191.000000	99.027407 
1190.000000	99.015318 
1189.000000	99.003221 
1188.000000	98.993674 
1187.000000	98.988193 
1186.000000	98.985022 
1185.000000	98.979922 
1184.000000	98.969596 
1183.000000	98.953885 
1182.000000	98.935160 
1181.000000	98.916871 
1180.000000	98.902459 
1179.000000	98.893484 
1178.000000	98.887436 
1177.000000	98.878752 
1176.000000	98.863639 
1175.000000	98.843670 
1174.000000	98.824046 
1173.000000	98.808756 
1172.000000	98.798240 
1171.000000	98.790690 
1170.000000	98.783949 
1169.000000	98.776244 
1168.000000	98.766402 
1167.000000	98.754189 
1166.000000	98.740610 
1165.000000	98.728098 
1164.000000	98.720128 
1163.000000	98.719454 
1162.000000	98.725874 
1161.000000	98.735932 
1160.000000	98.745147 
1159.000000	98.750536 
1158.000000	98.751312 
1157.000000	98.747981 
1156.000000	98.741160 
1155.000000	98.730936 
1154.000000	98.717180 
1153.000000	98.700624 
1152.000000	98.683399 
1151.000000	98.667909 
1150.000000	98.655142 
1149.000000	98.644484 
1148.000000	98.634644 
1147.000000	98.623857 
1146.000000	98.609902 
1145.000000	98.591776 
1144.000000	98.571610 
1143.000000	98.553606 
1142.000000	98.540353 
1141.000000	98.530947 
1140.000000	98.522683 
1139.000000	98.513272 
1138.000000	98.501437 
1137.000000	98.487097 
1136.000000	98.471611 
1135.000000	98.456524 
1134.000000	98.441698 
1133.000000	98.426007 
1132.000000	98.410051 
1131.000000	98.396178 
1130.000000	98.384994 
1129.000000	98.373609 
1128.000000	98.358625 
1127.000000	98.339600 
1126.000000	98.318718 
1125.000000	98.298352 
1124.000000	98.280005 
1123.000000	98.264263 
1122.000000	98.250213 
1121.000000	98.235590 
1120.000000	98.218605 
1119.000000	98.199130 
1118.000000	98.177728 
1117.000000	98.154648 
1116.000000	98.130445 
1115.000000	98.106251 
1114.000000	98.082349 
1113.000000	98.057522 
1112.000000	98.031045 
1111.000000	98.004582 
1110.000000	97.980781 
1109.000000	97.960173 
1108.000000	97.940561 
1107.000000	97.918893 
1106.000000	97.893856 
1105.000000	97.866980 
1104.000000	97.841074 
1103.000000	97.817402 
1102.000000	97.795281 
1101.000000	97.774706 
1100.000000	97.758663 
1099.000000	97.748191 
1098.000000	97.739998 
1097.000000	97.729611 
1096.000000	97.716637 
1095.000000	97.703065 
1094.000000	97.686981 
1093.000000	97.662441 
1092.000000	97.626553 
1091.000000	97.582925 
1090.000000	97.536510 
1089.000000	97.488300 
1088.000000	97.437315 
1087.000000	97.385080 
1086.000000	97.335375 
1085.000000	97.290849 
1084.000000	97.251464 
1083.000000	97.214876 
1082.000000	97.177550 
1081.000000	97.137397 
1080.000000	97.096106 
1079.000000	97.057282 
1078.000000	97.022556 
1077.000000	96.992175 
1076.000000	96.968733 
1075.000000	96.956009 
1074.000000	96.953452 
1073.000000	96.955518 
1072.000000	96.955846 
1071.000000	96.946785 
1070.000000	96.916037 
1069.000000	96.853884 
1068.000000	96.769507 
1067.000000	96.693754 
1066.000000	96.656882 
1065.000000	96.663500 
1064.000000	96.692544 
1063.000000	96.717111 
1062.000000	96.718963 
1061.000000	96.689793 
1060.000000	96.631163 
1059.000000	96.557882 
1058.000000	96.493833 
1057.000000	96.455912 
1056.000000	96.441149 
1055.000000	96.431492 
1054.000000	96.411063 
1053.000000	96.378418 
1052.000000	96.343399 
1051.000000	96.314746 
1050.000000	96.292734 
1049.000000	96.273166 
1048.000000	96.254656 
1047.000000	96.239092 
1046.000000	96.227183 
1045.000000	96.217343 
1044.000000	96.208848 
1043.000000	96.203227 
1042.000000	96.201528 
1041.000000	96.201727 
1040.000000	96.200257 
1039.000000	96.196306 
1038.000000	96.194439 
1037.000000	96.202265 
1036.000000	96.224191 
1035.000000	96.257322 
1034.000000	96.294430 
1033.000000	96.329456 
1032.000000	96.356690 
1031.000000	96.366681 
1030.000000	96.352005 
1029.000000	96.321639 
1028.000000	96.302594 
1027.000000	96.318371 
1026.000000	96.366239 
1025.000000	96.421398 
1024.000000	96.461889 
1023.000000	96.483399 
1022.000000	96.492509 
1021.000000	96.495221 
1020.000000	96.495036 
1019.000000	96.495190 
1018.000000	96.497308 
1017.000000	96.500303 
1016.000000	96.503620 
1015.000000	96.509570 
1014.000000	96.520531 
1013.000000	96.535684 
1012.000000	96.551845 
1011.000000	96.565866 
1010.000000	96.575855 
1009.000000	96.582426 
1008.000000	96.589447 
1007.000000	96.601469 
1006.000000	96.619612 
1005.000000	96.641373 
1004.000000	96.663991 
1003.000000	96.685905 
1002.000000	96.705951 
1001.000000	96.724265 
1000.000000	96.743361 
999.000000	 96.764839 
998.000000	 96.785365 
997.000000	 96.799974 
996.000000	 96.809843 
995.000000	 96.822786 
994.000000	 96.844736 
993.000000	 96.873772 
992.000000	 96.903496 
991.000000	 96.929041 
990.000000	 96.948890 
989.000000	 96.964361 
988.000000	 96.979165 
987.000000	 96.996881 
986.000000	 97.017344 
985.000000	 97.037668 
984.000000	 97.057531 
983.000000	 97.080428 
982.000000	 97.108512 
981.000000	 97.139275 
980.000000	 97.168963 
979.000000	 97.196573 
978.000000	 97.222986 
977.000000	 97.249061 
976.000000	 97.276530 
975.000000	 97.308099 
974.000000	 97.344146 
973.000000	 97.381189 
972.000000	 97.415654 
971.000000	 97.447433 
970.000000	 97.478100 
969.000000	 97.507850 
968.000000	 97.536541 
967.000000	 97.565716 
966.000000	 97.596533 
965.000000	 97.626739 
964.000000	 97.652612 
963.000000	 97.673555 
962.000000	 97.692384 
961.000000	 97.711365 
960.000000	 97.730417 
959.000000	 97.749201 
958.000000	 97.768367 
957.000000	 97.787899 
956.000000	 97.806324 
955.000000	 97.822841 
954.000000	 97.838893 
953.000000	 97.856320 
952.000000	 97.874735 
951.000000	 97.891900 
950.000000	 97.906334 
949.000000	 97.918549 
948.000000	 97.929781 
947.000000	 97.940546 
946.000000	 97.950843 
945.000000	 97.961064 
944.000000	 97.971782 
943.000000	 97.982451 
942.000000	 97.990974 
941.000000	 97.995335 
940.000000	 97.995801 
939.000000	 97.995158 
938.000000	 97.996551 
937.000000	 98.001094 
936.000000	 98.007410 
935.000000	 98.012921 
934.000000	 98.015470 
933.000000	 98.014485 
932.000000	 98.011622 
931.000000	 98.010517 
930.000000	 98.015038 
929.000000	 98.026500 
928.000000	 98.041932 
927.000000	 98.055515 
926.000000	 98.062876 
925.000000	 98.064525 
924.000000	 98.064625 
923.000000	 98.066172 
922.000000	 98.067909 
921.000000	 98.066320 
920.000000	 98.060074 
919.000000	 98.051833 
918.000000	 98.045892 
917.000000	 98.044319 
916.000000	 98.045048 
915.000000	 98.043545 
914.000000	 98.037178 
913.000000	 98.028680 
912.000000	 98.024469 
911.000000	 98.028469 
910.000000	 98.037985 
909.000000	 98.046719 
908.000000	 98.051241 
907.000000	 98.053200 
906.000000	 98.055967 
905.000000	 98.061310 
904.000000	 98.069780 
903.000000	 98.082378 
902.000000	 98.100245 
901.000000	 98.123049 
900.000000	 98.148467 
899.000000	 98.173124 
898.000000	 98.194221 
897.000000	 98.210512 
896.000000	 98.222265 
895.000000	 98.230826 
894.000000	 98.238788 
893.000000	 98.249926 
892.000000	 98.267318 
891.000000	 98.290677 
890.000000	 98.316568 
889.000000	 98.342132 
888.000000	 98.367354 
887.000000	 98.392382 
886.000000	 98.414065 
885.000000	 98.427682 
884.000000	 98.432228 
883.000000	 98.432015 
882.000000	 98.432397 
881.000000	 98.435544 
880.000000	 98.441636 
879.000000	 98.452452 
878.000000	 98.470846 
877.000000	 98.495850 
876.000000	 98.520057 
875.000000	 98.533864 
874.000000	 98.533277 
873.000000	 98.523718 
872.000000	 98.516367 
871.000000	 98.520560 
870.000000	 98.537748 
869.000000	 98.560770 
868.000000	 98.579287 
867.000000	 98.588121 
866.000000	 98.591707 
865.000000	 98.599553 
864.000000	 98.616797 
863.000000	 98.640206 
862.000000	 98.663235 
861.000000	 98.682469 
860.000000	 98.697974 
859.000000	 98.710748 
858.000000	 98.723317 
857.000000	 98.740500 
856.000000	 98.764577 
855.000000	 98.789684 
854.000000	 98.805529 
853.000000	 98.808213 
852.000000	 98.804292 
851.000000	 98.803019 
850.000000	 98.807640 
849.000000	 98.815767 
848.000000	 98.824932 
847.000000	 98.834665 
846.000000	 98.844840 
845.000000	 98.855082 
844.000000	 98.865572 
843.000000	 98.876322 
842.000000	 98.885375 
841.000000	 98.889112 
840.000000	 98.885338 
839.000000	 98.876243 
838.000000	 98.867608 
837.000000	 98.863540 
836.000000	 98.861677 
835.000000	 98.855796 
834.000000	 98.844585 
833.000000	 98.834700 
832.000000	 98.831436 
831.000000	 98.829289 
830.000000	 98.818660 
829.000000	 98.802066 
828.000000	 98.795065 
827.000000	 98.806585 
826.000000	 98.825579 
825.000000	 98.835052 
824.000000	 98.833892 
823.000000	 98.834698 
822.000000	 98.843620 
821.000000	 98.853841 
820.000000	 98.858032 
819.000000	 98.856752 
818.000000	 98.853490 
817.000000	 98.849207 
816.000000	 98.843925 
815.000000	 98.838030 
814.000000	 98.829043 
813.000000	 98.811405 
812.000000	 98.783060 
811.000000	 98.749568 
810.000000	 98.718224 
809.000000	 98.689598 
808.000000	 98.657565 
807.000000	 98.615809 
806.000000	 98.561579 
805.000000	 98.494981 
804.000000	 98.419315 
803.000000	 98.343137 
802.000000	 98.278098 
801.000000	 98.231933 
800.000000	 98.203854 
799.000000	 98.187299 
798.000000	 98.176710 
797.000000	 98.171664 
796.000000	 98.175042 
795.000000	 98.188183 
794.000000	 98.208929 
793.000000	 98.233911 
792.000000	 98.259739 
791.000000	 98.280442 
790.000000	 98.287348 
789.000000	 98.276269 
788.000000	 98.254013 
787.000000	 98.233248 
786.000000	 98.220068 
785.000000	 98.209936 
784.000000	 98.196538 
783.000000	 98.180019 
782.000000	 98.164185 
781.000000	 98.150310 
780.000000	 98.137958 
779.000000	 98.129167 
778.000000	 98.127379 
777.000000	 98.133707 
776.000000	 98.147670 
775.000000	 98.169518 
774.000000	 98.197575 
773.000000	 98.224903 
772.000000	 98.243857 
771.000000	 98.254191 
770.000000	 98.262246 
769.000000	 98.271568 
768.000000	 98.279113 
767.000000	 98.282309 
766.000000	 98.284866 
765.000000	 98.291878 
764.000000	 98.302420 
763.000000	 98.310722 
762.000000	 98.312914 
761.000000	 98.309712 
760.000000	 98.304406 
759.000000	 98.301401 
758.000000	 98.304825 
757.000000	 98.314898 
756.000000	 98.326530 
755.000000	 98.334675 
754.000000	 98.340220 
753.000000	 98.347706 
752.000000	 98.358882 
751.000000	 98.371739 
750.000000	 98.384142 
749.000000	 98.394649 
748.000000	 98.401095 
747.000000	 98.403143 
746.000000	 98.405970 
745.000000	 98.415681 
744.000000	 98.429746 
743.000000	 98.437464 
742.000000	 98.432251 
741.000000	 98.418982 
740.000000	 98.407536 
739.000000	 98.403910 
738.000000	 98.409710 
737.000000	 98.425017 
736.000000	 98.447498 
735.000000	 98.472264 
734.000000	 98.496446 
733.000000	 98.520767 
732.000000	 98.543890 
731.000000	 98.559175 
730.000000	 98.560854 
729.000000	 98.549284 
728.000000	 98.531299 
727.000000	 98.516809 
726.000000	 98.511780 
725.000000	 98.515997 
724.000000	 98.526695 
723.000000	 98.542561 
722.000000	 98.562646 
721.000000	 98.581681 
720.000000	 98.590319 
719.000000	 98.583252 
718.000000	 98.565484 
717.000000	 98.548471 
716.000000	 98.540086 
715.000000	 98.540671 
714.000000	 98.547202 
713.000000	 98.555677 
712.000000	 98.560780 
711.000000	 98.558484 
710.000000	 98.551979 
709.000000	 98.549296 
708.000000	 98.553155 
707.000000	 98.558762 
706.000000	 98.558126 
705.000000	 98.548234 
704.000000	 98.534501 
703.000000	 98.522118 
702.000000	 98.510314 
701.000000	 98.495521 
700.000000	 98.472889 
699.000000	 98.440085 
698.000000	 98.396812 
697.000000	 98.345010 
696.000000	 98.292589 
695.000000	 98.249371 
694.000000	 98.225922 
693.000000	 98.229636 
692.000000	 98.255654 
691.000000	 98.291069 
690.000000	 98.323160 
689.000000	 98.346531 
688.000000	 98.363011 
687.000000	 98.374549 
686.000000	 98.385362 
685.000000	 98.400366 
684.000000	 98.414704 
683.000000	 98.418676 
682.000000	 98.414472 
681.000000	 98.417742 
680.000000	 98.436237 
679.000000	 98.459976 
678.000000	 98.475741 
677.000000	 98.470721 
676.000000	 98.444344 
675.000000	 98.417838 
674.000000	 98.419290 
673.000000	 98.458810 
672.000000	 98.533255 
671.000000	 98.649532 
670.000000	 98.831108 
669.000000	 99.052094 
668.000000	 99.127651 
667.000000	 98.950900 
666.000000	 98.731327 
665.000000	 98.584042 
664.000000	 98.497813 
663.000000	 98.456785 
662.000000	 98.450608 
661.000000	 98.462571 
660.000000	 98.482568 
659.000000	 98.509329 
658.000000	 98.529776 
657.000000	 98.511525 
656.000000	 98.452348 
655.000000	 98.399172 
654.000000	 98.383594 
653.000000	 98.379851 
652.000000	 98.354977 
651.000000	 98.312532 
650.000000	 98.272265 

