4000.000000	99.500192 
3999.000000	99.501683 
3998.000000	99.501657 
3997.000000	99.499836 
3996.000000	99.496341 
3995.000000	99.492195 
3994.000000	99.489059 
3993.000000	99.488050 
3992.000000	99.488704 
3991.000000	99.489355 
3990.000000	99.488807 
3989.000000	99.487691 
3988.000000	99.488016 
3987.000000	99.491288 
3986.000000	99.497027 
3985.000000	99.502912 
3984.000000	99.506185 
3983.000000	99.505178 
3982.000000	99.500161 
3981.000000	99.493158 
3980.000000	99.486633 
3979.000000	99.482080 
3978.000000	99.479834 
3977.000000	99.479865 
3976.000000	99.482276 
3975.000000	99.486884 
3974.000000	99.492666 
3973.000000	99.497958 
3972.000000	99.501348 
3971.000000	99.502569 
3970.000000	99.502468 
3969.000000	99.501901 
3968.000000	99.500794 
3967.000000	99.498512 
3966.000000	99.495247 
3965.000000	99.492718 
3964.000000	99.492632 
3963.000000	99.494359 
3962.000000	99.494816 
3961.000000	99.491415 
3960.000000	99.484964 
3959.000000	99.479411 
3958.000000	99.478389 
3957.000000	99.481909 
3956.000000	99.486643 
3955.000000	99.489087 
3954.000000	99.488359 
3953.000000	99.486003 
3952.000000	99.483769 
3951.000000	99.482358 
3950.000000	99.481726 
3949.000000	99.481904 
3948.000000	99.482984 
3947.000000	99.484583 
3946.000000	99.486127 
3945.000000	99.487567 
3944.000000	99.489295 
3943.000000	99.490897 
3942.000000	99.490946 
3941.000000	99.488404 
3940.000000	99.483453 
3939.000000	99.476870 
3938.000000	99.469439 
3937.000000	99.462220 
3936.000000	99.457132 
3935.000000	99.456393 
3934.000000	99.461227 
3933.000000	99.470655 
3932.000000	99.481206 
3931.000000	99.488210 
3930.000000	99.488464 
3929.000000	99.482614 
3928.000000	99.474862 
3927.000000	99.470090 
3926.000000	99.471045 
3925.000000	99.476622 
3924.000000	99.482490 
3923.000000	99.484779 
3922.000000	99.482978 
3921.000000	99.479594 
3920.000000	99.477447 
3919.000000	99.477718 
3918.000000	99.480121 
3917.000000	99.483743 
3916.000000	99.487407 
3915.000000	99.490043 
3914.000000	99.491638 
3913.000000	99.493294 
3912.000000	99.495801 
3911.000000	99.498810 
3910.000000	99.501403 
3909.000000	99.503099 
3908.000000	99.503932 
3907.000000	99.503239 
3906.000000	99.499313 
3905.000000	99.490749 
3904.000000	99.478147 
3903.000000	99.465032 
3902.000000	99.456398 
3901.000000	99.455543 
3900.000000	99.462051 
3899.000000	99.471757 
3898.000000	99.479748 
3897.000000	99.483789 
3896.000000	99.484384 
3895.000000	99.482786 
3894.000000	99.479722 
3893.000000	99.475575 
3892.000000	99.471244 
3891.000000	99.467994 
3890.000000	99.466357 
3889.000000	99.465548 
3888.000000	99.464602 
3887.000000	99.464024 
3886.000000	99.465204 
3885.000000	99.468029 
3884.000000	99.470438 
3883.000000	99.471019 
3882.000000	99.470624 
3881.000000	99.471000 
3880.000000	99.472633 
3879.000000	99.474200 
3878.000000	99.474697 
3877.000000	99.474943 
3876.000000	99.476972 
3875.000000	99.481567 
3874.000000	99.486043 
3873.000000	99.485643 
3872.000000	99.478607 
3871.000000	99.468984 
3870.000000	99.463196 
3869.000000	99.463733 
3868.000000	99.467615 
3867.000000	99.471264 
3866.000000	99.474516 
3865.000000	99.478640 
3864.000000	99.482309 
3863.000000	99.483003 
3862.000000	99.480909 
3861.000000	99.479177 
3860.000000	99.480426 
3859.000000	99.484146 
3858.000000	99.486780 
3857.000000	99.484392 
3856.000000	99.475779 
3855.000000	99.465784 
3854.000000	99.463203 
3853.000000	99.471107 
3852.000000	99.483321 
3851.000000	99.493036 
3850.000000	99.497911 
3849.000000	99.498979 
3848.000000	99.497543 
3847.000000	99.494018 
3846.000000	99.488564 
3845.000000	99.482049 
3844.000000	99.476676 
3843.000000	99.475110 
3842.000000	99.477591 
3841.000000	99.481411 
3840.000000	99.483604 
3839.000000	99.483251 
3838.000000	99.481376 
3837.000000	99.479479 
3836.000000	99.478359 
3835.000000	99.478544 
3834.000000	99.480869 
3833.000000	99.486070 
3832.000000	99.493323 
3831.000000	99.499519 
3830.000000	99.501345 
3829.000000	99.498044 
3828.000000	99.492208 
3827.000000	99.488073 
3826.000000	99.487836 
3825.000000	99.489582 
3824.000000	99.489520 
3823.000000	99.486593 
3822.000000	99.483969 
3821.000000	99.485229 
3820.000000	99.489702 
3819.000000	99.493748 
3818.000000	99.495129 
3817.000000	99.495203 
3816.000000	99.496428 
3815.000000	99.497891 
3814.000000	99.496350 
3813.000000	99.491577 
3812.000000	99.487453 
3811.000000	99.487605 
3810.000000	99.491533 
3809.000000	99.495504 
3808.000000	99.496820 
3807.000000	99.496058 
3806.000000	99.494624 
3805.000000	99.491932 
3804.000000	99.487166 
3803.000000	99.482723 
3802.000000	99.482930 
3801.000000	99.488172 
3800.000000	99.493195 
3799.000000	99.492996 
3798.000000	99.487583 
3797.000000	99.480993 
3796.000000	99.476990 
3795.000000	99.476046 
3794.000000	99.476442 
3793.000000	99.477002 
3792.000000	99.477833 
3791.000000	99.479193 
3790.000000	99.480867 
3789.000000	99.482509 
3788.000000	99.483839 
3787.000000	99.484386 
3786.000000	99.484002 
3785.000000	99.483533 
3784.000000	99.484264 
3783.000000	99.486430 
3782.000000	99.489043 
3781.000000	99.491240 
3780.000000	99.492914 
3779.000000	99.493924 
3778.000000	99.493476 
3777.000000	99.490945 
3776.000000	99.486996 
3775.000000	99.483554 
3774.000000	99.481987 
3773.000000	99.481771 
3772.000000	99.481548 
3771.000000	99.480856 
3770.000000	99.479762 
3769.000000	99.477842 
3768.000000	99.474819 
3767.000000	99.471513 
3766.000000	99.469449 
3765.000000	99.469391 
3764.000000	99.470400 
3763.000000	99.470983 
3762.000000	99.471067 
3761.000000	99.471882 
3760.000000	99.473730 
3759.000000	99.475730 
3758.000000	99.478048 
3757.000000	99.482193 
3756.000000	99.488238 
3755.000000	99.494064 
3754.000000	99.497722 
3753.000000	99.499526 
3752.000000	99.500753 
3751.000000	99.501060 
3750.000000	99.500296 
3749.000000	99.500627 
3748.000000	99.502731 
3747.000000	99.503875 
3746.000000	99.501618 
3745.000000	99.497095 
3744.000000	99.493505 
3743.000000	99.491545 
3742.000000	99.489050 
3741.000000	99.484371 
3740.000000	99.477335 
3739.000000	99.468684 
3738.000000	99.461164 
3737.000000	99.459419 
3736.000000	99.464808 
3735.000000	99.471069 
3734.000000	99.470193 
3733.000000	99.462524 
3732.000000	99.455861 
3731.000000	99.455786 
3730.000000	99.460915 
3729.000000	99.466570 
3728.000000	99.470087 
3727.000000	99.471429 
3726.000000	99.470811 
3725.000000	99.468366 
3724.000000	99.465868 
3723.000000	99.466036 
3722.000000	99.469147 
3721.000000	99.472494 
3720.000000	99.472850 
3719.000000	99.469350 
3718.000000	99.464155 
3717.000000	99.459893 
3716.000000	99.456716 
3715.000000	99.452761 
3714.000000	99.447316 
3713.000000	99.442663 
3712.000000	99.441436 
3711.000000	99.443227 
3710.000000	99.445117 
3709.000000	99.444347 
3708.000000	99.440094 
3707.000000	99.433345 
3706.000000	99.425758 
3705.000000	99.418749 
3704.000000	99.412797 
3703.000000	99.407235 
3702.000000	99.400534 
3701.000000	99.391767 
3700.000000	99.381360 
3699.000000	99.370318 
3698.000000	99.359766 
3697.000000	99.351099 
3696.000000	99.345213 
3695.000000	99.341951 
3694.000000	99.340584 
3693.000000	99.339854 
3692.000000	99.337163 
3691.000000	99.329191 
3690.000000	99.315395 
3689.000000	99.300863 
3688.000000	99.292630 
3687.000000	99.292051 
3686.000000	99.294608 
3685.000000	99.296684 
3684.000000	99.298354 
3683.000000	99.300786 
3682.000000	99.303002 
3681.000000	99.301917 
3680.000000	99.294774 
3679.000000	99.280397 
3678.000000	99.260426 
3677.000000	99.241868 
3676.000000	99.234550 
3675.000000	99.239711 
3674.000000	99.247397 
3673.000000	99.248658 
3672.000000	99.243733 
3671.000000	99.240787 
3670.000000	99.246343 
3669.000000	99.257417 
3668.000000	99.267326 
3667.000000	99.274128 
3666.000000	99.279633 
3665.000000	99.284822 
3664.000000	99.288269 
3663.000000	99.288496 
3662.000000	99.286462 
3661.000000	99.284515 
3660.000000	99.283819 
3659.000000	99.284043 
3658.000000	99.285584 
3657.000000	99.290153 
3656.000000	99.298028 
3655.000000	99.306310 
3654.000000	99.311416 
3653.000000	99.312179 
3652.000000	99.310117 
3651.000000	99.307958 
3650.000000	99.307642 
3649.000000	99.309770 
3648.000000	99.314502 
3647.000000	99.321175 
3646.000000	99.328300 
3645.000000	99.335156 
3644.000000	99.342407 
3643.000000	99.351206 
3642.000000	99.362301 
3641.000000	99.375170 
3640.000000	99.388123 
3639.000000	99.398927 
3638.000000	99.405639 
3637.000000	99.407554 
3636.000000	99.405580 
3635.000000	99.401781 
3634.000000	99.397999 
3633.000000	99.395143 
3632.000000	99.394081 
3631.000000	99.396636 
3630.000000	99.404050 
3629.000000	99.412532 
3628.000000	99.414824 
3627.000000	99.410263 
3626.000000	99.405170 
3625.000000	99.404714 
3624.000000	99.408906 
3623.000000	99.414137 
3622.000000	99.417378 
3621.000000	99.419476 
3620.000000	99.423029 
3619.000000	99.427507 
3618.000000	99.429673 
3617.000000	99.428762 
3616.000000	99.427498 
3615.000000	99.428750 
3614.000000	99.431805 
3613.000000	99.432703 
3612.000000	99.429086 
3611.000000	99.423620 
3610.000000	99.421301 
3609.000000	99.423775 
3608.000000	99.427268 
3607.000000	99.427596 
3606.000000	99.425783 
3605.000000	99.426418 
3604.000000	99.432246 
3603.000000	99.441987 
3602.000000	99.452262 
3601.000000	99.460719 
3600.000000	99.466205 
3599.000000	99.467463 
3598.000000	99.463720 
3597.000000	99.455941 
3596.000000	99.447023 
3595.000000	99.440912 
3594.000000	99.440122 
3593.000000	99.444152 
3592.000000	99.450038 
3591.000000	99.453820 
3590.000000	99.453356 
3589.000000	99.450348 
3588.000000	99.449065 
3587.000000	99.451015 
3586.000000	99.453618 
3585.000000	99.454614 
3584.000000	99.454879 
3583.000000	99.456208 
3582.000000	99.458881 
3581.000000	99.461459 
3580.000000	99.462382 
3579.000000	99.461219 
3578.000000	99.458571 
3577.000000	99.455783 
3576.000000	99.454506 
3575.000000	99.455803 
3574.000000	99.459040 
3573.000000	99.461877 
3572.000000	99.462241 
3571.000000	99.459852 
3570.000000	99.455855 
3569.000000	99.452240 
3568.000000	99.451430 
3567.000000	99.454222 
3566.000000	99.458271 
3565.000000	99.460505 
3564.000000	99.460452 
3563.000000	99.460455 
3562.000000	99.463165 
3561.000000	99.468799 
3560.000000	99.474888 
3559.000000	99.478472 
3558.000000	99.478518 
3557.000000	99.476264 
3556.000000	99.473944 
3555.000000	99.473345 
3554.000000	99.475080 
3553.000000	99.477894 
3552.000000	99.478972 
3551.000000	99.475988 
3550.000000	99.468981 
3549.000000	99.460369 
3548.000000	99.453841 
3547.000000	99.452307 
3546.000000	99.455903 
3545.000000	99.461200 
3544.000000	99.463865 
3543.000000	99.462755 
3542.000000	99.461186 
3541.000000	99.463461 
3540.000000	99.470578 
3539.000000	99.479141 
3538.000000	99.484635 
3537.000000	99.485346 
3536.000000	99.483199 
3535.000000	99.481299 
3534.000000	99.481141 
3533.000000	99.482369 
3532.000000	99.484034 
3531.000000	99.485547 
3530.000000	99.486376 
3529.000000	99.485640 
3528.000000	99.482741 
3527.000000	99.478443 
3526.000000	99.474691 
3525.000000	99.473067 
3524.000000	99.473507 
3523.000000	99.474548 
3522.000000	99.474877 
3521.000000	99.474282 
3520.000000	99.473626 
3519.000000	99.474240 
3518.000000	99.477239 
3517.000000	99.482535 
3516.000000	99.488224 
3515.000000	99.491548 
3514.000000	99.490737 
3513.000000	99.486176 
3512.000000	99.479935 
3511.000000	99.474424 
3510.000000	99.471099 
3509.000000	99.469963 
3508.000000	99.469947 
3507.000000	99.469922 
3506.000000	99.469488 
3505.000000	99.468581 
3504.000000	99.466707 
3503.000000	99.463457 
3502.000000	99.460297 
3501.000000	99.460624 
3500.000000	99.466562 
3499.000000	99.475812 
3498.000000	99.482637 
3497.000000	99.482643 
3496.000000	99.476509 
3495.000000	99.468892 
3494.000000	99.464284 
3493.000000	99.464078 
3492.000000	99.466856 
3491.000000	99.470280 
3490.000000	99.472791 
3489.000000	99.474306 
3488.000000	99.475597 
3487.000000	99.476941 
3486.000000	99.477681 
3485.000000	99.477373 
3484.000000	99.476820 
3483.000000	99.477426 
3482.000000	99.479532 
3481.000000	99.482016 
3480.000000	99.483591 
3479.000000	99.483807 
3478.000000	99.482671 
3477.000000	99.480325 
3476.000000	99.477825 
3475.000000	99.477566 
3474.000000	99.481555 
3473.000000	99.488765 
3472.000000	99.495039 
3471.000000	99.496493 
3470.000000	99.493021 
3469.000000	99.488067 
3468.000000	99.485212 
3467.000000	99.485415 
3466.000000	99.487539 
3465.000000	99.490546 
3464.000000	99.494317 
3463.000000	99.498660 
3462.000000	99.502539 
3461.000000	99.504820 
3460.000000	99.505377 
3459.000000	99.505060 
3458.000000	99.504671 
3457.000000	99.504100 
3456.000000	99.502521 
3455.000000	99.499439 
3454.000000	99.495610 
3453.000000	99.492928 
3452.000000	99.492813 
3451.000000	99.494730 
3450.000000	99.496600 
3449.000000	99.496971 
3448.000000	99.496255 
3447.000000	99.495523 
3446.000000	99.494698 
3445.000000	99.493033 
3444.000000	99.491050 
3443.000000	99.490550 
3442.000000	99.492247 
3441.000000	99.494323 
3440.000000	99.494307 
3439.000000	99.491863 
3438.000000	99.488805 
3437.000000	99.486653 
3436.000000	99.485300 
3435.000000	99.484216 
3434.000000	99.483865 
3433.000000	99.485256 
3432.000000	99.488305 
3431.000000	99.491520 
3430.000000	99.493452 
3429.000000	99.494215 
3428.000000	99.495257 
3427.000000	99.497439 
3426.000000	99.499549 
3425.000000	99.499105 
3424.000000	99.494847 
3423.000000	99.488195 
3422.000000	99.482066 
3421.000000	99.478537 
3420.000000	99.478062 
3419.000000	99.480304 
3418.000000	99.484601 
3417.000000	99.489538 
3416.000000	99.493104 
3415.000000	99.494037 
3414.000000	99.492810 
3413.000000	99.491012 
3412.000000	99.489998 
3411.000000	99.490252 
3410.000000	99.491465 
3409.000000	99.492688 
3408.000000	99.492623 
3407.000000	99.490377 
3406.000000	99.486273 
3405.000000	99.481820 
3404.000000	99.478791 
3403.000000	99.478118 
3402.000000	99.479392 
3401.000000	99.481459 
3400.000000	99.483615 
3399.000000	99.486185 
3398.000000	99.489731 
3397.000000	99.493769 
3396.000000	99.496593 
3395.000000	99.496441 
3394.000000	99.492700 
3393.000000	99.486260 
3392.000000	99.479240 
3391.000000	99.474279 
3390.000000	99.473374 
3389.000000	99.476750 
3388.000000	99.482783 
3387.000000	99.489172 
3386.000000	99.494356 
3385.000000	99.497982 
3384.000000	99.500248 
3383.000000	99.500931 
3382.000000	99.499117 
3381.000000	99.494269 
3380.000000	99.487762 
3379.000000	99.483016 
3378.000000	99.483079 
3377.000000	99.487691 
3376.000000	99.493195 
3375.000000	99.495739 
3374.000000	99.494408 
3373.000000	99.491297 
3372.000000	99.489174 
3371.000000	99.489369 
3370.000000	99.491168 
3369.000000	99.492401 
3368.000000	99.491031 
3367.000000	99.487152 
3366.000000	99.483546 
3365.000000	99.483437 
3364.000000	99.487334 
3363.000000	99.492489 
3362.000000	99.495523 
3361.000000	99.495100 
3360.000000	99.492011 
3359.000000	99.487655 
3358.000000	99.483220 
3357.000000	99.479961 
3356.000000	99.479056 
3355.000000	99.480572 
3354.000000	99.482881 
3353.000000	99.483705 
3352.000000	99.482038 
3351.000000	99.479155 
3350.000000	99.477662 
3349.000000	99.479297 
3348.000000	99.483439 
3347.000000	99.487564 
3346.000000	99.489249 
3345.000000	99.487883 
3344.000000	99.484760 
3343.000000	99.481818 
3342.000000	99.480154 
3341.000000	99.479424 
3340.000000	99.478428 
3339.000000	99.476440 
3338.000000	99.474236 
3337.000000	99.473630 
3336.000000	99.475642 
3335.000000	99.479112 
3334.000000	99.481593 
3333.000000	99.481810 
3332.000000	99.480941 
3331.000000	99.481120 
3330.000000	99.482875 
3329.000000	99.484601 
3328.000000	99.484582 
3327.000000	99.482905 
3326.000000	99.480853 
3325.000000	99.478906 
3324.000000	99.476178 
3323.000000	99.472131 
3322.000000	99.468074 
3321.000000	99.466231 
3320.000000	99.467444 
3319.000000	99.470383 
3318.000000	99.473199 
3317.000000	99.475399 
3316.000000	99.477690 
3315.000000	99.480445 
3314.000000	99.483124 
3313.000000	99.485222 
3312.000000	99.486917 
3311.000000	99.488262 
3310.000000	99.488291 
3309.000000	99.485836 
3308.000000	99.481196 
3307.000000	99.476263 
3306.000000	99.472851 
3305.000000	99.471519 
3304.000000	99.472180 
3303.000000	99.474859 
3302.000000	99.478943 
3301.000000	99.482150 
3300.000000	99.481560 
3299.000000	99.476293 
3298.000000	99.468764 
3297.000000	99.462816 
3296.000000	99.460531 
3295.000000	99.460978 
3294.000000	99.461907 
3293.000000	99.462354 
3292.000000	99.463376 
3291.000000	99.466100 
3290.000000	99.469356 
3289.000000	99.470105 
3288.000000	99.466711 
3287.000000	99.461262 
3286.000000	99.457734 
3285.000000	99.457909 
3284.000000	99.459944 
3283.000000	99.461099 
3282.000000	99.460844 
3281.000000	99.460683 
3280.000000	99.461758 
3279.000000	99.463697 
3278.000000	99.465496 
3277.000000	99.466522 
3276.000000	99.466488 
3275.000000	99.465223 
3274.000000	99.462866 
3273.000000	99.459909 
3272.000000	99.456798 
3271.000000	99.453777 
3270.000000	99.451188 
3269.000000	99.449544 
3268.000000	99.449026 
3267.000000	99.449192 
3266.000000	99.449388 
3265.000000	99.449348 
3264.000000	99.449327 
3263.000000	99.449968 
3262.000000	99.452136 
3261.000000	99.456190 
3260.000000	99.460919 
3259.000000	99.463658 
3258.000000	99.462407 
3257.000000	99.457953 
3256.000000	99.453081 
3255.000000	99.449443 
3254.000000	99.446140 
3253.000000	99.442116 
3252.000000	99.439065 
3251.000000	99.440478 
3250.000000	99.447569 
3249.000000	99.457170 
3248.000000	99.464175 
3247.000000	99.465521 
3246.000000	99.461652 
3245.000000	99.455098 
3244.000000	99.448517 
3243.000000	99.443575 
3242.000000	99.440438 
3241.000000	99.438023 
3240.000000	99.435479 
3239.000000	99.433766 
3238.000000	99.435311 
3237.000000	99.441773 
3236.000000	99.452261 
3235.000000	99.463691 
3234.000000	99.472454 
3233.000000	99.475936 
3232.000000	99.473529 
3231.000000	99.467151 
3230.000000	99.460434 
3229.000000	99.456435 
3228.000000	99.455528 
3227.000000	99.455524 
3226.000000	99.453880 
3225.000000	99.449841 
3224.000000	99.444746 
3223.000000	99.440698 
3222.000000	99.438987 
3221.000000	99.439374 
3220.000000	99.440549 
3219.000000	99.441246 
3218.000000	99.441139 
3217.000000	99.440937 
3216.000000	99.441848 
3215.000000	99.444762 
3214.000000	99.449406 
3213.000000	99.453914 
3212.000000	99.455537 
3211.000000	99.452532 
3210.000000	99.445825 
3209.000000	99.438597 
3208.000000	99.433747 
3207.000000	99.431658 
3206.000000	99.430646 
3205.000000	99.429420 
3204.000000	99.428510 
3203.000000	99.429060 
3202.000000	99.430910 
3201.000000	99.432669 
3200.000000	99.433467 
3199.000000	99.433748 
3198.000000	99.434239 
3197.000000	99.435063 
3196.000000	99.436268 
3195.000000	99.438226 
3194.000000	99.440621 
3193.000000	99.441660 
3192.000000	99.439497 
3191.000000	99.434462 
3190.000000	99.429088 
3189.000000	99.425848 
3188.000000	99.425452 
3187.000000	99.427155 
3186.000000	99.429752 
3185.000000	99.432004 
3184.000000	99.432989 
3183.000000	99.432654 
3182.000000	99.431786 
3181.000000	99.431333 
3180.000000	99.432027 
3179.000000	99.434328 
3178.000000	99.437847 
3177.000000	99.440899 
3176.000000	99.441892 
3175.000000	99.441533 
3174.000000	99.442379 
3173.000000	99.445309 
3172.000000	99.447487 
3171.000000	99.445197 
3170.000000	99.438357 
3169.000000	99.431045 
3168.000000	99.427606 
3167.000000	99.429136 
3166.000000	99.433533 
3165.000000	99.437701 
3164.000000	99.439406 
3163.000000	99.438105 
3162.000000	99.435007 
3161.000000	99.432238 
3160.000000	99.431462 
3159.000000	99.432971 
3158.000000	99.435689 
3157.000000	99.437737 
3156.000000	99.437423 
3155.000000	99.434414 
3154.000000	99.429914 
3153.000000	99.425222 
3152.000000	99.420355 
3151.000000	99.414850 
3150.000000	99.409678 
3149.000000	99.407109 
3148.000000	99.408249 
3147.000000	99.411715 
3146.000000	99.415413 
3145.000000	99.418858 
3144.000000	99.422801 
3143.000000	99.426986 
3142.000000	99.429420 
3141.000000	99.428184 
3140.000000	99.423451 
3139.000000	99.417535 
3138.000000	99.413243 
3137.000000	99.412231 
3136.000000	99.414465 
3135.000000	99.418665 
3134.000000	99.422947 
3133.000000	99.425261 
3132.000000	99.424047 
3131.000000	99.419460 
3130.000000	99.414176 
3129.000000	99.412260 
3128.000000	99.416316 
3127.000000	99.425364 
3126.000000	99.435439 
3125.000000	99.442202 
3124.000000	99.443309 
3123.000000	99.439176 
3122.000000	99.432261 
3121.000000	99.425427 
3120.000000	99.420384 
3119.000000	99.417396 
3118.000000	99.416258 
3117.000000	99.417087 
3116.000000	99.419906 
3115.000000	99.423838 
3114.000000	99.427212 
3113.000000	99.428504 
3112.000000	99.427147 
3111.000000	99.423873 
3110.000000	99.420563 
3109.000000	99.419219 
3108.000000	99.420288 
3107.000000	99.422052 
3106.000000	99.422202 
3105.000000	99.420108 
3104.000000	99.417238 
3103.000000	99.415510 
3102.000000	99.415756 
3101.000000	99.417630 
3100.000000	99.420345 
3099.000000	99.423225 
3098.000000	99.425890 
3097.000000	99.428123 
3096.000000	99.429479 
3095.000000	99.429237 
3094.000000	99.427160 
3093.000000	99.424157 
3092.000000	99.421620 
3091.000000	99.420154 
3090.000000	99.419507 
3089.000000	99.419624 
3088.000000	99.420804 
3087.000000	99.422574 
3086.000000	99.423375 
3085.000000	99.422060 
3084.000000	99.419090 
3083.000000	99.415648 
3082.000000	99.412220 
3081.000000	99.408897 
3080.000000	99.406663 
3079.000000	99.407308 
3078.000000	99.411807 
3077.000000	99.419166 
3076.000000	99.426801 
3075.000000	99.431798 
3074.000000	99.432354 
3073.000000	99.428962 
3072.000000	99.424206 
3071.000000	99.420652 
3070.000000	99.418691 
3069.000000	99.416800 
3068.000000	99.413820 
3067.000000	99.410488 
3066.000000	99.408738 
3065.000000	99.409966 
3064.000000	99.413764 
3063.000000	99.417690 
3062.000000	99.418396 
3061.000000	99.414017 
3060.000000	99.406033 
3059.000000	99.398373 
3058.000000	99.394493 
3057.000000	99.395531 
3056.000000	99.400715 
3055.000000	99.408220 
3054.000000	99.415185 
3053.000000	99.418245 
3052.000000	99.415522 
3051.000000	99.408215 
3050.000000	99.399853 
3049.000000	99.394025 
3048.000000	99.392509 
3047.000000	99.394418 
3046.000000	99.396352 
3045.000000	99.394306 
3044.000000	99.386968 
3043.000000	99.377303 
3042.000000	99.370009 
3041.000000	99.367146 
3040.000000	99.366681 
3039.000000	99.365093 
3038.000000	99.360450 
3037.000000	99.352917 
3036.000000	99.343417 
3035.000000	99.332774 
3034.000000	99.321759 
3033.000000	99.310984 
3032.000000	99.300465 
3031.000000	99.289679 
3030.000000	99.278363 
3029.000000	99.267144 
3028.000000	99.257183 
3027.000000	99.249199 
3026.000000	99.242753 
3025.000000	99.236286 
3024.000000	99.227790 
3023.000000	99.215810 
3022.000000	99.200284 
3021.000000	99.182452 
3020.000000	99.163648 
3019.000000	99.144134 
3018.000000	99.123598 
3017.000000	99.102713 
3016.000000	99.083278 
3015.000000	99.066099 
3014.000000	99.049550 
3013.000000	99.031406 
3012.000000	99.011811 
3011.000000	98.993155 
3010.000000	98.976890 
3009.000000	98.961758 
3008.000000	98.945649 
3007.000000	98.928013 
3006.000000	98.909523 
3005.000000	98.890089 
3004.000000	98.868460 
3003.000000	98.843952 
3002.000000	98.818021 
3001.000000	98.793955 
3000.000000	98.774912 
2999.000000	98.761820 
2998.000000	98.752948 
2997.000000	98.745769 
2996.000000	98.738879 
2995.000000	98.730961 
2994.000000	98.717930 
2993.000000	98.693509 
2992.000000	98.654996 
2991.000000	98.608339 
2990.000000	98.565873 
2989.000000	98.538346 
2988.000000	98.529136 
2987.000000	98.535001 
2986.000000	98.550008 
2985.000000	98.568114 
2984.000000	98.583956 
2983.000000	98.593821 
2982.000000	98.596822 
2981.000000	98.594929 
2980.000000	98.591580 
2979.000000	98.589789 
2978.000000	98.590540 
2977.000000	98.592099 
2976.000000	98.591077 
2975.000000	98.585090 
2974.000000	98.575103 
2973.000000	98.565234 
2972.000000	98.559972 
2971.000000	98.561209 
2970.000000	98.567621 
2969.000000	98.576662 
2968.000000	98.586957 
2967.000000	98.598832 
2966.000000	98.612867 
2965.000000	98.628487 
2964.000000	98.644102 
2963.000000	98.658214 
2962.000000	98.670168 
2961.000000	98.680125 
2960.000000	98.688713 
2959.000000	98.696645 
2958.000000	98.704429 
2957.000000	98.712400 
2956.000000	98.720997 
2955.000000	98.730773 
2954.000000	98.741969 
2953.000000	98.754184 
2952.000000	98.766498 
2951.000000	98.777748 
2950.000000	98.786761 
2949.000000	98.792732 
2948.000000	98.795573 
2947.000000	98.795876 
2946.000000	98.794792 
2945.000000	98.794181 
2944.000000	98.796100 
2943.000000	98.800828 
2942.000000	98.805343 
2941.000000	98.805289 
2940.000000	98.799318 
2939.000000	98.790936 
2938.000000	98.785316 
2937.000000	98.784801 
2936.000000	98.787764 
2935.000000	98.790738 
2934.000000	98.790822 
2933.000000	98.786915 
2932.000000	98.779983 
2931.000000	98.771956 
2930.000000	98.763828 
2929.000000	98.755301 
2928.000000	98.746527 
2927.000000	98.738769 
2926.000000	98.732341 
2925.000000	98.725484 
2924.000000	98.717186 
2923.000000	98.709943 
2922.000000	98.707304 
2921.000000	98.708997 
2920.000000	98.711017 
2919.000000	98.710632 
2918.000000	98.709068 
2917.000000	98.708577 
2916.000000	98.709046 
2915.000000	98.708687 
2914.000000	98.706696 
2913.000000	98.703920 
2912.000000	98.701805 
2911.000000	98.701592 
2910.000000	98.703668 
2909.000000	98.706825 
2908.000000	98.708725 
2907.000000	98.707766 
2906.000000	98.703548 
2905.000000	98.695069 
2904.000000	98.680337 
2903.000000	98.660166 
2902.000000	98.641963 
2901.000000	98.637323 
2900.000000	98.652726 
2899.000000	98.683438 
2898.000000	98.716168 
2897.000000	98.738533 
2896.000000	98.746863 
2895.000000	98.746438 
2894.000000	98.745586 
2893.000000	98.749477 
2892.000000	98.758410 
2891.000000	98.769872 
2890.000000	98.780949 
2889.000000	98.789235 
2888.000000	98.793298 
2887.000000	98.793627 
2886.000000	98.792862 
2885.000000	98.794312 
2884.000000	98.799999 
2883.000000	98.810157 
2882.000000	98.824056 
2881.000000	98.840617 
2880.000000	98.858302 
2879.000000	98.875206 
2878.000000	98.889779 
2877.000000	98.901559 
2876.000000	98.911144 
2875.000000	98.919575 
2874.000000	98.927712 
2873.000000	98.935876 
2872.000000	98.943731 
2871.000000	98.950383 
2870.000000	98.955021 
2869.000000	98.958075 
2868.000000	98.961822 
2867.000000	98.969180 
2866.000000	98.981185 
2865.000000	98.995778 
2864.000000	99.009470 
2863.000000	99.020073 
2862.000000	99.027514 
2861.000000	99.032720 
2860.000000	99.036844 
2859.000000	99.041485 
2858.000000	99.048145 
2857.000000	99.056726 
2856.000000	99.065366 
2855.000000	99.072655 
2854.000000	99.079602 
2853.000000	99.088602 
2852.000000	99.100670 
2851.000000	99.114465 
2850.000000	99.128111 
2849.000000	99.141263 
2848.000000	99.154975 
2847.000000	99.169912 
2846.000000	99.185138 
2845.000000	99.198586 
2844.000000	99.208484 
2843.000000	99.214513 
2842.000000	99.218146 
2841.000000	99.222094 
2840.000000	99.228884 
2839.000000	99.239162 
2838.000000	99.251102 
2837.000000	99.261788 
2836.000000	99.269441 
2835.000000	99.274392 
2834.000000	99.278146 
2833.000000	99.281928 
2832.000000	99.285956 
2831.000000	99.289362 
2830.000000	99.290598 
2829.000000	99.288728 
2828.000000	99.285045 
2827.000000	99.283007 
2826.000000	99.285800 
2825.000000	99.293688 
2824.000000	99.303821 
2823.000000	99.312307 
2822.000000	99.316438 
2821.000000	99.315886 
2820.000000	99.312796 
2819.000000	99.310493 
2818.000000	99.311037 
2817.000000	99.313673 
2816.000000	99.316017 
2815.000000	99.316631 
2814.000000	99.316000 
2813.000000	99.315330 
2812.000000	99.315360 
2811.000000	99.316514 
2810.000000	99.319253 
2809.000000	99.323547 
2808.000000	99.328244 
2807.000000	99.331463 
2806.000000	99.331766 
2805.000000	99.329160 
2804.000000	99.325209 
2803.000000	99.322062 
2802.000000	99.320897 
2801.000000	99.321224 
2800.000000	99.321832 
2799.000000	99.322198 
2798.000000	99.322522 
2797.000000	99.322712 
2796.000000	99.322248 
2795.000000	99.321298 
2794.000000	99.321215 
2793.000000	99.323315 
2792.000000	99.327341 
2791.000000	99.331455 
2790.000000	99.333754 
2789.000000	99.333769 
2788.000000	99.332738 
2787.000000	99.332440 
2786.000000	99.333540 
2785.000000	99.334960 
2784.000000	99.335024 
2783.000000	99.333150 
2782.000000	99.330316 
2781.000000	99.328076 
2780.000000	99.327546 
2779.000000	99.329181 
2778.000000	99.332894 
2777.000000	99.338134 
2776.000000	99.344035 
2775.000000	99.349640 
2774.000000	99.353934 
2773.000000	99.356062 
2772.000000	99.356003 
2771.000000	99.354910 
2770.000000	99.354172 
2769.000000	99.354072 
2768.000000	99.353885 
2767.000000	99.353297 
2766.000000	99.353052 
2765.000000	99.353779 
2764.000000	99.354653 
2763.000000	99.353708 
2762.000000	99.349561 
2761.000000	99.342799 
2760.000000	99.335899 
2759.000000	99.331842 
2758.000000	99.332426 
2757.000000	99.337460 
2756.000000	99.345140 
2755.000000	99.352914 
2754.000000	99.358194 
2753.000000	99.359334 
2752.000000	99.356940 
2751.000000	99.353951 
2750.000000	99.353364 
2749.000000	99.355547 
2748.000000	99.358335 
2747.000000	99.359814 
2746.000000	99.360145 
2745.000000	99.360321 
2744.000000	99.360126 
2743.000000	99.358384 
2742.000000	99.355029 
2741.000000	99.351949 
2740.000000	99.351359 
2739.000000	99.353667 
2738.000000	99.357276 
2737.000000	99.360308 
2736.000000	99.362146 
2735.000000	99.363156 
2734.000000	99.363412 
2733.000000	99.362448 
2732.000000	99.360359 
2731.000000	99.358390 
2730.000000	99.357762 
2729.000000	99.358289 
2728.000000	99.358786 
2727.000000	99.358660 
2726.000000	99.358387 
2725.000000	99.358537 
2724.000000	99.359219 
2723.000000	99.360678 
2722.000000	99.363570 
2721.000000	99.367951 
2720.000000	99.372394 
2719.000000	99.374773 
2718.000000	99.373967 
2717.000000	99.370615 
2716.000000	99.366461 
2715.000000	99.363308 
2714.000000	99.362353 
2713.000000	99.363735 
2712.000000	99.366283 
2711.000000	99.368114 
2710.000000	99.368211 
2709.000000	99.367549 
2708.000000	99.368124 
2707.000000	99.370516 
2706.000000	99.372924 
2705.000000	99.373271 
2704.000000	99.371886 
2703.000000	99.371080 
2702.000000	99.372143 
2701.000000	99.373929 
2700.000000	99.374922 
2699.000000	99.375494 
2698.000000	99.377052 
2697.000000	99.379584 
2696.000000	99.381327 
2695.000000	99.380865 
2694.000000	99.378705 
2693.000000	99.376614 
2692.000000	99.375942 
2691.000000	99.376637 
2690.000000	99.377484 
2689.000000	99.377287 
2688.000000	99.376099 
2687.000000	99.375181 
2686.000000	99.375636 
2685.000000	99.377447 
2684.000000	99.379961 
2683.000000	99.382517 
2682.000000	99.384114 
2681.000000	99.383389 
2680.000000	99.379956 
2679.000000	99.375333 
2678.000000	99.371570 
2677.000000	99.369427 
2676.000000	99.368755 
2675.000000	99.369956 
2674.000000	99.373498 
2673.000000	99.378163 
2672.000000	99.381429 
2671.000000	99.381999 
2670.000000	99.380805 
2669.000000	99.379318 
2668.000000	99.378083 
2667.000000	99.377391 
2666.000000	99.378030 
2665.000000	99.380421 
2664.000000	99.383701 
2663.000000	99.386535 
2662.000000	99.388468 
2661.000000	99.389943 
2660.000000	99.391297 
2659.000000	99.392168 
2658.000000	99.391804 
2657.000000	99.389942 
2656.000000	99.387525 
2655.000000	99.386156 
2654.000000	99.386216 
2653.000000	99.386141 
2652.000000	99.384801 
2651.000000	99.384108 
2650.000000	99.387238 
2649.000000	99.393830 
2648.000000	99.399155 
2647.000000	99.399469 
2646.000000	99.396716 
2645.000000	99.396082 
2644.000000	99.399606 
2643.000000	99.404047 
2642.000000	99.404896 
2641.000000	99.401039 
2640.000000	99.395195 
2639.000000	99.390815 
2638.000000	99.389023 
2637.000000	99.388132 
2636.000000	99.385942 
2635.000000	99.382539 
2634.000000	99.380376 
2633.000000	99.381504 
2632.000000	99.385521 
2631.000000	99.390693 
2630.000000	99.395858 
2629.000000	99.400097 
2628.000000	99.401696 
2627.000000	99.399523 
2626.000000	99.395400 
2625.000000	99.393159 
2624.000000	99.394638 
2623.000000	99.397792 
2622.000000	99.399403 
2621.000000	99.398534 
2620.000000	99.396549 
2619.000000	99.394818 
2618.000000	99.393789 
2617.000000	99.393953 
2616.000000	99.396294 
2615.000000	99.401144 
2614.000000	99.407149 
2613.000000	99.411962 
2612.000000	99.414015 
2611.000000	99.413533 
2610.000000	99.411940 
2609.000000	99.410519 
2608.000000	99.409712 
2607.000000	99.409561 
2606.000000	99.410418 
2605.000000	99.412774 
2604.000000	99.416188 
2603.000000	99.418743 
2602.000000	99.418288 
2601.000000	99.414689 
2600.000000	99.410554 
2599.000000	99.409031 
2598.000000	99.410648 
2597.000000	99.412640 
2596.000000	99.411624 
2595.000000	99.406709 
2594.000000	99.400028 
2593.000000	99.394781 
2592.000000	99.393047 
2591.000000	99.394938 
2590.000000	99.399042 
2589.000000	99.403491 
2588.000000	99.406816 
2587.000000	99.408131 
2586.000000	99.407138 
2585.000000	99.404647 
2584.000000	99.402678 
2583.000000	99.402612 
2582.000000	99.402912 
2581.000000	99.400128 
2580.000000	99.393264 
2579.000000	99.386004 
2578.000000	99.383145 
2577.000000	99.385314 
2576.000000	99.388606 
2575.000000	99.389175 
2574.000000	99.386861 
2573.000000	99.384416 
2572.000000	99.384458 
2571.000000	99.387358 
2570.000000	99.391054 
2569.000000	99.392694 
2568.000000	99.391267 
2567.000000	99.388652 
2566.000000	99.387445 
2565.000000	99.388017 
2564.000000	99.388644 
2563.000000	99.388182 
2562.000000	99.387315 
2561.000000	99.387110 
2560.000000	99.387495 
2559.000000	99.387447 
2558.000000	99.385991 
2557.000000	99.383198 
2556.000000	99.381084 
2555.000000	99.383015 
2554.000000	99.390642 
2553.000000	99.401235 
2552.000000	99.409337 
2551.000000	99.411366 
2550.000000	99.407760 
2549.000000	99.401065 
2548.000000	99.393691 
2547.000000	99.387711 
2546.000000	99.384900 
2545.000000	99.385726 
2544.000000	99.388887 
2543.000000	99.392262 
2542.000000	99.393771 
2541.000000	99.391843 
2540.000000	99.386681 
2539.000000	99.381078 
2538.000000	99.378117 
2537.000000	99.377664 
2536.000000	99.376982 
2535.000000	99.375316 
2534.000000	99.375418 
2533.000000	99.379024 
2532.000000	99.383103 
2531.000000	99.383241 
2530.000000	99.379711 
2529.000000	99.377280 
2528.000000	99.378623 
2527.000000	99.380254 
2526.000000	99.376457 
2525.000000	99.366298 
2524.000000	99.355492 
2523.000000	99.351402 
2522.000000	99.356807 
2521.000000	99.368289 
2520.000000	99.379478 
2519.000000	99.385109 
2518.000000	99.382975 
2517.000000	99.374204 
2516.000000	99.362751 
2515.000000	99.353451 
2514.000000	99.349009 
2513.000000	99.348829 
2512.000000	99.351048 
2511.000000	99.354847 
2510.000000	99.360121 
2509.000000	99.366256 
2508.000000	99.372648 
2507.000000	99.379195 
2506.000000	99.384324 
2505.000000	99.383777 
2504.000000	99.374421 
2503.000000	99.359408 
2502.000000	99.346892 
2501.000000	99.342847 
2500.000000	99.346990 
2499.000000	99.355831 
2498.000000	99.366782 
2497.000000	99.377782 
2496.000000	99.385600 
2495.000000	99.387381 
2494.000000	99.383413 
2493.000000	99.376799 
2492.000000	99.370631 
2491.000000	99.366428 
2490.000000	99.364886 
2489.000000	99.367143 
2488.000000	99.374843 
2487.000000	99.388205 
2486.000000	99.403172 
2485.000000	99.411571 
2484.000000	99.406987 
2483.000000	99.391404 
2482.000000	99.374339 
2481.000000	99.364509 
2480.000000	99.363432 
2479.000000	99.367010 
2478.000000	99.370528 
2477.000000	99.370961 
2476.000000	99.367454 
2475.000000	99.362325 
2474.000000	99.360195 
2473.000000	99.363563 
2472.000000	99.369800 
2471.000000	99.374252 
2470.000000	99.375385 
2469.000000	99.375122 
2468.000000	99.375174 
2467.000000	99.375367 
2466.000000	99.375139 
2465.000000	99.374548 
2464.000000	99.373814 
2463.000000	99.373461 
2462.000000	99.374572 
2461.000000	99.377131 
2460.000000	99.378473 
2459.000000	99.375549 
2458.000000	99.368961 
2457.000000	99.362857 
2456.000000	99.360422 
2455.000000	99.361205 
2454.000000	99.363219 
2453.000000	99.365472 
2452.000000	99.367229 
2451.000000	99.366595 
2450.000000	99.361920 
2449.000000	99.354298 
2448.000000	99.347432 
2447.000000	99.345017 
2446.000000	99.348570 
2445.000000	99.356769 
2444.000000	99.365750 
2443.000000	99.370740 
2442.000000	99.369176 
2441.000000	99.362951 
2440.000000	99.356941 
2439.000000	99.354907 
2438.000000	99.357022 
2437.000000	99.361028 
2436.000000	99.364668 
2435.000000	99.366628 
2434.000000	99.366287 
2433.000000	99.363992 
2432.000000	99.361546 
2431.000000	99.361248 
2430.000000	99.363800 
2429.000000	99.367445 
2428.000000	99.369435 
2427.000000	99.368119 
2426.000000	99.363708 
2425.000000	99.357857 
2424.000000	99.353139 
2423.000000	99.352353 
2422.000000	99.357136 
2421.000000	99.366385 
2420.000000	99.376035 
2419.000000	99.381023 
2418.000000	99.378623 
2417.000000	99.370666 
2416.000000	99.362143 
2415.000000	99.356741 
2414.000000	99.353882 
2413.000000	99.350842 
2412.000000	99.347162 
2411.000000	99.345178 
2410.000000	99.346036 
2409.000000	99.347339 
2408.000000	99.346058 
2407.000000	99.342418 
2406.000000	99.339394 
2405.000000	99.339297 
2404.000000	99.342271 
2403.000000	99.347194 
2402.000000	99.352376 
2401.000000	99.355813 
2400.000000	99.356407 
2399.000000	99.354927 
2398.000000	99.352913 
2397.000000	99.351125 
2396.000000	99.349880 
2395.000000	99.349797 
2394.000000	99.350729 
2393.000000	99.350862 
2392.000000	99.348616 
2391.000000	99.344790 
2390.000000	99.341260 
2389.000000	99.338611 
2388.000000	99.337155 
2387.000000	99.339040 
2386.000000	99.345992 
2385.000000	99.355010 
2384.000000	99.359880 
2383.000000	99.358324 
2382.000000	99.354883 
2381.000000	99.354988 
2380.000000	99.358396 
2379.000000	99.360719 
2378.000000	99.359814 
2377.000000	99.357967 
2376.000000	99.358140 
2375.000000	99.360330 
2374.000000	99.361929 
2373.000000	99.360466 
2372.000000	99.356073 
2371.000000	99.351938 
2370.000000	99.351742 
2369.000000	99.355988 
2368.000000	99.361613 
2367.000000	99.365538 
2366.000000	99.367663 
2365.000000	99.370304 
2364.000000	99.375256 
2363.000000	99.381410 
2362.000000	99.385435 
2361.000000	99.384412 
2360.000000	99.378882 
2359.000000	99.372870 
2358.000000	99.369439 
2357.000000	99.369101 
2356.000000	99.372217 
2355.000000	99.378853 
2354.000000	99.384950 
2353.000000	99.385373 
2352.000000	99.381139 
2351.000000	99.378462 
2350.000000	99.380717 
2349.000000	99.385260 
2348.000000	99.387690 
2347.000000	99.386655 
2346.000000	99.384908 
2345.000000	99.386239 
2344.000000	99.391564 
2343.000000	99.398224 
2342.000000	99.402464 
2341.000000	99.402516 
2340.000000	99.400768 
2339.000000	99.402673 
2338.000000	99.410019 
2337.000000	99.417227 
2336.000000	99.416764 
2335.000000	99.407121 
2334.000000	99.394066 
2333.000000	99.384888 
2332.000000	99.383233 
2331.000000	99.386929 
2330.000000	99.391301 
2329.000000	99.393757 
2328.000000	99.396214 
2327.000000	99.401834 
2326.000000	99.410465 
2325.000000	99.417115 
2324.000000	99.416788 
2323.000000	99.410146 
2322.000000	99.403889 
2321.000000	99.403027 
2320.000000	99.405056 
2319.000000	99.403405 
2318.000000	99.396001 
2317.000000	99.387021 
2316.000000	99.381614 
2315.000000	99.380995 
2314.000000	99.383617 
2313.000000	99.387863 
2312.000000	99.392830 
2311.000000	99.396847 
2310.000000	99.397655 
2309.000000	99.394127 
2308.000000	99.387912 
2307.000000	99.382552 
2306.000000	99.381057 
2305.000000	99.383768 
2304.000000	99.388788 
2303.000000	99.393701 
2302.000000	99.396865 
2301.000000	99.397542 
2300.000000	99.396594 
2299.000000	99.396557 
2298.000000	99.399462 
2297.000000	99.403676 
2296.000000	99.405064 
2295.000000	99.401917 
2294.000000	99.397344 
2293.000000	99.395539 
2292.000000	99.397611 
2291.000000	99.402121 
2290.000000	99.407879 
2289.000000	99.413990 
2288.000000	99.418628 
2287.000000	99.420144 
2286.000000	99.418807 
2285.000000	99.415588 
2284.000000	99.410213 
2283.000000	99.402793 
2282.000000	99.396469 
2281.000000	99.395366 
2280.000000	99.399505 
2279.000000	99.404151 
2278.000000	99.404649 
2277.000000	99.400183 
2276.000000	99.392929 
2275.000000	99.385712 
2274.000000	99.380849 
2273.000000	99.379099 
2272.000000	99.379017 
2271.000000	99.378851 
2270.000000	99.379323 
2269.000000	99.382778 
2268.000000	99.389377 
2267.000000	99.396121 
2266.000000	99.400166 
2265.000000	99.401031 
2264.000000	99.398728 
2263.000000	99.392169 
2262.000000	99.381601 
2261.000000	99.371392 
2260.000000	99.367777 
2259.000000	99.373184 
2258.000000	99.383708 
2257.000000	99.392500 
2256.000000	99.395349 
2255.000000	99.393145 
2254.000000	99.389865 
2253.000000	99.389017 
2252.000000	99.391703 
2251.000000	99.396713 
2250.000000	99.401516 
2249.000000	99.403819 
2248.000000	99.403143 
2247.000000	99.401348 
2246.000000	99.399908 
2245.000000	99.397865 
2244.000000	99.393788 
2243.000000	99.389186 
2242.000000	99.387563 
2241.000000	99.390087 
2240.000000	99.395035 
2239.000000	99.401963 
2238.000000	99.412480 
2237.000000	99.424663 
2236.000000	99.430546 
2235.000000	99.423741 
2234.000000	99.408429 
2233.000000	99.396705 
2232.000000	99.396296 
2231.000000	99.403245 
2230.000000	99.406911 
2229.000000	99.400293 
2228.000000	99.385475 
2227.000000	99.370767 
2226.000000	99.363195 
2225.000000	99.363295 
2224.000000	99.367435 
2223.000000	99.374342 
2222.000000	99.385685 
2221.000000	99.398730 
2220.000000	99.403743 
2219.000000	99.394548 
2218.000000	99.379353 
2217.000000	99.374157 
2216.000000	99.384641 
2215.000000	99.400537 
2214.000000	99.409270 
2213.000000	99.408829 
2212.000000	99.404211 
2211.000000	99.397991 
2210.000000	99.391306 
2209.000000	99.390053 
2208.000000	99.400644 
2207.000000	99.418359 
2206.000000	99.427417 
2205.000000	99.417312 
2204.000000	99.395833 
2203.000000	99.381440 
2202.000000	99.384263 
2201.000000	99.397747 
2200.000000	99.407877 
2199.000000	99.407028 
2198.000000	99.398270 
2197.000000	99.389724 
2196.000000	99.387281 
2195.000000	99.391534 
2194.000000	99.398972 
2193.000000	99.404825 
2192.000000	99.405762 
2191.000000	99.401905 
2190.000000	99.397831 
2189.000000	99.400721 
2188.000000	99.413969 
2187.000000	99.430540 
2186.000000	99.435406 
2185.000000	99.419122 
2184.000000	99.389222 
2183.000000	99.364287 
2182.000000	99.356215 
2181.000000	99.361561 
2180.000000	99.370324 
2179.000000	99.377958 
2178.000000	99.385826 
2177.000000	99.394696 
2176.000000	99.402594 
2175.000000	99.407104 
2174.000000	99.406866 
2173.000000	99.403331 
2172.000000	99.403586 
2171.000000	99.417201 
2170.000000	99.445287 
2169.000000	99.475017 
2168.000000	99.490638 
2167.000000	99.488973 
2166.000000	99.479485 
2165.000000	99.471612 
2164.000000	99.468433 
2163.000000	99.470810 
2162.000000	99.477780 
2161.000000	99.479906 
2160.000000	99.461519 
2159.000000	99.417435 
2158.000000	99.362887 
2157.000000	99.319832 
2156.000000	99.297644 
2155.000000	99.293181 
2154.000000	99.302466 
2153.000000	99.323713 
2152.000000	99.351647 
2151.000000	99.375823 
2150.000000	99.387162 
2149.000000	99.385719 
2148.000000	99.381245 
2147.000000	99.384455 
2146.000000	99.396312 
2145.000000	99.406530 
2144.000000	99.404311 
2143.000000	99.389586 
2142.000000	99.371559 
2141.000000	99.357869 
2140.000000	99.348746 
2139.000000	99.341621 
2138.000000	99.337103 
2137.000000	99.337907 
2136.000000	99.344042 
2135.000000	99.351711 
2134.000000	99.356945 
2133.000000	99.359434 
2132.000000	99.362281 
2131.000000	99.367190 
2130.000000	99.370142 
2129.000000	99.364229 
2128.000000	99.348476 
2127.000000	99.331517 
2126.000000	99.323680 
2125.000000	99.326989 
2124.000000	99.336192 
2123.000000	99.347953 
2122.000000	99.363612 
2121.000000	99.382427 
2120.000000	99.397869 
2119.000000	99.403796 
2118.000000	99.401143 
2117.000000	99.395931 
2116.000000	99.392929 
2115.000000	99.393404 
2114.000000	99.396704 
2113.000000	99.400932 
2112.000000	99.403182 
2111.000000	99.401811 
2110.000000	99.398332 
2109.000000	99.395559 
2108.000000	99.394238 
2107.000000	99.392590 
2106.000000	99.388670 
2105.000000	99.382443 
2104.000000	99.376214 
2103.000000	99.373331 
2102.000000	99.375264 
2101.000000	99.379339 
2100.000000	99.380616 
2099.000000	99.376605 
2098.000000	99.369211 
2097.000000	99.362342 
2096.000000	99.359426 
2095.000000	99.363005 
2094.000000	99.373490 
2093.000000	99.386782 
2092.000000	99.396058 
2091.000000	99.398192 
2090.000000	99.396820 
2089.000000	99.397157 
2088.000000	99.398963 
2087.000000	99.397013 
2086.000000	99.388295 
2085.000000	99.376922 
2084.000000	99.371340 
2083.000000	99.376966 
2082.000000	99.391431 
2081.000000	99.406686 
2080.000000	99.416357 
2079.000000	99.421329 
2078.000000	99.427669 
2077.000000	99.439238 
2076.000000	99.452766 
2075.000000	99.459855 
2074.000000	99.453461 
2073.000000	99.434042 
2072.000000	99.410780 
2071.000000	99.394932 
2070.000000	99.390046 
2069.000000	99.389639 
2068.000000	99.385710 
2067.000000	99.377513 
2066.000000	99.369862 
2065.000000	99.366268 
2064.000000	99.367977 
2063.000000	99.376779 
2062.000000	99.391880 
2061.000000	99.405112 
2060.000000	99.407571 
2059.000000	99.402445 
2058.000000	99.403449 
2057.000000	99.417386 
2056.000000	99.434986 
2055.000000	99.443486 
2054.000000	99.442525 
2053.000000	99.441752 
2052.000000	99.446472 
2051.000000	99.451884 
2050.000000	99.450289 
2049.000000	99.439934 
2048.000000	99.427278 
2047.000000	99.422255 
2046.000000	99.429840 
2045.000000	99.443825 
2044.000000	99.450623 
2043.000000	99.442707 
2042.000000	99.427443 
2041.000000	99.419913 
2040.000000	99.427395 
2039.000000	99.443711 
2038.000000	99.457586 
2037.000000	99.462605 
2036.000000	99.458937 
2035.000000	99.448431 
2034.000000	99.430938 
2033.000000	99.407242 
2032.000000	99.384823 
2031.000000	99.376561 
2030.000000	99.389729 
2029.000000	99.416578 
2028.000000	99.439105 
2027.000000	99.443511 
2026.000000	99.427816 
2025.000000	99.399249 
2024.000000	99.370455 
2023.000000	99.355986 
2022.000000	99.363741 
2021.000000	99.386448 
2020.000000	99.406755 
2019.000000	99.413570 
2018.000000	99.409279 
2017.000000	99.401332 
2016.000000	99.393854 
2015.000000	99.389839 
2014.000000	99.393429 
2013.000000	99.404053 
2012.000000	99.413779 
2011.000000	99.416005 
2010.000000	99.413114 
2009.000000	99.411435 
2008.000000	99.412449 
2007.000000	99.413521 
2006.000000	99.413722 
2005.000000	99.413748 
2004.000000	99.412660 
2003.000000	99.408908 
2002.000000	99.402702 
2001.000000	99.394568 
2000.000000	99.384100 
1999.000000	99.372516 
1998.000000	99.363150 
1997.000000	99.357222 
1996.000000	99.352771 
1995.000000	99.350098 
1994.000000	99.354249 
1993.000000	99.368324 
1992.000000	99.386076 
1991.000000	99.395419 
1990.000000	99.389299 
1989.000000	99.371055 
1988.000000	99.352197 
1987.000000	99.346545 
1986.000000	99.361754 
1985.000000	99.392739 
1984.000000	99.425473 
1983.000000	99.448770 
1982.000000	99.459775 
1981.000000	99.459107 
1980.000000	99.447865 
1979.000000	99.431972 
1978.000000	99.421554 
1977.000000	99.419354 
1976.000000	99.415187 
1975.000000	99.399107 
1974.000000	99.375390 
1973.000000	99.357380 
1972.000000	99.352428 
1971.000000	99.357840 
1970.000000	99.368884 
1969.000000	99.384221 
1968.000000	99.403199 
1967.000000	99.421845 
1966.000000	99.433598 
1965.000000	99.433840 
1964.000000	99.424194 
1963.000000	99.412294 
1962.000000	99.405618 
1961.000000	99.404291 
1960.000000	99.401698 
1959.000000	99.393112 
1958.000000	99.381140 
1957.000000	99.371911 
1956.000000	99.368571 
1955.000000	99.369189 
1954.000000	99.368186 
1953.000000	99.359771 
1952.000000	99.343667 
1951.000000	99.328186 
1950.000000	99.324124 
1949.000000	99.333726 
1948.000000	99.348377 
1947.000000	99.358262 
1946.000000	99.359949 
1945.000000	99.353568 
1944.000000	99.338992 
1943.000000	99.319409 
1942.000000	99.303707 
1941.000000	99.298155 
1940.000000	99.299242 
1939.000000	99.299823 
1938.000000	99.298174 
1937.000000	99.297925 
1936.000000	99.301752 
1935.000000	99.308194 
1934.000000	99.313690 
1933.000000	99.315461 
1932.000000	99.313484 
1931.000000	99.311950 
1930.000000	99.317226 
1929.000000	99.330523 
1928.000000	99.343991 
1927.000000	99.348030 
1926.000000	99.340905 
1925.000000	99.328111 
1924.000000	99.314667 
1923.000000	99.302649 
1922.000000	99.295120 
1921.000000	99.296041 
1920.000000	99.305052 
1919.000000	99.315985 
1918.000000	99.321915 
1917.000000	99.321281 
1916.000000	99.317980 
1915.000000	99.316846 
1914.000000	99.320224 
1913.000000	99.327047 
1912.000000	99.333821 
1911.000000	99.337332 
1910.000000	99.336912 
1909.000000	99.333845 
1908.000000	99.330033 
1907.000000	99.328227 
1906.000000	99.331062 
1905.000000	99.337363 
1904.000000	99.340746 
1903.000000	99.335058 
1902.000000	99.320900 
1901.000000	99.305027 
1900.000000	99.294635 
1899.000000	99.293172 
1898.000000	99.299457 
1897.000000	99.308761 
1896.000000	99.315954 
1895.000000	99.319973 
1894.000000	99.324148 
1893.000000	99.330428 
1892.000000	99.335784 
1891.000000	99.336037 
1890.000000	99.331300 
1889.000000	99.326066 
1888.000000	99.324553 
1887.000000	99.328642 
1886.000000	99.338016 
1885.000000	99.348765 
1884.000000	99.354146 
1883.000000	99.350008 
1882.000000	99.338518 
1881.000000	99.325430 
1880.000000	99.316111 
1879.000000	99.314101 
1878.000000	99.319322 
1877.000000	99.326002 
1876.000000	99.326647 
1875.000000	99.320923 
1874.000000	99.317131 
1873.000000	99.321773 
1872.000000	99.330940 
1871.000000	99.335440 
1870.000000	99.331419 
1869.000000	99.322526 
1868.000000	99.312156 
1867.000000	99.300121 
1866.000000	99.287743 
1865.000000	99.278134 
1864.000000	99.272876 
1863.000000	99.272917 
1862.000000	99.280631 
1861.000000	99.296265 
1860.000000	99.313324 
1859.000000	99.323184 
1858.000000	99.324415 
1857.000000	99.322864 
1856.000000	99.323550 
1855.000000	99.327017 
1854.000000	99.332068 
1853.000000	99.337162 
1852.000000	99.339413 
1851.000000	99.336186 
1850.000000	99.328433 
1849.000000	99.320509 
1848.000000	99.316006 
1847.000000	99.315468 
1846.000000	99.317888 
1845.000000	99.320537 
1844.000000	99.318418 
1843.000000	99.310203 
1842.000000	99.302592 
1841.000000	99.302755 
1840.000000	99.310822 
1839.000000	99.320578 
1838.000000	99.325907 
1837.000000	99.326328 
1836.000000	99.325486 
1835.000000	99.326306 
1834.000000	99.328843 
1833.000000	99.331506 
1832.000000	99.332802 
1831.000000	99.331501 
1830.000000	99.327754 
1829.000000	99.324460 
1828.000000	99.324660 
1827.000000	99.327835 
1826.000000	99.331002 
1825.000000	99.333066 
1824.000000	99.335589 
1823.000000	99.339144 
1822.000000	99.341650 
1821.000000	99.339977 
1820.000000	99.332603 
1819.000000	99.320964 
1818.000000	99.309150 
1817.000000	99.301831 
1816.000000	99.300554 
1815.000000	99.303172 
1814.000000	99.307130 
1813.000000	99.311880 
1812.000000	99.318126 
1811.000000	99.325115 
1810.000000	99.331584 
1809.000000	99.338096 
1808.000000	99.344717 
1807.000000	99.348828 
1806.000000	99.347872 
1805.000000	99.342492 
1804.000000	99.335606 
1803.000000	99.329675 
1802.000000	99.326191 
1801.000000	99.326387 
1800.000000	99.328944 
1799.000000	99.329957 
1798.000000	99.328089 
1797.000000	99.325594 
1796.000000	99.324887 
1795.000000	99.326919 
1794.000000	99.331250 
1793.000000	99.335642 
1792.000000	99.337535 
1791.000000	99.336459 
1790.000000	99.334618 
1789.000000	99.334794 
1788.000000	99.338043 
1787.000000	99.343254 
1786.000000	99.348223 
1785.000000	99.350629 
1784.000000	99.348697 
1783.000000	99.343430 
1782.000000	99.338369 
1781.000000	99.335640 
1780.000000	99.333322 
1779.000000	99.328417 
1778.000000	99.322349 
1777.000000	99.319185 
1776.000000	99.320516 
1775.000000	99.325502 
1774.000000	99.332940 
1773.000000	99.340561 
1772.000000	99.344734 
1771.000000	99.344514 
1770.000000	99.342729 
1769.000000	99.341114 
1768.000000	99.339189 
1767.000000	99.335843 
1766.000000	99.331871 
1765.000000	99.330207 
1764.000000	99.332649 
1763.000000	99.337760 
1762.000000	99.341706 
1761.000000	99.342159 
1760.000000	99.340708 
1759.000000	99.339904 
1758.000000	99.340266 
1757.000000	99.340033 
1756.000000	99.337595 
1755.000000	99.333815 
1754.000000	99.330372 
1753.000000	99.327479 
1752.000000	99.325421 
1751.000000	99.326750 
1750.000000	99.332457 
1749.000000	99.338495 
1748.000000	99.340504 
1747.000000	99.338323 
1746.000000	99.334441 
1745.000000	99.330565 
1744.000000	99.327446 
1743.000000	99.325934 
1742.000000	99.326757 
1741.000000	99.329865 
1740.000000	99.333263 
1739.000000	99.334122 
1738.000000	99.332251 
1737.000000	99.329490 
1736.000000	99.326750 
1735.000000	99.323254 
1734.000000	99.319060 
1733.000000	99.317095 
1732.000000	99.320090 
1731.000000	99.326885 
1730.000000	99.333993 
1729.000000	99.337940 
1728.000000	99.337818 
1727.000000	99.335981 
1726.000000	99.335177 
1725.000000	99.335876 
1724.000000	99.336892 
1723.000000	99.338094 
1722.000000	99.341282 
1721.000000	99.347751 
1720.000000	99.355746 
1719.000000	99.360789 
1718.000000	99.359056 
1717.000000	99.353239 
1716.000000	99.347988 
1715.000000	99.343263 
1714.000000	99.339099 
1713.000000	99.337310 
1712.000000	99.337776 
1711.000000	99.338769 
1710.000000	99.339319 
1709.000000	99.339618 
1708.000000	99.339927 
1707.000000	99.340533 
1706.000000	99.343597 
1705.000000	99.350702 
1704.000000	99.357570 
1703.000000	99.357449 
1702.000000	99.349589 
1701.000000	99.341552 
1700.000000	99.340762 
1699.000000	99.342941 
1698.000000	99.344772 
1697.000000	99.348414 
1696.000000	99.354220 
1695.000000	99.357610 
1694.000000	99.357690 
1693.000000	99.356880 
1692.000000	99.353941 
1691.000000	99.347752 
1690.000000	99.341169 
1689.000000	99.338214 
1688.000000	99.338549 
1687.000000	99.338806 
1686.000000	99.339365 
1685.000000	99.344173 
1684.000000	99.351891 
1683.000000	99.355769 
1682.000000	99.356086 
1681.000000	99.355005 
1680.000000	99.353714 
1679.000000	99.352663 
1678.000000	99.352426 
1677.000000	99.353872 
1676.000000	99.356858 
1675.000000	99.359653 
1674.000000	99.360620 
1673.000000	99.361038 
1672.000000	99.362267 
1671.000000	99.363986 
1670.000000	99.364986 
1669.000000	99.364570 
1668.000000	99.364376 
1667.000000	99.365484 
1666.000000	99.365160 
1665.000000	99.360872 
1664.000000	99.354558 
1663.000000	99.352035 
1662.000000	99.356809 
1661.000000	99.365400 
1660.000000	99.372031 
1659.000000	99.374974 
1658.000000	99.375889 
1657.000000	99.375225 
1656.000000	99.370209 
1655.000000	99.360757 
1654.000000	99.354142 
1653.000000	99.353799 
1652.000000	99.351194 
1651.000000	99.350684 
1650.000000	99.350708 
1649.000000	99.347185 
1648.000000	99.340959 
1647.000000	99.335819 
1646.000000	99.333320 
1645.000000	99.334742 
1644.000000	99.340638 
1643.000000	99.348298 
1642.000000	99.354245 
1641.000000	99.357170 
1640.000000	99.357646 
1639.000000	99.356475 
1638.000000	99.354420 
1637.000000	99.352821 
1636.000000	99.351978 
1635.000000	99.351107 
1634.000000	99.352740 
1633.000000	99.358023 
1632.000000	99.363747 
1631.000000	99.367434 
1630.000000	99.368900 
1629.000000	99.368579 
1628.000000	99.366362 
1627.000000	99.362872 
1626.000000	99.360343 
1625.000000	99.361672 
1624.000000	99.368184 
1623.000000	99.377397 
1622.000000	99.384407 
1621.000000	99.386533 
1620.000000	99.384012 
1619.000000	99.378839 
1618.000000	99.374688 
1617.000000	99.373912 
1616.000000	99.374617 
1615.000000	99.374930 
1614.000000	99.373964 
1613.000000	99.370672 
1612.000000	99.365886 
1611.000000	99.361504 
1610.000000	99.358284 
1609.000000	99.355616 
1608.000000	99.353259 
1607.000000	99.351750 
1606.000000	99.350872 
1605.000000	99.349935 
1604.000000	99.349479 
1603.000000	99.350915 
1602.000000	99.354096 
1601.000000	99.356788 
1600.000000	99.357699 
1599.000000	99.358246 
1598.000000	99.360167 
1597.000000	99.363205 
1596.000000	99.366024 
1595.000000	99.368164 
1594.000000	99.369873 
1593.000000	99.370602 
1592.000000	99.369734 
1591.000000	99.368387 
1590.000000	99.368586 
1589.000000	99.370381 
1588.000000	99.371806 
1587.000000	99.371598 
1586.000000	99.369910 
1585.000000	99.366883 
1584.000000	99.362611 
1583.000000	99.358213 
1582.000000	99.355764 
1581.000000	99.356097 
1580.000000	99.357887 
1579.000000	99.359522 
1578.000000	99.361038 
1577.000000	99.362688 
1576.000000	99.362622 
1575.000000	99.361500 
1574.000000	99.362740 
1573.000000	99.364370 
1572.000000	99.362869 
1571.000000	99.359143 
1570.000000	99.357640 
1569.000000	99.360196 
1568.000000	99.364091 
1567.000000	99.366232 
1566.000000	99.365206 
1565.000000	99.362045 
1564.000000	99.359367 
1563.000000	99.358541 
1562.000000	99.358539 
1561.000000	99.357834 
1560.000000	99.356773 
1559.000000	99.357621 
1558.000000	99.356822 
1557.000000	99.356434 
1556.000000	99.357894 
1555.000000	99.357835 
1554.000000	99.354932 
1553.000000	99.351140 
1552.000000	99.349326 
1551.000000	99.350412 
1550.000000	99.353886 
1549.000000	99.357746 
1548.000000	99.359355 
1547.000000	99.357515 
1546.000000	99.352195 
1545.000000	99.345406 
1544.000000	99.340211 
1543.000000	99.337343 
1542.000000	99.337222 
1541.000000	99.342400 
1540.000000	99.348671 
1539.000000	99.347815 
1538.000000	99.344304 
1537.000000	99.343483 
1536.000000	99.343407 
1535.000000	99.342456 
1534.000000	99.342461 
1533.000000	99.344413 
1532.000000	99.345508 
1531.000000	99.343395 
1530.000000	99.339900 
1529.000000	99.338161 
1528.000000	99.338670 
1527.000000	99.340057 
1526.000000	99.341060 
1525.000000	99.341205 
1524.000000	99.340479 
1523.000000	99.340307 
1522.000000	99.343976 
1521.000000	99.350828 
1520.000000	99.352727 
1519.000000	99.345811 
1518.000000	99.334400 
1517.000000	99.326064 
1516.000000	99.324468 
1515.000000	99.326650 
1514.000000	99.329178 
1513.000000	99.330666 
1512.000000	99.330114 
1511.000000	99.326707 
1510.000000	99.320968 
1509.000000	99.316171 
1508.000000	99.319885 
1507.000000	99.335606 
1506.000000	99.345231 
1505.000000	99.339133 
1504.000000	99.330738 
1503.000000	99.326845 
1502.000000	99.327379 
1501.000000	99.331025 
1500.000000	99.335447 
1499.000000	99.338125 
1498.000000	99.338561 
1497.000000	99.340150 
1496.000000	99.344566 
1495.000000	99.346653 
1494.000000	99.341610 
1493.000000	99.330149 
1492.000000	99.315848 
1491.000000	99.303071 
1490.000000	99.295611 
1489.000000	99.293996 
1488.000000	99.293731 
1487.000000	99.291088 
1486.000000	99.288283 
1485.000000	99.287952 
1484.000000	99.289199 
1483.000000	99.289524 
1482.000000	99.286476 
1481.000000	99.279965 
1480.000000	99.272394 
1479.000000	99.266473 
1478.000000	99.263209 
1477.000000	99.261740 
1476.000000	99.260195 
1475.000000	99.256319 
1474.000000	99.251200 
1473.000000	99.249905 
1472.000000	99.253926 
1471.000000	99.256879 
1470.000000	99.255244 
1469.000000	99.251920 
1468.000000	99.250551 
1467.000000	99.251906 
1466.000000	99.254781 
1465.000000	99.257490 
1464.000000	99.258429 
1463.000000	99.257609 
1462.000000	99.256693 
1461.000000	99.257153 
1460.000000	99.258096 
1459.000000	99.256592 
1458.000000	99.248647 
1457.000000	99.234021 
1456.000000	99.218669 
1455.000000	99.208114 
1454.000000	99.203141 
1453.000000	99.202089 
1452.000000	99.202874 
1451.000000	99.204088 
1450.000000	99.206836 
1449.000000	99.213797 
1448.000000	99.223980 
1447.000000	99.231256 
1446.000000	99.232380 
1445.000000	99.230990 
1444.000000	99.231316 
1443.000000	99.232569 
1442.000000	99.231547 
1441.000000	99.228037 
1440.000000	99.225692 
1439.000000	99.227856 
1438.000000	99.233185 
1437.000000	99.236752 
1436.000000	99.235005 
1435.000000	99.228833 
1434.000000	99.222405 
1433.000000	99.219537 
1432.000000	99.220888 
1431.000000	99.224653 
1430.000000	99.227709 
1429.000000	99.228143 
1428.000000	99.226287 
1427.000000	99.223002 
1426.000000	99.218466 
1425.000000	99.212273 
1424.000000	99.205964 
1423.000000	99.201308 
1422.000000	99.196291 
1421.000000	99.187549 
1420.000000	99.174260 
1419.000000	99.159342 
1418.000000	99.143827 
1417.000000	99.126137 
1416.000000	99.107580 
1415.000000	99.090086 
1414.000000	99.072707 
1413.000000	99.053178 
1412.000000	99.032431 
1411.000000	99.014131 
1410.000000	98.999163 
1409.000000	98.986223 
1408.000000	98.976380 
1407.000000	98.971936 
1406.000000	98.973033 
1405.000000	98.978731 
1404.000000	98.989818 
1403.000000	99.005119 
1402.000000	99.019191 
1401.000000	99.028219 
1400.000000	99.034033 
1399.000000	99.040073 
1398.000000	99.041050 
1397.000000	99.024822 
1396.000000	98.987899 
1395.000000	98.946691 
1394.000000	98.927849 
1393.000000	98.942170 
1392.000000	98.979301 
1391.000000	99.021462 
1390.000000	99.054255 
1389.000000	99.070648 
1388.000000	99.071298 
1387.000000	99.062282 
1386.000000	99.049856 
1385.000000	99.037992 
1384.000000	99.029401 
1383.000000	99.025535 
1382.000000	99.025853 
1381.000000	99.029315 
1380.000000	99.035306 
1379.000000	99.043331 
1378.000000	99.052425 
1377.000000	99.061629 
1376.000000	99.071334 
1375.000000	99.083273 
1374.000000	99.098082 
1373.000000	99.113023 
1372.000000	99.125098 
1371.000000	99.135204 
1370.000000	99.146689 
1369.000000	99.160163 
1368.000000	99.174026 
1367.000000	99.187311 
1366.000000	99.200002 
1365.000000	99.211501 
1364.000000	99.220016 
1363.000000	99.225235 
1362.000000	99.229697 
1361.000000	99.234911 
1360.000000	99.239414 
1359.000000	99.242342 
1358.000000	99.245779 
1357.000000	99.252129 
1356.000000	99.260685 
1355.000000	99.268172 
1354.000000	99.272482 
1353.000000	99.274271 
1352.000000	99.274363 
1351.000000	99.272661 
1350.000000	99.271001 
1349.000000	99.271431 
1348.000000	99.274388 
1347.000000	99.278931 
1346.000000	99.284558 
1345.000000	99.290587 
1344.000000	99.295150 
1343.000000	99.296673 
1342.000000	99.295892 
1341.000000	99.294481 
1340.000000	99.292602 
1339.000000	99.289678 
1338.000000	99.286762 
1337.000000	99.286288 
1336.000000	99.289117 
1335.000000	99.293305 
1334.000000	99.296679 
1333.000000	99.299117 
1332.000000	99.301360 
1331.000000	99.303321 
1330.000000	99.304448 
1329.000000	99.304345 
1328.000000	99.302861 
1327.000000	99.300363 
1326.000000	99.298219 
1325.000000	99.297228 
1324.000000	99.297411 
1323.000000	99.298423 
1322.000000	99.299651 
1321.000000	99.299996 
1320.000000	99.298672 
1319.000000	99.296450 
1318.000000	99.295213 
1317.000000	99.295815 
1316.000000	99.296769 
1315.000000	99.295776 
1314.000000	99.292384 
1313.000000	99.288890 
1312.000000	99.288148 
1311.000000	99.290802 
1310.000000	99.295101 
1309.000000	99.298799 
1308.000000	99.300655 
1307.000000	99.300400 
1306.000000	99.298762 
1305.000000	99.297101 
1304.000000	99.297338 
1303.000000	99.300540 
1302.000000	99.305779 
1301.000000	99.310505 
1300.000000	99.312195 
1299.000000	99.309650 
1298.000000	99.303526 
1297.000000	99.296293 
1296.000000	99.291042 
1295.000000	99.289787 
1294.000000	99.292350 
1293.000000	99.296924 
1292.000000	99.301198 
1291.000000	99.302832 
1290.000000	99.300385 
1289.000000	99.294979 
1288.000000	99.290111 
1287.000000	99.288235 
1286.000000	99.287784 
1285.000000	99.285242 
1284.000000	99.279931 
1283.000000	99.274663 
1282.000000	99.271582 
1281.000000	99.269432 
1280.000000	99.265747 
1279.000000	99.260060 
1278.000000	99.253513 
1277.000000	99.246781 
1276.000000	99.239843 
1275.000000	99.233377 
1274.000000	99.228549 
1273.000000	99.225422 
1272.000000	99.222530 
1271.000000	99.218044 
1270.000000	99.210860 
1269.000000	99.201131 
1268.000000	99.190392 
1267.000000	99.180442 
1266.000000	99.171162 
1265.000000	99.160563 
1264.000000	99.147648 
1263.000000	99.133823 
1262.000000	99.120701 
1261.000000	99.108270 
1260.000000	99.096630 
1259.000000	99.087733 
1258.000000	99.082847 
1257.000000	99.079950 
1256.000000	99.075835 
1255.000000	99.069786 
1254.000000	99.062991 
1253.000000	99.055648 
1252.000000	99.047611 
1251.000000	99.041546 
1250.000000	99.041839 
1249.000000	99.049732 
1248.000000	99.062205 
1247.000000	99.075721 
1246.000000	99.087528 
1245.000000	99.093062 
1244.000000	99.087067 
1243.000000	99.071090 
1242.000000	99.056941 
1241.000000	99.057621 
1240.000000	99.074537 
1239.000000	99.096202 
1238.000000	99.109512 
1237.000000	99.110100 
1236.000000	99.101901 
1235.000000	99.090349 
1234.000000	99.078269 
1233.000000	99.066537 
1232.000000	99.055965 
1231.000000	99.047655 
1230.000000	99.042136 
1229.000000	99.038788 
1228.000000	99.036552 
1227.000000	99.035518 
1226.000000	99.037441 
1225.000000	99.043781 
1224.000000	99.053201 
1223.000000	99.061979 
1222.000000	99.067321 
1221.000000	99.069554 
1220.000000	99.070821 
1219.000000	99.072746 
1218.000000	99.075868 
1217.000000	99.080127 
1216.000000	99.084689 
1215.000000	99.087932 
1214.000000	99.089022 
1213.000000	99.089254 
1212.000000	99.090437 
1211.000000	99.091903 
1210.000000	99.090800 
1209.000000	99.085915 
1208.000000	99.079726 
1207.000000	99.075696 
1206.000000	99.074607 
1205.000000	99.074574 
1204.000000	99.073666 
1203.000000	99.071023 
1202.000000	99.065960 
1201.000000	99.057826 
1200.000000	99.047313 
1199.000000	99.036714 
1198.000000	99.027949 
1197.000000	99.020990 
1196.000000	99.014752 
1195.000000	99.008741 
1194.000000	99.003171 
1193.000000	98.997879 
1192.000000	98.992014 
1191.000000	98.984753 
1190.000000	98.975984 
1189.000000	98.966580 
1188.000000	98.958333 
1187.000000	98.952959 
1186.000000	98.950274 
1185.000000	98.947537 
1184.000000	98.941327 
1183.000000	98.930296 
1182.000000	98.916036 
1181.000000	98.901536 
1180.000000	98.889065 
1179.000000	98.879109 
1178.000000	98.870344 
1177.000000	98.860568 
1176.000000	98.848456 
1175.000000	98.834827 
1174.000000	98.822029 
1173.000000	98.811890 
1172.000000	98.804607 
1171.000000	98.799298 
1170.000000	98.794740 
1169.000000	98.789406 
1168.000000	98.781647 
1167.000000	98.770758 
1166.000000	98.758076 
1165.000000	98.746875 
1164.000000	98.740878 
1163.000000	98.742115 
1162.000000	98.749290 
1161.000000	98.758102 
1160.000000	98.763901 
1159.000000	98.764954 
1158.000000	98.763263 
1157.000000	98.761787 
1156.000000	98.760751 
1155.000000	98.756993 
1154.000000	98.747250 
1153.000000	98.731953 
1152.000000	98.715482 
1151.000000	98.702652 
1150.000000	98.695022 
1149.000000	98.690400 
1148.000000	98.685122 
1147.000000	98.676307 
1146.000000	98.662733 
1145.000000	98.645135 
1144.000000	98.626158 
1143.000000	98.609194 
1142.000000	98.596270 
1141.000000	98.586969 
1140.000000	98.579332 
1139.000000	98.571207 
1138.000000	98.560924 
1137.000000	98.548049 
1136.000000	98.534256 
1135.000000	98.522537 
1134.000000	98.514494 
1133.000000	98.508634 
1132.000000	98.501790 
1131.000000	98.491731 
1130.000000	98.478193 
1129.000000	98.462404 
1128.000000	98.446372 
1127.000000	98.431787 
1126.000000	98.418602 
1125.000000	98.405156 
1124.000000	98.390285 
1123.000000	98.374514 
1122.000000	98.358543 
1121.000000	98.341820 
1120.000000	98.323846 
1119.000000	98.305649 
1118.000000	98.288180 
1117.000000	98.270115 
1116.000000	98.249280 
1115.000000	98.225863 
1114.000000	98.202150 
1113.000000	98.179193 
1112.000000	98.155977 
1111.000000	98.132305 
1110.000000	98.110161 
1109.000000	98.090939 
1108.000000	98.073117 
1107.000000	98.053925 
1106.000000	98.032755 
1105.000000	98.011576 
1104.000000	97.992108 
1103.000000	97.973843 
1102.000000	97.955415 
1101.000000	97.937107 
1100.000000	97.921513 
1099.000000	97.909771 
1098.000000	97.900010 
1097.000000	97.889420 
1096.000000	97.877650 
1095.000000	97.865942 
1094.000000	97.852773 
1093.000000	97.832923 
1092.000000	97.802633 
1091.000000	97.764146 
1090.000000	97.722976 
1089.000000	97.681397 
1088.000000	97.637123 
1087.000000	97.588579 
1086.000000	97.539091 
1085.000000	97.494381 
1084.000000	97.456618 
1083.000000	97.422012 
1082.000000	97.384581 
1081.000000	97.342406 
1080.000000	97.299799 
1079.000000	97.262957 
1078.000000	97.234243 
1077.000000	97.211984 
1076.000000	97.194953 
1075.000000	97.184284 
1074.000000	97.180676 
1073.000000	97.182020 
1072.000000	97.183471 
1071.000000	97.176458 
1070.000000	97.148367 
1069.000000	97.090528 
1068.000000	97.011950 
1067.000000	96.941644 
1066.000000	96.909377 
1065.000000	96.921399 
1064.000000	96.957103 
1063.000000	96.987650 
1062.000000	96.994327 
1061.000000	96.972223 
1060.000000	96.926030 
1059.000000	96.868340 
1058.000000	96.817038 
1057.000000	96.785323 
1056.000000	96.771544 
1055.000000	96.761521 
1054.000000	96.742673 
1053.000000	96.715219 
1052.000000	96.688909 
1051.000000	96.670598 
1050.000000	96.657774 
1049.000000	96.644462 
1048.000000	96.629741 
1047.000000	96.617504 
1046.000000	96.609811 
1045.000000	96.604158 
1044.000000	96.597861 
1043.000000	96.592735 
1042.000000	96.593244 
1041.000000	96.600054 
1040.000000	96.607567 
1039.000000	96.610051 
1038.000000	96.610014 
1037.000000	96.617898 
1036.000000	96.641887 
1035.000000	96.679668 
1034.000000	96.721719 
1033.000000	96.759850 
1032.000000	96.788464 
1031.000000	96.800276 
1030.000000	96.789782 
1029.000000	96.764684 
1028.000000	96.747593 
1027.000000	96.759047 
1026.000000	96.798802 
1025.000000	96.847639 
1024.000000	96.886359 
1023.000000	96.908978 
1022.000000	96.919641 
1021.000000	96.923841 
1020.000000	96.925401 
1019.000000	96.927482 
1018.000000	96.931805 
1017.000000	96.937440 
1016.000000	96.942910 
1015.000000	96.949335 
1014.000000	96.959769 
1013.000000	96.975277 
1012.000000	96.992834 
1011.000000	97.007782 
1010.000000	97.018308 
1009.000000	97.027194 
1008.000000	97.038863 
1007.000000	97.055028 
1006.000000	97.073896 
1005.000000	97.093271 
1004.000000	97.112722 
1003.000000	97.132202 
1002.000000	97.150667 
1001.000000	97.167902 
1000.000000	97.186207 
999.000000	 97.207696 
998.000000	 97.230263 
997.000000	 97.248715 
996.000000	 97.260669 
995.000000	 97.269861 
994.000000	 97.282746 
993.000000	 97.302414 
992.000000	 97.326151 
991.000000	 97.348385 
990.000000	 97.365774 
989.000000	 97.379651 
988.000000	 97.393509 
987.000000	 97.408482 
986.000000	 97.422504 
985.000000	 97.434341 
984.000000	 97.446769 
983.000000	 97.464166 
982.000000	 97.487779 
981.000000	 97.514931 
980.000000	 97.542219 
979.000000	 97.567694 
978.000000	 97.590625 
977.000000	 97.611650 
976.000000	 97.633628 
975.000000	 97.660068 
974.000000	 97.691203 
973.000000	 97.722657 
972.000000	 97.749328 
971.000000	 97.770308 
970.000000	 97.789445 
969.000000	 97.811537 
968.000000	 97.838548 
967.000000	 97.868825 
966.000000	 97.898667 
965.000000	 97.924554 
964.000000	 97.945025 
963.000000	 97.961518 
962.000000	 97.977267 
961.000000	 97.994611 
960.000000	 98.013167 
959.000000	 98.030881 
958.000000	 98.046521 
957.000000	 98.060442 
956.000000	 98.073294 
955.000000	 98.085405 
954.000000	 98.097758 
953.000000	 98.111962 
952.000000	 98.128079 
951.000000	 98.143500 
950.000000	 98.155454 
949.000000	 98.164062 
948.000000	 98.171640 
947.000000	 98.179763 
946.000000	 98.188689 
945.000000	 98.199103 
944.000000	 98.212093 
943.000000	 98.226720 
942.000000	 98.239347 
941.000000	 98.246610 
940.000000	 98.248381 
939.000000	 98.247367 
938.000000	 98.246610 
937.000000	 98.247621 
936.000000	 98.249898 
935.000000	 98.251549 
934.000000	 98.250969 
933.000000	 98.248464 
932.000000	 98.245979 
931.000000	 98.245284 
930.000000	 98.247128 
929.000000	 98.252009 
928.000000	 98.260386 
927.000000	 98.271472 
926.000000	 98.282817 
925.000000	 98.291861 
924.000000	 98.297242 
923.000000	 98.298140 
922.000000	 98.293601 
921.000000	 98.283788 
920.000000	 98.271520 
919.000000	 98.261326 
918.000000	 98.256265 
917.000000	 98.255715 
916.000000	 98.256311 
915.000000	 98.255087 
914.000000	 98.252201 
913.000000	 98.250889 
912.000000	 98.254419 
911.000000	 98.262595 
910.000000	 98.271258 
909.000000	 98.275566 
908.000000	 98.273943 
907.000000	 98.268899 
906.000000	 98.264173 
905.000000	 98.261295 
904.000000	 98.259521 
903.000000	 98.259435 
902.000000	 98.265332 
901.000000	 98.281893 
900.000000	 98.308203 
899.000000	 98.337124 
898.000000	 98.361617 
897.000000	 98.379685 
896.000000	 98.391643 
895.000000	 98.396223 
894.000000	 98.393911 
893.000000	 98.392365 
892.000000	 98.402619 
891.000000	 98.428161 
890.000000	 98.461262 
889.000000	 98.491772 
888.000000	 98.516042 
887.000000	 98.535142 
886.000000	 98.548420 
885.000000	 98.553449 
884.000000	 98.551237 
883.000000	 98.547433 
882.000000	 98.547447 
881.000000	 98.552554 
880.000000	 98.561589 
879.000000	 98.574294 
878.000000	 98.590939 
877.000000	 98.608999 
876.000000	 98.622150 
875.000000	 98.624429 
874.000000	 98.616200 
873.000000	 98.605323 
872.000000	 98.601527 
871.000000	 98.609340 
870.000000	 98.625596 
869.000000	 98.642380 
868.000000	 98.652546 
867.000000	 98.655089 
866.000000	 98.657111 
865.000000	 98.668518 
864.000000	 98.692058 
863.000000	 98.719453 
862.000000	 98.739608 
861.000000	 98.749565 
860.000000	 98.754886 
859.000000	 98.761465 
858.000000	 98.771510 
857.000000	 98.786533 
856.000000	 98.807999 
855.000000	 98.832702 
854.000000	 98.852255 
853.000000	 98.860785 
852.000000	 98.860711 
851.000000	 98.858621 
850.000000	 98.858140 
849.000000	 98.859368 
848.000000	 98.862616 
847.000000	 98.868936 
846.000000	 98.878063 
845.000000	 98.888979 
844.000000	 98.901867 
843.000000	 98.916560 
842.000000	 98.929139 
841.000000	 98.933137 
840.000000	 98.925918 
839.000000	 98.912879 
838.000000	 98.903424 
837.000000	 98.901660 
836.000000	 98.901999 
835.000000	 98.896168 
834.000000	 98.884850 
833.000000	 98.878222 
832.000000	 98.881178 
831.000000	 98.881857 
830.000000	 98.863572 
829.000000	 98.829717 
828.000000	 98.807245 
827.000000	 98.818042 
826.000000	 98.852360 
825.000000	 98.880267 
824.000000	 98.886311 
823.000000	 98.881419 
822.000000	 98.881652 
821.000000	 98.888585 
820.000000	 98.894108 
819.000000	 98.893505 
818.000000	 98.888067 
817.000000	 98.880661 
816.000000	 98.873305 
815.000000	 98.866108 
814.000000	 98.855596 
813.000000	 98.836832 
812.000000	 98.810006 
811.000000	 98.782413 
810.000000	 98.760544 
809.000000	 98.741737 
808.000000	 98.716778 
807.000000	 98.679464 
806.000000	 98.630809 
805.000000	 98.575095 
804.000000	 98.516179 
803.000000	 98.458737 
802.000000	 98.409245 
801.000000	 98.372733 
800.000000	 98.349116 
799.000000	 98.334195 
798.000000	 98.324524 
797.000000	 98.320863 
796.000000	 98.326328 
795.000000	 98.341260 
794.000000	 98.361094 
793.000000	 98.379957 
792.000000	 98.394782 
791.000000	 98.404574 
790.000000	 98.407533 
789.000000	 98.401803 
788.000000	 98.388589 
787.000000	 98.371824 
786.000000	 98.354717 
785.000000	 98.339042 
784.000000	 98.327828 
783.000000	 98.324944 
782.000000	 98.329860 
781.000000	 98.335422 
780.000000	 98.333307 
779.000000	 98.320929 
778.000000	 98.302745 
777.000000	 98.287236 
776.000000	 98.283471 
775.000000	 98.296817 
774.000000	 98.324213 
773.000000	 98.355105 
772.000000	 98.379950 
771.000000	 98.396973 
770.000000	 98.408903 
769.000000	 98.415566 
768.000000	 98.414069 
767.000000	 98.406122 
766.000000	 98.400419 
765.000000	 98.405016 
764.000000	 98.419195 
763.000000	 98.434549 
762.000000	 98.443106 
761.000000	 98.443353 
760.000000	 98.439487 
759.000000	 98.436716 
758.000000	 98.437457 
757.000000	 98.441451 
756.000000	 98.448868 
755.000000	 98.461855 
754.000000	 98.481305 
753.000000	 98.502799 
752.000000	 98.518782 
751.000000	 98.525675 
750.000000	 98.526601 
749.000000	 98.525551 
748.000000	 98.521812 
747.000000	 98.513629 
746.000000	 98.505162 
745.000000	 98.504252 
744.000000	 98.512289 
743.000000	 98.521235 
742.000000	 98.523704 
741.000000	 98.522427 
740.000000	 98.525689 
739.000000	 98.535971 
738.000000	 98.547836 
737.000000	 98.556064 
736.000000	 98.561037 
735.000000	 98.565977 
734.000000	 98.573735 
733.000000	 98.587351 
732.000000	 98.608574 
731.000000	 98.632530 
730.000000	 98.648156 
729.000000	 98.648665 
728.000000	 98.638520 
727.000000	 98.626736 
726.000000	 98.616809 
725.000000	 98.607193 
724.000000	 98.598988 
723.000000	 98.597044 
722.000000	 98.603117 
721.000000	 98.612763 
720.000000	 98.620370 
719.000000	 98.624111 
718.000000	 98.624830 
717.000000	 98.623072 
716.000000	 98.619372 
715.000000	 98.615143 
714.000000	 98.611073 
713.000000	 98.606184 
712.000000	 98.600270 
711.000000	 98.596415 
710.000000	 98.599036 
709.000000	 98.609022 
708.000000	 98.621116 
707.000000	 98.626708 
706.000000	 98.621289 
705.000000	 98.609128 
704.000000	 98.598332 
703.000000	 98.591468 
702.000000	 98.583003 
701.000000	 98.567490 
700.000000	 98.547030 
699.000000	 98.526205 
698.000000	 98.503138 
697.000000	 98.470677 
696.000000	 98.426475 
695.000000	 98.378825 
694.000000	 98.341332 
693.000000	 98.325729 
692.000000	 98.338131 
691.000000	 98.373694 
690.000000	 98.415666 
689.000000	 98.446266 
688.000000	 98.461341 
687.000000	 98.470012 
686.000000	 98.477681 
685.000000	 98.479440 
684.000000	 98.473221 
683.000000	 98.467546 
682.000000	 98.471110 
681.000000	 98.482937 
680.000000	 98.498211 
679.000000	 98.515291 
678.000000	 98.529590 
677.000000	 98.531391 
676.000000	 98.519175 
675.000000	 98.504638 
674.000000	 98.500701 
673.000000	 98.506727 
672.000000	 98.508538 
671.000000	 98.492990 
670.000000	 98.458755 
669.000000	 98.419548 
668.000000	 98.399104 
667.000000	 98.404680 
666.000000	 98.425429 
665.000000	 98.451937 
664.000000	 98.470863 
663.000000	 98.474683 
662.000000	 98.471966 
661.000000	 98.481723 
660.000000	 98.510788 
659.000000	 98.541740 
658.000000	 98.547683 
657.000000	 98.518515 
656.000000	 98.468383 
655.000000	 98.421506 
654.000000	 98.397117 
653.000000	 98.393986 
652.000000	 98.386423 
651.000000	 98.351339 
650.000000	 98.302721 

