4000.000000	99.282086 
3999.000000	99.282192 
3998.000000	99.282095 
3997.000000	99.281791 
3996.000000	99.281253 
3995.000000	99.280470 
3994.000000	99.279576 
3993.000000	99.278834 
3992.000000	99.278394 
3991.000000	99.278155 
3990.000000	99.277925 
3989.000000	99.277726 
3988.000000	99.277839 
3987.000000	99.278486 
3986.000000	99.279505 
3985.000000	99.280355 
3984.000000	99.280504 
3983.000000	99.279782 
3982.000000	99.278481 
3981.000000	99.277157 
3980.000000	99.276182 
3979.000000	99.275487 
3978.000000	99.274810 
3977.000000	99.274154 
3976.000000	99.273925 
3975.000000	99.274525 
3974.000000	99.275917 
3973.000000	99.277520 
3972.000000	99.278566 
3971.000000	99.278712 
3970.000000	99.278176 
3969.000000	99.277423 
3968.000000	99.276766 
3967.000000	99.276198 
3966.000000	99.275595 
3965.000000	99.275008 
3964.000000	99.274612 
3963.000000	99.274418 
3962.000000	99.274188 
3961.000000	99.273670 
3960.000000	99.272847 
3959.000000	99.271992 
3958.000000	99.271440 
3957.000000	99.271279 
3956.000000	99.271345 
3955.000000	99.271439 
3954.000000	99.271514 
3953.000000	99.271621 
3952.000000	99.271733 
3951.000000	99.271741 
3950.000000	99.271554 
3949.000000	99.271195 
3948.000000	99.270792 
3947.000000	99.270429 
3946.000000	99.270098 
3945.000000	99.269836 
3944.000000	99.269787 
3943.000000	99.269922 
3942.000000	99.269929 
3941.000000	99.269535 
3940.000000	99.268743 
3939.000000	99.267743 
3938.000000	99.266699 
3937.000000	99.265676 
3936.000000	99.264810 
3935.000000	99.264402 
3934.000000	99.264799 
3933.000000	99.266078 
3932.000000	99.267803 
3931.000000	99.269155 
3930.000000	99.269488 
3929.000000	99.268822 
3928.000000	99.267813 
3927.000000	99.267239 
3926.000000	99.267509 
3925.000000	99.268411 
3924.000000	99.269193 
3923.000000	99.269191 
3922.000000	99.268310 
3921.000000	99.266992 
3920.000000	99.265822 
3919.000000	99.265170 
3918.000000	99.265156 
3917.000000	99.265681 
3916.000000	99.266449 
3915.000000	99.267113 
3914.000000	99.267581 
3913.000000	99.268025 
3912.000000	99.268537 
3911.000000	99.269025 
3910.000000	99.269386 
3909.000000	99.269617 
3908.000000	99.269691 
3907.000000	99.269360 
3906.000000	99.268249 
3905.000000	99.266207 
3904.000000	99.263500 
3903.000000	99.260898 
3902.000000	99.259353 
3901.000000	99.259305 
3900.000000	99.260506 
3899.000000	99.262129 
3898.000000	99.263314 
3897.000000	99.263797 
3896.000000	99.263764 
3895.000000	99.263486 
3894.000000	99.263146 
3893.000000	99.262807 
3892.000000	99.262444 
3891.000000	99.262018 
3890.000000	99.261527 
3889.000000	99.260993 
3888.000000	99.260512 
3887.000000	99.260314 
3886.000000	99.260487 
3885.000000	99.260780 
3884.000000	99.260880 
3883.000000	99.260785 
3882.000000	99.260713 
3881.000000	99.260780 
3880.000000	99.260908 
3879.000000	99.260990 
3878.000000	99.261035 
3877.000000	99.261104 
3876.000000	99.261216 
3875.000000	99.261334 
3874.000000	99.261427 
3873.000000	99.261513 
3872.000000	99.261614 
3871.000000	99.261735 
3870.000000	99.261890 
3869.000000	99.262084 
3868.000000	99.262315 
3867.000000	99.262579 
3866.000000	99.262874 
3865.000000	99.263198 
3864.000000	99.263547 
3863.000000	99.263920 
3862.000000	99.264316 
3861.000000	99.264733 
3860.000000	99.265164 
3859.000000	99.265598 
3858.000000	99.266022 
3857.000000	99.266429 
3856.000000	99.266818 
3855.000000	99.267195 
3854.000000	99.267569 
3853.000000	99.267947 
3852.000000	99.268331 
3851.000000	99.268725 
3850.000000	99.269130 
3849.000000	99.269549 
3848.000000	99.269979 
3847.000000	99.270417 
3846.000000	99.270854 
3845.000000	99.271286 
3844.000000	99.271713 
3843.000000	99.272140 
3842.000000	99.272571 
3841.000000	99.273005 
3840.000000	99.273434 
3839.000000	99.273853 
3838.000000	99.274258 
3837.000000	99.274655 
3836.000000	99.275046 
3835.000000	99.275437 
3834.000000	99.275826 
3833.000000	99.276210 
3832.000000	99.276587 
3831.000000	99.276953 
3830.000000	99.277303 
3829.000000	99.277632 
3828.000000	99.277938 
3827.000000	99.278219 
3826.000000	99.278479 
3825.000000	99.278720 
3824.000000	99.278948 
3823.000000	99.279168 
3822.000000	99.279386 
3821.000000	99.279602 
3820.000000	99.279813 
3819.000000	99.280016 
3818.000000	99.280208 
3817.000000	99.280392 
3816.000000	99.280568 
3815.000000	99.280733 
3814.000000	99.280888 
3813.000000	99.281038 
3812.000000	99.281189 
3811.000000	99.281343 
3810.000000	99.281496 
3809.000000	99.281637 
3808.000000	99.281759 
3807.000000	99.281856 
3806.000000	99.281926 
3805.000000	99.281970 
3804.000000	99.281989 
3803.000000	99.281989 
3802.000000	99.281985 
3801.000000	99.281991 
3800.000000	99.281981 
3799.000000	99.281914 
3798.000000	99.281780 
3797.000000	99.281613 
3796.000000	99.281447 
3795.000000	99.281278 
3794.000000	99.281079 
3793.000000	99.280855 
3792.000000	99.280647 
3791.000000	99.280487 
3790.000000	99.280369 
3789.000000	99.280282 
3788.000000	99.280238 
3787.000000	99.280252 
3786.000000	99.280327 
3785.000000	99.280447 
3784.000000	99.280546 
3783.000000	99.280499 
3782.000000	99.280284 
3781.000000	99.280139 
3780.000000	99.280369 
3779.000000	99.280879 
3778.000000	99.281184 
3777.000000	99.280889 
3776.000000	99.279980 
3775.000000	99.278846 
3774.000000	99.277850 
3773.000000	99.277088 
3772.000000	99.276530 
3771.000000	99.276183 
3770.000000	99.275827 
3769.000000	99.275032 
3768.000000	99.273809 
3767.000000	99.272703 
3766.000000	99.272181 
3765.000000	99.272136 
3764.000000	99.271915 
3763.000000	99.270995 
3762.000000	99.269715 
3761.000000	99.269177 
3760.000000	99.270016 
3759.000000	99.271488 
3758.000000	99.272516 
3757.000000	99.272993 
3756.000000	99.273061 
3755.000000	99.272520 
3754.000000	99.271397 
3753.000000	99.270406 
3752.000000	99.269818 
3751.000000	99.268339 
3750.000000	99.265849 
3749.000000	99.264829 
3748.000000	99.266228 
3747.000000	99.267826 
3746.000000	99.268050 
3745.000000	99.268195 
3744.000000	99.269254 
3743.000000	99.269289 
3742.000000	99.266106 
3741.000000	99.260115 
3740.000000	99.253400 
3739.000000	99.246940 
3738.000000	99.241549 
3737.000000	99.240159 
3736.000000	99.244944 
3735.000000	99.252742 
3734.000000	99.257158 
3733.000000	99.256168 
3732.000000	99.253160 
3731.000000	99.251262 
3730.000000	99.249954 
3729.000000	99.247036 
3728.000000	99.242665 
3727.000000	99.239343 
3726.000000	99.238083 
3725.000000	99.237189 
3724.000000	99.235573 
3723.000000	99.234638 
3722.000000	99.235515 
3721.000000	99.237371 
3720.000000	99.238143 
3719.000000	99.236054 
3718.000000	99.231414 
3717.000000	99.225880 
3716.000000	99.219863 
3715.000000	99.212256 
3714.000000	99.202693 
3713.000000	99.193633 
3712.000000	99.188103 
3711.000000	99.186075 
3710.000000	99.184511 
3709.000000	99.180246 
3708.000000	99.172537 
3707.000000	99.162737 
3706.000000	99.152550 
3705.000000	99.143048 
3704.000000	99.134596 
3703.000000	99.126626 
3702.000000	99.117077 
3701.000000	99.104006 
3700.000000	99.087886 
3699.000000	99.071113 
3698.000000	99.056187 
3697.000000	99.044513 
3696.000000	99.035584 
3695.000000	99.027932 
3694.000000	99.021448 
3693.000000	99.017500 
3692.000000	99.016232 
3691.000000	99.015063 
3690.000000	99.010423 
3689.000000	99.001589 
3688.000000	98.991673 
3687.000000	98.983429 
3686.000000	98.976650 
3685.000000	98.970960 
3684.000000	98.967215 
3683.000000	98.965792 
3682.000000	98.965214 
3681.000000	98.962878 
3680.000000	98.956547 
3679.000000	98.944713 
3678.000000	98.927866 
3677.000000	98.911647 
3676.000000	98.903968 
3675.000000	98.904919 
3674.000000	98.906918 
3673.000000	98.904361 
3672.000000	98.897774 
3671.000000	98.892507 
3670.000000	98.891545 
3669.000000	98.891768 
3668.000000	98.890245 
3667.000000	98.888045 
3666.000000	98.886983 
3665.000000	98.886981 
3664.000000	98.886228 
3663.000000	98.883120 
3662.000000	98.877850 
3661.000000	98.871680 
3660.000000	98.865492 
3659.000000	98.859858 
3658.000000	98.856240 
3657.000000	98.856397 
3656.000000	98.859834 
3655.000000	98.863446 
3654.000000	98.864359 
3653.000000	98.862188 
3652.000000	98.858735 
3651.000000	98.856119 
3650.000000	98.854485 
3649.000000	98.853172 
3648.000000	98.853548 
3647.000000	98.856984 
3646.000000	98.862399 
3645.000000	98.868098 
3644.000000	98.873855 
3643.000000	98.880371 
3642.000000	98.888000 
3641.000000	98.895578 
3640.000000	98.901377 
3639.000000	98.904726 
3638.000000	98.906051 
3637.000000	98.905840 
3636.000000	98.904126 
3635.000000	98.901150 
3634.000000	98.897469 
3633.000000	98.893270 
3632.000000	98.888530 
3631.000000	98.884357 
3630.000000	98.883298 
3629.000000	98.885068 
3628.000000	98.885495 
3627.000000	98.883585 
3626.000000	98.882570 
3625.000000	98.885464 
3624.000000	98.892700 
3623.000000	98.902147 
3622.000000	98.911028 
3621.000000	98.918584 
3620.000000	98.925167 
3619.000000	98.929585 
3618.000000	98.930406 
3617.000000	98.929001 
3616.000000	98.928472 
3615.000000	98.931165 
3614.000000	98.936450 
3613.000000	98.940927 
3612.000000	98.942242 
3611.000000	98.941985 
3610.000000	98.943860 
3609.000000	98.949910 
3608.000000	98.958477 
3607.000000	98.966460 
3606.000000	98.973027 
3605.000000	98.979245 
3604.000000	98.985856 
3603.000000	98.992804 
3602.000000	98.999989 
3601.000000	99.007722 
3600.000000	99.015150 
3599.000000	99.019763 
3598.000000	99.019826 
3597.000000	99.016343 
3596.000000	99.012391 
3595.000000	99.011161 
3594.000000	99.013596 
3593.000000	99.018166 
3592.000000	99.022459 
3591.000000	99.024471 
3590.000000	99.024021 
3589.000000	99.023222 
3588.000000	99.024365 
3587.000000	99.026737 
3586.000000	99.028186 
3585.000000	99.028410 
3584.000000	99.029148 
3583.000000	99.031757 
3582.000000	99.035814 
3581.000000	99.039534 
3580.000000	99.041400 
3579.000000	99.041144 
3578.000000	99.039290 
3577.000000	99.036642 
3576.000000	99.034237 
3575.000000	99.033335 
3574.000000	99.034508 
3573.000000	99.036655 
3572.000000	99.037751 
3571.000000	99.036587 
3570.000000	99.033541 
3569.000000	99.030344 
3568.000000	99.028757 
3567.000000	99.028864 
3566.000000	99.029584 
3565.000000	99.030531 
3564.000000	99.032031 
3563.000000	99.034187 
3562.000000	99.036508 
3561.000000	99.038106 
3560.000000	99.038419 
3559.000000	99.037619 
3558.000000	99.036484 
3557.000000	99.035801 
3556.000000	99.035870 
3555.000000	99.036342 
3554.000000	99.036502 
3553.000000	99.035607 
3552.000000	99.033400 
3551.000000	99.030486 
3550.000000	99.027882 
3549.000000	99.026225 
3548.000000	99.025610 
3547.000000	99.025768 
3546.000000	99.026288 
3545.000000	99.026644 
3544.000000	99.026409 
3543.000000	99.025660 
3542.000000	99.025039 
3541.000000	99.025158 
3540.000000	99.025999 
3539.000000	99.026872 
3538.000000	99.027097 
3537.000000	99.026592 
3536.000000	99.025779 
3535.000000	99.025145 
3534.000000	99.024826 
3533.000000	99.024682 
3532.000000	99.024563 
3531.000000	99.024441 
3530.000000	99.024265 
3529.000000	99.023843 
3528.000000	99.023025 
3527.000000	99.021948 
3526.000000	99.020968 
3525.000000	99.020325 
3524.000000	99.019962 
3523.000000	99.019653 
3522.000000	99.019264 
3521.000000	99.018833 
3520.000000	99.018455 
3519.000000	99.018172 
3518.000000	99.017951 
3517.000000	99.017713 
3516.000000	99.017367 
3515.000000	99.016871 
3514.000000	99.016263 
3513.000000	99.015638 
3512.000000	99.015073 
3511.000000	99.014587 
3510.000000	99.014156 
3509.000000	99.013751 
3508.000000	99.013350 
3507.000000	99.012946 
3506.000000	99.012538 
3505.000000	99.012122 
3504.000000	99.011697 
3503.000000	99.011264 
3502.000000	99.010829 
3501.000000	99.010398 
3500.000000	99.009970 
3499.000000	99.009537 
3498.000000	99.009089 
3497.000000	99.008621 
3496.000000	99.008135 
3495.000000	99.007643 
3494.000000	99.007160 
3493.000000	99.006699 
3492.000000	99.006260 
3491.000000	99.005834 
3490.000000	99.005411 
3489.000000	99.004991 
3488.000000	99.004579 
3487.000000	99.004175 
3486.000000	99.003765 
3485.000000	99.003335 
3484.000000	99.002886 
3483.000000	99.002433 
3482.000000	99.001982 
3481.000000	99.001518 
3480.000000	99.001023 
3479.000000	99.000495 
3478.000000	98.999940 
3477.000000	98.999357 
3476.000000	98.998759 
3475.000000	98.998208 
3474.000000	98.997784 
3473.000000	98.997493 
3472.000000	98.997212 
3471.000000	98.996784 
3470.000000	98.996173 
3469.000000	98.995528 
3468.000000	98.995018 
3467.000000	98.994616 
3466.000000	98.994142 
3465.000000	98.993520 
3464.000000	98.992863 
3463.000000	98.992280 
3462.000000	98.991676 
3461.000000	98.990883 
3460.000000	98.989972 
3459.000000	98.989285 
3458.000000	98.989073 
3457.000000	98.989119 
3456.000000	98.988852 
3455.000000	98.987907 
3454.000000	98.986465 
3453.000000	98.985094 
3452.000000	98.984129 
3451.000000	98.983447 
3450.000000	98.982781 
3449.000000	98.982048 
3448.000000	98.981293 
3447.000000	98.980450 
3446.000000	98.979359 
3445.000000	98.978009 
3444.000000	98.976635 
3443.000000	98.975502 
3442.000000	98.974663 
3441.000000	98.973904 
3440.000000	98.972933 
3439.000000	98.971618 
3438.000000	98.970034 
3437.000000	98.968344 
3436.000000	98.966679 
3435.000000	98.965166 
3434.000000	98.963997 
3433.000000	98.963386 
3432.000000	98.963320 
3431.000000	98.963412 
3430.000000	98.963180 
3429.000000	98.962531 
3428.000000	98.961830 
3427.000000	98.961400 
3426.000000	98.961049 
3425.000000	98.960230 
3424.000000	98.958669 
3423.000000	98.956698 
3422.000000	98.954944 
3421.000000	98.953777 
3420.000000	98.953208 
3419.000000	98.953154 
3418.000000	98.953540 
3417.000000	98.954073 
3416.000000	98.954209 
3415.000000	98.953568 
3414.000000	98.952332 
3413.000000	98.951129 
3412.000000	98.950502 
3411.000000	98.950532 
3410.000000	98.950895 
3409.000000	98.951111 
3408.000000	98.950753 
3407.000000	98.949582 
3406.000000	98.947698 
3405.000000	98.945597 
3404.000000	98.943934 
3403.000000	98.943121 
3402.000000	98.943141 
3401.000000	98.943747 
3400.000000	98.944721 
3399.000000	98.945914 
3398.000000	98.947134 
3397.000000	98.948139 
3396.000000	98.948771 
3395.000000	98.948972 
3394.000000	98.948695 
3393.000000	98.947886 
3392.000000	98.946651 
3391.000000	98.945371 
3390.000000	98.944558 
3389.000000	98.944565 
3388.000000	98.945410 
3387.000000	98.946770 
3386.000000	98.948154 
3385.000000	98.949193 
3384.000000	98.949798 
3383.000000	98.950058 
3382.000000	98.950024 
3381.000000	98.949699 
3380.000000	98.949221 
3379.000000	98.948914 
3378.000000	98.949051 
3377.000000	98.949578 
3376.000000	98.950164 
3375.000000	98.950511 
3374.000000	98.950609 
3373.000000	98.950655 
3372.000000	98.950815 
3371.000000	98.951093 
3370.000000	98.951414 
3369.000000	98.951721 
3368.000000	98.952002 
3367.000000	98.952275 
3366.000000	98.952574 
3365.000000	98.952919 
3364.000000	98.953281 
3363.000000	98.953615 
3362.000000	98.953910 
3361.000000	98.954190 
3360.000000	98.954471 
3359.000000	98.954744 
3358.000000	98.955003 
3357.000000	98.955257 
3356.000000	98.955526 
3355.000000	98.955817 
3354.000000	98.956119 
3353.000000	98.956410 
3352.000000	98.956686 
3351.000000	98.956957 
3350.000000	98.957249 
3349.000000	98.957580 
3348.000000	98.957949 
3347.000000	98.958332 
3346.000000	98.958690 
3345.000000	98.958996 
3344.000000	98.959247 
3343.000000	98.959477 
3342.000000	98.959744 
3341.000000	98.960062 
3340.000000	98.960372 
3339.000000	98.960594 
3338.000000	98.960727 
3337.000000	98.960899 
3336.000000	98.961248 
3335.000000	98.961791 
3334.000000	98.962421 
3333.000000	98.963037 
3332.000000	98.963614 
3331.000000	98.964138 
3330.000000	98.964568 
3329.000000	98.964881 
3328.000000	98.965127 
3327.000000	98.965402 
3326.000000	98.965750 
3325.000000	98.966129 
3324.000000	98.966468 
3323.000000	98.966744 
3322.000000	98.966994 
3321.000000	98.967283 
3320.000000	98.967646 
3319.000000	98.968067 
3318.000000	98.968500 
3317.000000	98.968900 
3316.000000	98.969252 
3315.000000	98.969561 
3314.000000	98.969848 
3313.000000	98.970139 
3312.000000	98.970447 
3311.000000	98.970759 
3310.000000	98.971046 
3309.000000	98.971290 
3308.000000	98.971505 
3307.000000	98.971709 
3306.000000	98.971913 
3305.000000	98.972117 
3304.000000	98.972321 
3303.000000	98.972528 
3302.000000	98.972738 
3301.000000	98.972943 
3300.000000	98.973138 
3299.000000	98.973322 
3298.000000	98.973499 
3297.000000	98.973674 
3296.000000	98.973851 
3295.000000	98.974025 
3294.000000	98.974191 
3293.000000	98.974344 
3292.000000	98.974484 
3291.000000	98.974620 
3290.000000	98.974754 
3289.000000	98.974891 
3288.000000	98.975028 
3287.000000	98.975168 
3286.000000	98.975312 
3285.000000	98.975460 
3284.000000	98.975609 
3283.000000	98.975755 
3282.000000	98.975897 
3281.000000	98.976041 
3280.000000	98.976191 
3279.000000	98.976350 
3278.000000	98.976517 
3277.000000	98.976688 
3276.000000	98.976865 
3275.000000	98.977050 
3274.000000	98.977248 
3273.000000	98.977461 
3272.000000	98.977695 
3271.000000	98.977944 
3270.000000	98.978210 
3269.000000	98.978493 
3268.000000	98.978782 
3267.000000	98.979056 
3266.000000	98.979306 
3265.000000	98.979539 
3264.000000	98.979786 
3263.000000	98.980126 
3262.000000	98.980638 
3261.000000	98.981294 
3260.000000	98.981932 
3259.000000	98.982401 
3258.000000	98.982689 
3257.000000	98.982911 
3256.000000	98.983137 
3255.000000	98.983308 
3254.000000	98.983348 
3253.000000	98.983322 
3252.000000	98.983448 
3251.000000	98.983926 
3250.000000	98.984784 
3249.000000	98.985858 
3248.000000	98.986887 
3247.000000	98.987604 
3246.000000	98.987805 
3245.000000	98.987490 
3244.000000	98.986981 
3243.000000	98.986732 
3242.000000	98.986928 
3241.000000	98.987360 
3240.000000	98.987793 
3239.000000	98.988367 
3238.000000	98.989469 
3237.000000	98.991311 
3236.000000	98.993699 
3235.000000	98.996120 
3234.000000	98.997936 
3233.000000	98.998660 
3232.000000	98.998286 
3231.000000	98.997404 
3230.000000	98.996782 
3229.000000	98.996728 
3228.000000	98.997004 
3227.000000	98.997278 
3226.000000	98.997482 
3225.000000	98.997716 
3224.000000	98.998007 
3223.000000	98.998310 
3222.000000	98.998661 
3221.000000	98.999185 
3220.000000	98.999910 
3219.000000	99.000675 
3218.000000	99.001299 
3217.000000	99.001834 
3216.000000	99.002578 
3215.000000	99.003731 
3214.000000	99.005096 
3213.000000	99.006190 
3212.000000	99.006702 
3211.000000	99.006710 
3210.000000	99.006480 
3209.000000	99.006220 
3208.000000	99.006114 
3207.000000	99.006406 
3206.000000	99.007234 
3205.000000	99.008434 
3204.000000	99.009630 
3203.000000	99.010566 
3202.000000	99.011236 
3201.000000	99.011742 
3200.000000	99.012179 
3199.000000	99.012642 
3198.000000	99.013199 
3197.000000	99.013808 
3196.000000	99.014362 
3195.000000	99.014844 
3194.000000	99.015357 
3193.000000	99.015983 
3192.000000	99.016670 
3191.000000	99.017284 
3190.000000	99.017733 
3189.000000	99.018050 
3188.000000	99.018331 
3187.000000	99.018636 
3186.000000	99.019016 
3185.000000	99.019571 
3184.000000	99.020365 
3183.000000	99.021287 
3182.000000	99.022074 
3181.000000	99.022556 
3180.000000	99.022868 
3179.000000	99.023382 
3178.000000	99.024324 
3177.000000	99.025426 
3176.000000	99.026122 
3175.000000	99.026193 
3174.000000	99.026076 
3173.000000	99.026329 
3172.000000	99.026864 
3171.000000	99.027043 
3170.000000	99.026550 
3169.000000	99.025873 
3168.000000	99.025790 
3167.000000	99.026599 
3166.000000	99.028042 
3165.000000	99.029655 
3164.000000	99.031071 
3163.000000	99.032105 
3162.000000	99.032778 
3161.000000	99.033268 
3160.000000	99.033719 
3159.000000	99.034147 
3158.000000	99.034535 
3157.000000	99.034846 
3156.000000	99.034869 
3155.000000	99.034224 
3154.000000	99.032741 
3153.000000	99.030763 
3152.000000	99.029011 
3151.000000	99.028157 
3150.000000	99.028567 
3149.000000	99.030259 
3148.000000	99.032839 
3147.000000	99.035529 
3146.000000	99.037588 
3145.000000	99.038798 
3144.000000	99.039445 
3143.000000	99.039915 
3142.000000	99.040357 
3141.000000	99.040736 
3140.000000	99.041030 
3139.000000	99.041303 
3138.000000	99.041617 
3137.000000	99.041979 
3136.000000	99.042394 
3135.000000	99.042929 
3134.000000	99.043679 
3133.000000	99.044610 
3132.000000	99.045478 
3131.000000	99.045996 
3130.000000	99.046122 
3129.000000	99.046151 
3128.000000	99.046481 
3127.000000	99.047307 
3126.000000	99.048535 
3125.000000	99.049866 
3124.000000	99.050929 
3123.000000	99.051475 
3122.000000	99.051535 
3121.000000	99.051409 
3120.000000	99.051450 
3119.000000	99.051790 
3118.000000	99.052333 
3117.000000	99.052967 
3116.000000	99.053672 
3115.000000	99.054455 
3114.000000	99.055259 
3113.000000	99.055959 
3112.000000	99.056467 
3111.000000	99.056813 
3110.000000	99.057118 
3109.000000	99.057489 
3108.000000	99.057947 
3107.000000	99.058443 
3106.000000	99.058910 
3105.000000	99.059299 
3104.000000	99.059602 
3103.000000	99.059881 
3102.000000	99.060281 
3101.000000	99.060934 
3100.000000	99.061770 
3099.000000	99.062526 
3098.000000	99.063061 
3097.000000	99.063534 
3096.000000	99.064192 
3095.000000	99.065022 
3094.000000	99.065718 
3093.000000	99.066007 
3092.000000	99.065862 
3091.000000	99.065397 
3090.000000	99.064828 
3089.000000	99.064659 
3088.000000	99.065462 
3087.000000	99.067068 
3086.000000	99.068305 
3085.000000	99.068103 
3084.000000	99.066702 
3083.000000	99.065196 
3082.000000	99.064019 
3081.000000	99.062628 
3080.000000	99.060879 
3079.000000	99.060011 
3078.000000	99.061664 
3077.000000	99.066063 
3076.000000	99.071468 
3075.000000	99.075435 
3074.000000	99.076490 
3073.000000	99.074868 
3072.000000	99.072033 
3071.000000	99.069485 
3070.000000	99.067699 
3069.000000	99.065985 
3068.000000	99.063488 
3067.000000	99.060538 
3066.000000	99.059072 
3065.000000	99.061294 
3064.000000	99.067346 
3063.000000	99.074168 
3062.000000	99.077285 
3061.000000	99.074277 
3060.000000	99.066636 
3059.000000	99.058297 
3058.000000	99.052700 
3057.000000	99.051371 
3056.000000	99.054249 
3055.000000	99.059914 
3054.000000	99.065435 
3053.000000	99.067514 
3052.000000	99.064746 
3051.000000	99.058556 
3050.000000	99.051732 
3049.000000	99.046449 
3048.000000	99.043612 
3047.000000	99.042840 
3046.000000	99.042147 
3045.000000	99.038585 
3044.000000	99.030721 
3043.000000	99.020569 
3042.000000	99.012110 
3041.000000	99.007470 
3040.000000	99.005066 
3039.000000	99.001540 
3038.000000	98.994769 
3037.000000	98.984755 
3036.000000	98.972398 
3035.000000	98.958426 
3034.000000	98.943544 
3033.000000	98.928734 
3032.000000	98.914800 
3031.000000	98.901659 
3030.000000	98.888386 
3029.000000	98.874354 
3028.000000	98.860272 
3027.000000	98.847622 
3026.000000	98.836838 
3025.000000	98.826317 
3024.000000	98.813507 
3023.000000	98.796780 
3022.000000	98.776150 
3021.000000	98.752565 
3020.000000	98.726986 
3019.000000	98.700093 
3018.000000	98.672601 
3017.000000	98.645582 
3016.000000	98.620241 
3015.000000	98.596938 
3014.000000	98.574437 
3013.000000	98.550736 
3012.000000	98.525076 
3011.000000	98.498759 
3010.000000	98.473556 
3009.000000	98.449652 
3008.000000	98.425682 
3007.000000	98.400489 
3006.000000	98.374221 
3005.000000	98.347672 
3004.000000	98.321200 
3003.000000	98.294616 
3002.000000	98.267945 
3001.000000	98.241989 
3000.000000	98.217932 
2999.000000	98.196345 
2998.000000	98.176921 
2997.000000	98.159502 
2996.000000	98.144658 
2995.000000	98.131647 
2994.000000	98.115487 
2993.000000	98.088324 
2992.000000	98.046339 
2991.000000	97.995595 
2990.000000	97.949494 
2989.000000	97.919551 
2988.000000	97.908970 
2987.000000	97.913764 
2986.000000	97.927279 
2985.000000	97.943120 
2984.000000	97.955938 
2983.000000	97.962466 
2982.000000	97.962700 
2981.000000	97.959323 
2980.000000	97.955396 
2979.000000	97.952450 
2978.000000	97.950106 
2977.000000	97.946649 
2976.000000	97.940125 
2975.000000	97.929970 
2974.000000	97.918167 
2973.000000	97.908494 
2972.000000	97.904123 
2971.000000	97.905789 
2970.000000	97.912086 
2969.000000	97.921195 
2968.000000	97.932253 
2967.000000	97.945407 
2966.000000	97.960859 
2965.000000	97.977853 
2964.000000	97.994404 
2963.000000	98.008095 
2962.000000	98.017565 
2961.000000	98.023697 
2960.000000	98.029321 
2959.000000	98.037344 
2958.000000	98.048707 
2957.000000	98.062017 
2956.000000	98.075143 
2955.000000	98.087088 
2954.000000	98.098546 
2953.000000	98.111076 
2952.000000	98.125922 
2951.000000	98.142993 
2950.000000	98.160323 
2949.000000	98.174630 
2948.000000	98.183040 
2947.000000	98.184716 
2946.000000	98.181333 
2945.000000	98.176225 
2944.000000	98.172545 
2943.000000	98.171437 
2942.000000	98.171333 
2941.000000	98.169107 
2940.000000	98.162487 
2939.000000	98.151892 
2938.000000	98.139898 
2937.000000	98.129111 
2936.000000	98.120611 
2935.000000	98.113715 
2934.000000	98.106443 
2933.000000	98.096467 
2932.000000	98.082462 
2931.000000	98.064840 
2930.000000	98.045194 
2929.000000	98.025390 
2928.000000	98.007210 
2927.000000	97.991896 
2926.000000	97.979207 
2925.000000	97.967608 
2924.000000	97.956581 
2923.000000	97.948252 
2922.000000	97.945342 
2921.000000	97.947670 
2920.000000	97.952255 
2919.000000	97.957056 
2918.000000	97.963071 
2917.000000	97.971907 
2916.000000	97.982614 
2915.000000	97.992126 
2914.000000	97.998493 
2913.000000	98.002797 
2912.000000	98.008085 
2911.000000	98.016690 
2910.000000	98.028122 
2909.000000	98.039072 
2908.000000	98.045771 
2907.000000	98.046764 
2906.000000	98.043042 
2905.000000	98.035701 
2904.000000	98.024864 
2903.000000	98.012114 
2902.000000	98.003165 
2901.000000	98.006227 
2900.000000	98.025433 
2899.000000	98.056916 
2898.000000	98.090369 
2897.000000	98.115975 
2896.000000	98.130787 
2895.000000	98.138938 
2894.000000	98.146652 
2893.000000	98.157098 
2892.000000	98.169498 
2891.000000	98.181742 
2890.000000	98.192689 
2889.000000	98.202146 
2888.000000	98.210104 
2887.000000	98.216870 
2886.000000	98.223428 
2885.000000	98.230988 
2884.000000	98.240438 
2883.000000	98.252578 
2882.000000	98.268285 
2881.000000	98.287583 
2880.000000	98.308706 
2879.000000	98.328879 
2878.000000	98.346241 
2877.000000	98.360765 
2876.000000	98.373453 
2875.000000	98.385245 
2874.000000	98.396726 
2873.000000	98.408165 
2872.000000	98.419273 
2871.000000	98.429170 
2870.000000	98.437247 
2869.000000	98.444374 
2868.000000	98.452986 
2867.000000	98.465359 
2866.000000	98.481364 
2865.000000	98.498091 
2864.000000	98.512125 
2863.000000	98.522210 
2862.000000	98.529411 
2861.000000	98.535083 
2860.000000	98.539665 
2859.000000	98.543609 
2858.000000	98.548135 
2857.000000	98.554013 
2856.000000	98.560385 
2855.000000	98.566139 
2854.000000	98.572054 
2853.000000	98.580440 
2852.000000	98.593011 
2851.000000	98.610068 
2850.000000	98.631355 
2849.000000	98.656476 
2848.000000	98.684213 
2847.000000	98.712414 
2846.000000	98.739231 
2845.000000	98.763918 
2844.000000	98.786098 
2843.000000	98.804978 
2842.000000	98.820122 
2841.000000	98.832742 
2840.000000	98.845341 
2839.000000	98.859663 
2838.000000	98.875238 
2837.000000	98.890165 
2836.000000	98.903061 
2835.000000	98.913931 
2834.000000	98.923297 
2833.000000	98.931122 
2832.000000	98.937070 
2831.000000	98.941453 
2830.000000	98.945129 
2829.000000	98.948421 
2828.000000	98.950951 
2827.000000	98.952919 
2826.000000	98.955747 
2825.000000	98.960636 
2824.000000	98.966969 
2823.000000	98.972999 
2822.000000	98.977912 
2821.000000	98.982393 
2820.000000	98.987292 
2819.000000	98.992586 
2818.000000	98.997719 
2817.000000	99.002097 
2816.000000	99.004983 
2815.000000	99.005792 
2814.000000	99.004998 
2813.000000	99.004185 
2812.000000	99.004668 
2811.000000	99.006562 
2810.000000	99.009576 
2809.000000	99.013968 
2808.000000	99.019697 
2807.000000	99.025000 
2806.000000	99.027184 
2805.000000	99.025436 
2804.000000	99.022254 
2803.000000	99.021353 
2802.000000	99.024176 
2801.000000	99.028933 
2800.000000	99.032932 
2799.000000	99.035180 
2798.000000	99.036330 
2797.000000	99.036834 
2796.000000	99.036337 
2795.000000	99.035000 
2794.000000	99.034264 
2793.000000	99.035358 
2792.000000	99.037622 
2791.000000	99.039355 
2790.000000	99.040175 
2789.000000	99.041462 
2788.000000	99.044292 
2787.000000	99.047931 
2786.000000	99.050840 
2785.000000	99.052359 
2784.000000	99.052771 
2783.000000	99.052415 
2782.000000	99.051665 
2781.000000	99.051437 
2780.000000	99.052650 
2779.000000	99.055101 
2778.000000	99.057545 
2777.000000	99.059122 
2776.000000	99.060176 
2775.000000	99.061448 
2774.000000	99.062981 
2773.000000	99.064226 
2772.000000	99.064946 
2771.000000	99.065545 
2770.000000	99.066508 
2769.000000	99.067774 
2768.000000	99.068909 
2767.000000	99.069781 
2766.000000	99.070720 
2765.000000	99.071957 
2764.000000	99.073178 
2763.000000	99.073867 
2762.000000	99.073921 
2761.000000	99.073709 
2760.000000	99.073648 
2759.000000	99.073892 
2758.000000	99.074469 
2757.000000	99.075459 
2756.000000	99.076822 
2755.000000	99.078196 
2754.000000	99.079154 
2753.000000	99.079655 
2752.000000	99.080079 
2751.000000	99.080804 
2750.000000	99.081846 
2749.000000	99.082984 
2748.000000	99.084082 
2747.000000	99.085140 
2746.000000	99.086127 
2745.000000	99.086933 
2744.000000	99.087516 
2743.000000	99.087949 
2742.000000	99.088344 
2741.000000	99.088811 
2740.000000	99.089470 
2739.000000	99.090385 
2738.000000	99.091457 
2737.000000	99.092491 
2736.000000	99.093407 
2735.000000	99.094298 
2734.000000	99.095242 
2733.000000	99.096150 
2732.000000	99.096871 
2731.000000	99.097389 
2730.000000	99.097839 
2729.000000	99.098363 
2728.000000	99.099003 
2727.000000	99.099739 
2726.000000	99.100577 
2725.000000	99.101529 
2724.000000	99.102553 
2723.000000	99.103537 
2722.000000	99.104397 
2721.000000	99.105150 
2720.000000	99.105878 
2719.000000	99.106629 
2718.000000	99.107377 
2717.000000	99.108073 
2716.000000	99.108722 
2715.000000	99.109373 
2714.000000	99.110065 
2713.000000	99.110816 
2712.000000	99.111640 
2711.000000	99.112551 
2710.000000	99.113507 
2709.000000	99.114429 
2708.000000	99.115256 
2707.000000	99.115968 
2706.000000	99.116557 
2705.000000	99.117026 
2704.000000	99.117453 
2703.000000	99.117974 
2702.000000	99.118659 
2701.000000	99.119430 
2700.000000	99.120114 
2699.000000	99.120639 
2698.000000	99.121121 
2697.000000	99.121732 
2696.000000	99.122485 
2695.000000	99.123201 
2694.000000	99.123726 
2693.000000	99.124103 
2692.000000	99.124492 
2691.000000	99.124961 
2690.000000	99.125418 
2689.000000	99.125786 
2688.000000	99.126102 
2687.000000	99.126456 
2686.000000	99.126876 
2685.000000	99.127333 
2684.000000	99.127798 
2683.000000	99.128255 
2682.000000	99.128684 
2681.000000	99.129071 
2680.000000	99.129440 
2679.000000	99.129833 
2678.000000	99.130263 
2677.000000	99.130708 
2676.000000	99.131141 
2675.000000	99.131562 
2674.000000	99.131978 
2673.000000	99.132384 
2672.000000	99.132777 
2671.000000	99.133155 
2670.000000	99.133520 
2669.000000	99.133874 
2668.000000	99.134221 
2667.000000	99.134565 
2666.000000	99.134911 
2665.000000	99.135261 
2664.000000	99.135621 
2663.000000	99.135990 
2662.000000	99.136366 
2661.000000	99.136744 
2660.000000	99.137124 
2659.000000	99.137506 
2658.000000	99.137889 
2657.000000	99.138276 
2656.000000	99.138669 
2655.000000	99.139072 
2654.000000	99.139486 
2653.000000	99.139908 
2652.000000	99.140336 
2651.000000	99.140771 
2650.000000	99.141218 
2649.000000	99.141673 
2648.000000	99.142131 
2647.000000	99.142588 
2646.000000	99.143047 
2645.000000	99.143514 
2644.000000	99.143985 
2643.000000	99.144456 
2642.000000	99.144918 
2641.000000	99.145374 
2640.000000	99.145829 
2639.000000	99.146289 
2638.000000	99.146755 
2637.000000	99.147222 
2636.000000	99.147684 
2635.000000	99.148138 
2634.000000	99.148582 
2633.000000	99.149022 
2632.000000	99.149459 
2631.000000	99.149898 
2630.000000	99.150339 
2629.000000	99.150784 
2628.000000	99.151233 
2627.000000	99.151685 
2626.000000	99.152137 
2625.000000	99.152585 
2624.000000	99.153026 
2623.000000	99.153459 
2622.000000	99.153883 
2621.000000	99.154296 
2620.000000	99.154698 
2619.000000	99.155094 
2618.000000	99.155489 
2617.000000	99.155883 
2616.000000	99.156271 
2615.000000	99.156651 
2614.000000	99.157022 
2613.000000	99.157380 
2612.000000	99.157721 
2611.000000	99.158037 
2610.000000	99.158328 
2609.000000	99.158598 
2608.000000	99.158851 
2607.000000	99.159086 
2606.000000	99.159307 
2605.000000	99.159518 
2604.000000	99.159725 
2603.000000	99.159926 
2602.000000	99.160112 
2601.000000	99.160278 
2600.000000	99.160427 
2599.000000	99.160562 
2598.000000	99.160680 
2597.000000	99.160777 
2596.000000	99.160854 
2595.000000	99.160919 
2594.000000	99.160985 
2593.000000	99.161056 
2592.000000	99.161129 
2591.000000	99.161201 
2590.000000	99.161270 
2589.000000	99.161330 
2588.000000	99.161375 
2587.000000	99.161397 
2586.000000	99.161396 
2585.000000	99.161377 
2584.000000	99.161342 
2583.000000	99.161293 
2582.000000	99.161231 
2581.000000	99.161160 
2580.000000	99.161079 
2579.000000	99.160986 
2578.000000	99.160878 
2577.000000	99.160755 
2576.000000	99.160617 
2575.000000	99.160464 
2574.000000	99.160295 
2573.000000	99.160112 
2572.000000	99.159920 
2571.000000	99.159722 
2570.000000	99.159519 
2569.000000	99.159317 
2568.000000	99.159120 
2567.000000	99.158932 
2566.000000	99.158751 
2565.000000	99.158572 
2564.000000	99.158390 
2563.000000	99.158208 
2562.000000	99.158024 
2561.000000	99.157837 
2560.000000	99.157637 
2559.000000	99.157421 
2558.000000	99.157188 
2557.000000	99.156942 
2556.000000	99.156684 
2555.000000	99.156417 
2554.000000	99.156162 
2553.000000	99.155963 
2552.000000	99.155813 
2551.000000	99.155588 
2550.000000	99.155170 
2549.000000	99.154622 
2548.000000	99.154140 
2547.000000	99.153792 
2546.000000	99.153452 
2545.000000	99.153035 
2544.000000	99.152675 
2543.000000	99.152515 
2542.000000	99.152417 
2541.000000	99.152071 
2540.000000	99.151363 
2539.000000	99.150522 
2538.000000	99.149835 
2537.000000	99.149331 
2536.000000	99.148908 
2535.000000	99.148658 
2534.000000	99.148761 
2533.000000	99.149068 
2532.000000	99.149092 
2531.000000	99.148608 
2530.000000	99.148054 
2529.000000	99.148083 
2528.000000	99.148833 
2527.000000	99.149817 
2526.000000	99.150453 
2525.000000	99.150517 
2524.000000	99.150126 
2523.000000	99.149603 
2522.000000	99.149404 
2521.000000	99.149787 
2520.000000	99.150346 
2519.000000	99.150137 
2518.000000	99.148599 
2517.000000	99.146250 
2516.000000	99.144274 
2515.000000	99.143306 
2514.000000	99.143079 
2513.000000	99.143243 
2512.000000	99.144039 
2511.000000	99.145764 
2510.000000	99.147946 
2509.000000	99.149678 
2508.000000	99.150738 
2507.000000	99.151756 
2506.000000	99.153075 
2505.000000	99.153931 
2504.000000	99.153369 
2503.000000	99.151575 
2502.000000	99.149821 
2501.000000	99.149121 
2500.000000	99.149436 
2499.000000	99.150284 
2498.000000	99.151410 
2497.000000	99.152550 
2496.000000	99.153089 
2495.000000	99.152576 
2494.000000	99.151388 
2493.000000	99.150450 
2492.000000	99.150270 
2491.000000	99.150695 
2490.000000	99.151540 
2489.000000	99.152918 
2488.000000	99.154789 
2487.000000	99.156605 
2486.000000	99.157702 
2485.000000	99.157866 
2484.000000	99.157265 
2483.000000	99.156085 
2482.000000	99.154520 
2481.000000	99.152985 
2480.000000	99.151994 
2479.000000	99.151757 
2478.000000	99.152019 
2477.000000	99.152327 
2476.000000	99.152502 
2475.000000	99.152753 
2474.000000	99.153296 
2473.000000	99.153939 
2472.000000	99.154224 
2471.000000	99.153947 
2470.000000	99.153348 
2469.000000	99.152810 
2468.000000	99.152471 
2467.000000	99.152243 
2466.000000	99.152100 
2465.000000	99.152113 
2464.000000	99.152255 
2463.000000	99.152392 
2462.000000	99.152496 
2461.000000	99.152667 
2460.000000	99.152885 
2459.000000	99.152932 
2458.000000	99.152671 
2457.000000	99.152283 
2456.000000	99.152076 
2455.000000	99.152123 
2454.000000	99.152270 
2453.000000	99.152359 
2452.000000	99.152346 
2451.000000	99.152212 
2450.000000	99.151926 
2449.000000	99.151532 
2448.000000	99.151183 
2447.000000	99.151004 
2446.000000	99.150980 
2445.000000	99.150992 
2444.000000	99.150942 
2443.000000	99.150801 
2442.000000	99.150570 
2441.000000	99.150272 
2440.000000	99.149996 
2439.000000	99.149879 
2438.000000	99.149994 
2437.000000	99.150245 
2436.000000	99.150417 
2435.000000	99.150382 
2434.000000	99.150207 
2433.000000	99.150085 
2432.000000	99.150158 
2431.000000	99.150427 
2430.000000	99.150753 
2429.000000	99.150906 
2428.000000	99.150670 
2427.000000	99.149997 
2426.000000	99.149133 
2425.000000	99.148506 
2424.000000	99.148354 
2423.000000	99.148599 
2422.000000	99.148996 
2421.000000	99.149374 
2420.000000	99.149625 
2419.000000	99.149534 
2418.000000	99.148887 
2417.000000	99.147798 
2416.000000	99.146764 
2415.000000	99.146186 
2414.000000	99.145972 
2413.000000	99.145722 
2412.000000	99.145250 
2411.000000	99.144775 
2410.000000	99.144580 
2409.000000	99.144685 
2408.000000	99.144899 
2407.000000	99.145026 
2406.000000	99.144957 
2405.000000	99.144671 
2404.000000	99.144292 
2403.000000	99.144045 
2402.000000	99.144050 
2401.000000	99.144183 
2400.000000	99.144220 
2399.000000	99.144093 
2398.000000	99.143942 
2397.000000	99.143945 
2396.000000	99.144183 
2395.000000	99.144616 
2394.000000	99.145111 
2393.000000	99.145488 
2392.000000	99.145609 
2391.000000	99.145457 
2390.000000	99.145133 
2389.000000	99.144832 
2388.000000	99.144776 
2387.000000	99.145108 
2386.000000	99.145770 
2385.000000	99.146481 
2384.000000	99.146953 
2383.000000	99.147132 
2382.000000	99.147200 
2381.000000	99.147395 
2380.000000	99.147798 
2379.000000	99.148354 
2378.000000	99.148996 
2377.000000	99.149678 
2376.000000	99.150288 
2375.000000	99.150682 
2374.000000	99.150851 
2373.000000	99.150947 
2372.000000	99.151126 
2371.000000	99.151395 
2370.000000	99.151702 
2369.000000	99.152032 
2368.000000	99.152378 
2367.000000	99.152719 
2366.000000	99.153053 
2365.000000	99.153395 
2364.000000	99.153744 
2363.000000	99.154086 
2362.000000	99.154413 
2361.000000	99.154723 
2360.000000	99.155014 
2359.000000	99.155297 
2358.000000	99.155582 
2357.000000	99.155876 
2356.000000	99.156179 
2355.000000	99.156486 
2354.000000	99.156791 
2353.000000	99.157086 
2352.000000	99.157364 
2351.000000	99.157629 
2350.000000	99.157890 
2349.000000	99.158157 
2348.000000	99.158437 
2347.000000	99.158733 
2346.000000	99.159039 
2345.000000	99.159344 
2344.000000	99.159639 
2343.000000	99.159923 
2342.000000	99.160208 
2341.000000	99.160504 
2340.000000	99.160816 
2339.000000	99.161143 
2338.000000	99.161479 
2337.000000	99.161817 
2336.000000	99.162151 
2335.000000	99.162485 
2334.000000	99.162833 
2333.000000	99.163212 
2332.000000	99.163626 
2331.000000	99.164069 
2330.000000	99.164535 
2329.000000	99.165023 
2328.000000	99.165533 
2327.000000	99.166063 
2326.000000	99.166606 
2325.000000	99.167155 
2324.000000	99.167703 
2323.000000	99.168226 
2322.000000	99.168724 
2321.000000	99.169236 
2320.000000	99.169752 
2319.000000	99.170195 
2318.000000	99.170543 
2317.000000	99.170971 
2316.000000	99.171629 
2315.000000	99.172527 
2314.000000	99.173464 
2313.000000	99.174323 
2312.000000	99.175061 
2311.000000	99.175785 
2310.000000	99.176552 
2309.000000	99.177343 
2308.000000	99.177979 
2307.000000	99.178391 
2306.000000	99.178693 
2305.000000	99.179173 
2304.000000	99.179969 
2303.000000	99.181090 
2302.000000	99.182378 
2301.000000	99.183679 
2300.000000	99.184823 
2299.000000	99.185870 
2298.000000	99.186897 
2297.000000	99.187891 
2296.000000	99.188539 
2295.000000	99.188729 
2294.000000	99.188750 
2293.000000	99.189145 
2292.000000	99.190079 
2291.000000	99.191266 
2290.000000	99.192302 
2289.000000	99.193049 
2288.000000	99.193604 
2287.000000	99.194097 
2286.000000	99.194555 
2285.000000	99.194801 
2284.000000	99.194681 
2283.000000	99.194343 
2282.000000	99.194265 
2281.000000	99.194779 
2280.000000	99.195722 
2279.000000	99.196615 
2278.000000	99.197175 
2277.000000	99.197495 
2276.000000	99.197799 
2275.000000	99.198191 
2274.000000	99.198703 
2273.000000	99.199382 
2272.000000	99.200157 
2271.000000	99.200792 
2270.000000	99.201135 
2269.000000	99.201361 
2268.000000	99.201788 
2267.000000	99.202498 
2266.000000	99.203223 
2265.000000	99.203560 
2264.000000	99.203168 
2263.000000	99.201878 
2262.000000	99.199981 
2261.000000	99.198374 
2260.000000	99.198012 
2259.000000	99.199139 
2258.000000	99.200996 
2257.000000	99.202569 
2256.000000	99.203472 
2255.000000	99.203889 
2254.000000	99.204030 
2253.000000	99.204019 
2252.000000	99.204179 
2251.000000	99.204935 
2250.000000	99.206176 
2249.000000	99.207106 
2248.000000	99.206984 
2247.000000	99.206009 
2246.000000	99.205044 
2245.000000	99.204763 
2244.000000	99.205251 
2243.000000	99.206257 
2242.000000	99.207472 
2241.000000	99.208548 
2240.000000	99.209307 
2239.000000	99.209962 
2238.000000	99.210849 
2237.000000	99.211840 
2236.000000	99.212326 
2235.000000	99.211943 
2234.000000	99.211004 
2233.000000	99.210145 
2232.000000	99.209733 
2231.000000	99.209747 
2230.000000	99.210024 
2229.000000	99.210429 
2228.000000	99.210877 
2227.000000	99.211343 
2226.000000	99.211862 
2225.000000	99.212474 
2224.000000	99.213177 
2223.000000	99.213942 
2222.000000	99.214718 
2221.000000	99.215445 
2220.000000	99.216107 
2219.000000	99.216742 
2218.000000	99.217387 
2217.000000	99.218051 
2216.000000	99.218731 
2215.000000	99.219422 
2214.000000	99.220109 
2213.000000	99.220781 
2212.000000	99.221443 
2211.000000	99.222110 
2210.000000	99.222807 
2209.000000	99.223556 
2208.000000	99.224372 
2207.000000	99.225248 
2206.000000	99.226164 
2205.000000	99.227105 
2204.000000	99.228073 
2203.000000	99.229048 
2202.000000	99.230088 
2201.000000	99.231417 
2200.000000	99.233034 
2199.000000	99.234505 
2198.000000	99.235418 
2197.000000	99.235877 
2196.000000	99.236392 
2195.000000	99.237358 
2194.000000	99.238718 
2193.000000	99.239996 
2192.000000	99.240651 
2191.000000	99.240645 
2190.000000	99.240836 
2189.000000	99.242559 
2188.000000	99.246208 
2187.000000	99.250101 
2186.000000	99.251433 
2185.000000	99.248797 
2184.000000	99.243564 
2183.000000	99.238669 
2182.000000	99.236079 
2181.000000	99.235957 
2180.000000	99.237526 
2179.000000	99.239820 
2178.000000	99.241918 
2177.000000	99.243516 
2176.000000	99.245321 
2175.000000	99.247852 
2174.000000	99.249914 
2173.000000	99.249741 
2172.000000	99.248122 
2171.000000	99.248781 
2170.000000	99.254600 
2169.000000	99.264375 
2168.000000	99.274030 
2167.000000	99.280314 
2166.000000	99.282192 
2165.000000	99.280176 
2164.000000	99.276538 
2163.000000	99.275186 
2162.000000	99.278498 
2161.000000	99.283540 
2160.000000	99.283534 
2159.000000	99.274450 
2158.000000	99.258771 
2157.000000	99.242380 
2156.000000	99.229166 
2155.000000	99.220148 
2154.000000	99.215829 
2153.000000	99.216674 
2152.000000	99.221468 
2151.000000	99.226788 
2150.000000	99.229101 
2149.000000	99.227697 
2148.000000	99.225373 
2147.000000	99.225607 
2146.000000	99.228716 
2145.000000	99.231317 
2144.000000	99.230137 
2143.000000	99.225654 
2142.000000	99.221119 
2141.000000	99.218584 
2140.000000	99.217216 
2139.000000	99.215476 
2138.000000	99.213449 
2137.000000	99.212327 
2136.000000	99.212414 
2135.000000	99.212609 
2134.000000	99.211850 
2133.000000	99.210502 
2132.000000	99.209849 
2131.000000	99.210091 
2130.000000	99.209336 
2129.000000	99.205322 
2128.000000	99.198372 
2127.000000	99.191916 
2126.000000	99.189339 
2125.000000	99.191020 
2124.000000	99.194984 
2123.000000	99.199489 
2122.000000	99.203846 
2121.000000	99.207350 
2120.000000	99.209148 
2119.000000	99.209466 
2118.000000	99.209732 
2117.000000	99.210846 
2116.000000	99.212093 
2115.000000	99.212346 
2114.000000	99.211652 
2113.000000	99.210956 
2112.000000	99.210639 
2111.000000	99.210197 
2110.000000	99.209407 
2109.000000	99.208917 
2108.000000	99.209327 
2107.000000	99.210164 
2106.000000	99.210233 
2105.000000	99.209021 
2104.000000	99.207479 
2103.000000	99.207185 
2102.000000	99.208686 
2101.000000	99.210881 
2100.000000	99.212147 
2099.000000	99.211909 
2098.000000	99.211013 
2097.000000	99.210801 
2096.000000	99.211993 
2095.000000	99.214393 
2094.000000	99.217248 
2093.000000	99.219779 
2092.000000	99.221611 
2091.000000	99.222849 
2090.000000	99.223855 
2089.000000	99.224911 
2088.000000	99.226001 
2087.000000	99.226817 
2086.000000	99.227069 
2085.000000	99.226962 
2084.000000	99.227349 
2083.000000	99.229096 
2082.000000	99.232182 
2081.000000	99.235505 
2080.000000	99.237859 
2079.000000	99.239175 
2078.000000	99.240461 
2077.000000	99.242552 
2076.000000	99.245084 
2075.000000	99.246970 
2074.000000	99.247548 
2073.000000	99.247034 
2072.000000	99.246238 
2071.000000	99.245977 
2070.000000	99.246635 
2069.000000	99.247968 
2068.000000	99.249310 
2067.000000	99.250108 
2066.000000	99.250292 
2065.000000	99.250366 
2064.000000	99.251219 
2063.000000	99.253518 
2062.000000	99.256979 
2061.000000	99.260245 
2060.000000	99.262138 
2059.000000	99.262910 
2058.000000	99.263865 
2057.000000	99.265777 
2056.000000	99.268028 
2055.000000	99.269528 
2054.000000	99.270089 
2053.000000	99.270510 
2052.000000	99.271542 
2051.000000	99.273097 
2050.000000	99.274483 
2049.000000	99.275209 
2048.000000	99.275514 
2047.000000	99.276169 
2046.000000	99.277703 
2045.000000	99.279773 
2044.000000	99.281338 
2043.000000	99.281697 
2042.000000	99.281188 
2041.000000	99.280808 
2040.000000	99.281146 
2039.000000	99.281982 
2038.000000	99.282813 
2037.000000	99.283348 
2036.000000	99.283509 
2035.000000	99.283136 
2034.000000	99.281994 
2033.000000	99.280202 
2032.000000	99.278554 
2031.000000	99.278129 
2030.000000	99.279302 
2029.000000	99.281079 
2028.000000	99.281754 
2027.000000	99.280581 
2026.000000	99.278239 
2025.000000	99.275894 
2024.000000	99.274278 
2023.000000	99.273814 
2022.000000	99.274738 
2021.000000	99.276439 
2020.000000	99.277310 
2019.000000	99.276192 
2018.000000	99.273503 
2017.000000	99.270432 
2016.000000	99.267575 
2015.000000	99.265227 
2014.000000	99.264011 
2013.000000	99.263862 
2012.000000	99.263519 
2011.000000	99.262418 
2010.000000	99.262138 
2009.000000	99.264418 
2008.000000	99.268570 
2007.000000	99.272534 
2006.000000	99.275529 
2005.000000	99.277778 
2004.000000	99.278662 
2003.000000	99.277276 
2002.000000	99.274164 
2001.000000	99.270434 
2000.000000	99.265687 
1999.000000	99.258787 
1998.000000	99.250383 
1997.000000	99.243069 
1996.000000	99.239198 
1995.000000	99.239678 
1994.000000	99.244054 
1993.000000	99.250095 
1992.000000	99.254043 
1991.000000	99.253599 
1990.000000	99.250414 
1989.000000	99.248040 
1988.000000	99.248443 
1987.000000	99.251848 
1986.000000	99.258534 
1985.000000	99.268494 
1984.000000	99.279685 
1983.000000	99.288787 
1982.000000	99.293618 
1981.000000	99.293632 
1980.000000	99.289101 
1979.000000	99.281567 
1978.000000	99.274238 
1977.000000	99.269600 
1976.000000	99.266782 
1975.000000	99.263178 
1974.000000	99.258281 
1973.000000	99.254042 
1972.000000	99.251966 
1971.000000	99.252023 
1970.000000	99.254418 
1969.000000	99.260175 
1968.000000	99.268785 
1967.000000	99.276579 
1966.000000	99.279518 
1965.000000	99.277226 
1964.000000	99.272976 
1963.000000	99.270082 
1962.000000	99.268988 
1961.000000	99.267781 
1960.000000	99.264641 
1959.000000	99.259203 
1958.000000	99.252220 
1957.000000	99.245027 
1956.000000	99.239074 
1955.000000	99.234967 
1954.000000	99.231729 
1953.000000	99.227798 
1952.000000	99.223184 
1951.000000	99.220063 
1950.000000	99.220612 
1949.000000	99.224407 
1948.000000	99.228333 
1947.000000	99.229369 
1946.000000	99.226894 
1945.000000	99.222289 
1944.000000	99.217334 
1943.000000	99.213160 
1942.000000	99.210061 
1941.000000	99.207613 
1940.000000	99.205344 
1939.000000	99.203421 
1938.000000	99.202454 
1937.000000	99.202724 
1936.000000	99.203798 
1935.000000	99.204728 
1934.000000	99.204549 
1933.000000	99.202967 
1932.000000	99.200705 
1931.000000	99.199034 
1930.000000	99.198703 
1929.000000	99.199244 
1928.000000	99.199464 
1927.000000	99.198692 
1926.000000	99.197200 
1925.000000	99.195574 
1924.000000	99.194147 
1923.000000	99.193052 
1922.000000	99.192391 
1921.000000	99.192108 
1920.000000	99.191935 
1919.000000	99.191587 
1918.000000	99.190999 
1917.000000	99.190300 
1916.000000	99.189673 
1915.000000	99.189231 
1914.000000	99.188982 
1913.000000	99.188838 
1912.000000	99.188642 
1911.000000	99.188299 
1910.000000	99.187829 
1909.000000	99.187324 
1908.000000	99.186852 
1907.000000	99.186426 
1906.000000	99.186040 
1905.000000	99.185655 
1904.000000	99.185178 
1903.000000	99.184539 
1902.000000	99.183760 
1901.000000	99.182959 
1900.000000	99.182280 
1899.000000	99.181814 
1898.000000	99.181577 
1897.000000	99.181477 
1896.000000	99.181332 
1895.000000	99.181022 
1894.000000	99.180613 
1893.000000	99.180317 
1892.000000	99.180245 
1891.000000	99.180289 
1890.000000	99.180301 
1889.000000	99.180273 
1888.000000	99.180225 
1887.000000	99.180121 
1886.000000	99.179986 
1885.000000	99.179867 
1884.000000	99.179665 
1883.000000	99.179253 
1882.000000	99.178808 
1881.000000	99.178639 
1880.000000	99.178707 
1879.000000	99.178606 
1878.000000	99.178017 
1877.000000	99.176989 
1876.000000	99.175904 
1875.000000	99.175417 
1874.000000	99.176188 
1873.000000	99.178146 
1872.000000	99.180046 
1871.000000	99.180471 
1870.000000	99.179335 
1869.000000	99.177847 
1868.000000	99.176629 
1867.000000	99.175286 
1866.000000	99.173936 
1865.000000	99.172861 
1864.000000	99.171716 
1863.000000	99.170727 
1862.000000	99.171749 
1861.000000	99.176358 
1860.000000	99.183071 
1859.000000	99.188307 
1858.000000	99.190775 
1857.000000	99.192080 
1856.000000	99.193519 
1855.000000	99.194594 
1854.000000	99.194857 
1853.000000	99.194961 
1852.000000	99.195324 
1851.000000	99.195331 
1850.000000	99.194512 
1849.000000	99.193400 
1848.000000	99.192618 
1847.000000	99.192050 
1846.000000	99.191536 
1845.000000	99.191253 
1844.000000	99.190938 
1843.000000	99.190183 
1842.000000	99.189840 
1841.000000	99.190977 
1840.000000	99.193733 
1839.000000	99.197409 
1838.000000	99.200923 
1837.000000	99.203455 
1836.000000	99.204764 
1835.000000	99.205280 
1834.000000	99.205678 
1833.000000	99.206178 
1832.000000	99.206723 
1831.000000	99.207221 
1830.000000	99.207468 
1829.000000	99.207359 
1828.000000	99.207182 
1827.000000	99.206873 
1826.000000	99.206129 
1825.000000	99.205493 
1824.000000	99.205722 
1823.000000	99.206462 
1822.000000	99.206730 
1821.000000	99.205988 
1820.000000	99.204397 
1819.000000	99.202424 
1818.000000	99.200974 
1817.000000	99.201162 
1816.000000	99.202826 
1815.000000	99.204344 
1814.000000	99.204792 
1813.000000	99.205246 
1812.000000	99.207330 
1811.000000	99.210830 
1810.000000	99.214224 
1809.000000	99.216776 
1808.000000	99.218128 
1807.000000	99.217744 
1806.000000	99.215994 
1805.000000	99.214398 
1804.000000	99.213951 
1803.000000	99.214176 
1802.000000	99.214312 
1801.000000	99.214490 
1800.000000	99.214706 
1799.000000	99.214132 
1798.000000	99.212774 
1797.000000	99.211810 
1796.000000	99.211836 
1795.000000	99.212270 
1794.000000	99.212483 
1793.000000	99.212696 
1792.000000	99.213320 
1791.000000	99.213913 
1790.000000	99.214250 
1789.000000	99.214885 
1788.000000	99.216064 
1787.000000	99.217262 
1786.000000	99.217839 
1785.000000	99.217767 
1784.000000	99.217442 
1783.000000	99.217252 
1782.000000	99.217332 
1781.000000	99.217471 
1780.000000	99.217235 
1779.000000	99.216398 
1778.000000	99.215375 
1777.000000	99.214757 
1776.000000	99.214759 
1775.000000	99.215428 
1774.000000	99.216793 
1773.000000	99.218380 
1772.000000	99.219000 
1771.000000	99.218020 
1770.000000	99.216255 
1769.000000	99.214936 
1768.000000	99.214668 
1767.000000	99.214978 
1766.000000	99.214958 
1765.000000	99.214375 
1764.000000	99.213623 
1763.000000	99.213097 
1762.000000	99.212774 
1761.000000	99.212565 
1760.000000	99.212653 
1759.000000	99.212835 
1758.000000	99.212437 
1757.000000	99.211032 
1756.000000	99.209103 
1755.000000	99.207428 
1754.000000	99.205812 
1753.000000	99.203597 
1752.000000	99.201319 
1751.000000	99.200794 
1750.000000	99.202461 
1749.000000	99.204299 
1748.000000	99.204538 
1747.000000	99.203498 
1746.000000	99.202216 
1745.000000	99.200988 
1744.000000	99.199707 
1743.000000	99.198584 
1742.000000	99.197930 
1741.000000	99.197881 
1740.000000	99.198265 
1739.000000	99.198584 
1738.000000	99.198607 
1737.000000	99.198540 
1736.000000	99.198435 
1735.000000	99.198030 
1734.000000	99.197436 
1733.000000	99.197532 
1732.000000	99.198955 
1731.000000	99.200890 
1730.000000	99.202045 
1729.000000	99.202016 
1728.000000	99.201607 
1727.000000	99.201715 
1726.000000	99.202191 
1725.000000	99.202329 
1724.000000	99.201999 
1723.000000	99.201754 
1722.000000	99.201999 
1721.000000	99.202582 
1720.000000	99.203118 
1719.000000	99.203301 
1718.000000	99.202938 
1717.000000	99.202202 
1716.000000	99.201405 
1715.000000	99.200703 
1714.000000	99.200284 
1713.000000	99.200167 
1712.000000	99.200084 
1711.000000	99.199813 
1710.000000	99.199379 
1709.000000	99.198919 
1708.000000	99.198489 
1707.000000	99.198038 
1706.000000	99.197525 
1705.000000	99.196945 
1704.000000	99.196294 
1703.000000	99.195587 
1702.000000	99.194856 
1701.000000	99.194099 
1700.000000	99.193325 
1699.000000	99.192527 
1698.000000	99.191688 
1697.000000	99.190794 
1696.000000	99.189839 
1695.000000	99.188823 
1694.000000	99.187750 
1693.000000	99.186619 
1692.000000	99.185429 
1691.000000	99.184174 
1690.000000	99.182852 
1689.000000	99.181463 
1688.000000	99.180015 
1687.000000	99.178522 
1686.000000	99.177002 
1685.000000	99.175473 
1684.000000	99.173933 
1683.000000	99.172372 
1682.000000	99.170785 
1681.000000	99.169174 
1680.000000	99.167540 
1679.000000	99.165898 
1678.000000	99.164264 
1677.000000	99.162632 
1676.000000	99.161005 
1675.000000	99.159406 
1674.000000	99.157734 
1673.000000	99.155909 
1672.000000	99.154129 
1671.000000	99.152867 
1670.000000	99.152344 
1669.000000	99.151673 
1668.000000	99.150091 
1667.000000	99.148198 
1666.000000	99.146263 
1665.000000	99.143807 
1664.000000	99.140852 
1663.000000	99.138510 
1662.000000	99.137648 
1661.000000	99.137380 
1660.000000	99.136290 
1659.000000	99.134703 
1658.000000	99.133867 
1657.000000	99.133389 
1656.000000	99.130611 
1655.000000	99.124628 
1654.000000	99.119667 
1653.000000	99.119342 
1652.000000	99.118223 
1651.000000	99.117551 
1650.000000	99.116226 
1649.000000	99.113237 
1648.000000	99.109181 
1647.000000	99.105431 
1646.000000	99.102321 
1645.000000	99.101768 
1644.000000	99.104488 
1643.000000	99.107908 
1642.000000	99.109457 
1641.000000	99.108745 
1640.000000	99.107050 
1639.000000	99.105749 
1638.000000	99.105507 
1637.000000	99.106475 
1636.000000	99.107443 
1635.000000	99.107374 
1634.000000	99.108545 
1633.000000	99.111831 
1632.000000	99.114863 
1631.000000	99.116781 
1630.000000	99.118678 
1629.000000	99.121073 
1628.000000	99.122720 
1627.000000	99.123191 
1626.000000	99.123948 
1625.000000	99.126093 
1624.000000	99.129222 
1623.000000	99.132523 
1622.000000	99.135751 
1621.000000	99.138303 
1620.000000	99.138940 
1619.000000	99.137757 
1618.000000	99.137356 
1617.000000	99.139899 
1616.000000	99.143331 
1615.000000	99.145881 
1614.000000	99.147932 
1613.000000	99.149092 
1612.000000	99.149219 
1611.000000	99.149188 
1610.000000	99.150054 
1609.000000	99.151524 
1608.000000	99.152901 
1607.000000	99.154690 
1606.000000	99.157390 
1605.000000	99.160242 
1604.000000	99.162653 
1603.000000	99.165284 
1602.000000	99.168506 
1601.000000	99.171185 
1600.000000	99.172390 
1599.000000	99.173071 
1598.000000	99.174801 
1597.000000	99.177836 
1596.000000	99.181340 
1595.000000	99.184697 
1594.000000	99.187765 
1593.000000	99.190079 
1592.000000	99.191216 
1591.000000	99.191828 
1590.000000	99.193186 
1589.000000	99.195431 
1588.000000	99.197590 
1587.000000	99.199198 
1586.000000	99.200448 
1585.000000	99.201081 
1584.000000	99.200675 
1583.000000	99.199830 
1582.000000	99.199802 
1581.000000	99.200852 
1580.000000	99.202271 
1579.000000	99.203712 
1578.000000	99.205436 
1577.000000	99.207163 
1576.000000	99.207871 
1575.000000	99.208133 
1574.000000	99.209438 
1573.000000	99.211073 
1572.000000	99.212004 
1571.000000	99.212632 
1570.000000	99.213994 
1569.000000	99.215632 
1568.000000	99.216601 
1567.000000	99.217233 
1566.000000	99.218001 
1565.000000	99.218876 
1564.000000	99.219626 
1563.000000	99.220257 
1562.000000	99.220828 
1561.000000	99.221144 
1560.000000	99.221244 
1559.000000	99.221711 
1558.000000	99.222235 
1557.000000	99.223000 
1556.000000	99.223966 
1555.000000	99.224764 
1554.000000	99.225319 
1553.000000	99.225761 
1552.000000	99.226286 
1551.000000	99.226960 
1550.000000	99.227731 
1549.000000	99.228450 
1548.000000	99.229025 
1547.000000	99.229470 
1546.000000	99.229816 
1545.000000	99.230125 
1544.000000	99.230426 
1543.000000	99.230684 
1542.000000	99.230991 
1541.000000	99.231676 
1540.000000	99.232635 
1539.000000	99.233166 
1538.000000	99.233558 
1537.000000	99.234242 
1536.000000	99.235012 
1535.000000	99.235718 
1534.000000	99.236675 
1533.000000	99.237919 
1532.000000	99.238728 
1531.000000	99.238680 
1530.000000	99.238340 
1529.000000	99.238701 
1528.000000	99.239854 
1527.000000	99.240847 
1526.000000	99.240962 
1525.000000	99.240709 
1524.000000	99.240685 
1523.000000	99.240895 
1522.000000	99.241881 
1521.000000	99.244203 
1520.000000	99.246307 
1519.000000	99.246727 
1518.000000	99.245580 
1517.000000	99.244221 
1516.000000	99.243208 
1515.000000	99.241869 
1514.000000	99.239862 
1513.000000	99.237730 
1512.000000	99.236572 
1511.000000	99.236338 
1510.000000	99.235740 
1509.000000	99.234778 
1508.000000	99.236593 
1507.000000	99.241688 
1506.000000	99.242176 
1505.000000	99.238322 
1504.000000	99.236056 
1503.000000	99.235219 
1502.000000	99.234520 
1501.000000	99.233928 
1500.000000	99.234108 
1499.000000	99.234609 
1498.000000	99.233498 
1497.000000	99.231431 
1496.000000	99.231287 
1495.000000	99.231890 
1494.000000	99.229837 
1493.000000	99.224536 
1492.000000	99.218048 
1491.000000	99.213011 
1490.000000	99.210311 
1489.000000	99.209328 
1488.000000	99.208474 
1487.000000	99.205615 
1486.000000	99.201582 
1485.000000	99.198337 
1484.000000	99.196070 
1483.000000	99.193796 
1482.000000	99.189921 
1481.000000	99.183924 
1480.000000	99.176808 
1479.000000	99.169839 
1478.000000	99.163765 
1477.000000	99.159029 
1476.000000	99.155065 
1475.000000	99.149436 
1474.000000	99.141832 
1473.000000	99.135898 
1472.000000	99.133778 
1471.000000	99.131579 
1470.000000	99.126572 
1469.000000	99.120388 
1468.000000	99.115906 
1467.000000	99.114112 
1466.000000	99.114276 
1465.000000	99.115267 
1464.000000	99.115533 
1463.000000	99.114301 
1462.000000	99.112231 
1461.000000	99.110834 
1460.000000	99.110398 
1459.000000	99.108768 
1458.000000	99.100678 
1457.000000	99.084114 
1456.000000	99.067611 
1455.000000	99.058822 
1454.000000	99.054983 
1453.000000	99.052574 
1452.000000	99.051297 
1451.000000	99.051515 
1450.000000	99.053183 
1449.000000	99.057745 
1448.000000	99.066551 
1447.000000	99.076275 
1446.000000	99.082066 
1445.000000	99.083563 
1444.000000	99.083148 
1443.000000	99.081675 
1442.000000	99.078359 
1441.000000	99.073368 
1440.000000	99.068898 
1439.000000	99.066842 
1438.000000	99.065808 
1437.000000	99.063589 
1436.000000	99.060460 
1435.000000	99.057207 
1434.000000	99.053622 
1433.000000	99.050467 
1432.000000	99.048912 
1431.000000	99.049421 
1430.000000	99.049778 
1429.000000	99.047476 
1428.000000	99.043080 
1427.000000	99.038035 
1426.000000	99.031962 
1425.000000	99.023146 
1424.000000	99.012604 
1423.000000	99.003294 
1422.000000	98.994538 
1421.000000	98.983431 
1420.000000	98.969896 
1419.000000	98.956646 
1418.000000	98.941848 
1417.000000	98.923626 
1416.000000	98.905471 
1415.000000	98.889964 
1414.000000	98.875299 
1413.000000	98.858373 
1412.000000	98.840265 
1411.000000	98.825316 
1410.000000	98.814540 
1409.000000	98.805969 
1408.000000	98.799740 
1407.000000	98.797556 
1406.000000	98.799490 
1405.000000	98.804285 
1404.000000	98.812371 
1403.000000	98.823717 
1402.000000	98.835139 
1401.000000	98.844563 
1400.000000	98.853845 
1399.000000	98.864356 
1398.000000	98.869614 
1397.000000	98.859795 
1396.000000	98.833745 
1395.000000	98.805338 
1394.000000	98.794366 
1393.000000	98.807691 
1392.000000	98.837503 
1391.000000	98.870692 
1390.000000	98.896692 
1389.000000	98.910892 
1388.000000	98.914319 
1387.000000	98.911117 
1386.000000	98.905172 
1385.000000	98.899170 
1384.000000	98.895298 
1383.000000	98.894859 
1382.000000	98.897418 
1381.000000	98.902084 
1380.000000	98.908846 
1379.000000	98.918273 
1378.000000	98.929984 
1377.000000	98.942423 
1376.000000	98.954865 
1375.000000	98.968555 
1374.000000	98.984535 
1373.000000	99.000971 
1372.000000	99.015361 
1371.000000	99.027993 
1370.000000	99.041585 
1369.000000	99.057110 
1368.000000	99.072995 
1367.000000	99.087412 
1366.000000	99.100056 
1365.000000	99.111869 
1364.000000	99.123365 
1363.000000	99.134033 
1362.000000	99.143446 
1361.000000	99.151891 
1360.000000	99.159828 
1359.000000	99.167701 
1358.000000	99.176318 
1357.000000	99.186219 
1356.000000	99.196830 
1355.000000	99.206581 
1354.000000	99.214318 
1353.000000	99.220593 
1352.000000	99.226054 
1351.000000	99.229843 
1350.000000	99.232573 
1349.000000	99.235381 
1348.000000	99.238737 
1347.000000	99.242807 
1346.000000	99.248269 
1345.000000	99.255016 
1344.000000	99.261611 
1343.000000	99.266796 
1342.000000	99.270804 
1341.000000	99.273929 
1340.000000	99.275223 
1339.000000	99.274124 
1338.000000	99.272075 
1337.000000	99.271337 
1336.000000	99.272774 
1335.000000	99.275394 
1334.000000	99.278019 
1333.000000	99.280438 
1332.000000	99.282644 
1331.000000	99.284221 
1330.000000	99.284840 
1329.000000	99.284427 
1328.000000	99.283225 
1327.000000	99.281902 
1326.000000	99.281395 
1325.000000	99.281361 
1324.000000	99.281424 
1323.000000	99.282112 
1322.000000	99.283472 
1321.000000	99.284020 
1320.000000	99.282736 
1319.000000	99.281041 
1318.000000	99.280999 
1317.000000	99.282351 
1316.000000	99.282844 
1315.000000	99.281153 
1314.000000	99.278137 
1313.000000	99.275697 
1312.000000	99.275165 
1311.000000	99.276698 
1310.000000	99.279530 
1309.000000	99.282541 
1308.000000	99.284872 
1307.000000	99.285971 
1306.000000	99.285633 
1305.000000	99.283656 
1304.000000	99.280924 
1303.000000	99.279359 
1302.000000	99.280423 
1301.000000	99.283695 
1300.000000	99.287221 
1299.000000	99.288714 
1298.000000	99.286769 
1297.000000	99.282163 
1296.000000	99.277945 
1295.000000	99.277421 
1294.000000	99.281170 
1293.000000	99.286746 
1292.000000	99.291145 
1291.000000	99.292532 
1290.000000	99.290213 
1289.000000	99.284934 
1288.000000	99.279388 
1287.000000	99.276365 
1286.000000	99.275568 
1285.000000	99.274096 
1284.000000	99.270675 
1283.000000	99.267414 
1282.000000	99.266317 
1281.000000	99.266196 
1280.000000	99.264804 
1279.000000	99.262026 
1278.000000	99.258789 
1277.000000	99.254770 
1276.000000	99.249098 
1275.000000	99.242599 
1274.000000	99.237283 
1273.000000	99.233848 
1272.000000	99.231043 
1271.000000	99.227187 
1270.000000	99.221296 
1269.000000	99.213321 
1268.000000	99.204380 
1267.000000	99.196115 
1266.000000	99.188693 
1265.000000	99.180565 
1264.000000	99.170938 
1263.000000	99.160960 
1262.000000	99.151413 
1261.000000	99.141134 
1260.000000	99.129526 
1259.000000	99.119023 
1258.000000	99.112169 
1257.000000	99.107879 
1256.000000	99.103233 
1255.000000	99.097836 
1254.000000	99.093298 
1253.000000	99.089193 
1252.000000	99.083198 
1251.000000	99.075794 
1250.000000	99.071371 
1249.000000	99.073507 
1248.000000	99.081740 
1247.000000	99.093303 
1246.000000	99.104312 
1245.000000	99.108514 
1244.000000	99.099731 
1243.000000	99.079840 
1242.000000	99.062125 
1241.000000	99.061132 
1240.000000	99.078261 
1239.000000	99.099898 
1238.000000	99.110660 
1237.000000	99.106388 
1236.000000	99.093323 
1235.000000	99.078394 
1234.000000	99.063380 
1233.000000	99.047505 
1232.000000	99.031785 
1231.000000	99.018586 
1230.000000	99.008350 
1229.000000	98.999138 
1228.000000	98.989539 
1227.000000	98.980441 
1226.000000	98.973404 
1225.000000	98.968217 
1224.000000	98.962753 
1223.000000	98.954816 
1222.000000	98.943600 
1221.000000	98.929696 
1220.000000	98.914250 
1219.000000	98.898164 
1218.000000	98.881558 
1217.000000	98.863741 
1216.000000	98.843713 
1215.000000	98.820845 
1214.000000	98.795447 
1213.000000	98.768662 
1212.000000	98.741232 
1211.000000	98.712062 
1210.000000	98.679126 
1209.000000	98.642501 
1208.000000	98.605241 
1207.000000	98.570004 
1206.000000	98.536073 
1205.000000	98.501494 
1204.000000	98.466532 
1203.000000	98.432253 
1202.000000	98.396835 
1201.000000	98.356948 
1200.000000	98.312919 
1199.000000	98.269068 
1198.000000	98.228124 
1197.000000	98.188631 
1196.000000	98.148777 
1195.000000	98.109333 
1194.000000	98.071039 
1193.000000	98.031794 
1192.000000	97.989105 
1191.000000	97.943633 
1190.000000	97.898158 
1189.000000	97.854316 
1188.000000	97.812081 
1187.000000	97.771039 
1186.000000	97.730251 
1185.000000	97.687697 
1184.000000	97.641265 
1183.000000	97.589991 
1182.000000	97.534238 
1181.000000	97.475825 
1180.000000	97.418000 
1179.000000	97.363319 
1178.000000	97.310643 
1177.000000	97.255875 
1176.000000	97.196310 
1175.000000	97.132668 
1174.000000	97.066901 
1173.000000	97.000400 
1172.000000	96.934966 
1171.000000	96.872541 
1170.000000	96.812551 
1169.000000	96.752132 
1168.000000	96.690508 
1167.000000	96.631033 
1166.000000	96.578246 
1165.000000	96.536096 
1164.000000	96.510042 
1163.000000	96.506410 
1162.000000	96.526142 
1161.000000	96.560817 
1160.000000	96.596878 
1159.000000	96.622852 
1158.000000	96.632195 
1157.000000	96.622584 
1156.000000	96.595298 
1155.000000	96.554125 
1154.000000	96.502829 
1153.000000	96.444074 
1152.000000	96.381343 
1151.000000	96.319710 
1150.000000	96.262819 
1149.000000	96.210162 
1148.000000	96.158487 
1147.000000	96.104703 
1146.000000	96.047192 
1145.000000	95.986512 
1144.000000	95.925616 
1143.000000	95.867515 
1142.000000	95.812026 
1141.000000	95.756659 
1140.000000	95.700462 
1139.000000	95.644190 
1138.000000	95.586888 
1137.000000	95.526058 
1136.000000	95.461778 
1135.000000	95.397010 
1134.000000	95.332928 
1133.000000	95.267522 
1132.000000	95.199685 
1131.000000	95.130760 
1130.000000	95.060985 
1129.000000	94.988546 
1128.000000	94.913652 
1127.000000	94.839433 
1126.000000	94.767075 
1125.000000	94.693913 
1124.000000	94.618107 
1123.000000	94.541388 
1122.000000	94.465396 
1121.000000	94.389010 
1120.000000	94.311079 
1119.000000	94.232155 
1118.000000	94.152104 
1117.000000	94.069984 
1116.000000	93.987494 
1115.000000	93.908215 
1114.000000	93.832149 
1113.000000	93.755503 
1112.000000	93.677097 
1111.000000	93.600078 
1110.000000	93.526475 
1109.000000	93.455250 
1108.000000	93.386001 
1107.000000	93.319523 
1106.000000	93.254456 
1105.000000	93.187884 
1104.000000	93.120011 
1103.000000	93.053839 
1102.000000	92.990082 
1101.000000	92.927149 
1100.000000	92.866610 
1099.000000	92.811142 
1098.000000	92.759309 
1097.000000	92.706520 
1096.000000	92.652014 
1095.000000	92.598452 
1094.000000	92.543935 
1093.000000	92.481228 
1092.000000	92.406804 
1091.000000	92.325009 
1090.000000	92.241639 
1089.000000	92.158659 
1088.000000	92.076722 
1087.000000	91.997269 
1086.000000	91.920180 
1085.000000	91.844146 
1084.000000	91.770386 
1083.000000	91.700883 
1082.000000	91.632879 
1081.000000	91.561574 
1080.000000	91.488725 
1079.000000	91.421482 
1078.000000	91.361986 
1077.000000	91.305897 
1076.000000	91.252068 
1075.000000	91.204544 
1074.000000	91.162923 
1073.000000	91.119583 
1072.000000	91.067775 
1071.000000	91.001980 
1070.000000	90.909178 
1069.000000	90.774757 
1068.000000	90.605329 
1067.000000	90.436103 
1066.000000	90.304128 
1065.000000	90.217461 
1064.000000	90.156413 
1063.000000	90.095380 
1062.000000	90.015383 
1061.000000	89.905069 
1060.000000	89.764785 
1059.000000	89.611309 
1058.000000	89.469467 
1057.000000	89.354130 
1056.000000	89.260840 
1055.000000	89.171832 
1054.000000	89.070175 
1053.000000	88.952131 
1052.000000	88.827708 
1051.000000	88.706635 
1050.000000	88.585800 
1049.000000	88.457162 
1048.000000	88.324318 
1047.000000	88.199561 
1046.000000	88.085982 
1045.000000	87.974870 
1044.000000	87.861098 
1043.000000	87.749362 
1042.000000	87.642923 
1041.000000	87.537077 
1040.000000	87.428693 
1039.000000	87.324237 
1038.000000	87.233808 
1037.000000	87.163197 
1036.000000	87.113944 
1035.000000	87.084025 
1034.000000	87.066067 
1033.000000	87.050342 
1032.000000	87.029626 
1031.000000	86.997073 
1030.000000	86.945749 
1029.000000	86.881436 
1028.000000	86.831123 
1027.000000	86.823281 
1026.000000	86.858046 
1025.000000	86.907651 
1024.000000	86.946157 
1023.000000	86.966673 
1022.000000	86.971270 
1021.000000	86.961875 
1020.000000	86.945238 
1019.000000	86.932248 
1018.000000	86.925967 
1017.000000	86.920194 
1016.000000	86.912672 
1015.000000	86.908627 
1014.000000	86.908973 
1013.000000	86.907477 
1012.000000	86.903125 
1011.000000	86.903280 
1010.000000	86.910893 
1009.000000	86.920455 
1008.000000	86.930680 
1007.000000	86.949408 
1006.000000	86.980845 
1005.000000	87.018491 
1004.000000	87.055827 
1003.000000	87.094698 
1002.000000	87.138658 
1001.000000	87.186823 
1000.000000	87.238289 
999.000000	 87.294390 
998.000000	 87.353278 
997.000000	 87.410145 
996.000000	 87.465453 
995.000000	 87.525338 
994.000000	 87.592204 
993.000000	 87.662529 
992.000000	 87.734399 
991.000000	 87.808668 
990.000000	 87.882830 
989.000000	 87.953533 
988.000000	 88.025336 
987.000000	 88.106742 
986.000000	 88.197578 
985.000000	 88.291399 
984.000000	 88.390094 
983.000000	 88.503129 
982.000000	 88.631135 
981.000000	 88.762991 
980.000000	 88.892140 
979.000000	 89.024283 
978.000000	 89.164895 
977.000000	 89.310767 
976.000000	 89.458842 
975.000000	 89.612895 
974.000000	 89.775523 
973.000000	 89.941768 
972.000000	 90.106017 
971.000000	 90.268590 
970.000000	 90.431520 
969.000000	 90.593941 
968.000000	 90.754819 
967.000000	 90.914479 
966.000000	 91.071076 
965.000000	 91.221028 
964.000000	 91.364454 
963.000000	 91.504710 
962.000000	 91.641861 
961.000000	 91.772723 
960.000000	 91.897807 
959.000000	 92.021299 
958.000000	 92.143389 
957.000000	 92.259666 
956.000000	 92.369330 
955.000000	 92.476865 
954.000000	 92.583908 
953.000000	 92.686345 
952.000000	 92.781375 
951.000000	 92.870712 
950.000000	 92.954758 
949.000000	 93.030300 
948.000000	 93.096955 
947.000000	 93.160098 
946.000000	 93.224216 
945.000000	 93.287933 
944.000000	 93.348135 
943.000000	 93.404405 
942.000000	 93.456871 
941.000000	 93.503819 
940.000000	 93.544168 
939.000000	 93.579868 
938.000000	 93.614670 
937.000000	 93.652537 
936.000000	 93.696491 
935.000000	 93.745650 
934.000000	 93.794459 
933.000000	 93.838752 
932.000000	 93.880919 
931.000000	 93.925002 
930.000000	 93.969550 
929.000000	 94.011138 
928.000000	 94.052078 
927.000000	 94.097189 
926.000000	 94.144611 
925.000000	 94.187647 
924.000000	 94.224560 
923.000000	 94.258348 
922.000000	 94.287777 
921.000000	 94.308030 
920.000000	 94.321053 
919.000000	 94.335924 
918.000000	 94.356513 
917.000000	 94.377014 
916.000000	 94.392765 
915.000000	 94.408188 
914.000000	 94.430679 
913.000000	 94.463153 
912.000000	 94.505867 
911.000000	 94.559292 
910.000000	 94.621626 
909.000000	 94.688786 
908.000000	 94.759907 
907.000000	 94.838403 
906.000000	 94.925995 
905.000000	 95.020756 
904.000000	 95.122416 
903.000000	 95.234116 
902.000000	 95.356650 
901.000000	 95.484922 
900.000000	 95.611418 
899.000000	 95.730299 
898.000000	 95.839287 
897.000000	 95.941405 
896.000000	 96.043253 
895.000000	 96.146695 
894.000000	 96.244562 
893.000000	 96.330873 
892.000000	 96.412896 
891.000000	 96.504554 
890.000000	 96.607848 
889.000000	 96.709687 
888.000000	 96.799004 
887.000000	 96.878311 
886.000000	 96.955067 
885.000000	 97.029307 
884.000000	 97.095769 
883.000000	 97.153584 
882.000000	 97.207856 
881.000000	 97.263924 
880.000000	 97.324716 
879.000000	 97.392276 
878.000000	 97.467364 
877.000000	 97.546762 
876.000000	 97.622909 
875.000000	 97.687600 
874.000000	 97.737965 
873.000000	 97.780528 
872.000000	 97.828049 
871.000000	 97.889344 
870.000000	 97.961777 
869.000000	 98.035149 
868.000000	 98.101906 
867.000000	 98.162021 
866.000000	 98.220254 
865.000000	 98.281471 
864.000000	 98.347471 
863.000000	 98.415733 
862.000000	 98.481987 
861.000000	 98.545541 
860.000000	 98.610253 
859.000000	 98.678732 
858.000000	 98.748638 
857.000000	 98.816987 
856.000000	 98.884032 
855.000000	 98.948932 
854.000000	 99.005472 
853.000000	 99.047827 
852.000000	 99.078738 
851.000000	 99.106853 
850.000000	 99.136807 
849.000000	 99.166352 
848.000000	 99.192396 
847.000000	 99.215290 
846.000000	 99.237346 
845.000000	 99.260778 
844.000000	 99.286392 
843.000000	 99.310556 
842.000000	 99.324400 
841.000000	 99.320208 
840.000000	 99.298826 
839.000000	 99.268711 
838.000000	 99.238780 
837.000000	 99.214067 
836.000000	 99.195846 
835.000000	 99.182164 
834.000000	 99.169494 
833.000000	 99.156767 
832.000000	 99.145598 
831.000000	 99.134319 
830.000000	 99.117459 
829.000000	 99.097403 
828.000000	 99.090845 
827.000000	 99.112517 
826.000000	 99.153814 
825.000000	 99.189930 
824.000000	 99.209409 
823.000000	 99.223910 
822.000000	 99.246424 
821.000000	 99.273251 
820.000000	 99.292517 
819.000000	 99.299088 
818.000000	 99.295305 
817.000000	 99.283927 
816.000000	 99.264895 
815.000000	 99.235189 
814.000000	 99.188954 
813.000000	 99.120447 
812.000000	 99.028251 
811.000000	 98.913781 
810.000000	 98.775101 
809.000000	 98.605842 
808.000000	 98.401095 
807.000000	 98.160880 
806.000000	 97.888358 
805.000000	 97.590780 
804.000000	 97.284309 
803.000000	 96.991877 
802.000000	 96.732195 
801.000000	 96.514941 
800.000000	 96.347148 
799.000000	 96.235576 
798.000000	 96.179581 
797.000000	 96.169859 
796.000000	 96.197625 
795.000000	 96.257449 
794.000000	 96.339245 
793.000000	 96.426728 
792.000000	 96.507318 
791.000000	 96.576370 
790.000000	 96.629589 
789.000000	 96.659171 
788.000000	 96.660759 
787.000000	 96.637451 
786.000000	 96.593334 
785.000000	 96.528397 
784.000000	 96.443559 
783.000000	 96.346729 
782.000000	 96.250884 
781.000000	 96.168894 
780.000000	 96.110215 
779.000000	 96.077644 
778.000000	 96.067704 
777.000000	 96.080460 
776.000000	 96.126645 
775.000000	 96.215355 
774.000000	 96.335353 
773.000000	 96.459701 
772.000000	 96.570506 
771.000000	 96.668320 
770.000000	 96.755977 
769.000000	 96.827246 
768.000000	 96.878156 
767.000000	 96.918394 
766.000000	 96.961160 
765.000000	 97.006830 
764.000000	 97.045090 
763.000000	 97.069903 
762.000000	 97.085736 
761.000000	 97.101577 
760.000000	 97.125122 
759.000000	 97.161333 
758.000000	 97.210230 
757.000000	 97.264794 
756.000000	 97.314345 
755.000000	 97.352305 
754.000000	 97.381576 
753.000000	 97.412688 
752.000000	 97.455457 
751.000000	 97.509990 
750.000000	 97.565769 
749.000000	 97.611190 
748.000000	 97.643383 
747.000000	 97.668130 
746.000000	 97.694236 
745.000000	 97.730818 
744.000000	 97.784908 
743.000000	 97.855011 
742.000000	 97.929145 
741.000000	 97.995693 
740.000000	 98.054678 
739.000000	 98.113108 
738.000000	 98.172728 
737.000000	 98.229843 
736.000000	 98.284977 
735.000000	 98.343744 
734.000000	 98.407435 
733.000000	 98.469688 
732.000000	 98.523670 
731.000000	 98.566503 
730.000000	 98.596420 
729.000000	 98.612209 
728.000000	 98.618495 
727.000000	 98.625358 
726.000000	 98.638835 
725.000000	 98.657358 
724.000000	 98.678588 
723.000000	 98.703674 
722.000000	 98.733745 
721.000000	 98.768147 
720.000000	 98.806946 
719.000000	 98.848924 
718.000000	 98.886876 
717.000000	 98.912775 
716.000000	 98.928341 
715.000000	 98.943575 
714.000000	 98.963860 
713.000000	 98.985520 
712.000000	 99.005921 
711.000000	 99.028557 
710.000000	 99.054264 
709.000000	 99.074706 
708.000000	 99.079972 
707.000000	 99.069450 
706.000000	 99.049212 
705.000000	 99.024525 
704.000000	 98.998713 
703.000000	 98.971534 
702.000000	 98.934356 
701.000000	 98.871599 
700.000000	 98.770825 
699.000000	 98.633015 
698.000000	 98.472214 
697.000000	 98.310131 
696.000000	 98.172121 
695.000000	 98.079408 
694.000000	 98.042596 
693.000000	 98.062036 
692.000000	 98.129688 
691.000000	 98.228084 
690.000000	 98.331348 
689.000000	 98.419654 
688.000000	 98.493277 
687.000000	 98.562411 
686.000000	 98.627282 
685.000000	 98.678548 
684.000000	 98.714140 
683.000000	 98.744195 
682.000000	 98.777817 
681.000000	 98.815519 
680.000000	 98.855480 
679.000000	 98.897309 
678.000000	 98.935116 
677.000000	 98.955029 
676.000000	 98.955024 
675.000000	 98.956006 
674.000000	 98.979561 
673.000000	 99.024791 
672.000000	 99.079159 
671.000000	 99.141329 
670.000000	 99.220528 
669.000000	 99.306603 
668.000000	 99.341060 
667.000000	 99.300831 
666.000000	 99.257078 
665.000000	 99.242041 
664.000000	 99.244210 
663.000000	 99.253380 
662.000000	 99.266325 
661.000000	 99.281974 
660.000000	 99.301563 
659.000000	 99.324031 
658.000000	 99.337237 
657.000000	 99.325145 
656.000000	 99.295477 
655.000000	 99.279826 
654.000000	 99.289468 
653.000000	 99.296189 
652.000000	 99.276715 
651.000000	 99.247923 
650.000000	 99.241925 

