4000.000000	99.314033 
3999.000000	99.314131 
3998.000000	99.314194 
3997.000000	99.314100 
3996.000000	99.313793 
3995.000000	99.313342 
3994.000000	99.312928 
3993.000000	99.312730 
3992.000000	99.312807 
3991.000000	99.313066 
3990.000000	99.313333 
3989.000000	99.313491 
3988.000000	99.313531 
3987.000000	99.313497 
3986.000000	99.313409 
3985.000000	99.313259 
3984.000000	99.313040 
3983.000000	99.312750 
3982.000000	99.312387 
3981.000000	99.311952 
3980.000000	99.311451 
3979.000000	99.310904 
3978.000000	99.310397 
3977.000000	99.310099 
3976.000000	99.310171 
3975.000000	99.310612 
3974.000000	99.311211 
3973.000000	99.311622 
3972.000000	99.311608 
3971.000000	99.311180 
3970.000000	99.310517 
3969.000000	99.309823 
3968.000000	99.309220 
3967.000000	99.308743 
3966.000000	99.308407 
3965.000000	99.308228 
3964.000000	99.308178 
3963.000000	99.308126 
3962.000000	99.307891 
3961.000000	99.307384 
3960.000000	99.306692 
3959.000000	99.306028 
3958.000000	99.305559 
3957.000000	99.305292 
3956.000000	99.305125 
3955.000000	99.304961 
3954.000000	99.304780 
3953.000000	99.304592 
3952.000000	99.304362 
3951.000000	99.304038 
3950.000000	99.303647 
3949.000000	99.303331 
3948.000000	99.303240 
3947.000000	99.303333 
3946.000000	99.303391 
3945.000000	99.303257 
3944.000000	99.302987 
3943.000000	99.302691 
3942.000000	99.302378 
3941.000000	99.302013 
3940.000000	99.301594 
3939.000000	99.301076 
3938.000000	99.300323 
3937.000000	99.299263 
3936.000000	99.298159 
3935.000000	99.297581 
3934.000000	99.298049 
3933.000000	99.299598 
3932.000000	99.301572 
3931.000000	99.302945 
3930.000000	99.303015 
3929.000000	99.301854 
3928.000000	99.300234 
3927.000000	99.299030 
3926.000000	99.298624 
3925.000000	99.298707 
3924.000000	99.298603 
3923.000000	99.298002 
3922.000000	99.297194 
3921.000000	99.296737 
3920.000000	99.297003 
3919.000000	99.298002 
3918.000000	99.299518 
3917.000000	99.301224 
3916.000000	99.302749 
3915.000000	99.303763 
3914.000000	99.304197 
3913.000000	99.304262 
3912.000000	99.304238 
3911.000000	99.304321 
3910.000000	99.304603 
3909.000000	99.305063 
3908.000000	99.305558 
3907.000000	99.305690 
3906.000000	99.304852 
3905.000000	99.302527 
3904.000000	99.298719 
3903.000000	99.294400 
3902.000000	99.291197 
3901.000000	99.290230 
3900.000000	99.291524 
3899.000000	99.294108 
3898.000000	99.296702 
3897.000000	99.298522 
3896.000000	99.299334 
3895.000000	99.299242 
3894.000000	99.298616 
3893.000000	99.297947 
3892.000000	99.297544 
3891.000000	99.297299 
3890.000000	99.296966 
3889.000000	99.296453 
3888.000000	99.295960 
3887.000000	99.295902 
3886.000000	99.296416 
3885.000000	99.297057 
3884.000000	99.297298 
3883.000000	99.297167 
3882.000000	99.297127 
3881.000000	99.297464 
3880.000000	99.297973 
3879.000000	99.298246 
3878.000000	99.298154 
3877.000000	99.297929 
3876.000000	99.297970 
3875.000000	99.298389 
3874.000000	99.298861 
3873.000000	99.299053 
3872.000000	99.299058 
3871.000000	99.299202 
3870.000000	99.299590 
3869.000000	99.300062 
3868.000000	99.300462 
3867.000000	99.300784 
3866.000000	99.301103 
3865.000000	99.301453 
3864.000000	99.301821 
3863.000000	99.302202 
3862.000000	99.302604 
3861.000000	99.303028 
3860.000000	99.303463 
3859.000000	99.303903 
3858.000000	99.304337 
3857.000000	99.304756 
3856.000000	99.305159 
3855.000000	99.305549 
3854.000000	99.305932 
3853.000000	99.306312 
3852.000000	99.306690 
3851.000000	99.307063 
3850.000000	99.307429 
3849.000000	99.307789 
3848.000000	99.308143 
3847.000000	99.308489 
3846.000000	99.308828 
3845.000000	99.309163 
3844.000000	99.309497 
3843.000000	99.309837 
3842.000000	99.310190 
3841.000000	99.310552 
3840.000000	99.310902 
3839.000000	99.311216 
3838.000000	99.311478 
3837.000000	99.311685 
3836.000000	99.311842 
3835.000000	99.311974 
3834.000000	99.312128 
3833.000000	99.312355 
3832.000000	99.312682 
3831.000000	99.313065 
3830.000000	99.313391 
3829.000000	99.313556 
3828.000000	99.313531 
3827.000000	99.313404 
3826.000000	99.313300 
3825.000000	99.313268 
3824.000000	99.313275 
3823.000000	99.313342 
3822.000000	99.313568 
3821.000000	99.313907 
3820.000000	99.314202 
3819.000000	99.314429 
3818.000000	99.314623 
3817.000000	99.314770 
3816.000000	99.314745 
3815.000000	99.314345 
3814.000000	99.313532 
3813.000000	99.312615 
3812.000000	99.312085 
3811.000000	99.312221 
3810.000000	99.312877 
3809.000000	99.313627 
3808.000000	99.314148 
3807.000000	99.314380 
3806.000000	99.314379 
3805.000000	99.314199 
3804.000000	99.314001 
3803.000000	99.314132 
3802.000000	99.314674 
3801.000000	99.314988 
3800.000000	99.314409 
3799.000000	99.312949 
3798.000000	99.311175 
3797.000000	99.309741 
3796.000000	99.308863 
3795.000000	99.308274 
3794.000000	99.307609 
3793.000000	99.306781 
3792.000000	99.306033 
3791.000000	99.305652 
3790.000000	99.305697 
3789.000000	99.306023 
3788.000000	99.306478 
3787.000000	99.306981 
3786.000000	99.307487 
3785.000000	99.307927 
3784.000000	99.308207 
3783.000000	99.308240 
3782.000000	99.308137 
3781.000000	99.308390 
3780.000000	99.309432 
3779.000000	99.310882 
3778.000000	99.311709 
3777.000000	99.311143 
3776.000000	99.309223 
3775.000000	99.306761 
3774.000000	99.304664 
3773.000000	99.303364 
3772.000000	99.302965 
3771.000000	99.303386 
3770.000000	99.304005 
3769.000000	99.303924 
3768.000000	99.303114 
3767.000000	99.302557 
3766.000000	99.303109 
3765.000000	99.304437 
3764.000000	99.305226 
3763.000000	99.304592 
3762.000000	99.303137 
3761.000000	99.302397 
3760.000000	99.303071 
3759.000000	99.304329 
3758.000000	99.305264 
3757.000000	99.306080 
3756.000000	99.307284 
3755.000000	99.308819 
3754.000000	99.310310 
3753.000000	99.311834 
3752.000000	99.313638 
3751.000000	99.314971 
3750.000000	99.315135 
3749.000000	99.314934 
3748.000000	99.315153 
3747.000000	99.315409 
3746.000000	99.314865 
3745.000000	99.313100 
3744.000000	99.310401 
3743.000000	99.307397 
3742.000000	99.304396 
3741.000000	99.301543 
3740.000000	99.298863 
3739.000000	99.296007 
3738.000000	99.293379 
3737.000000	99.292617 
3736.000000	99.294555 
3735.000000	99.297433 
3734.000000	99.298618 
3733.000000	99.297681 
3732.000000	99.296049 
3731.000000	99.294642 
3730.000000	99.293025 
3729.000000	99.290595 
3728.000000	99.287804 
3727.000000	99.285682 
3726.000000	99.284543 
3725.000000	99.284017 
3724.000000	99.284072 
3723.000000	99.285100 
3722.000000	99.286778 
3721.000000	99.287987 
3720.000000	99.287640 
3719.000000	99.285394 
3718.000000	99.281909 
3717.000000	99.278228 
3716.000000	99.275002 
3715.000000	99.272348 
3714.000000	99.270285 
3713.000000	99.269181 
3712.000000	99.269054 
3711.000000	99.269241 
3710.000000	99.269100 
3709.000000	99.268119 
3708.000000	99.265722 
3707.000000	99.261674 
3706.000000	99.256656 
3705.000000	99.252102 
3704.000000	99.249188 
3703.000000	99.247670 
3702.000000	99.245702 
3701.000000	99.241596 
3700.000000	99.235542 
3699.000000	99.229083 
3698.000000	99.223607 
3697.000000	99.219581 
3696.000000	99.216589 
3695.000000	99.214019 
3694.000000	99.211889 
3693.000000	99.210852 
3692.000000	99.211205 
3691.000000	99.212094 
3690.000000	99.211782 
3689.000000	99.209306 
3688.000000	99.205413 
3687.000000	99.201149 
3686.000000	99.196927 
3685.000000	99.193327 
3684.000000	99.191032 
3683.000000	99.189963 
3682.000000	99.189102 
3681.000000	99.187206 
3680.000000	99.183591 
3679.000000	99.178290 
3678.000000	99.172292 
3677.000000	99.168114 
3676.000000	99.168010 
3675.000000	99.170724 
3674.000000	99.172763 
3673.000000	99.172140 
3672.000000	99.169332 
3671.000000	99.166845 
3670.000000	99.166389 
3669.000000	99.167041 
3668.000000	99.167486 
3667.000000	99.167737 
3666.000000	99.168356 
3665.000000	99.169434 
3664.000000	99.170349 
3663.000000	99.170388 
3662.000000	99.169403 
3661.000000	99.167632 
3660.000000	99.165270 
3659.000000	99.162596 
3658.000000	99.160502 
3657.000000	99.160173 
3656.000000	99.161787 
3655.000000	99.164156 
3654.000000	99.165836 
3653.000000	99.166263 
3652.000000	99.165675 
3651.000000	99.164470 
3650.000000	99.162626 
3649.000000	99.160476 
3648.000000	99.159495 
3647.000000	99.160590 
3646.000000	99.163032 
3645.000000	99.165717 
3644.000000	99.168278 
3643.000000	99.170965 
3642.000000	99.174230 
3641.000000	99.178201 
3640.000000	99.182562 
3639.000000	99.186586 
3638.000000	99.189379 
3637.000000	99.190459 
3636.000000	99.190067 
3635.000000	99.188863 
3634.000000	99.187203 
3633.000000	99.185085 
3632.000000	99.182841 
3631.000000	99.181672 
3630.000000	99.182964 
3629.000000	99.185834 
3628.000000	99.187430 
3627.000000	99.187184 
3626.000000	99.186970 
3625.000000	99.188436 
3624.000000	99.191727 
3623.000000	99.195718 
3622.000000	99.199177 
3621.000000	99.201966 
3620.000000	99.204581 
3619.000000	99.206819 
3618.000000	99.207966 
3617.000000	99.208052 
3616.000000	99.207940 
3615.000000	99.208530 
3614.000000	99.209736 
3613.000000	99.210503 
3612.000000	99.210214 
3611.000000	99.209630 
3610.000000	99.210075 
3609.000000	99.211982 
3608.000000	99.214392 
3607.000000	99.216209 
3606.000000	99.217607 
3605.000000	99.219479 
3604.000000	99.222244 
3603.000000	99.225552 
3602.000000	99.228719 
3601.000000	99.231280 
3600.000000	99.232947 
3599.000000	99.233479 
3598.000000	99.232929 
3597.000000	99.231849 
3596.000000	99.231041 
3595.000000	99.231144 
3594.000000	99.232179 
3593.000000	99.233646 
3592.000000	99.234932 
3591.000000	99.235636 
3590.000000	99.235912 
3589.000000	99.236446 
3588.000000	99.237680 
3587.000000	99.239075 
3586.000000	99.239939 
3585.000000	99.240419 
3584.000000	99.241231 
3583.000000	99.242724 
3582.000000	99.244493 
3581.000000	99.245705 
3580.000000	99.245889 
3579.000000	99.245323 
3578.000000	99.244663 
3577.000000	99.244382 
3576.000000	99.244578 
3575.000000	99.245192 
3574.000000	99.246109 
3573.000000	99.247027 
3572.000000	99.247559 
3571.000000	99.247566 
3570.000000	99.247318 
3569.000000	99.247394 
3568.000000	99.248156 
3567.000000	99.249164 
3566.000000	99.249642 
3565.000000	99.249556 
3564.000000	99.249651 
3563.000000	99.250735 
3562.000000	99.252970 
3561.000000	99.255524 
3560.000000	99.257170 
3559.000000	99.257388 
3558.000000	99.256775 
3557.000000	99.256373 
3556.000000	99.256636 
3555.000000	99.257089 
3554.000000	99.256943 
3553.000000	99.255754 
3552.000000	99.253699 
3551.000000	99.251458 
3550.000000	99.249745 
3549.000000	99.248915 
3548.000000	99.249012 
3547.000000	99.249851 
3546.000000	99.251023 
3545.000000	99.251845 
3544.000000	99.251760 
3543.000000	99.250935 
3542.000000	99.250334 
3541.000000	99.250869 
3540.000000	99.252599 
3539.000000	99.254710 
3538.000000	99.256367 
3537.000000	99.257418 
3536.000000	99.258240 
3535.000000	99.259145 
3534.000000	99.260004 
3533.000000	99.260507 
3532.000000	99.260537 
3531.000000	99.260291 
3530.000000	99.260027 
3529.000000	99.259809 
3528.000000	99.259581 
3527.000000	99.259416 
3526.000000	99.259502 
3525.000000	99.259847 
3524.000000	99.260135 
3523.000000	99.260003 
3522.000000	99.259455 
3521.000000	99.258865 
3520.000000	99.258659 
3519.000000	99.259035 
3518.000000	99.259937 
3517.000000	99.261100 
3516.000000	99.262091 
3515.000000	99.262538 
3514.000000	99.262363 
3513.000000	99.261823 
3512.000000	99.261310 
3511.000000	99.261050 
3510.000000	99.261041 
3509.000000	99.261207 
3508.000000	99.261549 
3507.000000	99.262095 
3506.000000	99.262796 
3505.000000	99.263485 
3504.000000	99.263966 
3503.000000	99.264170 
3502.000000	99.264241 
3501.000000	99.264439 
3500.000000	99.264885 
3499.000000	99.265447 
3498.000000	99.265843 
3497.000000	99.265889 
3496.000000	99.265649 
3495.000000	99.265392 
3494.000000	99.265375 
3493.000000	99.265675 
3492.000000	99.266218 
3491.000000	99.266871 
3490.000000	99.267538 
3489.000000	99.268214 
3488.000000	99.268924 
3487.000000	99.269591 
3486.000000	99.270046 
3485.000000	99.270236 
3484.000000	99.270354 
3483.000000	99.270638 
3482.000000	99.271053 
3481.000000	99.271305 
3480.000000	99.271239 
3479.000000	99.271060 
3478.000000	99.271052 
3477.000000	99.271251 
3476.000000	99.271568 
3475.000000	99.272137 
3474.000000	99.273244 
3473.000000	99.274825 
3472.000000	99.276240 
3471.000000	99.276879 
3470.000000	99.276920 
3469.000000	99.277180 
3468.000000	99.278167 
3467.000000	99.279439 
3466.000000	99.280148 
3465.000000	99.280037 
3464.000000	99.279597 
3463.000000	99.279416 
3462.000000	99.279607 
3461.000000	99.279990 
3460.000000	99.280491 
3459.000000	99.281143 
3458.000000	99.281795 
3457.000000	99.282075 
3456.000000	99.281685 
3455.000000	99.280687 
3454.000000	99.279536 
3453.000000	99.278844 
3452.000000	99.278925 
3451.000000	99.279597 
3450.000000	99.280345 
3449.000000	99.280733 
3448.000000	99.280635 
3447.000000	99.280108 
3446.000000	99.279228 
3445.000000	99.278144 
3444.000000	99.277172 
3443.000000	99.276637 
3442.000000	99.276592 
3441.000000	99.276769 
3440.000000	99.276864 
3439.000000	99.276810 
3438.000000	99.276696 
3437.000000	99.276537 
3436.000000	99.276244 
3435.000000	99.275820 
3434.000000	99.275448 
3433.000000	99.275326 
3432.000000	99.275456 
3431.000000	99.275632 
3430.000000	99.275646 
3429.000000	99.275478 
3428.000000	99.275273 
3427.000000	99.275150 
3426.000000	99.275062 
3425.000000	99.274863 
3424.000000	99.274485 
3423.000000	99.273991 
3422.000000	99.273525 
3421.000000	99.273188 
3420.000000	99.272992 
3419.000000	99.272896 
3418.000000	99.272849 
3417.000000	99.272801 
3416.000000	99.272704 
3415.000000	99.272530 
3414.000000	99.272290 
3413.000000	99.272036 
3412.000000	99.271827 
3411.000000	99.271702 
3410.000000	99.271664 
3409.000000	99.271674 
3408.000000	99.271652 
3407.000000	99.271521 
3406.000000	99.271261 
3405.000000	99.270947 
3404.000000	99.270714 
3403.000000	99.270653 
3402.000000	99.270725 
3401.000000	99.270801 
3400.000000	99.270796 
3399.000000	99.270756 
3398.000000	99.270778 
3397.000000	99.270879 
3396.000000	99.270962 
3395.000000	99.270904 
3394.000000	99.270643 
3393.000000	99.270188 
3392.000000	99.269626 
3391.000000	99.269142 
3390.000000	99.268953 
3389.000000	99.269174 
3388.000000	99.269724 
3387.000000	99.270351 
3386.000000	99.270801 
3385.000000	99.270988 
3384.000000	99.270988 
3383.000000	99.270912 
3382.000000	99.270744 
3381.000000	99.270376 
3380.000000	99.269795 
3379.000000	99.269181 
3378.000000	99.268792 
3377.000000	99.268725 
3376.000000	99.268850 
3375.000000	99.268949 
3374.000000	99.268928 
3373.000000	99.268879 
3372.000000	99.268949 
3371.000000	99.269177 
3370.000000	99.269447 
3369.000000	99.269561 
3368.000000	99.269399 
3367.000000	99.269023 
3366.000000	99.268629 
3365.000000	99.268370 
3364.000000	99.268237 
3363.000000	99.268120 
3362.000000	99.267944 
3361.000000	99.267719 
3360.000000	99.267482 
3359.000000	99.267220 
3358.000000	99.266903 
3357.000000	99.266568 
3356.000000	99.266307 
3355.000000	99.266163 
3354.000000	99.266061 
3353.000000	99.265866 
3352.000000	99.265523 
3351.000000	99.265098 
3350.000000	99.264743 
3349.000000	99.264549 
3348.000000	99.264504 
3347.000000	99.264508 
3346.000000	99.264437 
3345.000000	99.264240 
3344.000000	99.263958 
3343.000000	99.263686 
3342.000000	99.263488 
3341.000000	99.263322 
3340.000000	99.263068 
3339.000000	99.262648 
3338.000000	99.262129 
3337.000000	99.261683 
3336.000000	99.261431 
3335.000000	99.261340 
3334.000000	99.261281 
3333.000000	99.261187 
3332.000000	99.261107 
3331.000000	99.261098 
3330.000000	99.261107 
3329.000000	99.260984 
3328.000000	99.260637 
3327.000000	99.260118 
3326.000000	99.259562 
3325.000000	99.259042 
3324.000000	99.258512 
3323.000000	99.257920 
3322.000000	99.257352 
3321.000000	99.256994 
3320.000000	99.256939 
3319.000000	99.257091 
3318.000000	99.257281 
3317.000000	99.257416 
3316.000000	99.257464 
3315.000000	99.257375 
3314.000000	99.257122 
3313.000000	99.256819 
3312.000000	99.256669 
3311.000000	99.256748 
3310.000000	99.256886 
3309.000000	99.256829 
3308.000000	99.256484 
3307.000000	99.255950 
3306.000000	99.255390 
3305.000000	99.254946 
3304.000000	99.254732 
3303.000000	99.254785 
3302.000000	99.254942 
3301.000000	99.254866 
3300.000000	99.254336 
3299.000000	99.253445 
3298.000000	99.252551 
3297.000000	99.251971 
3296.000000	99.251746 
3295.000000	99.251671 
3294.000000	99.251498 
3293.000000	99.251152 
3292.000000	99.250758 
3291.000000	99.250451 
3290.000000	99.250179 
3289.000000	99.249753 
3288.000000	99.249075 
3287.000000	99.248255 
3286.000000	99.247505 
3285.000000	99.246925 
3284.000000	99.246449 
3283.000000	99.245959 
3282.000000	99.245446 
3281.000000	99.245029 
3280.000000	99.244850 
3279.000000	99.244937 
3278.000000	99.245170 
3277.000000	99.245340 
3276.000000	99.245264 
3275.000000	99.244857 
3274.000000	99.244141 
3273.000000	99.243238 
3272.000000	99.242344 
3271.000000	99.241645 
3270.000000	99.241194 
3269.000000	99.240874 
3268.000000	99.240508 
3267.000000	99.239997 
3266.000000	99.239357 
3265.000000	99.238682 
3264.000000	99.238151 
3263.000000	99.238039 
3262.000000	99.238572 
3261.000000	99.239679 
3260.000000	99.240882 
3259.000000	99.241545 
3258.000000	99.241307 
3257.000000	99.240285 
3256.000000	99.238966 
3255.000000	99.237828 
3254.000000	99.237084 
3253.000000	99.236752 
3252.000000	99.236858 
3251.000000	99.237453 
3250.000000	99.238428 
3249.000000	99.239422 
3248.000000	99.240002 
3247.000000	99.239934 
3246.000000	99.239320 
3245.000000	99.238540 
3244.000000	99.238019 
3243.000000	99.237939 
3242.000000	99.238117 
3241.000000	99.238193 
3240.000000	99.238007 
3239.000000	99.237804 
3238.000000	99.238037 
3237.000000	99.238980 
3236.000000	99.240512 
3235.000000	99.242155 
3234.000000	99.243299 
3233.000000	99.243509 
3232.000000	99.242765 
3231.000000	99.241510 
3230.000000	99.240387 
3229.000000	99.239801 
3228.000000	99.239712 
3227.000000	99.239780 
3226.000000	99.239649 
3225.000000	99.239191 
3224.000000	99.238548 
3223.000000	99.238010 
3222.000000	99.237789 
3221.000000	99.237838 
3220.000000	99.237878 
3219.000000	99.237629 
3218.000000	99.237110 
3217.000000	99.236724 
3216.000000	99.237000 
3215.000000	99.238146 
3214.000000	99.239794 
3213.000000	99.241220 
3212.000000	99.241862 
3211.000000	99.241617 
3210.000000	99.240734 
3209.000000	99.239601 
3208.000000	99.238625 
3207.000000	99.238115 
3206.000000	99.238097 
3205.000000	99.238250 
3204.000000	99.238232 
3203.000000	99.238095 
3202.000000	99.238197 
3201.000000	99.238715 
3200.000000	99.239420 
3199.000000	99.239997 
3198.000000	99.240397 
3197.000000	99.240754 
3196.000000	99.241126 
3195.000000	99.241451 
3194.000000	99.241664 
3193.000000	99.241672 
3192.000000	99.241299 
3191.000000	99.240433 
3190.000000	99.239245 
3189.000000	99.238161 
3188.000000	99.237542 
3187.000000	99.237496 
3186.000000	99.237944 
3185.000000	99.238708 
3184.000000	99.239523 
3183.000000	99.240067 
3182.000000	99.240164 
3181.000000	99.239965 
3180.000000	99.239863 
3179.000000	99.240189 
3178.000000	99.240918 
3177.000000	99.241636 
3176.000000	99.241864 
3175.000000	99.241548 
3174.000000	99.241144 
3173.000000	99.241084 
3172.000000	99.241141 
3171.000000	99.240633 
3170.000000	99.239342 
3169.000000	99.237971 
3168.000000	99.237457 
3167.000000	99.237978 
3166.000000	99.238931 
3165.000000	99.239687 
3164.000000	99.240119 
3163.000000	99.240368 
3162.000000	99.240428 
3161.000000	99.240199 
3160.000000	99.239782 
3159.000000	99.239448 
3158.000000	99.239283 
3157.000000	99.239003 
3156.000000	99.238233 
3155.000000	99.236875 
3154.000000	99.235114 
3153.000000	99.233157 
3152.000000	99.231172 
3151.000000	99.229544 
3150.000000	99.228889 
3149.000000	99.229564 
3148.000000	99.231197 
3147.000000	99.232893 
3146.000000	99.234047 
3145.000000	99.234768 
3144.000000	99.235452 
3143.000000	99.236190 
3142.000000	99.236729 
3141.000000	99.236873 
3140.000000	99.236699 
3139.000000	99.236385 
3138.000000	99.235973 
3137.000000	99.235436 
3136.000000	99.234912 
3135.000000	99.234751 
3134.000000	99.235215 
3133.000000	99.236121 
3132.000000	99.236854 
3131.000000	99.236885 
3130.000000	99.236265 
3129.000000	99.235554 
3128.000000	99.235307 
3127.000000	99.235671 
3126.000000	99.236463 
3125.000000	99.237391 
3124.000000	99.238124 
3123.000000	99.238341 
3122.000000	99.237939 
3121.000000	99.237223 
3120.000000	99.236712 
3119.000000	99.236701 
3118.000000	99.237101 
3117.000000	99.237657 
3116.000000	99.238184 
3115.000000	99.238563 
3114.000000	99.238673 
3113.000000	99.238442 
3112.000000	99.237932 
3111.000000	99.237309 
3110.000000	99.236751 
3109.000000	99.236426 
3108.000000	99.236454 
3107.000000	99.236792 
3106.000000	99.237200 
3105.000000	99.237458 
3104.000000	99.237594 
3103.000000	99.237831 
3102.000000	99.238297 
3101.000000	99.238866 
3100.000000	99.239328 
3099.000000	99.239657 
3098.000000	99.240020 
3097.000000	99.240514 
3096.000000	99.240974 
3095.000000	99.241049 
3094.000000	99.240476 
3093.000000	99.239276 
3092.000000	99.237769 
3091.000000	99.236415 
3090.000000	99.235570 
3089.000000	99.235361 
3088.000000	99.235695 
3087.000000	99.236294 
3086.000000	99.236826 
3085.000000	99.237042 
3084.000000	99.236817 
3083.000000	99.236089 
3082.000000	99.234857 
3081.000000	99.233372 
3080.000000	99.232243 
3079.000000	99.232132 
3078.000000	99.233262 
3077.000000	99.235240 
3076.000000	99.237328 
3075.000000	99.238840 
3074.000000	99.239329 
3073.000000	99.238720 
3072.000000	99.237378 
3071.000000	99.235804 
3070.000000	99.234093 
3069.000000	99.231884 
3068.000000	99.229101 
3067.000000	99.226627 
3066.000000	99.225920 
3065.000000	99.227838 
3064.000000	99.231745 
3063.000000	99.235665 
3062.000000	99.237374 
3061.000000	99.235739 
3060.000000	99.231497 
3059.000000	99.226887 
3058.000000	99.224214 
3057.000000	99.224435 
3056.000000	99.226808 
3055.000000	99.229616 
3054.000000	99.231238 
3053.000000	99.230945 
3052.000000	99.229078 
3051.000000	99.226619 
3050.000000	99.224531 
3049.000000	99.223437 
3048.000000	99.223555 
3047.000000	99.224335 
3046.000000	99.224097 
3045.000000	99.220905 
3044.000000	99.214640 
3043.000000	99.208036 
3042.000000	99.204766 
3041.000000	99.206055 
3040.000000	99.209492 
3039.000000	99.211343 
3038.000000	99.209647 
3037.000000	99.204910 
3036.000000	99.198522 
3035.000000	99.191276 
3034.000000	99.183461 
3033.000000	99.175609 
3032.000000	99.168459 
3031.000000	99.162138 
3030.000000	99.155890 
3029.000000	99.149095 
3028.000000	99.142475 
3027.000000	99.137792 
3026.000000	99.135969 
3025.000000	99.135552 
3024.000000	99.133506 
3023.000000	99.127788 
3022.000000	99.118957 
3021.000000	99.109081 
3020.000000	99.099274 
3019.000000	99.088792 
3018.000000	99.076750 
3017.000000	99.064047 
3016.000000	99.052762 
3015.000000	99.043644 
3014.000000	99.035132 
3013.000000	99.025378 
3012.000000	99.014678 
3011.000000	99.005021 
3010.000000	98.997395 
3009.000000	98.990472 
3008.000000	98.982193 
3007.000000	98.971912 
3006.000000	98.960585 
3005.000000	98.949359 
3004.000000	98.938640 
3003.000000	98.928321 
3002.000000	98.918340 
3001.000000	98.908868 
3000.000000	98.900200 
2999.000000	98.892569 
2998.000000	98.886044 
2997.000000	98.880592 
2996.000000	98.876038 
2995.000000	98.871506 
2994.000000	98.864898 
2993.000000	98.853705 
2992.000000	98.837069 
2991.000000	98.817156 
2990.000000	98.798249 
2989.000000	98.784509 
2988.000000	98.778392 
2987.000000	98.780221 
2986.000000	98.788065 
2985.000000	98.798051 
2984.000000	98.805783 
2983.000000	98.808507 
2982.000000	98.806301 
2981.000000	98.801610 
2980.000000	98.797692 
2979.000000	98.796909 
2978.000000	98.799470 
2977.000000	98.803318 
2976.000000	98.805553 
2975.000000	98.804493 
2974.000000	98.800686 
2973.000000	98.796280 
2972.000000	98.793704 
2971.000000	98.794645 
2970.000000	98.799484 
2969.000000	98.807170 
2968.000000	98.815870 
2967.000000	98.824208 
2966.000000	98.832038 
2965.000000	98.840011 
2964.000000	98.848489 
2963.000000	98.857028 
2962.000000	98.864801 
2961.000000	98.871330 
2960.000000	98.876684 
2959.000000	98.881163 
2958.000000	98.885040 
2957.000000	98.888647 
2956.000000	98.892381 
2955.000000	98.896370 
2954.000000	98.900363 
2953.000000	98.904324 
2952.000000	98.908939 
2951.000000	98.914926 
2950.000000	98.921729 
2949.000000	98.927524 
2948.000000	98.930910 
2947.000000	98.932266 
2946.000000	98.933266 
2945.000000	98.935424 
2944.000000	98.939206 
2943.000000	98.943877 
2942.000000	98.947664 
2941.000000	98.948642 
2940.000000	98.946457 
2939.000000	98.943376 
2938.000000	98.942895 
2937.000000	98.946827 
2936.000000	98.953893 
2935.000000	98.960991 
2934.000000	98.965571 
2933.000000	98.966912 
2932.000000	98.965830 
2931.000000	98.963559 
2930.000000	98.960935 
2929.000000	98.958523 
2928.000000	98.956982 
2927.000000	98.956546 
2926.000000	98.956117 
2925.000000	98.953892 
2924.000000	98.949517 
2923.000000	98.944910 
2922.000000	98.942096 
2921.000000	98.940665 
2920.000000	98.938368 
2919.000000	98.933885 
2918.000000	98.928094 
2917.000000	98.922715 
2916.000000	98.918670 
2915.000000	98.915853 
2914.000000	98.913642 
2913.000000	98.911318 
2912.000000	98.908599 
2911.000000	98.905982 
2910.000000	98.904063 
2909.000000	98.902509 
2908.000000	98.900208 
2907.000000	98.896500 
2906.000000	98.891543 
2905.000000	98.885441 
2904.000000	98.877976 
2903.000000	98.869871 
2902.000000	98.863701 
2901.000000	98.862999 
2900.000000	98.869455 
2899.000000	98.881647 
2898.000000	98.895234 
2897.000000	98.905211 
2896.000000	98.909168 
2895.000000	98.908869 
2894.000000	98.908379 
2893.000000	98.910233 
2892.000000	98.913766 
2891.000000	98.916951 
2890.000000	98.918938 
2889.000000	98.920239 
2888.000000	98.921353 
2887.000000	98.922291 
2886.000000	98.923209 
2885.000000	98.924633 
2884.000000	98.927038 
2883.000000	98.930788 
2882.000000	98.936444 
2881.000000	98.944470 
2880.000000	98.954427 
2879.000000	98.964812 
2878.000000	98.973956 
2877.000000	98.981116 
2876.000000	98.986776 
2875.000000	98.992038 
2874.000000	98.997639 
2873.000000	99.003370 
2872.000000	99.008465 
2871.000000	99.012522 
2870.000000	99.015860 
2869.000000	99.019139 
2868.000000	99.023089 
2867.000000	99.028562 
2866.000000	99.036057 
2865.000000	99.044783 
2864.000000	99.052825 
2863.000000	99.058850 
2862.000000	99.063233 
2861.000000	99.067050 
2860.000000	99.070648 
2859.000000	99.074020 
2858.000000	99.077962 
2857.000000	99.083506 
2856.000000	99.090210 
2855.000000	99.096225 
2854.000000	99.100424 
2853.000000	99.103652 
2852.000000	99.107451 
2851.000000	99.112265 
2850.000000	99.117540 
2849.000000	99.122938 
2848.000000	99.128646 
2847.000000	99.134689 
2846.000000	99.140533 
2845.000000	99.145395 
2844.000000	99.148655 
2843.000000	99.150086 
2842.000000	99.150106 
2841.000000	99.149942 
2840.000000	99.151184 
2839.000000	99.154723 
2838.000000	99.160011 
2837.000000	99.165426 
2836.000000	99.169545 
2835.000000	99.172141 
2834.000000	99.173922 
2833.000000	99.175379 
2832.000000	99.176144 
2831.000000	99.175658 
2830.000000	99.174176 
2829.000000	99.172747 
2828.000000	99.172300 
2827.000000	99.173093 
2826.000000	99.175016 
2825.000000	99.177906 
2824.000000	99.181383 
2823.000000	99.184744 
2822.000000	99.187383 
2821.000000	99.189198 
2820.000000	99.190378 
2819.000000	99.190944 
2818.000000	99.190733 
2817.000000	99.189875 
2816.000000	99.189050 
2815.000000	99.189093 
2814.000000	99.190269 
2813.000000	99.191978 
2812.000000	99.193321 
2811.000000	99.194028 
2810.000000	99.194696 
2809.000000	99.195992 
2808.000000	99.197763 
2807.000000	99.199130 
2806.000000	99.199369 
2805.000000	99.198472 
2804.000000	99.197014 
2803.000000	99.195790 
2802.000000	99.195550 
2801.000000	99.196580 
2800.000000	99.198328 
2799.000000	99.199712 
2798.000000	99.200071 
2797.000000	99.199665 
2796.000000	99.199158 
2795.000000	99.198858 
2794.000000	99.198717 
2793.000000	99.198828 
2792.000000	99.199432 
2791.000000	99.200482 
2790.000000	99.201550 
2789.000000	99.202281 
2788.000000	99.202759 
2787.000000	99.203287 
2786.000000	99.203919 
2785.000000	99.204365 
2784.000000	99.204340 
2783.000000	99.203878 
2782.000000	99.203288 
2781.000000	99.202921 
2780.000000	99.202966 
2779.000000	99.203393 
2778.000000	99.204026 
2777.000000	99.204721 
2776.000000	99.205506 
2775.000000	99.206473 
2774.000000	99.207530 
2773.000000	99.208359 
2772.000000	99.208719 
2771.000000	99.208722 
2770.000000	99.208689 
2769.000000	99.208764 
2768.000000	99.208827 
2767.000000	99.208804 
2766.000000	99.208862 
2765.000000	99.209159 
2764.000000	99.209501 
2763.000000	99.209463 
2762.000000	99.208882 
2761.000000	99.208099 
2760.000000	99.207678 
2759.000000	99.207855 
2758.000000	99.208440 
2757.000000	99.209110 
2756.000000	99.209703 
2755.000000	99.210180 
2754.000000	99.210464 
2753.000000	99.210473 
2752.000000	99.210274 
2751.000000	99.210111 
2750.000000	99.210213 
2749.000000	99.210628 
2748.000000	99.211215 
2747.000000	99.211785 
2746.000000	99.212237 
2745.000000	99.212591 
2744.000000	99.212905 
2743.000000	99.213190 
2742.000000	99.213420 
2741.000000	99.213604 
2740.000000	99.213801 
2739.000000	99.214052 
2738.000000	99.214338 
2737.000000	99.214636 
2736.000000	99.214958 
2735.000000	99.215310 
2734.000000	99.215641 
2733.000000	99.215890 
2732.000000	99.216063 
2731.000000	99.216235 
2730.000000	99.216474 
2729.000000	99.216774 
2728.000000	99.217088 
2727.000000	99.217378 
2726.000000	99.217641 
2725.000000	99.217900 
2724.000000	99.218186 
2723.000000	99.218520 
2722.000000	99.218905 
2721.000000	99.219324 
2720.000000	99.219738 
2719.000000	99.220100 
2718.000000	99.220386 
2717.000000	99.220604 
2716.000000	99.220796 
2715.000000	99.221009 
2714.000000	99.221267 
2713.000000	99.221567 
2712.000000	99.221892 
2711.000000	99.222225 
2710.000000	99.222557 
2709.000000	99.222880 
2708.000000	99.223185 
2707.000000	99.223461 
2706.000000	99.223695 
2705.000000	99.223886 
2704.000000	99.224058 
2703.000000	99.224258 
2702.000000	99.224507 
2701.000000	99.224777 
2700.000000	99.225016 
2699.000000	99.225210 
2698.000000	99.225409 
2697.000000	99.225667 
2696.000000	99.225986 
2695.000000	99.226306 
2694.000000	99.226557 
2693.000000	99.226715 
2692.000000	99.226833 
2691.000000	99.226971 
2690.000000	99.227117 
2689.000000	99.227203 
2688.000000	99.227212 
2687.000000	99.227236 
2686.000000	99.227388 
2685.000000	99.227689 
2684.000000	99.228072 
2683.000000	99.228440 
2682.000000	99.228715 
2681.000000	99.228860 
2680.000000	99.228898 
2679.000000	99.228916 
2678.000000	99.229015 
2677.000000	99.229241 
2676.000000	99.229589 
2675.000000	99.230026 
2674.000000	99.230483 
2673.000000	99.230858 
2672.000000	99.231079 
2671.000000	99.231174 
2670.000000	99.231260 
2669.000000	99.231432 
2668.000000	99.231678 
2667.000000	99.231929 
2666.000000	99.232154 
2665.000000	99.232381 
2664.000000	99.232646 
2663.000000	99.232961 
2662.000000	99.233325 
2661.000000	99.233727 
2660.000000	99.234159 
2659.000000	99.234614 
2658.000000	99.235071 
2657.000000	99.235492 
2656.000000	99.235862 
2655.000000	99.236215 
2654.000000	99.236584 
2653.000000	99.236955 
2652.000000	99.237310 
2651.000000	99.237679 
2650.000000	99.238106 
2649.000000	99.238560 
2648.000000	99.238945 
2647.000000	99.239232 
2646.000000	99.239503 
2645.000000	99.239847 
2644.000000	99.240272 
2643.000000	99.240709 
2642.000000	99.241082 
2641.000000	99.241374 
2640.000000	99.241633 
2639.000000	99.241931 
2638.000000	99.242300 
2637.000000	99.242716 
2636.000000	99.243116 
2635.000000	99.243446 
2634.000000	99.243701 
2633.000000	99.243898 
2632.000000	99.244045 
2631.000000	99.244170 
2630.000000	99.244348 
2629.000000	99.244629 
2628.000000	99.244943 
2627.000000	99.245189 
2626.000000	99.245431 
2625.000000	99.245850 
2624.000000	99.246495 
2623.000000	99.247166 
2622.000000	99.247613 
2621.000000	99.247774 
2620.000000	99.247772 
2619.000000	99.247745 
2618.000000	99.247756 
2617.000000	99.247826 
2616.000000	99.247950 
2615.000000	99.248069 
2614.000000	99.248133 
2613.000000	99.248220 
2612.000000	99.248480 
2611.000000	99.248937 
2610.000000	99.249396 
2609.000000	99.249599 
2608.000000	99.249471 
2607.000000	99.249206 
2606.000000	99.249144 
2605.000000	99.249534 
2604.000000	99.250341 
2603.000000	99.251193 
2602.000000	99.251626 
2601.000000	99.251505 
2600.000000	99.251149 
2599.000000	99.250983 
2598.000000	99.251065 
2597.000000	99.251028 
2596.000000	99.250516 
2595.000000	99.249549 
2594.000000	99.248484 
2593.000000	99.247705 
2592.000000	99.247360 
2591.000000	99.247382 
2590.000000	99.247634 
2589.000000	99.248008 
2588.000000	99.248401 
2587.000000	99.248628 
2586.000000	99.248492 
2585.000000	99.247973 
2584.000000	99.247296 
2583.000000	99.246770 
2582.000000	99.246523 
2581.000000	99.246453 
2580.000000	99.246383 
2579.000000	99.246201 
2578.000000	99.245849 
2577.000000	99.245299 
2576.000000	99.244606 
2575.000000	99.243937 
2574.000000	99.243469 
2573.000000	99.243272 
2572.000000	99.243305 
2571.000000	99.243457 
2570.000000	99.243540 
2569.000000	99.243331 
2568.000000	99.242751 
2567.000000	99.241977 
2566.000000	99.241294 
2565.000000	99.240832 
2564.000000	99.240509 
2563.000000	99.240217 
2562.000000	99.239926 
2561.000000	99.239614 
2560.000000	99.239186 
2559.000000	99.238534 
2558.000000	99.237647 
2557.000000	99.236684 
2556.000000	99.235981 
2555.000000	99.235892 
2554.000000	99.236513 
2553.000000	99.237466 
2552.000000	99.238084 
2551.000000	99.238008 
2550.000000	99.237378 
2549.000000	99.236469 
2548.000000	99.235306 
2547.000000	99.233811 
2546.000000	99.232150 
2545.000000	99.230717 
2544.000000	99.229824 
2543.000000	99.229492 
2542.000000	99.229452 
2541.000000	99.229331 
2540.000000	99.228954 
2539.000000	99.228513 
2538.000000	99.228329 
2537.000000	99.228391 
2536.000000	99.228299 
2535.000000	99.227751 
2534.000000	99.226919 
2533.000000	99.226164 
2532.000000	99.225534 
2531.000000	99.224809 
2530.000000	99.224009 
2529.000000	99.223518 
2528.000000	99.223542 
2527.000000	99.223726 
2526.000000	99.223502 
2525.000000	99.222832 
2524.000000	99.222338 
2523.000000	99.222581 
2522.000000	99.223472 
2521.000000	99.224432 
2520.000000	99.224962 
2519.000000	99.224953 
2518.000000	99.224498 
2517.000000	99.223696 
2516.000000	99.222717 
2515.000000	99.221875 
2514.000000	99.221449 
2513.000000	99.221483 
2512.000000	99.221834 
2511.000000	99.222350 
2510.000000	99.222909 
2509.000000	99.223368 
2508.000000	99.223646 
2507.000000	99.223832 
2506.000000	99.224061 
2505.000000	99.224306 
2504.000000	99.224398 
2503.000000	99.224273 
2502.000000	99.224098 
2501.000000	99.224106 
2500.000000	99.224386 
2499.000000	99.224872 
2498.000000	99.225424 
2497.000000	99.225868 
2496.000000	99.226059 
2495.000000	99.225991 
2494.000000	99.225824 
2493.000000	99.225749 
2492.000000	99.225800 
2491.000000	99.225884 
2490.000000	99.225961 
2489.000000	99.226117 
2488.000000	99.226460 
2487.000000	99.226988 
2486.000000	99.227509 
2485.000000	99.227719 
2484.000000	99.227459 
2483.000000	99.226835 
2482.000000	99.226176 
2481.000000	99.225745 
2480.000000	99.225549 
2479.000000	99.225445 
2478.000000	99.225294 
2477.000000	99.225082 
2476.000000	99.224864 
2475.000000	99.224695 
2474.000000	99.224609 
2473.000000	99.224601 
2472.000000	99.224587 
2471.000000	99.224449 
2470.000000	99.224142 
2469.000000	99.223738 
2468.000000	99.223343 
2467.000000	99.223000 
2466.000000	99.222679 
2465.000000	99.222351 
2464.000000	99.222030 
2463.000000	99.221747 
2462.000000	99.221519 
2461.000000	99.221330 
2460.000000	99.221118 
2459.000000	99.220807 
2458.000000	99.220372 
2457.000000	99.219882 
2456.000000	99.219422 
2455.000000	99.219009 
2454.000000	99.218635 
2453.000000	99.218337 
2452.000000	99.218127 
2451.000000	99.217875 
2450.000000	99.217382 
2449.000000	99.216613 
2448.000000	99.215813 
2447.000000	99.215313 
2446.000000	99.215237 
2445.000000	99.215425 
2444.000000	99.215573 
2443.000000	99.215445 
2442.000000	99.214965 
2441.000000	99.214251 
2440.000000	99.213589 
2439.000000	99.213270 
2438.000000	99.213381 
2437.000000	99.213706 
2436.000000	99.213894 
2435.000000	99.213740 
2434.000000	99.213328 
2433.000000	99.212959 
2432.000000	99.212923 
2431.000000	99.213285 
2430.000000	99.213802 
2429.000000	99.214044 
2428.000000	99.213665 
2427.000000	99.212669 
2426.000000	99.211489 
2425.000000	99.210721 
2424.000000	99.210661 
2423.000000	99.211164 
2422.000000	99.211946 
2421.000000	99.212891 
2420.000000	99.213871 
2419.000000	99.214361 
2418.000000	99.213728 
2417.000000	99.211939 
2416.000000	99.209786 
2415.000000	99.208208 
2414.000000	99.207417 
2413.000000	99.207000 
2412.000000	99.206550 
2411.000000	99.205993 
2410.000000	99.205436 
2409.000000	99.204938 
2408.000000	99.204472 
2407.000000	99.203952 
2406.000000	99.203280 
2405.000000	99.202484 
2404.000000	99.201776 
2403.000000	99.201330 
2402.000000	99.201013 
2401.000000	99.200481 
2400.000000	99.199564 
2399.000000	99.198418 
2398.000000	99.197313 
2397.000000	99.196406 
2396.000000	99.195725 
2395.000000	99.195222 
2394.000000	99.194770 
2393.000000	99.194217 
2392.000000	99.193545 
2391.000000	99.192865 
2390.000000	99.192227 
2389.000000	99.191554 
2388.000000	99.190820 
2387.000000	99.190181 
2386.000000	99.189788 
2385.000000	99.189565 
2384.000000	99.189286 
2383.000000	99.188820 
2382.000000	99.188206 
2381.000000	99.187523 
2380.000000	99.186811 
2379.000000	99.186117 
2378.000000	99.185562 
2377.000000	99.185223 
2376.000000	99.185047 
2375.000000	99.184919 
2374.000000	99.184741 
2373.000000	99.184493 
2372.000000	99.184196 
2371.000000	99.183885 
2370.000000	99.183598 
2369.000000	99.183380 
2368.000000	99.183258 
2367.000000	99.183226 
2366.000000	99.183255 
2365.000000	99.183311 
2364.000000	99.183369 
2363.000000	99.183416 
2362.000000	99.183457 
2361.000000	99.183508 
2360.000000	99.183580 
2359.000000	99.183676 
2358.000000	99.183803 
2357.000000	99.183963 
2356.000000	99.184156 
2355.000000	99.184377 
2354.000000	99.184620 
2353.000000	99.184880 
2352.000000	99.185150 
2351.000000	99.185429 
2350.000000	99.185719 
2349.000000	99.186026 
2348.000000	99.186352 
2347.000000	99.186701 
2346.000000	99.187073 
2345.000000	99.187463 
2344.000000	99.187869 
2343.000000	99.188293 
2342.000000	99.188745 
2341.000000	99.189232 
2340.000000	99.189761 
2339.000000	99.190337 
2338.000000	99.190956 
2337.000000	99.191603 
2336.000000	99.192258 
2335.000000	99.192910 
2334.000000	99.193565 
2333.000000	99.194242 
2332.000000	99.194956 
2331.000000	99.195715 
2330.000000	99.196515 
2329.000000	99.197353 
2328.000000	99.198227 
2327.000000	99.199129 
2326.000000	99.200069 
2325.000000	99.201061 
2324.000000	99.202059 
2323.000000	99.202967 
2322.000000	99.203777 
2321.000000	99.204645 
2320.000000	99.205612 
2319.000000	99.206472 
2318.000000	99.207059 
2317.000000	99.207574 
2316.000000	99.208296 
2315.000000	99.209237 
2314.000000	99.210199 
2313.000000	99.211198 
2312.000000	99.212406 
2311.000000	99.213886 
2310.000000	99.215398 
2309.000000	99.216635 
2308.000000	99.217455 
2307.000000	99.218043 
2306.000000	99.218733 
2305.000000	99.219789 
2304.000000	99.221304 
2303.000000	99.223335 
2302.000000	99.225718 
2301.000000	99.227979 
2300.000000	99.229694 
2299.000000	99.231182 
2298.000000	99.233137 
2297.000000	99.235557 
2296.000000	99.237320 
2295.000000	99.237657 
2294.000000	99.237299 
2293.000000	99.237845 
2292.000000	99.239990 
2291.000000	99.243088 
2290.000000	99.245987 
2289.000000	99.247799 
2288.000000	99.248156 
2287.000000	99.247393 
2286.000000	99.246502 
2285.000000	99.246153 
2284.000000	99.246012 
2283.000000	99.245513 
2282.000000	99.244998 
2281.000000	99.245280 
2280.000000	99.246331 
2279.000000	99.247169 
2278.000000	99.247108 
2277.000000	99.246490 
2276.000000	99.246083 
2275.000000	99.246373 
2274.000000	99.247387 
2273.000000	99.248698 
2272.000000	99.249595 
2271.000000	99.249711 
2270.000000	99.249474 
2269.000000	99.249587 
2268.000000	99.250109 
2267.000000	99.250505 
2266.000000	99.250469 
2265.000000	99.250120 
2264.000000	99.249318 
2263.000000	99.247547 
2262.000000	99.244963 
2261.000000	99.242908 
2260.000000	99.242705 
2259.000000	99.244272 
2258.000000	99.246173 
2257.000000	99.247215 
2256.000000	99.247410 
2255.000000	99.247357 
2254.000000	99.247335 
2253.000000	99.247264 
2252.000000	99.247185 
2251.000000	99.247309 
2250.000000	99.247591 
2249.000000	99.247662 
2248.000000	99.247284 
2247.000000	99.246731 
2246.000000	99.246412 
2245.000000	99.246415 
2244.000000	99.246572 
2243.000000	99.246844 
2242.000000	99.247340 
2241.000000	99.248005 
2240.000000	99.248674 
2239.000000	99.249347 
2238.000000	99.250098 
2237.000000	99.250697 
2236.000000	99.250702 
2235.000000	99.250032 
2234.000000	99.249144 
2233.000000	99.248594 
2232.000000	99.248517 
2231.000000	99.248705 
2230.000000	99.248950 
2229.000000	99.249190 
2228.000000	99.249430 
2227.000000	99.249697 
2226.000000	99.250072 
2225.000000	99.250633 
2224.000000	99.251367 
2223.000000	99.252205 
2222.000000	99.253073 
2221.000000	99.253842 
2220.000000	99.254329 
2219.000000	99.254460 
2218.000000	99.254487 
2217.000000	99.254867 
2216.000000	99.255793 
2215.000000	99.256987 
2214.000000	99.257961 
2213.000000	99.258543 
2212.000000	99.258922 
2211.000000	99.259349 
2210.000000	99.259973 
2209.000000	99.260949 
2208.000000	99.262400 
2207.000000	99.264072 
2206.000000	99.265201 
2205.000000	99.265020 
2204.000000	99.263689 
2203.000000	99.262683 
2202.000000	99.263656 
2201.000000	99.266662 
2200.000000	99.269644 
2199.000000	99.270309 
2198.000000	99.268416 
2197.000000	99.266009 
2196.000000	99.265409 
2195.000000	99.267327 
2194.000000	99.271000 
2193.000000	99.275384 
2192.000000	99.279604 
2191.000000	99.282914 
2190.000000	99.285276 
2189.000000	99.287722 
2188.000000	99.290720 
2187.000000	99.292043 
2186.000000	99.288042 
2185.000000	99.277882 
2184.000000	99.265557 
2183.000000	99.256462 
2182.000000	99.252582 
2181.000000	99.252249 
2180.000000	99.253410 
2179.000000	99.255532 
2178.000000	99.258644 
2177.000000	99.262457 
2176.000000	99.266733 
2175.000000	99.270995 
2174.000000	99.273791 
2173.000000	99.274184 
2172.000000	99.274400 
2171.000000	99.278619 
2170.000000	99.287949 
2169.000000	99.298529 
2168.000000	99.306238 
2167.000000	99.311398 
2166.000000	99.316450 
2165.000000	99.320968 
2164.000000	99.322603 
2163.000000	99.321880 
2162.000000	99.321415 
2161.000000	99.319607 
2160.000000	99.309866 
2159.000000	99.288996 
2158.000000	99.263132 
2157.000000	99.241876 
2156.000000	99.228757 
2155.000000	99.221858 
2154.000000	99.220338 
2153.000000	99.225476 
2152.000000	99.236103 
2151.000000	99.246839 
2150.000000	99.252520 
2149.000000	99.253154 
2148.000000	99.253171 
2147.000000	99.256010 
2146.000000	99.260194 
2145.000000	99.261044 
2144.000000	99.256001 
2143.000000	99.247613 
2142.000000	99.241052 
2141.000000	99.238910 
2140.000000	99.239205 
2139.000000	99.238548 
2138.000000	99.236422 
2137.000000	99.235465 
2136.000000	99.237718 
2135.000000	99.241718 
2134.000000	99.244017 
2133.000000	99.243205 
2132.000000	99.241244 
2131.000000	99.240423 
2130.000000	99.240152 
2129.000000	99.237947 
2128.000000	99.233179 
2127.000000	99.228399 
2126.000000	99.226539 
2125.000000	99.228095 
2124.000000	99.231761 
2123.000000	99.236606 
2122.000000	99.242224 
2121.000000	99.247447 
2120.000000	99.250616 
2119.000000	99.251310 
2118.000000	99.250837 
2117.000000	99.250869 
2116.000000	99.251961 
2115.000000	99.253537 
2114.000000	99.254833 
2113.000000	99.255455 
2112.000000	99.255380 
2111.000000	99.254949 
2110.000000	99.254858 
2109.000000	99.255617 
2108.000000	99.256796 
2107.000000	99.257122 
2106.000000	99.255661 
2105.000000	99.252949 
2104.000000	99.250908 
2103.000000	99.251279 
2102.000000	99.254053 
2101.000000	99.257408 
2100.000000	99.259345 
2099.000000	99.259405 
2098.000000	99.258633 
2097.000000	99.258351 
2096.000000	99.259196 
2095.000000	99.261077 
2094.000000	99.263441 
2093.000000	99.265506 
2092.000000	99.266744 
2091.000000	99.267434 
2090.000000	99.268433 
2089.000000	99.270163 
2088.000000	99.271962 
2087.000000	99.272687 
2086.000000	99.271858 
2085.000000	99.270205 
2084.000000	99.269328 
2083.000000	99.270683 
2082.000000	99.274561 
2081.000000	99.279655 
2080.000000	99.284043 
2079.000000	99.287021 
2078.000000	99.289584 
2077.000000	99.292819 
2076.000000	99.296101 
2075.000000	99.297437 
2074.000000	99.295457 
2073.000000	99.290779 
2072.000000	99.285743 
2071.000000	99.282643 
2070.000000	99.282038 
2069.000000	99.282489 
2068.000000	99.282028 
2067.000000	99.280070 
2066.000000	99.277813 
2065.000000	99.277062 
2064.000000	99.278939 
2063.000000	99.283430 
2062.000000	99.289050 
2061.000000	99.293136 
2060.000000	99.293988 
2059.000000	99.292713 
2058.000000	99.292234 
2057.000000	99.294099 
2056.000000	99.297048 
2055.000000	99.299053 
2054.000000	99.299883 
2053.000000	99.300880 
2052.000000	99.302874 
2051.000000	99.305144 
2050.000000	99.306285 
2049.000000	99.305600 
2048.000000	99.303682 
2047.000000	99.301929 
2046.000000	99.301468 
2045.000000	99.302330 
2044.000000	99.303490 
2043.000000	99.303774 
2042.000000	99.302802 
2041.000000	99.301107 
2040.000000	99.299510 
2039.000000	99.298409 
2038.000000	99.297606 
2037.000000	99.296714 
2036.000000	99.295648 
2035.000000	99.294609 
2034.000000	99.293663 
2033.000000	99.292664 
2032.000000	99.291721 
2031.000000	99.291341 
2030.000000	99.291753 
2029.000000	99.292316 
2028.000000	99.292028 
2027.000000	99.290579 
2026.000000	99.288465 
2025.000000	99.286453 
2024.000000	99.285153 
2023.000000	99.285008 
2022.000000	99.286193 
2021.000000	99.288109 
2020.000000	99.289356 
2019.000000	99.288980 
2018.000000	99.287384 
2017.000000	99.285948 
2016.000000	99.285343 
2015.000000	99.284913 
2014.000000	99.283793 
2013.000000	99.281880 
2012.000000	99.279752 
2011.000000	99.278187 
2010.000000	99.277754 
2009.000000	99.278450 
2008.000000	99.279753 
2007.000000	99.281407 
2006.000000	99.283714 
2005.000000	99.286629 
2004.000000	99.289224 
2003.000000	99.290673 
2002.000000	99.291082 
2001.000000	99.290630 
2000.000000	99.288711 
1999.000000	99.285017 
1998.000000	99.280924 
1997.000000	99.278540 
1996.000000	99.278597 
1995.000000	99.280308 
1994.000000	99.282858 
1993.000000	99.285722 
1992.000000	99.287651 
1991.000000	99.287074 
1990.000000	99.284172 
1989.000000	99.281385 
1988.000000	99.281403 
1987.000000	99.285363 
1986.000000	99.292770 
1985.000000	99.301870 
1984.000000	99.309952 
1983.000000	99.314614 
1982.000000	99.315209 
1981.000000	99.312833 
1980.000000	99.309071 
1979.000000	99.304963 
1978.000000	99.300648 
1977.000000	99.295273 
1976.000000	99.287994 
1975.000000	99.279963 
1974.000000	99.274607 
1973.000000	99.274490 
1972.000000	99.278271 
1971.000000	99.282107 
1970.000000	99.284179 
1969.000000	99.286279 
1968.000000	99.290388 
1967.000000	99.295195 
1966.000000	99.297412 
1965.000000	99.295773 
1964.000000	99.292091 
1963.000000	99.288773 
1962.000000	99.286537 
1961.000000	99.284847 
1960.000000	99.283436 
1959.000000	99.282475 
1958.000000	99.281713 
1957.000000	99.280525 
1956.000000	99.278861 
1955.000000	99.277261 
1954.000000	99.275620 
1953.000000	99.272783 
1952.000000	99.268000 
1951.000000	99.262328 
1950.000000	99.257988 
1949.000000	99.256346 
1948.000000	99.257065 
1947.000000	99.258948 
1946.000000	99.260747 
1945.000000	99.261251 
1944.000000	99.259736 
1943.000000	99.256815 
1942.000000	99.254122 
1941.000000	99.252569 
1940.000000	99.251656 
1939.000000	99.250701 
1938.000000	99.249791 
1937.000000	99.249366 
1936.000000	99.249469 
1935.000000	99.249697 
1934.000000	99.249653 
1933.000000	99.249235 
1932.000000	99.248564 
1931.000000	99.247865 
1930.000000	99.247362 
1929.000000	99.247086 
1928.000000	99.246846 
1927.000000	99.246423 
1926.000000	99.245780 
1925.000000	99.245044 
1924.000000	99.244368 
1923.000000	99.243834 
1922.000000	99.243423 
1921.000000	99.243071 
1920.000000	99.242737 
1919.000000	99.242407 
1918.000000	99.242082 
1917.000000	99.241765 
1916.000000	99.241469 
1915.000000	99.241209 
1914.000000	99.240993 
1913.000000	99.240819 
1912.000000	99.240674 
1911.000000	99.240543 
1910.000000	99.240416 
1909.000000	99.240285 
1908.000000	99.240143 
1907.000000	99.239981 
1906.000000	99.239789 
1905.000000	99.239562 
1904.000000	99.239297 
1903.000000	99.239005 
1902.000000	99.238705 
1901.000000	99.238421 
1900.000000	99.238168 
1899.000000	99.237951 
1898.000000	99.237771 
1897.000000	99.237625 
1896.000000	99.237496 
1895.000000	99.237361 
1894.000000	99.237204 
1893.000000	99.237040 
1892.000000	99.236900 
1891.000000	99.236776 
1890.000000	99.236618 
1889.000000	99.236433 
1888.000000	99.236297 
1887.000000	99.236307 
1886.000000	99.236519 
1885.000000	99.236871 
1884.000000	99.237129 
1883.000000	99.237022 
1882.000000	99.236477 
1881.000000	99.235664 
1880.000000	99.234823 
1879.000000	99.234120 
1878.000000	99.233583 
1877.000000	99.233111 
1876.000000	99.232693 
1875.000000	99.232664 
1874.000000	99.233490 
1873.000000	99.235094 
1872.000000	99.236567 
1871.000000	99.236924 
1870.000000	99.236002 
1869.000000	99.234461 
1868.000000	99.232794 
1867.000000	99.230926 
1866.000000	99.229030 
1865.000000	99.227648 
1864.000000	99.227198 
1863.000000	99.228000 
1862.000000	99.230370 
1861.000000	99.233937 
1860.000000	99.237106 
1859.000000	99.238405 
1858.000000	99.238147 
1857.000000	99.237863 
1856.000000	99.238361 
1855.000000	99.239258 
1854.000000	99.240187 
1853.000000	99.241227 
1852.000000	99.242156 
1851.000000	99.242243 
1850.000000	99.241189 
1849.000000	99.239604 
1848.000000	99.238276 
1847.000000	99.237443 
1846.000000	99.237086 
1845.000000	99.237012 
1844.000000	99.236518 
1843.000000	99.235207 
1842.000000	99.234125 
1841.000000	99.234635 
1840.000000	99.236903 
1839.000000	99.239832 
1838.000000	99.242245 
1837.000000	99.243914 
1836.000000	99.245156 
1835.000000	99.246000 
1834.000000	99.246221 
1833.000000	99.245992 
1832.000000	99.246012 
1831.000000	99.246654 
1830.000000	99.247505 
1829.000000	99.248010 
1828.000000	99.248272 
1827.000000	99.248614 
1826.000000	99.248971 
1825.000000	99.249273 
1824.000000	99.249602 
1823.000000	99.249882 
1822.000000	99.249883 
1821.000000	99.249318 
1820.000000	99.247971 
1819.000000	99.245930 
1818.000000	99.243902 
1817.000000	99.242900 
1816.000000	99.243170 
1815.000000	99.244000 
1814.000000	99.244849 
1813.000000	99.246027 
1812.000000	99.248059 
1811.000000	99.250728 
1810.000000	99.253304 
1809.000000	99.255305 
1808.000000	99.256328 
1807.000000	99.255913 
1806.000000	99.254200 
1805.000000	99.252254 
1804.000000	99.251256 
1803.000000	99.251451 
1802.000000	99.252338 
1801.000000	99.253500 
1800.000000	99.254716 
1799.000000	99.255734 
1798.000000	99.256461 
1797.000000	99.257005 
1796.000000	99.257496 
1795.000000	99.258011 
1794.000000	99.258553 
1793.000000	99.259028 
1792.000000	99.259375 
1791.000000	99.259656 
1790.000000	99.260018 
1789.000000	99.260601 
1788.000000	99.261424 
1787.000000	99.262366 
1786.000000	99.263236 
1785.000000	99.263859 
1784.000000	99.264180 
1783.000000	99.264347 
1782.000000	99.264611 
1781.000000	99.265079 
1780.000000	99.265628 
1779.000000	99.266086 
1778.000000	99.266464 
1777.000000	99.266905 
1776.000000	99.267481 
1775.000000	99.268162 
1774.000000	99.268874 
1773.000000	99.269549 
1772.000000	99.270126 
1771.000000	99.270596 
1770.000000	99.270992 
1769.000000	99.271359 
1768.000000	99.271733 
1767.000000	99.272121 
1766.000000	99.272517 
1765.000000	99.272918 
1764.000000	99.273323 
1763.000000	99.273734 
1762.000000	99.274147 
1761.000000	99.274557 
1760.000000	99.274956 
1759.000000	99.275338 
1758.000000	99.275698 
1757.000000	99.276034 
1756.000000	99.276346 
1755.000000	99.276635 
1754.000000	99.276906 
1753.000000	99.277166 
1752.000000	99.277425 
1751.000000	99.277689 
1750.000000	99.277959 
1749.000000	99.278216 
1748.000000	99.278439 
1747.000000	99.278623 
1746.000000	99.278780 
1745.000000	99.278925 
1744.000000	99.279063 
1743.000000	99.279191 
1742.000000	99.279306 
1741.000000	99.279408 
1740.000000	99.279495 
1739.000000	99.279566 
1738.000000	99.279623 
1737.000000	99.279664 
1736.000000	99.279678 
1735.000000	99.279645 
1734.000000	99.279559 
1733.000000	99.279473 
1732.000000	99.279448 
1731.000000	99.279491 
1730.000000	99.279548 
1729.000000	99.279540 
1728.000000	99.279422 
1727.000000	99.279222 
1726.000000	99.278995 
1725.000000	99.278761 
1724.000000	99.278517 
1723.000000	99.278312 
1722.000000	99.278241 
1721.000000	99.278333 
1720.000000	99.278448 
1719.000000	99.278321 
1718.000000	99.277771 
1717.000000	99.276954 
1716.000000	99.276134 
1715.000000	99.275335 
1714.000000	99.274590 
1713.000000	99.273987 
1712.000000	99.273484 
1711.000000	99.272964 
1710.000000	99.272387 
1709.000000	99.271794 
1708.000000	99.271189 
1707.000000	99.270532 
1706.000000	99.269904 
1705.000000	99.269418 
1704.000000	99.268878 
1703.000000	99.267929 
1702.000000	99.266500 
1701.000000	99.265016 
1700.000000	99.264052 
1699.000000	99.263417 
1698.000000	99.262695 
1697.000000	99.261892 
1696.000000	99.261165 
1695.000000	99.260379 
1694.000000	99.259400 
1693.000000	99.258292 
1692.000000	99.257005 
1691.000000	99.255496 
1690.000000	99.253879 
1689.000000	99.252333 
1688.000000	99.250860 
1687.000000	99.249269 
1686.000000	99.247564 
1685.000000	99.246137 
1684.000000	99.245327 
1683.000000	99.244725 
1682.000000	99.243861 
1681.000000	99.242623 
1680.000000	99.241219 
1679.000000	99.239887 
1678.000000	99.238686 
1677.000000	99.237596 
1676.000000	99.236647 
1675.000000	99.235820 
1674.000000	99.234792 
1673.000000	99.233432 
1672.000000	99.231904 
1671.000000	99.230550 
1670.000000	99.229603 
1669.000000	99.228821 
1668.000000	99.227996 
1667.000000	99.227173 
1666.000000	99.225892 
1665.000000	99.223596 
1664.000000	99.220630 
1663.000000	99.218442 
1662.000000	99.218068 
1661.000000	99.218930 
1660.000000	99.219786 
1659.000000	99.220328 
1658.000000	99.220953 
1657.000000	99.221430 
1656.000000	99.220457 
1655.000000	99.217756 
1654.000000	99.215727 
1653.000000	99.215629 
1652.000000	99.214340 
1651.000000	99.213810 
1650.000000	99.213591 
1649.000000	99.211714 
1648.000000	99.208199 
1647.000000	99.204954 
1646.000000	99.203205 
1645.000000	99.203413 
1644.000000	99.205632 
1643.000000	99.208804 
1642.000000	99.211492 
1641.000000	99.213199 
1640.000000	99.214173 
1639.000000	99.214622 
1638.000000	99.214732 
1637.000000	99.215076 
1636.000000	99.215781 
1635.000000	99.215823 
1634.000000	99.215777 
1633.000000	99.216776 
1632.000000	99.218515 
1631.000000	99.220498 
1630.000000	99.222305 
1629.000000	99.223354 
1628.000000	99.223528 
1627.000000	99.223775 
1626.000000	99.225014 
1625.000000	99.227284 
1624.000000	99.230034 
1623.000000	99.232753 
1622.000000	99.235117 
1621.000000	99.236875 
1620.000000	99.237656 
1619.000000	99.237675 
1618.000000	99.238298 
1617.000000	99.240240 
1616.000000	99.242152 
1615.000000	99.243275 
1614.000000	99.243601 
1613.000000	99.242749 
1612.000000	99.241272 
1611.000000	99.240210 
1610.000000	99.239644 
1609.000000	99.238864 
1608.000000	99.237868 
1607.000000	99.237542 
1606.000000	99.238046 
1605.000000	99.238702 
1604.000000	99.239289 
1603.000000	99.240385 
1602.000000	99.242137 
1601.000000	99.243725 
1600.000000	99.244760 
1599.000000	99.246076 
1598.000000	99.248391 
1597.000000	99.251187 
1596.000000	99.253423 
1595.000000	99.254795 
1594.000000	99.255691 
1593.000000	99.256276 
1592.000000	99.256533 
1591.000000	99.256862 
1590.000000	99.257808 
1589.000000	99.259252 
1588.000000	99.260630 
1587.000000	99.261669 
1586.000000	99.262111 
1585.000000	99.261409 
1584.000000	99.259508 
1583.000000	99.257345 
1582.000000	99.256215 
1581.000000	99.256431 
1580.000000	99.257250 
1579.000000	99.257879 
1578.000000	99.258230 
1577.000000	99.258469 
1576.000000	99.258401 
1575.000000	99.258319 
1574.000000	99.258749 
1573.000000	99.259017 
1572.000000	99.258483 
1571.000000	99.257691 
1570.000000	99.257727 
1569.000000	99.258617 
1568.000000	99.259402 
1567.000000	99.259597 
1566.000000	99.259374 
1565.000000	99.259108 
1564.000000	99.259040 
1563.000000	99.259078 
1562.000000	99.258988 
1561.000000	99.258626 
1560.000000	99.258070 
1559.000000	99.257719 
1558.000000	99.257222 
1557.000000	99.256770 
1556.000000	99.256595 
1555.000000	99.256338 
1554.000000	99.255795 
1553.000000	99.255079 
1552.000000	99.254436 
1551.000000	99.254025 
1550.000000	99.253973 
1549.000000	99.254165 
1548.000000	99.254287 
1547.000000	99.254115 
1546.000000	99.253593 
1545.000000	99.252849 
1544.000000	99.252104 
1543.000000	99.251435 
1542.000000	99.250952 
1541.000000	99.250939 
1540.000000	99.251193 
1539.000000	99.251072 
1538.000000	99.250828 
1537.000000	99.250843 
1536.000000	99.250951 
1535.000000	99.250975 
1534.000000	99.251062 
1533.000000	99.251315 
1532.000000	99.251390 
1531.000000	99.251038 
1530.000000	99.250572 
1529.000000	99.250448 
1528.000000	99.250700 
1527.000000	99.251087 
1526.000000	99.251474 
1525.000000	99.251898 
1524.000000	99.252296 
1523.000000	99.252639 
1522.000000	99.253297 
1521.000000	99.254476 
1520.000000	99.255317 
1519.000000	99.255088 
1518.000000	99.253941 
1517.000000	99.252641 
1516.000000	99.251808 
1515.000000	99.251420 
1514.000000	99.251309 
1513.000000	99.251436 
1512.000000	99.251673 
1511.000000	99.251719 
1510.000000	99.251295 
1509.000000	99.250577 
1508.000000	99.250641 
1507.000000	99.252586 
1506.000000	99.254501 
1505.000000	99.254596 
1504.000000	99.254209 
1503.000000	99.254155 
1502.000000	99.254505 
1501.000000	99.255286 
1500.000000	99.256346 
1499.000000	99.257283 
1498.000000	99.257898 
1497.000000	99.258783 
1496.000000	99.260243 
1495.000000	99.261081 
1494.000000	99.260177 
1493.000000	99.257684 
1492.000000	99.254460 
1491.000000	99.251589 
1490.000000	99.249951 
1489.000000	99.249664 
1488.000000	99.249800 
1487.000000	99.249560 
1486.000000	99.249255 
1485.000000	99.249256 
1484.000000	99.249362 
1483.000000	99.249180 
1482.000000	99.248416 
1481.000000	99.247142 
1480.000000	99.245749 
1479.000000	99.244658 
1478.000000	99.244084 
1477.000000	99.243887 
1476.000000	99.243558 
1475.000000	99.242384 
1474.000000	99.240540 
1473.000000	99.239491 
1472.000000	99.239988 
1471.000000	99.240539 
1470.000000	99.240061 
1469.000000	99.239244 
1468.000000	99.239135 
1467.000000	99.239929 
1466.000000	99.241036 
1465.000000	99.241749 
1464.000000	99.241560 
1463.000000	99.240582 
1462.000000	99.239580 
1461.000000	99.239334 
1460.000000	99.239613 
1459.000000	99.239154 
1458.000000	99.236447 
1457.000000	99.231909 
1456.000000	99.227741 
1455.000000	99.224944 
1454.000000	99.223269 
1453.000000	99.222345 
1452.000000	99.221638 
1451.000000	99.220327 
1450.000000	99.218484 
1449.000000	99.217962 
1448.000000	99.220148 
1447.000000	99.223192 
1446.000000	99.224448 
1445.000000	99.224442 
1444.000000	99.225041 
1443.000000	99.226182 
1442.000000	99.226369 
1441.000000	99.225209 
1440.000000	99.224172 
1439.000000	99.224688 
1438.000000	99.225954 
1437.000000	99.225849 
1436.000000	99.223390 
1435.000000	99.218923 
1434.000000	99.214210 
1433.000000	99.211553 
1432.000000	99.211637 
1431.000000	99.213250 
1430.000000	99.214136 
1429.000000	99.213381 
1428.000000	99.211976 
1427.000000	99.210610 
1426.000000	99.208637 
1425.000000	99.205282 
1424.000000	99.201713 
1423.000000	99.199360 
1422.000000	99.196845 
1421.000000	99.192084 
1420.000000	99.185372 
1419.000000	99.179523 
1418.000000	99.174771 
1417.000000	99.168743 
1416.000000	99.161521 
1415.000000	99.154228 
1414.000000	99.146540 
1413.000000	99.137617 
1412.000000	99.128651 
1411.000000	99.122220 
1410.000000	99.118744 
1409.000000	99.116720 
1408.000000	99.115515 
1407.000000	99.115274 
1406.000000	99.115697 
1405.000000	99.116942 
1404.000000	99.120483 
1403.000000	99.126368 
1402.000000	99.132051 
1401.000000	99.135778 
1400.000000	99.138453 
1399.000000	99.141585 
1398.000000	99.143116 
1397.000000	99.138823 
1396.000000	99.128014 
1395.000000	99.116217 
1394.000000	99.111036 
1393.000000	99.115169 
1392.000000	99.126623 
1391.000000	99.141359 
1390.000000	99.154900 
1389.000000	99.163863 
1388.000000	99.167188 
1387.000000	99.166243 
1386.000000	99.163226 
1385.000000	99.160142 
1384.000000	99.158586 
1383.000000	99.159160 
1382.000000	99.161212 
1381.000000	99.164049 
1380.000000	99.167585 
1379.000000	99.171800 
1378.000000	99.176101 
1377.000000	99.179777 
1376.000000	99.183173 
1375.000000	99.187797 
1374.000000	99.194539 
1373.000000	99.201842 
1372.000000	99.207510 
1371.000000	99.211798 
1370.000000	99.217022 
1369.000000	99.224260 
1368.000000	99.232460 
1367.000000	99.239799 
1366.000000	99.245291 
1365.000000	99.249068 
1364.000000	99.251577 
1363.000000	99.253617 
1362.000000	99.256341 
1361.000000	99.259917 
1360.000000	99.263298 
1359.000000	99.265843 
1358.000000	99.268348 
1357.000000	99.272202 
1356.000000	99.277784 
1355.000000	99.283871 
1354.000000	99.288802 
1353.000000	99.291902 
1352.000000	99.293012 
1351.000000	99.291957 
1350.000000	99.290073 
1349.000000	99.289087 
1348.000000	99.289818 
1347.000000	99.292063 
1346.000000	99.295474 
1345.000000	99.299404 
1344.000000	99.302654 
1343.000000	99.304248 
1342.000000	99.304412 
1341.000000	99.304089 
1340.000000	99.303824 
1339.000000	99.303612 
1338.000000	99.303422 
1337.000000	99.303619 
1336.000000	99.304624 
1335.000000	99.306399 
1334.000000	99.308795 
1333.000000	99.311811 
1332.000000	99.314995 
1331.000000	99.317293 
1330.000000	99.317950 
1329.000000	99.317008 
1328.000000	99.315050 
1327.000000	99.312838 
1326.000000	99.311282 
1325.000000	99.310747 
1324.000000	99.311137 
1323.000000	99.312030 
1322.000000	99.312757 
1321.000000	99.312776 
1320.000000	99.312268 
1319.000000	99.312061 
1318.000000	99.312674 
1317.000000	99.313720 
1316.000000	99.314287 
1315.000000	99.313716 
1314.000000	99.312089 
1313.000000	99.310408 
1312.000000	99.310018 
1311.000000	99.311403 
1310.000000	99.313639 
1309.000000	99.315265 
1308.000000	99.315601 
1307.000000	99.314883 
1306.000000	99.313557 
1305.000000	99.311778 
1304.000000	99.310236 
1303.000000	99.310265 
1302.000000	99.312675 
1301.000000	99.316513 
1300.000000	99.319452 
1299.000000	99.319512 
1298.000000	99.316544 
1297.000000	99.312476 
1296.000000	99.309908 
1295.000000	99.310136 
1294.000000	99.312373 
1293.000000	99.314939 
1292.000000	99.316810 
1291.000000	99.317688 
1290.000000	99.317390 
1289.000000	99.316116 
1288.000000	99.314831 
1287.000000	99.314286 
1286.000000	99.313761 
1285.000000	99.311975 
1284.000000	99.309190 
1283.000000	99.307137 
1282.000000	99.306650 
1281.000000	99.306681 
1280.000000	99.306011 
1279.000000	99.304659 
1278.000000	99.302958 
1277.000000	99.300572 
1276.000000	99.297213 
1275.000000	99.293720 
1274.000000	99.291410 
1273.000000	99.290656 
1272.000000	99.290624 
1271.000000	99.290015 
1270.000000	99.287709 
1269.000000	99.283354 
1268.000000	99.277941 
1267.000000	99.273213 
1266.000000	99.269818 
1265.000000	99.266723 
1264.000000	99.262817 
1263.000000	99.258225 
1262.000000	99.253570 
1261.000000	99.248990 
1260.000000	99.244790 
1259.000000	99.242208 
1258.000000	99.242122 
1257.000000	99.243663 
1256.000000	99.245084 
1255.000000	99.245728 
1254.000000	99.246214 
1253.000000	99.246921 
1252.000000	99.247317 
1251.000000	99.246985 
1250.000000	99.246491 
1249.000000	99.246970 
1248.000000	99.249281 
1247.000000	99.253312 
1246.000000	99.257275 
1245.000000	99.258057 
1244.000000	99.253543 
1243.000000	99.245277 
1242.000000	99.238313 
1241.000000	99.237424 
1240.000000	99.243305 
1239.000000	99.252193 
1238.000000	99.258935 
1237.000000	99.260698 
1236.000000	99.258141 
1235.000000	99.253754 
1234.000000	99.249328 
1233.000000	99.244930 
1232.000000	99.239938 
1231.000000	99.234233 
1230.000000	99.228129 
1229.000000	99.221870 
1228.000000	99.215945 
1227.000000	99.211619 
1226.000000	99.210292 
1225.000000	99.212006 
1224.000000	99.214882 
1223.000000	99.216255 
1222.000000	99.214542 
1221.000000	99.210252 
1220.000000	99.205403 
1219.000000	99.201808 
1218.000000	99.199553 
1217.000000	99.197120 
1216.000000	99.192927 
1215.000000	99.186652 
1214.000000	99.179295 
1213.000000	99.172354 
1212.000000	99.166721 
1211.000000	99.161675 
1210.000000	99.155101 
1209.000000	99.145449 
1208.000000	99.133484 
1207.000000	99.121501 
1206.000000	99.110920 
1205.000000	99.101464 
1204.000000	99.092409 
1203.000000	99.083172 
1202.000000	99.072522 
1201.000000	99.058957 
1200.000000	99.042849 
1199.000000	99.027047 
1198.000000	99.014190 
1197.000000	99.004131 
1196.000000	98.994863 
1195.000000	98.984957 
1194.000000	98.974071 
1193.000000	98.961866 
1192.000000	98.947877 
1191.000000	98.932375 
1190.000000	98.916424 
1189.000000	98.901199 
1188.000000	98.887748 
1187.000000	98.876733 
1186.000000	98.867412 
1185.000000	98.857282 
1184.000000	98.843653 
1183.000000	98.825611 
1182.000000	98.804334 
1181.000000	98.782129 
1180.000000	98.761564 
1179.000000	98.744520 
1178.000000	98.730713 
1177.000000	98.717417 
1176.000000	98.701726 
1175.000000	98.683160 
1174.000000	98.663590 
1173.000000	98.645004 
1172.000000	98.628231 
1171.000000	98.613321 
1170.000000	98.599827 
1169.000000	98.586668 
1168.000000	98.572684 
1167.000000	98.557651 
1166.000000	98.542499 
1165.000000	98.528939 
1164.000000	98.519382 
1163.000000	98.516342 
1162.000000	98.520427 
1161.000000	98.528748 
1160.000000	98.536342 
1159.000000	98.539787 
1158.000000	98.538938 
1157.000000	98.535086 
1156.000000	98.528288 
1155.000000	98.517144 
1154.000000	98.500779 
1153.000000	98.480275 
1152.000000	98.458190 
1151.000000	98.437098 
1150.000000	98.418494 
1149.000000	98.402379 
1148.000000	98.387230 
1147.000000	98.370480 
1146.000000	98.350042 
1145.000000	98.326252 
1144.000000	98.302221 
1143.000000	98.281599 
1142.000000	98.265602 
1141.000000	98.252287 
1140.000000	98.238405 
1139.000000	98.221510 
1138.000000	98.200903 
1137.000000	98.177722 
1136.000000	98.154277 
1135.000000	98.132428 
1134.000000	98.112233 
1133.000000	98.092562 
1132.000000	98.072810 
1131.000000	98.053258 
1130.000000	98.033982 
1129.000000	98.014386 
1128.000000	97.993820 
1127.000000	97.971895 
1126.000000	97.948427 
1125.000000	97.923958 
1124.000000	97.899970 
1123.000000	97.877379 
1122.000000	97.855030 
1121.000000	97.831094 
1120.000000	97.805779 
1119.000000	97.781044 
1118.000000	97.757628 
1117.000000	97.734205 
1116.000000	97.709758 
1115.000000	97.684906 
1114.000000	97.660247 
1113.000000	97.635186 
1112.000000	97.609495 
1111.000000	97.584692 
1110.000000	97.562598 
1109.000000	97.543149 
1108.000000	97.524280 
1107.000000	97.503558 
1106.000000	97.480003 
1105.000000	97.454815 
1104.000000	97.430255 
1103.000000	97.407340 
1102.000000	97.385286 
1101.000000	97.363702 
1100.000000	97.344390 
1099.000000	97.328258 
1098.000000	97.313337 
1097.000000	97.297091 
1096.000000	97.280027 
1095.000000	97.264207 
1094.000000	97.248802 
1093.000000	97.230211 
1092.000000	97.206587 
1091.000000	97.179266 
1090.000000	97.149455 
1089.000000	97.116458 
1088.000000	97.080249 
1087.000000	97.043403 
1086.000000	97.009135 
1085.000000	96.978910 
1084.000000	96.952465 
1083.000000	96.928148 
1082.000000	96.902861 
1081.000000	96.874070 
1080.000000	96.842710 
1079.000000	96.812203 
1078.000000	96.784267 
1077.000000	96.758043 
1076.000000	96.733440 
1075.000000	96.712014 
1074.000000	96.693685 
1073.000000	96.675665 
1072.000000	96.655163 
1071.000000	96.629432 
1070.000000	96.592851 
1069.000000	96.539805 
1068.000000	96.473793 
1067.000000	96.409885 
1066.000000	96.363139 
1065.000000	96.335604 
1064.000000	96.317216 
1063.000000	96.296184 
1062.000000	96.265227 
1061.000000	96.221185 
1060.000000	96.165148 
1059.000000	96.104199 
1058.000000	96.048802 
1057.000000	96.005356 
1056.000000	95.971407 
1055.000000	95.938063 
1054.000000	95.897020 
1053.000000	95.846656 
1052.000000	95.792311 
1051.000000	95.740054 
1050.000000	95.690524 
1049.000000	95.640850 
1048.000000	95.591367 
1047.000000	95.545892 
1046.000000	95.505137 
1045.000000	95.464640 
1044.000000	95.421054 
1043.000000	95.377022 
1042.000000	95.337438 
1041.000000	95.303116 
1040.000000	95.270645 
1039.000000	95.237441 
1038.000000	95.205132 
1037.000000	95.178459 
1036.000000	95.161683 
1035.000000	95.155506 
1034.000000	95.156847 
1033.000000	95.161340 
1032.000000	95.164661 
1031.000000	95.161398 
1030.000000	95.146978 
1029.000000	95.124609 
1028.000000	95.107558 
1027.000000	95.108993 
1026.000000	95.129440 
1025.000000	95.157576 
1024.000000	95.182341 
1023.000000	95.199698 
1022.000000	95.208830 
1021.000000	95.209022 
1020.000000	95.202707 
1019.000000	95.196483 
1018.000000	95.195537 
1017.000000	95.199333 
1016.000000	95.204563 
1015.000000	95.209818 
1014.000000	95.215852 
1013.000000	95.223469 
1012.000000	95.232661 
1011.000000	95.242431 
1010.000000	95.251245 
1009.000000	95.259351 
1008.000000	95.270018 
1007.000000	95.286163 
1006.000000	95.306581 
1005.000000	95.328240 
1004.000000	95.351200 
1003.000000	95.377661 
1002.000000	95.407037 
1001.000000	95.436257 
1000.000000	95.464748 
999.000000	 95.494736 
998.000000	 95.526213 
997.000000	 95.556013 
996.000000	 95.583160 
995.000000	 95.611428 
994.000000	 95.644935 
993.000000	 95.683708 
992.000000	 95.724360 
991.000000	 95.762697 
990.000000	 95.795547 
989.000000	 95.823146 
988.000000	 95.850304 
987.000000	 95.882447 
986.000000	 95.920101 
985.000000	 95.959938 
984.000000	 96.000930 
983.000000	 96.045874 
982.000000	 96.096572 
981.000000	 96.151139 
980.000000	 96.206994 
979.000000	 96.263547 
978.000000	 96.320887 
977.000000	 96.378594 
976.000000	 96.436867 
975.000000	 96.496367 
974.000000	 96.556193 
973.000000	 96.614343 
972.000000	 96.670738 
971.000000	 96.727354 
970.000000	 96.784832 
969.000000	 96.841414 
968.000000	 96.895878 
967.000000	 96.948967 
966.000000	 97.000932 
965.000000	 97.049981 
964.000000	 97.094615 
963.000000	 97.135925 
962.000000	 97.176383 
961.000000	 97.217408 
960.000000	 97.258795 
959.000000	 97.299293 
958.000000	 97.337173 
957.000000	 97.371475 
956.000000	 97.403348 
955.000000	 97.435290 
954.000000	 97.468598 
953.000000	 97.502247 
952.000000	 97.534225 
951.000000	 97.562953 
950.000000	 97.587562 
949.000000	 97.608100 
948.000000	 97.625833 
947.000000	 97.642639 
946.000000	 97.659945 
945.000000	 97.678518 
944.000000	 97.698380 
943.000000	 97.717845 
942.000000	 97.733657 
941.000000	 97.743934 
940.000000	 97.750679 
939.000000	 97.757876 
938.000000	 97.767462 
937.000000	 97.778660 
936.000000	 97.790540 
935.000000	 97.802832 
934.000000	 97.814257 
933.000000	 97.822614 
932.000000	 97.827470 
931.000000	 97.831392 
930.000000	 97.837953 
929.000000	 97.849431 
928.000000	 97.866075 
927.000000	 97.885703 
926.000000	 97.903789 
925.000000	 97.915978 
924.000000	 97.921387 
923.000000	 97.922466 
922.000000	 97.921618 
921.000000	 97.919447 
920.000000	 97.916490 
919.000000	 97.914586 
918.000000	 97.915315 
917.000000	 97.918283 
916.000000	 97.922111 
915.000000	 97.926462 
914.000000	 97.932391 
913.000000	 97.941216 
912.000000	 97.953625 
911.000000	 97.969340 
910.000000	 97.987255 
909.000000	 98.006411 
908.000000	 98.026914 
907.000000	 98.049371 
906.000000	 98.073693 
905.000000	 98.099365 
904.000000	 98.126627 
903.000000	 98.156635 
902.000000	 98.190613 
901.000000	 98.228846 
900.000000	 98.269853 
899.000000	 98.310454 
898.000000	 98.347527 
897.000000	 98.380070 
896.000000	 98.408671 
895.000000	 98.433394 
894.000000	 98.454238 
893.000000	 98.473985 
892.000000	 98.498058 
891.000000	 98.529640 
890.000000	 98.566184 
889.000000	 98.602288 
888.000000	 98.634591 
887.000000	 98.662004 
886.000000	 98.682970 
885.000000	 98.695942 
884.000000	 98.703075 
883.000000	 98.710914 
882.000000	 98.725343 
881.000000	 98.746258 
880.000000	 98.768496 
879.000000	 98.787923 
878.000000	 98.805510 
877.000000	 98.824634 
876.000000	 98.845109 
875.000000	 98.862140 
874.000000	 98.872389 
873.000000	 98.879384 
872.000000	 98.890787 
871.000000	 98.910659 
870.000000	 98.935987 
869.000000	 98.960118 
868.000000	 98.977969 
867.000000	 98.989070 
866.000000	 98.998730 
865.000000	 99.015620 
864.000000	 99.044315 
863.000000	 99.078943 
862.000000	 99.107151 
861.000000	 99.122032 
860.000000	 99.127683 
859.000000	 99.132904 
858.000000	 99.142997 
857.000000	 99.159412 
856.000000	 99.182622 
855.000000	 99.210207 
854.000000	 99.234612 
853.000000	 99.248489 
852.000000	 99.252181 
851.000000	 99.252625 
850.000000	 99.255455 
849.000000	 99.261473 
848.000000	 99.270021 
847.000000	 99.281103 
846.000000	 99.293396 
845.000000	 99.304092 
844.000000	 99.312134 
843.000000	 99.318867 
842.000000	 99.324413 
841.000000	 99.326047 
840.000000	 99.321918 
839.000000	 99.314611 
838.000000	 99.309036 
837.000000	 99.307085 
836.000000	 99.305769 
835.000000	 99.301305 
834.000000	 99.294750 
833.000000	 99.291901 
832.000000	 99.295349 
831.000000	 99.297701 
830.000000	 99.287902 
829.000000	 99.266947 
828.000000	 99.252034 
827.000000	 99.258537 
826.000000	 99.280378 
825.000000	 99.296957 
824.000000	 99.299368 
823.000000	 99.299349 
822.000000	 99.309697 
821.000000	 99.326224 
820.000000	 99.335376 
819.000000	 99.331731 
818.000000	 99.321359 
817.000000	 99.311916 
816.000000	 99.304754 
815.000000	 99.296056 
814.000000	 99.281707 
813.000000	 99.260222 
812.000000	 99.232886 
811.000000	 99.201886 
810.000000	 99.167536 
809.000000	 99.127064 
808.000000	 99.076417 
807.000000	 99.013055 
806.000000	 98.937201 
805.000000	 98.851912 
804.000000	 98.763302 
803.000000	 98.679964 
802.000000	 98.609927 
801.000000	 98.557016 
800.000000	 98.519830 
799.000000	 98.494162 
798.000000	 98.477408 
797.000000	 98.471633 
796.000000	 98.481127 
795.000000	 98.505741 
794.000000	 98.538237 
793.000000	 98.569809 
792.000000	 98.595811 
791.000000	 98.613900 
790.000000	 98.620543 
789.000000	 98.614540 
788.000000	 98.602032 
787.000000	 98.591986 
786.000000	 98.586116 
785.000000	 98.577746 
784.000000	 98.561424 
783.000000	 98.539365 
782.000000	 98.517250 
781.000000	 98.498164 
780.000000	 98.482933 
779.000000	 98.472911 
778.000000	 98.469754 
777.000000	 98.474917 
776.000000	 98.490528 
775.000000	 98.517685 
774.000000	 98.552547 
773.000000	 98.587437 
772.000000	 98.617625 
771.000000	 98.643878 
770.000000	 98.666716 
769.000000	 98.682239 
768.000000	 98.687417 
767.000000	 98.687247 
766.000000	 98.692090 
765.000000	 98.707308 
764.000000	 98.728058 
763.000000	 98.744730 
762.000000	 98.752216 
761.000000	 98.753721 
760.000000	 98.756700 
759.000000	 98.765612 
758.000000	 98.778313 
757.000000	 98.789496 
756.000000	 98.797165 
755.000000	 98.804602 
754.000000	 98.815982 
753.000000	 98.831649 
752.000000	 98.848802 
751.000000	 98.865259 
750.000000	 98.880577 
749.000000	 98.893926 
748.000000	 98.903527 
747.000000	 98.909902 
746.000000	 98.918292 
745.000000	 98.934649 
744.000000	 98.958072 
743.000000	 98.979633 
742.000000	 98.991607 
741.000000	 98.996732 
740.000000	 99.005079 
739.000000	 99.022041 
738.000000	 99.042909 
737.000000	 99.060060 
736.000000	 99.071759 
735.000000	 99.081941 
734.000000	 99.094751 
733.000000	 99.112254 
732.000000	 99.134709 
731.000000	 99.158439 
730.000000	 99.175065 
729.000000	 99.177839 
728.000000	 99.169758 
727.000000	 99.161748 
726.000000	 99.161239 
725.000000	 99.166826 
724.000000	 99.175055 
723.000000	 99.187050 
722.000000	 99.205463 
721.000000	 99.228070 
720.000000	 99.247711 
719.000000	 99.257925 
718.000000	 99.257389 
717.000000	 99.250415 
716.000000	 99.244364 
715.000000	 99.244371 
714.000000	 99.249062 
713.000000	 99.253020 
712.000000	 99.254092 
711.000000	 99.255665 
710.000000	 99.261289 
709.000000	 99.269589 
708.000000	 99.275982 
707.000000	 99.277536 
706.000000	 99.273453 
705.000000	 99.264271 
704.000000	 99.252717 
703.000000	 99.241713 
702.000000	 99.229811 
701.000000	 99.211060 
700.000000	 99.180913 
699.000000	 99.141714 
698.000000	 99.099920 
697.000000	 99.060099 
696.000000	 99.024371 
695.000000	 98.995339 
694.000000	 98.978337 
693.000000	 98.979822 
692.000000	 99.002337 
691.000000	 99.040085 
690.000000	 99.079121 
689.000000	 99.106655 
688.000000	 99.121968 
687.000000	 99.134757 
686.000000	 99.152527 
685.000000	 99.172588 
684.000000	 99.187463 
683.000000	 99.195101 
682.000000	 99.200985 
681.000000	 99.212081 
680.000000	 99.230376 
679.000000	 99.251375 
678.000000	 99.266686 
677.000000	 99.268579 
676.000000	 99.259194 
675.000000	 99.252336 
674.000000	 99.260297 
673.000000	 99.280952 
672.000000	 99.302519 
671.000000	 99.318465 
670.000000	 99.332343 
669.000000	 99.345138 
668.000000	 99.338070 
667.000000	 99.306956 
666.000000	 99.287521 
665.000000	 99.290188 
664.000000	 99.302064 
663.000000	 99.311079 
662.000000	 99.312372 
661.000000	 99.310438 
660.000000	 99.314357 
659.000000	 99.326868 
658.000000	 99.338901 
657.000000	 99.338167 
656.000000	 99.325594 
655.000000	 99.316174 
654.000000	 99.319104 
653.000000	 99.324962 
652.000000	 99.319921 
651.000000	 99.303624 
650.000000	 99.289657 

