4000.000000	99.499177 
3999.000000	99.498661 
3998.000000	99.498238 
3997.000000	99.497501 
3996.000000	99.496029 
3995.000000	99.493894 
3994.000000	99.491816 
3993.000000	99.490642 
3992.000000	99.490495 
3991.000000	99.490494 
3990.000000	99.489639 
3989.000000	99.488128 
3988.000000	99.487557 
3987.000000	99.489560 
3986.000000	99.494247 
3985.000000	99.499927 
3984.000000	99.504154 
3983.000000	99.505089 
3982.000000	99.502383 
3981.000000	99.497219 
3980.000000	99.491380 
3979.000000	99.486162 
3978.000000	99.482267 
3977.000000	99.480420 
3976.000000	99.481494 
3975.000000	99.485717 
3974.000000	99.491997 
3973.000000	99.498255 
3972.000000	99.502430 
3971.000000	99.503446 
3970.000000	99.501602 
3969.000000	99.498187 
3968.000000	99.494638 
3967.000000	99.491719 
3966.000000	99.489471 
3965.000000	99.487901 
3964.000000	99.487207 
3963.000000	99.487132 
3962.000000	99.486628 
3961.000000	99.484767 
3960.000000	99.481934 
3959.000000	99.479825 
3958.000000	99.479908 
3957.000000	99.481863 
3956.000000	99.483965 
3955.000000	99.484745 
3954.000000	99.484093 
3953.000000	99.482705 
3952.000000	99.480937 
3951.000000	99.478951 
3950.000000	99.477421 
3949.000000	99.477409 
3948.000000	99.479095 
3947.000000	99.481089 
3946.000000	99.481852 
3945.000000	99.481457 
3944.000000	99.481444 
3943.000000	99.482650 
3942.000000	99.484118 
3941.000000	99.484489 
3940.000000	99.483396 
3939.000000	99.480915 
3938.000000	99.476646 
3937.000000	99.470255 
3936.000000	99.463098 
3935.000000	99.458334 
3934.000000	99.459028 
3933.000000	99.465625 
3932.000000	99.474941 
3931.000000	99.481861 
3930.000000	99.482748 
3929.000000	99.477892 
3928.000000	99.470889 
3927.000000	99.465700 
3926.000000	99.464378 
3925.000000	99.466257 
3924.000000	99.468745 
3923.000000	99.469847 
3922.000000	99.469688 
3921.000000	99.469854 
3920.000000	99.471498 
3919.000000	99.474343 
3918.000000	99.477476 
3917.000000	99.480432 
3916.000000	99.483339 
3915.000000	99.486418 
3914.000000	99.489803 
3913.000000	99.493391 
3912.000000	99.496479 
3911.000000	99.498168 
3910.000000	99.498302 
3909.000000	99.497617 
3908.000000	99.496975 
3907.000000	99.496066 
3906.000000	99.493209 
3905.000000	99.486666 
3904.000000	99.476215 
3903.000000	99.464336 
3902.000000	99.455477 
3901.000000	99.453262 
3900.000000	99.458134 
3899.000000	99.466801 
3898.000000	99.474779 
3897.000000	99.479740 
3896.000000	99.481859 
3895.000000	99.482116 
3894.000000	99.481237 
3893.000000	99.479517 
3892.000000	99.477054 
3891.000000	99.473615 
3890.000000	99.469083 
3889.000000	99.464100 
3888.000000	99.460114 
3887.000000	99.458707 
3886.000000	99.459989 
3885.000000	99.461830 
3884.000000	99.461948 
3883.000000	99.460800 
3882.000000	99.461211 
3881.000000	99.464910 
3880.000000	99.470013 
3879.000000	99.472648 
3878.000000	99.471781 
3877.000000	99.470411 
3876.000000	99.472184 
3875.000000	99.477179 
3874.000000	99.481151 
3873.000000	99.479777 
3872.000000	99.473743 
3871.000000	99.468386 
3870.000000	99.467915 
3869.000000	99.471310 
3868.000000	99.475002 
3867.000000	99.477577 
3866.000000	99.480267 
3865.000000	99.483795 
3864.000000	99.486053 
3863.000000	99.484851 
3862.000000	99.481157 
3861.000000	99.478105 
3860.000000	99.477877 
3859.000000	99.479975 
3858.000000	99.481967 
3857.000000	99.481964 
3856.000000	99.480346 
3855.000000	99.480243 
3854.000000	99.484187 
3853.000000	99.490309 
3852.000000	99.494888 
3851.000000	99.496973 
3850.000000	99.497341 
3849.000000	99.496464 
3848.000000	99.493963 
3847.000000	99.489469 
3846.000000	99.483773 
3845.000000	99.478791 
3844.000000	99.476643 
3843.000000	99.478569 
3842.000000	99.483557 
3841.000000	99.488739 
3840.000000	99.491773 
3839.000000	99.492123 
3838.000000	99.490548 
3837.000000	99.488164 
3836.000000	99.485948 
3835.000000	99.485113 
3834.000000	99.486911 
3833.000000	99.491656 
3832.000000	99.497771 
3831.000000	99.502179 
3830.000000	99.502742 
3829.000000	99.500032 
3828.000000	99.496411 
3827.000000	99.493951 
3826.000000	99.492976 
3825.000000	99.492353 
3824.000000	99.491306 
3823.000000	99.490869 
3822.000000	99.492716 
3821.000000	99.496611 
3820.000000	99.500409 
3819.000000	99.503130 
3818.000000	99.505851 
3817.000000	99.509667 
3816.000000	99.513101 
3815.000000	99.512599 
3814.000000	99.506779 
3813.000000	99.498704 
3812.000000	99.493309 
3811.000000	99.493324 
3810.000000	99.497760 
3809.000000	99.503649 
3808.000000	99.508551 
3807.000000	99.511300 
3806.000000	99.511249 
3805.000000	99.508162 
3804.000000	99.503284 
3803.000000	99.499417 
3802.000000	99.498534 
3801.000000	99.499061 
3800.000000	99.497695 
3799.000000	99.493790 
3798.000000	99.489862 
3797.000000	99.488574 
3796.000000	99.489797 
3795.000000	99.490822 
3794.000000	99.489428 
3793.000000	99.485987 
3792.000000	99.482711 
3791.000000	99.481504 
3790.000000	99.482632 
3789.000000	99.484821 
3788.000000	99.486182 
3787.000000	99.485354 
3786.000000	99.482605 
3785.000000	99.479861 
3784.000000	99.479227 
3783.000000	99.481243 
3782.000000	99.484875 
3781.000000	99.488781 
3780.000000	99.491994 
3779.000000	99.493692 
3778.000000	99.493203 
3777.000000	99.490602 
3776.000000	99.487086 
3775.000000	99.484526 
3774.000000	99.484116 
3773.000000	99.485444 
3772.000000	99.486996 
3771.000000	99.487383 
3770.000000	99.485911 
3769.000000	99.482803 
3768.000000	99.479484 
3767.000000	99.477807 
3766.000000	99.478561 
3765.000000	99.480812 
3764.000000	99.482629 
3763.000000	99.482778 
3762.000000	99.481673 
3761.000000	99.480544 
3760.000000	99.480030 
3759.000000	99.480038 
3758.000000	99.480903 
3757.000000	99.483392 
3756.000000	99.487308 
3755.000000	99.491386 
3754.000000	99.494490 
3753.000000	99.496670 
3752.000000	99.498458 
3751.000000	99.499168 
3750.000000	99.497924 
3749.000000	99.495713 
3748.000000	99.494425 
3747.000000	99.495067 
3746.000000	99.497543 
3745.000000	99.500171 
3744.000000	99.499917 
3743.000000	99.495540 
3742.000000	99.488684 
3741.000000	99.481043 
3740.000000	99.472772 
3739.000000	99.463316 
3738.000000	99.453818 
3737.000000	99.447510 
3736.000000	99.446154 
3735.000000	99.447661 
3734.000000	99.448778 
3733.000000	99.449613 
3732.000000	99.452453 
3731.000000	99.457533 
3730.000000	99.462823 
3729.000000	99.466507 
3728.000000	99.468421 
3727.000000	99.468903 
3726.000000	99.467336 
3725.000000	99.463153 
3724.000000	99.457633 
3723.000000	99.453562 
3722.000000	99.452821 
3721.000000	99.455368 
3720.000000	99.459484 
3719.000000	99.462512 
3718.000000	99.462474 
3717.000000	99.459002 
3716.000000	99.452844 
3715.000000	99.445526 
3714.000000	99.439605 
3713.000000	99.438304 
3712.000000	99.442582 
3711.000000	99.449133 
3710.000000	99.452863 
3709.000000	99.450660 
3708.000000	99.442847 
3707.000000	99.432021 
3706.000000	99.421164 
3705.000000	99.412491 
3704.000000	99.406751 
3703.000000	99.402874 
3702.000000	99.398162 
3701.000000	99.390104 
3700.000000	99.378569 
3699.000000	99.365796 
3698.000000	99.354567 
3697.000000	99.346430 
3696.000000	99.340900 
3695.000000	99.336691 
3694.000000	99.333585 
3693.000000	99.332133 
3692.000000	99.331409 
3691.000000	99.328380 
3690.000000	99.320718 
3689.000000	99.310120 
3688.000000	99.300919 
3687.000000	99.295176 
3686.000000	99.291892 
3685.000000	99.290451 
3684.000000	99.291599 
3683.000000	99.295287 
3682.000000	99.298887 
3681.000000	99.298286 
3680.000000	99.290669 
3679.000000	99.276148 
3678.000000	99.258264 
3677.000000	99.244504 
3676.000000	99.242458 
3675.000000	99.250393 
3674.000000	99.258006 
3673.000000	99.258718 
3672.000000	99.254294 
3671.000000	99.250958 
3670.000000	99.252241 
3669.000000	99.255564 
3668.000000	99.257335 
3667.000000	99.257765 
3666.000000	99.258858 
3665.000000	99.261000 
3664.000000	99.262587 
3663.000000	99.262059 
3662.000000	99.259445 
3661.000000	99.255690 
3660.000000	99.251694 
3659.000000	99.248882 
3658.000000	99.249838 
3657.000000	99.256312 
3656.000000	99.265863 
3655.000000	99.273098 
3654.000000	99.274970 
3653.000000	99.272690 
3652.000000	99.268911 
3651.000000	99.265041 
3650.000000	99.261342 
3649.000000	99.259465 
3648.000000	99.262148 
3647.000000	99.269236 
3646.000000	99.277461 
3645.000000	99.284275 
3644.000000	99.289857 
3643.000000	99.295887 
3642.000000	99.303911 
3641.000000	99.314026 
3640.000000	99.324943 
3639.000000	99.334662 
3638.000000	99.341260 
3637.000000	99.343896 
3636.000000	99.343062 
3635.000000	99.339910 
3634.000000	99.335039 
3633.000000	99.328653 
3632.000000	99.322170 
3631.000000	99.318945 
3630.000000	99.322163 
3629.000000	99.329746 
3628.000000	99.334137 
3627.000000	99.331595 
3626.000000	99.325910 
3625.000000	99.322091 
3624.000000	99.321649 
3623.000000	99.323286 
3622.000000	99.325802 
3621.000000	99.330025 
3620.000000	99.336871 
3619.000000	99.344200 
3618.000000	99.348336 
3617.000000	99.348833 
3616.000000	99.348928 
3615.000000	99.352030 
3614.000000	99.358020 
3613.000000	99.363276 
3612.000000	99.364840 
3611.000000	99.363809 
3610.000000	99.363682 
3609.000000	99.366077 
3608.000000	99.369118 
3607.000000	99.370582 
3606.000000	99.371339 
3605.000000	99.374002 
3604.000000	99.379546 
3603.000000	99.386522 
3602.000000	99.392791 
3601.000000	99.397489 
3600.000000	99.400395 
3599.000000	99.400620 
3598.000000	99.397442 
3597.000000	99.391860 
3596.000000	99.386761 
3595.000000	99.385737 
3594.000000	99.390054 
3593.000000	99.397188 
3592.000000	99.402616 
3591.000000	99.402558 
3590.000000	99.396647 
3589.000000	99.388855 
3588.000000	99.385120 
3587.000000	99.387198 
3586.000000	99.391264 
3585.000000	99.393773 
3584.000000	99.395627 
3583.000000	99.399460 
3582.000000	99.405836 
3581.000000	99.412320 
3580.000000	99.415761 
3579.000000	99.415012 
3578.000000	99.411381 
3577.000000	99.407441 
3576.000000	99.405440 
3575.000000	99.406366 
3574.000000	99.409467 
3573.000000	99.412396 
3572.000000	99.412745 
3571.000000	99.409570 
3570.000000	99.403471 
3569.000000	99.396333 
3568.000000	99.391080 
3567.000000	99.389759 
3566.000000	99.391449 
3565.000000	99.393773 
3564.000000	99.396048 
3563.000000	99.399584 
3562.000000	99.405452 
3561.000000	99.412651 
3560.000000	99.418782 
3559.000000	99.422163 
3558.000000	99.423126 
3557.000000	99.423153 
3556.000000	99.423265 
3555.000000	99.423228 
3554.000000	99.422244 
3553.000000	99.419761 
3552.000000	99.415959 
3551.000000	99.411709 
3550.000000	99.407752 
3549.000000	99.404034 
3548.000000	99.400467 
3547.000000	99.397894 
3546.000000	99.397730 
3545.000000	99.399828 
3544.000000	99.402189 
3543.000000	99.403512 
3542.000000	99.405151 
3541.000000	99.409298 
3540.000000	99.416062 
3539.000000	99.422893 
3538.000000	99.427119 
3537.000000	99.428321 
3536.000000	99.428028 
3535.000000	99.427733 
3534.000000	99.427638 
3533.000000	99.427355 
3532.000000	99.426780 
3531.000000	99.426139 
3530.000000	99.425172 
3529.000000	99.422828 
3528.000000	99.418273 
3527.000000	99.412285 
3526.000000	99.407170 
3525.000000	99.405035 
3524.000000	99.406159 
3523.000000	99.409014 
3522.000000	99.411894 
3521.000000	99.414134 
3520.000000	99.416133 
3519.000000	99.418561 
3518.000000	99.421756 
3517.000000	99.425431 
3516.000000	99.428648 
3515.000000	99.430355 
3514.000000	99.429918 
3513.000000	99.427300 
3512.000000	99.422918 
3511.000000	99.417624 
3510.000000	99.412751 
3509.000000	99.409876 
3508.000000	99.410149 
3507.000000	99.413588 
3506.000000	99.418827 
3505.000000	99.423262 
3504.000000	99.424165 
3503.000000	99.420752 
3502.000000	99.415461 
3501.000000	99.412373 
3500.000000	99.413692 
3499.000000	99.417823 
3498.000000	99.420870 
3497.000000	99.420105 
3496.000000	99.416003 
3495.000000	99.411283 
3494.000000	99.408493 
3493.000000	99.408451 
3492.000000	99.410437 
3491.000000	99.413306 
3490.000000	99.416559 
3489.000000	99.420617 
3488.000000	99.425935 
3487.000000	99.431689 
3486.000000	99.435760 
3485.000000	99.436369 
3484.000000	99.433519 
3483.000000	99.428757 
3482.000000	99.423826 
3481.000000	99.419959 
3480.000000	99.418092 
3479.000000	99.418630 
3478.000000	99.420513 
3477.000000	99.421533 
3476.000000	99.420651 
3475.000000	99.419762 
3474.000000	99.421855 
3473.000000	99.427048 
3472.000000	99.431670 
3471.000000	99.432157 
3470.000000	99.429101 
3469.000000	99.426280 
3468.000000	99.426094 
3467.000000	99.427248 
3466.000000	99.427372 
3465.000000	99.426509 
3464.000000	99.426741 
3463.000000	99.428946 
3462.000000	99.431394 
3461.000000	99.432105 
3460.000000	99.431607 
3459.000000	99.432393 
3458.000000	99.435754 
3457.000000	99.439844 
3456.000000	99.441342 
3455.000000	99.438856 
3454.000000	99.434266 
3453.000000	99.430719 
3452.000000	99.429514 
3451.000000	99.429374 
3450.000000	99.428458 
3449.000000	99.426546 
3448.000000	99.424877 
3447.000000	99.424297 
3446.000000	99.424268 
3445.000000	99.424042 
3444.000000	99.424119 
3443.000000	99.425695 
3442.000000	99.428749 
3441.000000	99.431261 
3440.000000	99.430872 
3439.000000	99.427138 
3438.000000	99.421785 
3437.000000	99.416914 
3436.000000	99.413518 
3435.000000	99.411856 
3434.000000	99.412435 
3433.000000	99.415837 
3432.000000	99.421350 
3431.000000	99.426558 
3430.000000	99.428970 
3429.000000	99.428253 
3428.000000	99.426573 
3427.000000	99.426298 
3426.000000	99.427401 
3425.000000	99.427401 
3424.000000	99.423978 
3423.000000	99.417426 
3422.000000	99.410502 
3421.000000	99.406270 
3420.000000	99.406474 
3419.000000	99.411261 
3418.000000	99.419237 
3417.000000	99.427470 
3416.000000	99.432531 
3415.000000	99.432627 
3414.000000	99.428904 
3413.000000	99.424408 
3412.000000	99.421803 
3411.000000	99.422037 
3410.000000	99.424401 
3409.000000	99.427116 
3408.000000	99.428088 
3407.000000	99.426095 
3406.000000	99.421853 
3405.000000	99.417692 
3404.000000	99.415765 
3403.000000	99.416388 
3402.000000	99.418089 
3401.000000	99.419386 
3400.000000	99.420328 
3399.000000	99.422206 
3398.000000	99.425732 
3397.000000	99.429806 
3396.000000	99.432240 
3395.000000	99.431460 
3394.000000	99.427227 
3393.000000	99.420215 
3392.000000	99.411857 
3391.000000	99.404674 
3390.000000	99.401758 
3389.000000	99.404766 
3388.000000	99.412347 
3387.000000	99.421095 
3386.000000	99.428379 
3385.000000	99.433994 
3384.000000	99.438789 
3383.000000	99.442125 
3382.000000	99.441527 
3381.000000	99.435438 
3380.000000	99.426063 
3379.000000	99.418705 
3378.000000	99.417380 
3377.000000	99.421029 
3376.000000	99.424606 
3375.000000	99.424128 
3374.000000	99.420241 
3373.000000	99.416715 
3372.000000	99.416206 
3371.000000	99.418247 
3370.000000	99.420884 
3369.000000	99.422915 
3368.000000	99.424251 
3367.000000	99.425114 
3366.000000	99.425767 
3365.000000	99.426507 
3364.000000	99.427187 
3363.000000	99.427009 
3362.000000	99.425460 
3361.000000	99.423127 
3360.000000	99.420863 
3359.000000	99.418413 
3358.000000	99.414964 
3357.000000	99.411231 
3356.000000	99.409737 
3355.000000	99.412061 
3354.000000	99.416449 
3353.000000	99.419271 
3352.000000	99.418750 
3351.000000	99.416566 
3350.000000	99.415832 
3349.000000	99.418198 
3348.000000	99.423000 
3347.000000	99.428178 
3346.000000	99.431441 
3345.000000	99.431293 
3344.000000	99.428024 
3343.000000	99.423820 
3342.000000	99.420940 
3341.000000	99.419374 
3340.000000	99.416739 
3339.000000	99.411215 
3338.000000	99.404493 
3337.000000	99.401030 
3336.000000	99.403815 
3335.000000	99.411117 
3334.000000	99.418079 
3333.000000	99.421468 
3332.000000	99.422218 
3331.000000	99.423148 
3330.000000	99.425032 
3329.000000	99.425932 
3328.000000	99.424134 
3327.000000	99.420504 
3326.000000	99.417271 
3325.000000	99.415272 
3324.000000	99.413354 
3323.000000	99.410458 
3322.000000	99.407331 
3321.000000	99.405781 
3320.000000	99.406750 
3319.000000	99.409608 
3318.000000	99.413057 
3317.000000	99.416035 
3316.000000	99.417704 
3315.000000	99.417523 
3314.000000	99.416194 
3313.000000	99.416090 
3312.000000	99.419459 
3311.000000	99.425628 
3310.000000	99.430705 
3309.000000	99.430957 
3308.000000	99.426350 
3307.000000	99.420349 
3306.000000	99.416655 
3305.000000	99.416727 
3304.000000	99.419921 
3303.000000	99.424504 
3302.000000	99.428111 
3301.000000	99.428303 
3300.000000	99.423938 
3299.000000	99.416263 
3298.000000	99.408441 
3297.000000	99.403789 
3296.000000	99.403862 
3295.000000	99.407509 
3294.000000	99.411736 
3293.000000	99.414178 
3292.000000	99.414973 
3291.000000	99.415712 
3290.000000	99.416621 
3289.000000	99.415958 
3288.000000	99.412608 
3287.000000	99.408142 
3286.000000	99.405190 
3285.000000	99.404372 
3284.000000	99.403987 
3283.000000	99.402569 
3282.000000	99.400809 
3281.000000	99.400832 
3280.000000	99.404211 
3279.000000	99.410620 
3278.000000	99.417672 
3277.000000	99.422053 
3276.000000	99.421568 
3275.000000	99.416606 
3274.000000	99.409593 
3273.000000	99.403171 
3272.000000	99.399049 
3271.000000	99.397886 
3270.000000	99.399223 
3269.000000	99.401433 
3268.000000	99.402580 
3267.000000	99.401777 
3266.000000	99.399570 
3265.000000	99.397181 
3264.000000	99.395833 
3263.000000	99.396514 
3262.000000	99.399424 
3261.000000	99.403299 
3260.000000	99.405995 
3259.000000	99.406300 
3258.000000	99.405002 
3257.000000	99.403884 
3256.000000	99.403816 
3255.000000	99.403949 
3254.000000	99.402752 
3253.000000	99.399931 
3252.000000	99.397370 
3251.000000	99.397833 
3250.000000	99.402257 
3249.000000	99.408443 
3248.000000	99.412748 
3247.000000	99.413011 
3246.000000	99.409684 
3245.000000	99.404729 
3244.000000	99.400166 
3243.000000	99.397347 
3242.000000	99.396502 
3241.000000	99.396670 
3240.000000	99.396842 
3239.000000	99.397503 
3238.000000	99.400398 
3237.000000	99.406381 
3236.000000	99.413866 
3235.000000	99.419720 
3234.000000	99.421495 
3233.000000	99.418991 
3232.000000	99.414321 
3231.000000	99.410597 
3230.000000	99.409705 
3229.000000	99.410727 
3228.000000	99.410814 
3227.000000	99.407910 
3226.000000	99.402482 
3225.000000	99.396679 
3224.000000	99.392441 
3223.000000	99.390631 
3222.000000	99.391167 
3221.000000	99.393170 
3220.000000	99.395203 
3219.000000	99.396111 
3218.000000	99.395969 
3217.000000	99.396171 
3216.000000	99.398539 
3215.000000	99.404023 
3214.000000	99.411704 
3213.000000	99.418867 
3212.000000	99.422421 
3211.000000	99.420712 
3210.000000	99.414369 
3209.000000	99.405884 
3208.000000	99.398549 
3207.000000	99.395004 
3206.000000	99.395703 
3205.000000	99.398608 
3204.000000	99.401054 
3203.000000	99.402013 
3202.000000	99.402111 
3201.000000	99.401773 
3200.000000	99.400593 
3199.000000	99.398720 
3198.000000	99.397612 
3197.000000	99.398659 
3196.000000	99.401799 
3195.000000	99.405964 
3194.000000	99.409992 
3193.000000	99.412478 
3192.000000	99.411831 
3191.000000	99.407780 
3190.000000	99.402400 
3189.000000	99.398508 
3188.000000	99.397120 
3187.000000	99.397210 
3186.000000	99.397579 
3185.000000	99.397907 
3184.000000	99.398107 
3183.000000	99.397838 
3182.000000	99.397203 
3181.000000	99.397347 
3180.000000	99.399775 
3179.000000	99.404931 
3178.000000	99.411221 
3177.000000	99.415463 
3176.000000	99.415123 
3175.000000	99.410897 
3174.000000	99.406611 
3173.000000	99.405490 
3172.000000	99.406618 
3171.000000	99.406143 
3170.000000	99.402154 
3169.000000	99.397162 
3168.000000	99.395137 
3167.000000	99.397055 
3166.000000	99.400340 
3165.000000	99.402159 
3164.000000	99.402156 
3163.000000	99.401912 
3162.000000	99.402675 
3161.000000	99.404220 
3160.000000	99.405645 
3159.000000	99.406637 
3158.000000	99.407564 
3157.000000	99.408400 
3156.000000	99.408018 
3155.000000	99.404981 
3154.000000	99.398959 
3153.000000	99.391163 
3152.000000	99.383507 
3151.000000	99.377744 
3150.000000	99.375164 
3149.000000	99.376218 
3148.000000	99.379990 
3147.000000	99.384542 
3146.000000	99.388392 
3145.000000	99.391516 
3144.000000	99.394567 
3143.000000	99.397456 
3142.000000	99.399343 
3141.000000	99.399908 
3140.000000	99.399944 
3139.000000	99.400451 
3138.000000	99.401568 
3137.000000	99.402705 
3136.000000	99.403427 
3135.000000	99.403864 
3134.000000	99.404355 
3133.000000	99.404918 
3132.000000	99.405040 
3131.000000	99.403977 
3130.000000	99.401453 
3129.000000	99.398272 
3128.000000	99.396082 
3127.000000	99.396259 
3126.000000	99.398852 
3125.000000	99.402531 
3124.000000	99.405339 
3123.000000	99.405543 
3122.000000	99.402408 
3121.000000	99.396873 
3120.000000	99.391483 
3119.000000	99.388977 
3118.000000	99.390307 
3117.000000	99.394014 
3116.000000	99.397740 
3115.000000	99.400191 
3114.000000	99.401487 
3113.000000	99.401954 
3112.000000	99.401279 
3111.000000	99.399137 
3110.000000	99.396207 
3109.000000	99.393986 
3108.000000	99.393432 
3107.000000	99.394002 
3106.000000	99.394259 
3105.000000	99.393445 
3104.000000	99.392350 
3103.000000	99.392563 
3102.000000	99.394949 
3101.000000	99.398886 
3100.000000	99.402948 
3099.000000	99.406069 
3098.000000	99.407938 
3097.000000	99.408560 
3096.000000	99.407944 
3095.000000	99.406308 
3094.000000	99.404220 
3093.000000	99.402207 
3092.000000	99.400346 
3091.000000	99.398578 
3090.000000	99.397421 
3089.000000	99.397915 
3088.000000	99.400442 
3087.000000	99.403741 
3086.000000	99.405554 
3085.000000	99.404518 
3084.000000	99.401254 
3083.000000	99.397530 
3082.000000	99.394654 
3081.000000	99.392820 
3080.000000	99.391747 
3079.000000	99.391561 
3078.000000	99.392983 
3077.000000	99.396680 
3076.000000	99.402234 
3075.000000	99.407693 
3074.000000	99.410579 
3073.000000	99.409831 
3072.000000	99.406574 
3071.000000	99.402586 
3070.000000	99.398298 
3069.000000	99.392924 
3068.000000	99.386523 
3067.000000	99.381201 
3066.000000	99.379856 
3065.000000	99.383882 
3064.000000	99.391935 
3063.000000	99.400466 
3062.000000	99.405556 
3061.000000	99.405064 
3060.000000	99.399743 
3059.000000	99.392377 
3058.000000	99.385951 
3057.000000	99.382696 
3056.000000	99.383922 
3055.000000	99.389352 
3054.000000	99.396354 
3053.000000	99.401020 
3052.000000	99.400888 
3051.000000	99.396519 
3050.000000	99.390493 
3049.000000	99.385583 
3048.000000	99.383579 
3047.000000	99.384245 
3046.000000	99.384624 
3045.000000	99.380788 
3044.000000	99.371896 
3043.000000	99.361982 
3042.000000	99.356376 
3041.000000	99.356436 
3040.000000	99.358694 
3039.000000	99.358835 
3038.000000	99.355254 
3037.000000	99.348868 
3036.000000	99.340987 
3035.000000	99.332234 
3034.000000	99.322820 
3033.000000	99.312962 
3032.000000	99.302899 
3031.000000	99.292693 
3030.000000	99.282219 
3029.000000	99.271646 
3028.000000	99.262006 
3027.000000	99.254669 
3026.000000	99.249554 
3025.000000	99.244132 
3024.000000	99.235073 
3023.000000	99.221192 
3022.000000	99.204370 
3021.000000	99.187447 
3020.000000	99.171630 
3019.000000	99.156063 
3018.000000	99.139576 
3017.000000	99.122318 
3016.000000	99.105456 
3015.000000	99.089345 
3014.000000	99.072723 
3013.000000	99.054390 
3012.000000	99.035336 
3011.000000	99.018019 
3010.000000	99.003265 
3009.000000	98.989033 
3008.000000	98.972830 
3007.000000	98.954319 
3006.000000	98.934762 
3005.000000	98.914872 
3004.000000	98.894556 
3003.000000	98.874335 
3002.000000	98.855672 
3001.000000	98.839742 
3000.000000	98.826590 
2999.000000	98.815440 
2998.000000	98.805334 
2997.000000	98.795746 
2996.000000	98.786836 
2995.000000	98.778123 
2994.000000	98.766062 
2993.000000	98.744528 
2992.000000	98.710259 
2991.000000	98.668172 
2990.000000	98.629679 
2989.000000	98.604949 
2988.000000	98.597123 
2987.000000	98.603112 
2986.000000	98.617397 
2985.000000	98.634286 
2984.000000	98.648726 
2983.000000	98.657636 
2982.000000	98.660791 
2981.000000	98.659853 
2980.000000	98.656720 
2979.000000	98.653051 
2978.000000	98.650288 
2977.000000	98.648840 
2976.000000	98.647403 
2975.000000	98.644051 
2974.000000	98.638393 
2973.000000	98.632408 
2972.000000	98.629202 
2971.000000	98.631006 
2970.000000	98.638006 
2969.000000	98.648552 
2968.000000	98.660424 
2967.000000	98.672181 
2966.000000	98.683534 
2965.000000	98.694752 
2964.000000	98.706040 
2963.000000	98.717394 
2962.000000	98.728626 
2961.000000	98.739347 
2960.000000	98.749150 
2959.000000	98.757863 
2958.000000	98.765499 
2957.000000	98.772158 
2956.000000	98.778352 
2955.000000	98.785317 
2954.000000	98.794421 
2953.000000	98.805992 
2952.000000	98.818888 
2951.000000	98.831258 
2950.000000	98.841638 
2949.000000	98.849502 
2948.000000	98.855087 
2947.000000	98.858864 
2946.000000	98.861278 
2945.000000	98.863183 
2944.000000	98.866132 
2943.000000	98.871185 
2942.000000	98.876969 
2941.000000	98.879927 
2940.000000	98.877546 
2939.000000	98.871270 
2938.000000	98.865544 
2937.000000	98.864189 
2936.000000	98.867934 
2935.000000	98.874523 
2934.000000	98.880135 
2933.000000	98.881209 
2932.000000	98.876502 
2931.000000	98.867857 
2930.000000	98.858631 
2929.000000	98.851434 
2928.000000	98.847376 
2927.000000	98.846243 
2926.000000	98.846218 
2925.000000	98.844351 
2924.000000	98.839118 
2923.000000	98.832385 
2922.000000	98.827451 
2921.000000	98.825261 
2920.000000	98.823930 
2919.000000	98.821693 
2918.000000	98.818695 
2917.000000	98.815668 
2916.000000	98.812464 
2915.000000	98.808460 
2914.000000	98.803461 
2913.000000	98.797874 
2912.000000	98.792804 
2911.000000	98.789841 
2910.000000	98.789519 
2909.000000	98.789965 
2908.000000	98.788278 
2907.000000	98.783294 
2906.000000	98.775555 
2905.000000	98.764711 
2904.000000	98.749375 
2903.000000	98.730964 
2902.000000	98.716140 
2901.000000	98.713634 
2900.000000	98.727209 
2899.000000	98.752691 
2898.000000	98.780309 
2897.000000	98.800485 
2896.000000	98.809336 
2895.000000	98.810391 
2894.000000	98.810913 
2893.000000	98.815661 
2892.000000	98.824139 
2891.000000	98.833064 
2890.000000	98.839959 
2889.000000	98.843944 
2888.000000	98.845032 
2887.000000	98.844424 
2886.000000	98.844788 
2885.000000	98.848675 
2884.000000	98.856686 
2883.000000	98.867843 
2882.000000	98.881217 
2881.000000	98.896221 
2880.000000	98.911659 
2879.000000	98.925751 
2878.000000	98.937385 
2877.000000	98.946905 
2876.000000	98.955580 
2875.000000	98.964564 
2874.000000	98.974095 
2873.000000	98.983313 
2872.000000	98.990992 
2871.000000	98.996716 
2870.000000	99.001289 
2869.000000	99.006168 
2868.000000	99.012935 
2867.000000	99.022983 
2866.000000	99.036491 
2865.000000	99.051396 
2864.000000	99.064505 
2863.000000	99.074336 
2862.000000	99.082097 
2861.000000	99.089489 
2860.000000	99.096808 
2859.000000	99.104031 
2858.000000	99.112281 
2857.000000	99.122557 
2856.000000	99.133689 
2855.000000	99.143233 
2854.000000	99.150337 
2853.000000	99.156558 
2852.000000	99.163897 
2851.000000	99.173055 
2850.000000	99.183656 
2849.000000	99.195087 
2848.000000	99.206684 
2847.000000	99.217675 
2846.000000	99.227326 
2845.000000	99.234998 
2844.000000	99.240259 
2843.000000	99.243403 
2842.000000	99.245854 
2841.000000	99.249545 
2840.000000	99.255674 
2839.000000	99.264007 
2838.000000	99.273086 
2837.000000	99.280961 
2836.000000	99.286285 
2835.000000	99.289332 
2834.000000	99.291749 
2833.000000	99.294845 
2832.000000	99.298288 
2831.000000	99.300840 
2830.000000	99.301965 
2829.000000	99.302093 
2828.000000	99.301759 
2827.000000	99.301375 
2826.000000	99.301819 
2825.000000	99.304145 
2824.000000	99.308242 
2823.000000	99.312375 
2822.000000	99.314712 
2821.000000	99.315188 
2820.000000	99.315573 
2819.000000	99.317753 
2818.000000	99.322058 
2817.000000	99.327076 
2816.000000	99.330862 
2815.000000	99.332320 
2814.000000	99.331663 
2813.000000	99.329941 
2812.000000	99.328365 
2811.000000	99.327986 
2810.000000	99.329447 
2809.000000	99.332650 
2808.000000	99.336680 
2807.000000	99.340264 
2806.000000	99.342367 
2805.000000	99.342507 
2804.000000	99.340934 
2803.000000	99.338677 
2802.000000	99.337071 
2801.000000	99.336857 
2800.000000	99.337808 
2799.000000	99.339322 
2798.000000	99.340988 
2797.000000	99.342266 
2796.000000	99.342099 
2795.000000	99.339745 
2794.000000	99.336213 
2793.000000	99.334174 
2792.000000	99.335728 
2791.000000	99.340326 
2790.000000	99.345310 
2789.000000	99.348607 
2788.000000	99.350488 
2787.000000	99.352457 
2786.000000	99.354877 
2785.000000	99.356284 
2784.000000	99.355068 
2783.000000	99.351234 
2782.000000	99.346379 
2781.000000	99.342410 
2780.000000	99.340573 
2779.000000	99.341181 
2778.000000	99.343649 
2777.000000	99.346921 
2776.000000	99.350235 
2775.000000	99.353359 
2774.000000	99.355918 
2773.000000	99.357092 
2772.000000	99.356676 
2771.000000	99.355986 
2770.000000	99.356741 
2769.000000	99.359010 
2768.000000	99.361221 
2767.000000	99.362363 
2766.000000	99.363220 
2765.000000	99.364813 
2764.000000	99.366384 
2763.000000	99.365884 
2762.000000	99.362464 
2761.000000	99.357755 
2760.000000	99.354442 
2759.000000	99.353884 
2758.000000	99.355416 
2757.000000	99.357752 
2756.000000	99.360370 
2755.000000	99.363075 
2754.000000	99.364739 
2753.000000	99.363697 
2752.000000	99.359936 
2751.000000	99.356063 
2750.000000	99.355126 
2749.000000	99.357707 
2748.000000	99.361806 
2747.000000	99.365265 
2746.000000	99.367351 
2745.000000	99.368143 
2744.000000	99.367612 
2743.000000	99.365919 
2742.000000	99.363892 
2741.000000	99.362502 
2740.000000	99.361985 
2739.000000	99.361842 
2738.000000	99.361645 
2737.000000	99.361721 
2736.000000	99.363032 
2735.000000	99.366224 
2734.000000	99.370592 
2733.000000	99.374216 
2732.000000	99.375481 
2731.000000	99.374337 
2730.000000	99.371889 
2729.000000	99.369249 
2728.000000	99.367279 
2727.000000	99.366858 
2726.000000	99.368304 
2725.000000	99.370584 
2724.000000	99.372131 
2723.000000	99.372705 
2722.000000	99.373684 
2721.000000	99.376206 
2720.000000	99.379628 
2719.000000	99.382117 
2718.000000	99.382295 
2717.000000	99.380124 
2716.000000	99.376796 
2715.000000	99.374094 
2714.000000	99.373396 
2713.000000	99.374781 
2712.000000	99.377127 
2711.000000	99.379226 
2710.000000	99.380823 
2709.000000	99.382648 
2708.000000	99.385486 
2707.000000	99.388919 
2706.000000	99.390983 
2705.000000	99.389827 
2704.000000	99.386224 
2703.000000	99.383568 
2702.000000	99.384382 
2701.000000	99.387354 
2700.000000	99.389098 
2699.000000	99.388582 
2698.000000	99.388309 
2697.000000	99.390833 
2696.000000	99.395387 
2695.000000	99.398614 
2694.000000	99.397990 
2693.000000	99.394005 
2692.000000	99.389551 
2691.000000	99.387388 
2690.000000	99.387769 
2689.000000	99.388370 
2688.000000	99.387049 
2687.000000	99.384469 
2686.000000	99.383315 
2685.000000	99.385099 
2684.000000	99.388715 
2683.000000	99.391976 
2682.000000	99.393377 
2681.000000	99.392204 
2680.000000	99.388469 
2679.000000	99.383614 
2678.000000	99.380371 
2677.000000	99.380921 
2676.000000	99.385244 
2675.000000	99.391324 
2674.000000	99.396378 
2673.000000	99.398044 
2672.000000	99.395717 
2671.000000	99.391357 
2670.000000	99.388078 
2669.000000	99.387257 
2668.000000	99.387661 
2667.000000	99.387834 
2666.000000	99.388266 
2665.000000	99.390305 
2664.000000	99.393675 
2663.000000	99.396366 
2662.000000	99.396995 
2661.000000	99.396479 
2660.000000	99.396950 
2659.000000	99.399280 
2658.000000	99.402042 
2657.000000	99.403254 
2656.000000	99.402946 
2655.000000	99.403058 
2654.000000	99.404402 
2653.000000	99.405080 
2652.000000	99.403438 
2651.000000	99.401464 
2650.000000	99.402724 
2649.000000	99.406967 
2648.000000	99.409686 
2647.000000	99.408204 
2646.000000	99.405749 
2645.000000	99.407442 
2644.000000	99.413637 
2643.000000	99.419439 
2642.000000	99.420225 
2641.000000	99.415998 
2640.000000	99.410544 
2639.000000	99.407666 
2638.000000	99.408138 
2637.000000	99.409347 
2636.000000	99.407997 
2635.000000	99.403601 
2634.000000	99.398870 
2633.000000	99.396636 
2632.000000	99.397625 
2631.000000	99.401576 
2630.000000	99.408348 
2629.000000	99.416290 
2628.000000	99.421418 
2627.000000	99.420835 
2626.000000	99.416333 
2625.000000	99.412380 
2624.000000	99.410939 
2623.000000	99.410411 
2622.000000	99.409374 
2621.000000	99.408798 
2620.000000	99.409978 
2619.000000	99.412373 
2618.000000	99.414538 
2617.000000	99.415849 
2616.000000	99.416533 
2615.000000	99.417090 
2614.000000	99.418348 
2613.000000	99.420993 
2612.000000	99.424261 
2611.000000	99.426043 
2610.000000	99.425242 
2609.000000	99.423483 
2608.000000	99.423599 
2607.000000	99.426647 
2606.000000	99.431037 
2605.000000	99.434460 
2604.000000	99.436032 
2603.000000	99.436365 
2602.000000	99.436152 
2601.000000	99.435454 
2600.000000	99.434456 
2599.000000	99.433935 
2598.000000	99.433965 
2597.000000	99.432588 
2596.000000	99.427334 
2595.000000	99.418575 
2594.000000	99.410198 
2593.000000	99.406122 
2592.000000	99.406904 
2591.000000	99.410391 
2590.000000	99.414623 
2589.000000	99.418870 
2588.000000	99.422547 
2587.000000	99.424708 
2586.000000	99.424864 
2585.000000	99.423515 
2584.000000	99.421748 
2583.000000	99.420639 
2582.000000	99.420745 
2581.000000	99.421567 
2580.000000	99.421679 
2579.000000	99.419936 
2578.000000	99.416441 
2577.000000	99.412123 
2576.000000	99.407826 
2575.000000	99.404271 
2574.000000	99.402513 
2573.000000	99.403688 
2572.000000	99.408104 
2571.000000	99.414535 
2570.000000	99.420325 
2569.000000	99.422673 
2568.000000	99.420714 
2567.000000	99.416344 
2566.000000	99.412326 
2565.000000	99.409798 
2564.000000	99.408478 
2563.000000	99.408669 
2562.000000	99.411156 
2561.000000	99.414904 
2560.000000	99.416859 
2559.000000	99.415038 
2558.000000	99.410648 
2557.000000	99.406630 
2556.000000	99.405398 
2555.000000	99.408283 
2554.000000	99.415086 
2553.000000	99.423014 
2552.000000	99.427771 
2551.000000	99.427218 
2550.000000	99.422948 
2549.000000	99.417557 
2548.000000	99.412017 
2547.000000	99.406754 
2546.000000	99.403204 
2545.000000	99.402385 
2544.000000	99.403276 
2543.000000	99.404290 
2542.000000	99.405052 
2541.000000	99.405304 
2540.000000	99.403884 
2539.000000	99.400833 
2538.000000	99.398705 
2537.000000	99.399169 
2536.000000	99.399752 
2535.000000	99.396978 
2534.000000	99.391777 
2533.000000	99.388433 
2532.000000	99.388447 
2531.000000	99.388910 
2530.000000	99.387403 
2529.000000	99.385210 
2528.000000	99.384382 
2527.000000	99.384361 
2526.000000	99.383525 
2525.000000	99.382384 
2524.000000	99.383269 
2523.000000	99.387606 
2522.000000	99.394754 
2521.000000	99.402822 
2520.000000	99.409351 
2519.000000	99.411627 
2518.000000	99.407760 
2517.000000	99.398208 
2516.000000	99.386147 
2515.000000	99.376024 
2514.000000	99.371199 
2513.000000	99.372375 
2512.000000	99.378020 
2511.000000	99.386095 
2510.000000	99.394917 
2509.000000	99.402595 
2508.000000	99.407021 
2507.000000	99.407404 
2506.000000	99.405046 
2505.000000	99.401730 
2504.000000	99.397975 
2503.000000	99.393762 
2502.000000	99.390140 
2501.000000	99.388895 
2500.000000	99.391056 
2499.000000	99.396538 
2498.000000	99.404233 
2497.000000	99.411158 
2496.000000	99.412825 
2495.000000	99.406914 
2494.000000	99.396573 
2493.000000	99.388064 
2492.000000	99.384771 
2491.000000	99.385150 
2490.000000	99.386752 
2489.000000	99.390148 
2488.000000	99.397555 
2487.000000	99.408657 
2486.000000	99.419048 
2485.000000	99.422921 
2484.000000	99.417501 
2483.000000	99.405667 
2482.000000	99.394327 
2481.000000	99.389231 
2480.000000	99.390751 
2479.000000	99.394848 
2478.000000	99.397594 
2477.000000	99.397911 
2476.000000	99.396694 
2475.000000	99.395231 
2474.000000	99.394804 
2473.000000	99.396000 
2472.000000	99.397510 
2471.000000	99.396917 
2470.000000	99.393736 
2469.000000	99.390702 
2468.000000	99.390907 
2467.000000	99.394226 
2466.000000	99.397529 
2465.000000	99.398046 
2464.000000	99.395752 
2463.000000	99.392839 
2462.000000	99.391666 
2461.000000	99.392973 
2460.000000	99.395350 
2459.000000	99.396481 
2458.000000	99.395430 
2457.000000	99.393552 
2456.000000	99.392731 
2455.000000	99.393114 
2454.000000	99.393287 
2453.000000	99.392368 
2452.000000	99.390810 
2451.000000	99.388997 
2450.000000	99.386225 
2449.000000	99.381936 
2448.000000	99.377327 
2447.000000	99.374754 
2446.000000	99.375626 
2445.000000	99.379486 
2444.000000	99.384786 
2443.000000	99.389626 
2442.000000	99.391937 
2441.000000	99.390540 
2440.000000	99.386815 
2439.000000	99.384245 
2438.000000	99.385123 
2437.000000	99.388149 
2436.000000	99.390175 
2435.000000	99.389820 
2434.000000	99.388370 
2433.000000	99.387722 
2432.000000	99.388861 
2431.000000	99.392018 
2430.000000	99.396443 
2429.000000	99.399562 
2428.000000	99.398114 
2427.000000	99.391464 
2426.000000	99.383057 
2425.000000	99.377689 
2424.000000	99.377781 
2423.000000	99.382748 
2422.000000	99.390774 
2421.000000	99.399655 
2420.000000	99.406288 
2419.000000	99.407239 
2418.000000	99.401161 
2417.000000	99.390544 
2416.000000	99.380388 
2415.000000	99.374547 
2414.000000	99.373114 
2413.000000	99.373227 
2412.000000	99.372324 
2411.000000	99.370365 
2410.000000	99.368996 
2409.000000	99.369145 
2408.000000	99.369991 
2407.000000	99.370043 
2406.000000	99.368804 
2405.000000	99.367525 
2404.000000	99.368425 
2403.000000	99.372548 
2402.000000	99.377917 
2401.000000	99.380513 
2400.000000	99.377912 
2399.000000	99.371599 
2398.000000	99.365184 
2397.000000	99.361121 
2396.000000	99.359812 
2395.000000	99.360607 
2394.000000	99.362061 
2393.000000	99.362071 
2392.000000	99.359766 
2391.000000	99.357077 
2390.000000	99.356831 
2389.000000	99.359622 
2388.000000	99.364177 
2387.000000	99.370071 
2386.000000	99.377457 
2385.000000	99.384322 
2384.000000	99.387283 
2383.000000	99.386255 
2382.000000	99.385478 
2381.000000	99.387948 
2380.000000	99.390952 
2379.000000	99.389665 
2378.000000	99.383862 
2377.000000	99.378373 
2376.000000	99.377331 
2375.000000	99.380174 
2374.000000	99.383200 
2373.000000	99.383064 
2372.000000	99.378603 
2371.000000	99.371317 
2370.000000	99.364659 
2369.000000	99.361846 
2368.000000	99.363782 
2367.000000	99.369234 
2366.000000	99.376482 
2365.000000	99.384345 
2364.000000	99.392008 
2363.000000	99.398793 
2362.000000	99.403340 
2361.000000	99.403742 
2360.000000	99.400175 
2359.000000	99.394899 
2358.000000	99.389649 
2357.000000	99.384534 
2356.000000	99.380593 
2355.000000	99.381336 
2354.000000	99.386598 
2353.000000	99.392306 
2352.000000	99.394717 
2351.000000	99.394517 
2350.000000	99.394877 
2349.000000	99.396318 
2348.000000	99.397902 
2347.000000	99.398633 
2346.000000	99.399723 
2345.000000	99.403265 
2344.000000	99.408354 
2343.000000	99.412914 
2342.000000	99.414208 
2341.000000	99.412912 
2340.000000	99.411729 
2339.000000	99.413349 
2338.000000	99.417231 
2337.000000	99.419004 
2336.000000	99.415103 
2335.000000	99.405918 
2334.000000	99.396647 
2333.000000	99.392845 
2332.000000	99.397066 
2331.000000	99.404591 
2330.000000	99.409577 
2329.000000	99.408974 
2328.000000	99.408806 
2327.000000	99.415159 
2326.000000	99.429223 
2325.000000	99.444281 
2324.000000	99.452638 
2323.000000	99.453081 
2322.000000	99.450709 
2321.000000	99.450314 
2320.000000	99.450015 
2319.000000	99.444793 
2318.000000	99.434696 
2317.000000	99.425009 
2316.000000	99.421130 
2315.000000	99.422110 
2314.000000	99.424678 
2313.000000	99.425943 
2312.000000	99.426765 
2311.000000	99.427539 
2310.000000	99.428442 
2309.000000	99.428031 
2308.000000	99.426162 
2307.000000	99.423268 
2306.000000	99.421366 
2305.000000	99.421596 
2304.000000	99.423879 
2303.000000	99.426102 
2302.000000	99.426575 
2301.000000	99.424868 
2300.000000	99.423273 
2299.000000	99.424596 
2298.000000	99.430107 
2297.000000	99.436724 
2296.000000	99.439999 
2295.000000	99.438183 
2294.000000	99.434272 
2293.000000	99.431499 
2292.000000	99.430044 
2291.000000	99.428534 
2290.000000	99.427783 
2289.000000	99.429866 
2288.000000	99.434279 
2287.000000	99.437586 
2286.000000	99.436908 
2285.000000	99.432038 
2284.000000	99.424174 
2283.000000	99.415415 
2282.000000	99.409249 
2281.000000	99.408742 
2280.000000	99.412703 
2279.000000	99.416229 
2278.000000	99.416053 
2277.000000	99.413575 
2276.000000	99.411621 
2275.000000	99.410615 
2274.000000	99.409745 
2273.000000	99.409514 
2272.000000	99.410765 
2271.000000	99.412335 
2270.000000	99.412429 
2269.000000	99.411749 
2268.000000	99.412958 
2267.000000	99.416742 
2266.000000	99.420356 
2265.000000	99.420576 
2264.000000	99.416800 
2263.000000	99.410633 
2262.000000	99.403780 
2261.000000	99.397387 
2260.000000	99.392542 
2259.000000	99.390249 
2258.000000	99.390673 
2257.000000	99.393157 
2256.000000	99.396834 
2255.000000	99.400832 
2254.000000	99.404079 
2253.000000	99.406054 
2252.000000	99.407992 
2251.000000	99.411804 
2250.000000	99.417015 
2249.000000	99.420113 
2248.000000	99.418394 
2247.000000	99.414006 
2246.000000	99.411350 
2245.000000	99.411586 
2244.000000	99.411889 
2243.000000	99.409938 
2242.000000	99.406334 
2241.000000	99.402622 
2240.000000	99.400400 
2239.000000	99.403106 
2238.000000	99.414184 
2237.000000	99.430574 
2236.000000	99.441690 
2235.000000	99.439298 
2234.000000	99.426984 
2233.000000	99.416273 
2232.000000	99.414099 
2231.000000	99.417090 
2230.000000	99.417295 
2229.000000	99.410281 
2228.000000	99.397924 
2227.000000	99.386162 
2226.000000	99.380320 
2225.000000	99.380842 
2224.000000	99.383999 
2223.000000	99.387803 
2222.000000	99.394427 
2221.000000	99.403942 
2220.000000	99.409459 
2219.000000	99.404767 
2218.000000	99.395459 
2217.000000	99.395184 
2216.000000	99.409057 
2215.000000	99.426912 
2214.000000	99.435789 
2213.000000	99.433633 
2212.000000	99.426862 
2211.000000	99.419729 
2210.000000	99.412655 
2209.000000	99.408181 
2208.000000	99.410267 
2207.000000	99.416023 
2206.000000	99.414413 
2205.000000	99.398018 
2204.000000	99.374315 
2203.000000	99.361065 
2202.000000	99.369520 
2201.000000	99.393212 
2200.000000	99.413678 
2199.000000	99.416624 
2198.000000	99.402366 
2197.000000	99.382731 
2196.000000	99.370636 
2195.000000	99.372702 
2194.000000	99.388091 
2193.000000	99.409862 
2192.000000	99.427883 
2191.000000	99.435223 
2190.000000	99.434466 
2189.000000	99.435461 
2188.000000	99.443431 
2187.000000	99.450436 
2186.000000	99.442850 
2185.000000	99.418225 
2184.000000	99.390782 
2183.000000	99.377111 
2182.000000	99.379286 
2181.000000	99.385854 
2180.000000	99.387689 
2179.000000	99.387169 
2178.000000	99.390857 
2177.000000	99.399051 
2176.000000	99.406224 
2175.000000	99.408456 
2174.000000	99.406286 
2173.000000	99.402433 
2172.000000	99.401158 
2171.000000	99.408558 
2170.000000	99.428158 
2169.000000	99.455005 
2168.000000	99.477836 
2167.000000	99.488714 
2166.000000	99.488495 
2165.000000	99.483396 
2164.000000	99.479615 
2163.000000	99.480763 
2162.000000	99.485047 
2161.000000	99.482669 
2160.000000	99.461360 
2159.000000	99.419622 
2158.000000	99.371595 
2157.000000	99.334440 
2156.000000	99.314500 
2155.000000	99.309332 
2154.000000	99.316305 
2153.000000	99.332867 
2152.000000	99.352421 
2151.000000	99.366498 
2150.000000	99.371624 
2149.000000	99.371845 
2148.000000	99.374352 
2147.000000	99.383256 
2146.000000	99.396165 
2145.000000	99.405283 
2144.000000	99.403504 
2143.000000	99.391206 
2142.000000	99.375945 
2141.000000	99.364480 
2140.000000	99.356797 
2139.000000	99.349672 
2138.000000	99.343619 
2137.000000	99.342474 
2136.000000	99.346633 
2135.000000	99.350885 
2134.000000	99.350882 
2133.000000	99.349394 
2132.000000	99.353223 
2131.000000	99.364058 
2130.000000	99.374677 
2129.000000	99.375718 
2128.000000	99.365873 
2127.000000	99.353635 
2126.000000	99.348482 
2125.000000	99.352230 
2124.000000	99.360355 
2123.000000	99.369434 
2122.000000	99.379536 
2121.000000	99.389973 
2120.000000	99.397441 
2119.000000	99.400298 
2118.000000	99.401543 
2117.000000	99.405151 
2116.000000	99.411292 
2115.000000	99.417237 
2114.000000	99.421214 
2113.000000	99.422984 
2112.000000	99.422059 
2111.000000	99.418319 
2110.000000	99.414043 
2109.000000	99.412343 
2108.000000	99.412529 
2107.000000	99.408950 
2106.000000	99.396300 
2105.000000	99.376312 
2104.000000	99.358582 
2103.000000	99.353648 
2102.000000	99.363850 
2101.000000	99.380337 
2100.000000	99.390300 
2099.000000	99.388251 
2098.000000	99.379895 
2097.000000	99.375087 
2096.000000	99.378214 
2095.000000	99.386043 
2094.000000	99.393016 
2093.000000	99.396464 
2092.000000	99.397427 
2091.000000	99.398643 
2090.000000	99.402253 
2089.000000	99.408041 
2088.000000	99.412845 
2087.000000	99.412155 
2086.000000	99.403586 
2085.000000	99.390201 
2084.000000	99.380318 
2083.000000	99.381798 
2082.000000	99.394675 
2081.000000	99.410127 
2080.000000	99.418906 
2079.000000	99.420534 
2078.000000	99.422250 
2077.000000	99.429574 
2076.000000	99.440523 
2075.000000	99.448831 
2074.000000	99.449437 
2073.000000	99.440288 
2072.000000	99.422679 
2071.000000	99.401878 
2070.000000	99.385153 
2069.000000	99.376717 
2068.000000	99.374809 
2067.000000	99.374497 
2066.000000	99.372642 
2065.000000	99.370732 
2064.000000	99.374581 
2063.000000	99.389863 
2062.000000	99.414240 
2061.000000	99.434614 
2060.000000	99.437983 
2059.000000	99.426396 
2058.000000	99.415649 
2057.000000	99.416971 
2056.000000	99.425633 
2055.000000	99.431237 
2054.000000	99.433312 
2053.000000	99.439975 
2052.000000	99.454131 
2051.000000	99.468085 
2050.000000	99.471913 
2049.000000	99.463151 
2048.000000	99.448076 
2047.000000	99.436064 
2046.000000	99.433227 
2045.000000	99.438427 
2044.000000	99.444030 
2043.000000	99.442842 
2042.000000	99.435174 
2041.000000	99.427545 
2040.000000	99.424605 
2039.000000	99.424928 
2038.000000	99.424982 
2037.000000	99.424057 
2036.000000	99.423672 
2035.000000	99.423510 
2034.000000	99.420141 
2033.000000	99.411209 
2032.000000	99.400898 
2031.000000	99.398677 
2030.000000	99.409634 
2029.000000	99.426445 
2028.000000	99.434345 
2027.000000	99.425104 
2026.000000	99.403492 
2025.000000	99.380984 
2024.000000	99.367130 
2023.000000	99.366634 
2022.000000	99.378487 
2021.000000	99.394640 
2020.000000	99.404398 
2019.000000	99.404285 
2018.000000	99.400709 
2017.000000	99.400631 
2016.000000	99.403235 
2015.000000	99.403995 
2014.000000	99.401885 
2013.000000	99.398086 
2012.000000	99.392467 
2011.000000	99.386555 
2010.000000	99.386483 
2009.000000	99.397000 
2008.000000	99.413759 
2007.000000	99.426782 
2006.000000	99.430715 
2005.000000	99.427788 
2004.000000	99.422465 
2003.000000	99.417109 
2002.000000	99.411466 
2001.000000	99.402661 
2000.000000	99.387148 
1999.000000	99.365933 
1998.000000	99.346242 
1997.000000	99.335565 
1996.000000	99.335853 
1995.000000	99.345254 
1994.000000	99.361750 
1993.000000	99.381376 
1992.000000	99.396181 
1991.000000	99.399684 
1990.000000	99.393448 
1989.000000	99.384372 
1988.000000	99.378151 
1987.000000	99.378545 
1986.000000	99.389265 
1985.000000	99.410930 
1984.000000	99.436808 
1983.000000	99.455950 
1982.000000	99.461133 
1981.000000	99.452474 
1980.000000	99.435595 
1979.000000	99.418783 
1978.000000	99.408801 
1977.000000	99.404838 
1976.000000	99.398790 
1975.000000	99.385880 
1974.000000	99.372226 
1973.000000	99.367627 
1972.000000	99.373226 
1971.000000	99.381184 
1970.000000	99.384978 
1969.000000	99.385201 
1968.000000	99.385565 
1967.000000	99.387575 
1966.000000	99.390565 
1965.000000	99.393661 
1964.000000	99.395727 
1963.000000	99.395254 
1962.000000	99.391895 
1961.000000	99.387562 
1960.000000	99.385000 
1959.000000	99.384941 
1958.000000	99.384737 
1957.000000	99.380340 
1956.000000	99.370498 
1955.000000	99.358487 
1954.000000	99.348316 
1953.000000	99.339962 
1952.000000	99.330895 
1951.000000	99.322316 
1950.000000	99.320188 
1949.000000	99.327911 
1948.000000	99.340792 
1947.000000	99.350681 
1946.000000	99.353552 
1945.000000	99.350082 
1944.000000	99.341950 
1943.000000	99.331656 
1942.000000	99.323785 
1941.000000	99.321016 
1940.000000	99.320182 
1939.000000	99.316436 
1938.000000	99.309899 
1937.000000	99.305620 
1936.000000	99.307348 
1935.000000	99.313518 
1934.000000	99.319519 
1933.000000	99.321895 
1932.000000	99.320290 
1931.000000	99.317831 
1930.000000	99.320168 
1929.000000	99.330689 
1928.000000	99.345487 
1927.000000	99.355663 
1926.000000	99.355169 
1925.000000	99.344967 
1924.000000	99.330654 
1923.000000	99.318477 
1922.000000	99.313105 
1921.000000	99.315457 
1920.000000	99.321753 
1919.000000	99.326261 
1918.000000	99.325979 
1917.000000	99.322772 
1916.000000	99.320568 
1915.000000	99.322268 
1914.000000	99.329041 
1913.000000	99.339604 
1912.000000	99.349822 
1911.000000	99.355180 
1910.000000	99.354487 
1909.000000	99.350174 
1908.000000	99.345590 
1907.000000	99.343498 
1906.000000	99.345710 
1905.000000	99.351090 
1904.000000	99.354284 
1903.000000	99.349454 
1902.000000	99.335973 
1901.000000	99.319072 
1900.000000	99.305835 
1899.000000	99.301325 
1898.000000	99.306306 
1897.000000	99.316144 
1896.000000	99.323166 
1895.000000	99.323574 
1894.000000	99.321576 
1893.000000	99.323476 
1892.000000	99.329459 
1891.000000	99.334557 
1890.000000	99.335849 
1889.000000	99.335473 
1888.000000	99.336247 
1887.000000	99.338197 
1886.000000	99.340094 
1885.000000	99.340987 
1884.000000	99.339779 
1883.000000	99.335593 
1882.000000	99.329333 
1881.000000	99.323436 
1880.000000	99.320217 
1879.000000	99.320776 
1878.000000	99.324138 
1877.000000	99.326685 
1876.000000	99.324767 
1875.000000	99.319658 
1874.000000	99.317670 
1873.000000	99.322607 
1872.000000	99.330040 
1871.000000	99.332532 
1870.000000	99.329107 
1869.000000	99.325443 
1868.000000	99.323093 
1867.000000	99.316791 
1866.000000	99.305400 
1865.000000	99.295809 
1864.000000	99.295177 
1863.000000	99.303485 
1862.000000	99.314633 
1861.000000	99.322838 
1860.000000	99.326525 
1859.000000	99.327648 
1858.000000	99.329289 
1857.000000	99.333078 
1856.000000	99.338279 
1855.000000	99.343717 
1854.000000	99.348988 
1853.000000	99.353134 
1852.000000	99.353950 
1851.000000	99.349997 
1850.000000	99.342700 
1849.000000	99.335309 
1848.000000	99.329921 
1847.000000	99.326583 
1846.000000	99.324989 
1845.000000	99.324412 
1844.000000	99.322478 
1843.000000	99.318040 
1842.000000	99.314247 
1841.000000	99.314899 
1840.000000	99.320786 
1839.000000	99.329501 
1838.000000	99.337397 
1837.000000	99.342077 
1836.000000	99.343452 
1835.000000	99.343145 
1834.000000	99.342757 
1833.000000	99.342711 
1832.000000	99.342795 
1831.000000	99.342349 
1830.000000	99.340565 
1829.000000	99.337986 
1828.000000	99.336669 
1827.000000	99.337129 
1826.000000	99.337908 
1825.000000	99.338477 
1824.000000	99.339673 
1823.000000	99.341248 
1822.000000	99.341007 
1821.000000	99.336688 
1820.000000	99.328709 
1819.000000	99.320463 
1818.000000	99.315852 
1817.000000	99.316232 
1816.000000	99.319231 
1815.000000	99.321724 
1814.000000	99.323317 
1813.000000	99.326072 
1812.000000	99.331905 
1811.000000	99.340266 
1810.000000	99.349818 
1809.000000	99.360171 
1808.000000	99.368928 
1807.000000	99.371104 
1806.000000	99.364427 
1805.000000	99.352606 
1804.000000	99.341529 
1803.000000	99.334005 
1802.000000	99.330113 
1801.000000	99.330512 
1800.000000	99.334542 
1799.000000	99.338281 
1798.000000	99.338938 
1797.000000	99.337654 
1796.000000	99.337280 
1795.000000	99.339643 
1794.000000	99.344256 
1793.000000	99.348161 
1792.000000	99.348545 
1791.000000	99.345815 
1790.000000	99.343087 
1789.000000	99.343130 
1788.000000	99.346847 
1787.000000	99.353244 
1786.000000	99.359674 
1785.000000	99.362519 
1784.000000	99.359374 
1783.000000	99.352487 
1782.000000	99.347394 
1781.000000	99.346894 
1780.000000	99.347475 
1779.000000	99.344321 
1778.000000	99.338806 
1777.000000	99.336123 
1776.000000	99.338290 
1775.000000	99.343604 
1774.000000	99.350257 
1773.000000	99.356956 
1772.000000	99.361063 
1771.000000	99.361012 
1770.000000	99.358719 
1769.000000	99.355965 
1768.000000	99.353579 
1767.000000	99.351664 
1766.000000	99.350181 
1765.000000	99.349541 
1764.000000	99.349565 
1763.000000	99.349464 
1762.000000	99.349109 
1761.000000	99.349914 
1760.000000	99.353005 
1759.000000	99.356957 
1758.000000	99.359249 
1757.000000	99.358760 
1756.000000	99.356744 
1755.000000	99.355300 
1754.000000	99.354499 
1753.000000	99.352840 
1752.000000	99.351186 
1751.000000	99.354294 
1750.000000	99.363764 
1749.000000	99.373550 
1748.000000	99.377494 
1747.000000	99.375392 
1746.000000	99.370851 
1745.000000	99.366863 
1744.000000	99.364950 
1743.000000	99.365457 
1742.000000	99.367139 
1741.000000	99.368308 
1740.000000	99.368108 
1739.000000	99.367248 
1738.000000	99.367121 
1737.000000	99.367222 
1736.000000	99.364741 
1735.000000	99.357085 
1734.000000	99.346706 
1733.000000	99.341406 
1732.000000	99.344924 
1731.000000	99.353479 
1730.000000	99.362223 
1729.000000	99.367770 
1728.000000	99.369446 
1727.000000	99.369060 
1726.000000	99.368237 
1725.000000	99.366798 
1724.000000	99.364237 
1723.000000	99.362247 
1722.000000	99.364057 
1721.000000	99.371299 
1720.000000	99.382105 
1719.000000	99.391445 
1718.000000	99.392902 
1717.000000	99.385787 
1716.000000	99.375936 
1715.000000	99.367029 
1714.000000	99.361033 
1713.000000	99.359638 
1712.000000	99.361490 
1711.000000	99.363852 
1710.000000	99.365801 
1709.000000	99.367976 
1708.000000	99.370147 
1707.000000	99.371018 
1706.000000	99.371393 
1705.000000	99.373457 
1704.000000	99.374929 
1703.000000	99.368741 
1702.000000	99.352108 
1701.000000	99.335552 
1700.000000	99.334968 
1699.000000	99.346365 
1698.000000	99.357447 
1697.000000	99.365243 
1696.000000	99.371546 
1695.000000	99.376153 
1694.000000	99.379099 
1693.000000	99.380331 
1692.000000	99.378395 
1691.000000	99.373676 
1690.000000	99.369782 
1689.000000	99.370000 
1688.000000	99.372585 
1687.000000	99.372580 
1686.000000	99.368749 
1685.000000	99.365780 
1684.000000	99.365647 
1683.000000	99.364749 
1682.000000	99.364115 
1681.000000	99.363640 
1680.000000	99.363735 
1679.000000	99.365118 
1678.000000	99.367360 
1677.000000	99.369232 
1676.000000	99.369732 
1675.000000	99.369082 
1674.000000	99.368311 
1673.000000	99.368488 
1672.000000	99.369450 
1671.000000	99.371284 
1670.000000	99.373867 
1669.000000	99.375786 
1668.000000	99.377182 
1667.000000	99.378670 
1666.000000	99.377966 
1665.000000	99.373518 
1664.000000	99.368128 
1663.000000	99.367137 
1662.000000	99.372284 
1661.000000	99.379896 
1660.000000	99.385428 
1659.000000	99.387868 
1658.000000	99.388650 
1657.000000	99.387601 
1656.000000	99.381523 
1655.000000	99.370581 
1654.000000	99.364190 
1653.000000	99.365942 
1652.000000	99.366933 
1651.000000	99.370122 
1650.000000	99.370833 
1649.000000	99.367368 
1648.000000	99.362269 
1647.000000	99.356968 
1646.000000	99.350695 
1645.000000	99.347665 
1644.000000	99.351017 
1643.000000	99.358238 
1642.000000	99.365430 
1641.000000	99.370337 
1640.000000	99.372523 
1639.000000	99.372371 
1638.000000	99.370462 
1637.000000	99.367787 
1636.000000	99.364489 
1635.000000	99.361235 
1634.000000	99.363189 
1633.000000	99.370119 
1632.000000	99.376404 
1631.000000	99.379113 
1630.000000	99.378830 
1629.000000	99.377461 
1628.000000	99.376264 
1627.000000	99.375846 
1626.000000	99.376575 
1625.000000	99.378732 
1624.000000	99.382434 
1623.000000	99.387111 
1622.000000	99.391858 
1621.000000	99.395779 
1620.000000	99.397090 
1619.000000	99.394981 
1618.000000	99.391492 
1617.000000	99.389481 
1616.000000	99.389330 
1615.000000	99.390515 
1614.000000	99.391221 
1613.000000	99.389335 
1612.000000	99.385602 
1611.000000	99.382311 
1610.000000	99.380583 
1609.000000	99.379715 
1608.000000	99.378703 
1607.000000	99.377072 
1606.000000	99.374350 
1605.000000	99.371026 
1604.000000	99.369459 
1603.000000	99.371935 
1602.000000	99.377272 
1601.000000	99.381300 
1600.000000	99.381868 
1599.000000	99.381117 
1598.000000	99.381900 
1597.000000	99.384399 
1596.000000	99.387251 
1595.000000	99.390117 
1594.000000	99.393395 
1593.000000	99.396174 
1592.000000	99.396933 
1591.000000	99.395898 
1590.000000	99.394964 
1589.000000	99.395272 
1588.000000	99.396715 
1587.000000	99.399201 
1586.000000	99.402008 
1585.000000	99.402792 
1584.000000	99.399695 
1583.000000	99.394007 
1582.000000	99.389677 
1581.000000	99.389204 
1580.000000	99.391572 
1579.000000	99.394510 
1578.000000	99.396906 
1577.000000	99.397347 
1576.000000	99.393232 
1575.000000	99.387728 
1574.000000	99.387163 
1573.000000	99.389566 
1572.000000	99.390347 
1571.000000	99.389512 
1570.000000	99.390409 
1569.000000	99.393529 
1568.000000	99.396686 
1567.000000	99.398040 
1566.000000	99.396643 
1565.000000	99.393733 
1564.000000	99.391971 
1563.000000	99.392337 
1562.000000	99.392417 
1561.000000	99.388096 
1560.000000	99.379689 
1559.000000	99.370879 
1558.000000	99.362835 
1557.000000	99.367007 
1556.000000	99.379036 
1555.000000	99.388392 
1554.000000	99.391158 
1553.000000	99.389672 
1552.000000	99.388427 
1551.000000	99.389510 
1550.000000	99.392184 
1549.000000	99.393632 
1548.000000	99.391713 
1547.000000	99.386560 
1546.000000	99.379574 
1545.000000	99.373323 
1544.000000	99.369549 
1543.000000	99.367561 
1542.000000	99.368052 
1541.000000	99.373138 
1540.000000	99.375694 
1539.000000	99.369651 
1538.000000	99.365593 
1537.000000	99.366987 
1536.000000	99.368704 
1535.000000	99.368547 
1534.000000	99.368904 
1533.000000	99.370857 
1532.000000	99.371674 
1531.000000	99.369354 
1530.000000	99.365550 
1529.000000	99.363421 
1528.000000	99.363301 
1527.000000	99.363001 
1526.000000	99.361633 
1525.000000	99.361118 
1524.000000	99.363184 
1523.000000	99.368417 
1522.000000	99.377109 
1521.000000	99.385764 
1520.000000	99.387521 
1519.000000	99.380779 
1518.000000	99.369418 
1517.000000	99.359065 
1516.000000	99.352815 
1515.000000	99.350300 
1514.000000	99.350157 
1513.000000	99.351048 
1512.000000	99.351843 
1511.000000	99.351750 
1510.000000	99.350259 
1509.000000	99.348309 
1508.000000	99.350195 
1507.000000	99.356691 
1506.000000	99.355926 
1505.000000	99.349626 
1504.000000	99.346467 
1503.000000	99.345595 
1502.000000	99.345781 
1501.000000	99.347460 
1500.000000	99.350711 
1499.000000	99.354565 
1498.000000	99.357489 
1497.000000	99.359625 
1496.000000	99.361040 
1495.000000	99.358924 
1494.000000	99.351318 
1493.000000	99.339986 
1492.000000	99.328536 
1491.000000	99.320686 
1490.000000	99.317821 
1489.000000	99.317736 
1488.000000	99.316499 
1487.000000	99.312630 
1486.000000	99.309284 
1485.000000	99.308849 
1484.000000	99.309911 
1483.000000	99.309737 
1482.000000	99.306189 
1481.000000	99.299403 
1480.000000	99.291635 
1479.000000	99.285361 
1478.000000	99.281951 
1477.000000	99.281379 
1476.000000	99.281946 
1475.000000	99.280407 
1474.000000	99.276834 
1473.000000	99.276125 
1472.000000	99.280174 
1471.000000	99.283890 
1470.000000	99.284197 
1469.000000	99.282950 
1468.000000	99.282689 
1467.000000	99.283605 
1466.000000	99.284749 
1465.000000	99.285640 
1464.000000	99.285950 
1463.000000	99.285835 
1462.000000	99.285965 
1461.000000	99.287462 
1460.000000	99.290514 
1459.000000	99.292798 
1458.000000	99.288287 
1457.000000	99.273149 
1456.000000	99.255312 
1455.000000	99.244576 
1454.000000	99.240678 
1453.000000	99.240312 
1452.000000	99.240764 
1451.000000	99.240527 
1450.000000	99.240822 
1449.000000	99.244860 
1448.000000	99.253044 
1447.000000	99.260484 
1446.000000	99.263121 
1445.000000	99.262264 
1444.000000	99.260885 
1443.000000	99.259887 
1442.000000	99.258902 
1441.000000	99.258098 
1440.000000	99.258374 
1439.000000	99.260145 
1438.000000	99.261789 
1437.000000	99.261096 
1436.000000	99.257566 
1435.000000	99.252275 
1434.000000	99.247204 
1433.000000	99.244659 
1432.000000	99.245523 
1431.000000	99.248956 
1430.000000	99.252226 
1429.000000	99.252992 
1428.000000	99.251435 
1427.000000	99.248706 
1426.000000	99.245069 
1425.000000	99.239907 
1424.000000	99.234116 
1423.000000	99.229147 
1422.000000	99.223173 
1421.000000	99.212921 
1420.000000	99.198378 
1419.000000	99.184155 
1418.000000	99.171597 
1417.000000	99.157749 
1416.000000	99.142347 
1415.000000	99.126511 
1414.000000	99.109464 
1413.000000	99.089542 
1412.000000	99.068384 
1411.000000	99.050790 
1410.000000	99.038715 
1409.000000	99.030473 
1408.000000	99.025216 
1407.000000	99.023373 
1406.000000	99.024542 
1405.000000	99.028405 
1404.000000	99.036563 
1403.000000	99.048632 
1402.000000	99.059826 
1401.000000	99.066928 
1400.000000	99.072250 
1399.000000	99.078962 
1398.000000	99.081136 
1397.000000	99.066710 
1396.000000	99.032655 
1395.000000	98.994811 
1394.000000	98.978042 
1393.000000	98.991942 
1392.000000	99.026614 
1391.000000	99.066024 
1390.000000	99.097749 
1389.000000	99.115490 
1388.000000	99.118597 
1387.000000	99.110963 
1386.000000	99.098372 
1385.000000	99.086292 
1384.000000	99.078298 
1383.000000	99.075093 
1382.000000	99.074988 
1381.000000	99.076816 
1380.000000	99.080957 
1379.000000	99.087861 
1378.000000	99.096565 
1377.000000	99.105420 
1376.000000	99.114339 
1375.000000	99.125159 
1374.000000	99.138846 
1373.000000	99.152898 
1372.000000	99.164287 
1371.000000	99.173726 
1370.000000	99.184919 
1369.000000	99.199040 
1368.000000	99.213795 
1367.000000	99.226267 
1366.000000	99.235174 
1365.000000	99.240878 
1364.000000	99.244223 
1363.000000	99.246986 
1362.000000	99.251796 
1361.000000	99.259276 
1360.000000	99.267239 
1359.000000	99.273818 
1358.000000	99.279544 
1357.000000	99.285725 
1356.000000	99.292373 
1355.000000	99.298504 
1354.000000	99.303692 
1353.000000	99.307875 
1352.000000	99.309579 
1351.000000	99.307194 
1350.000000	99.303199 
1349.000000	99.301598 
1348.000000	99.304103 
1347.000000	99.309500 
1346.000000	99.316201 
1345.000000	99.322738 
1344.000000	99.327113 
1343.000000	99.327979 
1342.000000	99.326460 
1341.000000	99.324781 
1340.000000	99.323585 
1339.000000	99.322265 
1338.000000	99.321248 
1337.000000	99.321996 
1336.000000	99.324565 
1335.000000	99.326994 
1334.000000	99.328057 
1333.000000	99.328905 
1332.000000	99.330836 
1331.000000	99.333107 
1330.000000	99.333990 
1329.000000	99.332686 
1328.000000	99.329927 
1327.000000	99.327298 
1326.000000	99.326348 
1325.000000	99.326767 
1324.000000	99.327368 
1323.000000	99.327749 
1322.000000	99.328373 
1321.000000	99.329262 
1320.000000	99.329795 
1319.000000	99.329752 
1318.000000	99.329628 
1317.000000	99.329808 
1316.000000	99.329806 
1315.000000	99.328755 
1314.000000	99.326343 
1313.000000	99.323418 
1312.000000	99.321658 
1311.000000	99.322521 
1310.000000	99.326150 
1309.000000	99.330908 
1308.000000	99.334209 
1307.000000	99.334147 
1306.000000	99.331129 
1305.000000	99.327200 
1304.000000	99.324889 
1303.000000	99.325650 
1302.000000	99.329203 
1301.000000	99.333758 
1300.000000	99.337092 
1299.000000	99.337724 
1298.000000	99.335725 
1297.000000	99.332725 
1296.000000	99.330762 
1295.000000	99.331118 
1294.000000	99.333720 
1293.000000	99.337335 
1292.000000	99.339962 
1291.000000	99.339419 
1290.000000	99.334930 
1289.000000	99.328559 
1288.000000	99.323888 
1287.000000	99.322352 
1286.000000	99.321626 
1285.000000	99.318844 
1284.000000	99.314530 
1283.000000	99.311517 
1282.000000	99.310608 
1281.000000	99.309547 
1280.000000	99.306480 
1279.000000	99.302310 
1278.000000	99.298450 
1277.000000	99.294185 
1276.000000	99.287755 
1275.000000	99.279428 
1274.000000	99.271703 
1273.000000	99.266640 
1272.000000	99.263921 
1271.000000	99.261205 
1270.000000	99.255718 
1269.000000	99.246269 
1268.000000	99.234661 
1267.000000	99.224402 
1266.000000	99.216927 
1265.000000	99.210165 
1264.000000	99.201544 
1263.000000	99.190851 
1262.000000	99.179099 
1261.000000	99.166548 
1260.000000	99.153904 
1259.000000	99.144011 
1258.000000	99.139248 
1257.000000	99.138215 
1256.000000	99.137244 
1255.000000	99.134692 
1254.000000	99.131539 
1253.000000	99.128454 
1252.000000	99.125022 
1251.000000	99.122263 
1250.000000	99.123035 
1249.000000	99.128897 
1248.000000	99.138519 
1247.000000	99.149437 
1246.000000	99.158619 
1245.000000	99.161155 
1244.000000	99.152530 
1243.000000	99.135413 
1242.000000	99.121722 
1241.000000	99.123502 
1240.000000	99.141294 
1239.000000	99.163520 
1238.000000	99.177385 
1237.000000	99.178727 
1236.000000	99.171470 
1235.000000	99.160873 
1234.000000	99.149485 
1233.000000	99.138113 
1232.000000	99.127944 
1231.000000	99.120529 
1230.000000	99.116297 
1229.000000	99.114108 
1228.000000	99.112698 
1227.000000	99.112426 
1226.000000	99.115050 
1225.000000	99.121271 
1224.000000	99.128784 
1223.000000	99.133650 
1222.000000	99.134056 
1221.000000	99.132269 
1220.000000	99.132456 
1219.000000	99.136910 
1218.000000	99.144526 
1217.000000	99.152531 
1216.000000	99.158962 
1215.000000	99.163552 
1214.000000	99.167122 
1213.000000	99.170663 
1212.000000	99.174508 
1211.000000	99.177665 
1210.000000	99.178316 
1209.000000	99.175613 
1208.000000	99.170854 
1207.000000	99.166308 
1206.000000	99.163039 
1205.000000	99.160557 
1204.000000	99.158422 
1203.000000	99.157050 
1202.000000	99.156421 
1201.000000	99.155025 
1200.000000	99.151224 
1199.000000	99.145337 
1198.000000	99.139437 
1197.000000	99.135353 
1196.000000	99.133557 
1195.000000	99.133377 
1194.000000	99.133220 
1193.000000	99.130786 
1192.000000	99.124573 
1191.000000	99.115638 
1190.000000	99.107095 
1189.000000	99.101662 
1188.000000	99.100337 
1187.000000	99.102891 
1186.000000	99.107902 
1185.000000	99.112083 
1184.000000	99.111471 
1183.000000	99.104699 
1182.000000	99.094512 
1181.000000	99.085090 
1180.000000	99.078546 
1179.000000	99.074701 
1178.000000	99.072786 
1177.000000	99.071664 
1176.000000	99.069191 
1175.000000	99.063489 
1174.000000	99.055304 
1173.000000	99.047629 
1172.000000	99.042601 
1171.000000	99.039649 
1170.000000	99.036698 
1169.000000	99.032120 
1168.000000	99.025188 
1167.000000	99.015717 
1166.000000	99.004191 
1165.000000	98.992142 
1164.000000	98.981941 
1163.000000	98.975818 
1162.000000	98.974450 
1161.000000	98.976051 
1160.000000	98.977385 
1159.000000	98.976621 
1158.000000	98.975062 
1157.000000	98.975125 
1156.000000	98.976683 
1155.000000	98.976452 
1154.000000	98.971388 
1153.000000	98.961936 
1152.000000	98.951442 
1151.000000	98.943010 
1150.000000	98.937355 
1149.000000	98.933085 
1148.000000	98.928157 
1147.000000	98.920885 
1146.000000	98.910241 
1145.000000	98.896167 
1144.000000	98.880291 
1143.000000	98.866052 
1142.000000	98.856710 
1141.000000	98.852259 
1140.000000	98.848853 
1139.000000	98.842138 
1138.000000	98.831042 
1137.000000	98.817797 
1136.000000	98.804910 
1135.000000	98.793258 
1134.000000	98.782729 
1133.000000	98.772940 
1132.000000	98.762749 
1131.000000	98.750433 
1130.000000	98.735478 
1129.000000	98.719501 
1128.000000	98.704365 
1127.000000	98.689832 
1126.000000	98.674103 
1125.000000	98.656475 
1124.000000	98.638336 
1123.000000	98.621352 
1122.000000	98.605557 
1121.000000	98.589689 
1120.000000	98.572612 
1119.000000	98.553601 
1118.000000	98.531748 
1117.000000	98.506367 
1116.000000	98.478335 
1115.000000	98.450122 
1114.000000	98.423660 
1113.000000	98.398427 
1112.000000	98.372490 
1111.000000	98.345448 
1110.000000	98.319495 
1109.000000	98.297080 
1108.000000	98.278237 
1107.000000	98.260532 
1106.000000	98.241539 
1105.000000	98.220547 
1104.000000	98.197710 
1103.000000	98.172950 
1102.000000	98.147166 
1101.000000	98.123634 
1100.000000	98.106536 
1099.000000	98.095538 
1098.000000	98.085557 
1097.000000	98.072137 
1096.000000	98.056199 
1095.000000	98.041085 
1094.000000	98.025712 
1093.000000	98.003630 
1092.000000	97.969727 
1091.000000	97.925832 
1090.000000	97.878352 
1089.000000	97.831636 
1088.000000	97.785344 
1087.000000	97.737736 
1086.000000	97.689661 
1085.000000	97.644666 
1084.000000	97.605637 
1083.000000	97.571661 
1082.000000	97.538439 
1081.000000	97.502206 
1080.000000	97.463218 
1079.000000	97.425307 
1078.000000	97.392844 
1077.000000	97.368753 
1076.000000	97.354233 
1075.000000	97.348568 
1074.000000	97.349632 
1073.000000	97.355503 
1072.000000	97.363526 
1071.000000	97.365435 
1070.000000	97.346808 
1069.000000	97.298566 
1068.000000	97.231393 
1067.000000	97.174282 
1066.000000	97.153551 
1065.000000	97.172578 
1064.000000	97.212369 
1063.000000	97.248118 
1062.000000	97.262860 
1061.000000	97.250338 
1060.000000	97.213767 
1059.000000	97.165904 
1058.000000	97.125617 
1057.000000	97.106818 
1056.000000	97.107663 
1055.000000	97.111879 
1054.000000	97.102855 
1053.000000	97.077531 
1052.000000	97.046444 
1051.000000	97.020967 
1050.000000	97.002755 
1049.000000	96.986503 
1048.000000	96.969277 
1047.000000	96.952911 
1046.000000	96.938815 
1045.000000	96.925158 
1044.000000	96.910259 
1043.000000	96.895960 
1042.000000	96.885374 
1041.000000	96.877824 
1040.000000	96.868226 
1039.000000	96.853147 
1038.000000	96.837218 
1037.000000	96.831387 
1036.000000	96.843238 
1035.000000	96.869995 
1034.000000	96.902202 
1033.000000	96.931769 
1032.000000	96.952739 
1031.000000	96.957303 
1030.000000	96.940309 
1029.000000	96.911133 
1028.000000	96.893835 
1027.000000	96.907901 
1026.000000	96.949862 
1025.000000	96.998372 
1024.000000	97.035164 
1023.000000	97.056279 
1022.000000	97.066281 
1021.000000	97.069945 
1020.000000	97.071266 
1019.000000	97.074332 
1018.000000	97.080810 
1017.000000	97.088618 
1016.000000	97.095344 
1015.000000	97.101653 
1014.000000	97.110274 
1013.000000	97.122935 
1012.000000	97.138854 
1011.000000	97.155127 
1010.000000	97.168927 
1009.000000	97.180885 
1008.000000	97.195647 
1007.000000	97.217097 
1006.000000	97.243680 
1005.000000	97.270724 
1004.000000	97.296551 
1003.000000	97.323423 
1002.000000	97.353044 
1001.000000	97.384551 
1000.000000	97.417074 
999.000000	 97.450664 
998.000000	 97.483724 
997.000000	 97.512798 
996.000000	 97.536909 
995.000000	 97.560125 
994.000000	 97.587856 
993.000000	 97.621360 
992.000000	 97.656811 
991.000000	 97.689009 
990.000000	 97.715666 
989.000000	 97.739080 
988.000000	 97.763794 
987.000000	 97.791851 
986.000000	 97.820777 
985.000000	 97.847667 
984.000000	 97.874473 
983.000000	 97.906779 
982.000000	 97.947166 
981.000000	 97.992152 
980.000000	 98.036208 
979.000000	 98.076474 
978.000000	 98.112945 
977.000000	 98.146803 
976.000000	 98.180317 
975.000000	 98.216429 
974.000000	 98.256084 
973.000000	 98.296660 
972.000000	 98.334507 
971.000000	 98.368317 
970.000000	 98.398943 
969.000000	 98.427128 
968.000000	 98.453163 
967.000000	 98.477889 
966.000000	 98.501857 
965.000000	 98.523721 
964.000000	 98.541698 
963.000000	 98.556890 
962.000000	 98.573046 
961.000000	 98.592188 
960.000000	 98.612359 
959.000000	 98.630742 
958.000000	 98.647141 
957.000000	 98.662802 
956.000000	 98.677465 
955.000000	 98.690035 
954.000000	 98.701354 
953.000000	 98.713619 
952.000000	 98.726811 
951.000000	 98.737966 
950.000000	 98.744784 
949.000000	 98.748252 
948.000000	 98.750991 
947.000000	 98.754744 
946.000000	 98.760402 
945.000000	 98.768600 
944.000000	 98.778460 
943.000000	 98.786726 
942.000000	 98.790110 
941.000000	 98.788445 
940.000000	 98.784438 
939.000000	 98.780862 
938.000000	 98.779170 
937.000000	 98.780042 
936.000000	 98.783277 
935.000000	 98.786867 
934.000000	 98.787887 
933.000000	 98.785155 
932.000000	 98.780349 
931.000000	 98.776406 
930.000000	 98.775817 
929.000000	 98.780360 
928.000000	 98.790472 
927.000000	 98.803579 
926.000000	 98.814277 
925.000000	 98.817994 
924.000000	 98.814504 
923.000000	 98.807172 
922.000000	 98.799204 
921.000000	 98.791447 
920.000000	 98.783423 
919.000000	 98.775082 
918.000000	 98.766960 
917.000000	 98.759306 
916.000000	 98.751832 
915.000000	 98.744468 
914.000000	 98.738259 
913.000000	 98.735233 
912.000000	 98.736752 
911.000000	 98.741547 
910.000000	 98.745927 
909.000000	 98.746913 
908.000000	 98.745189 
907.000000	 98.744348 
906.000000	 98.747112 
905.000000	 98.752787 
904.000000	 98.758622 
903.000000	 98.763290 
902.000000	 98.768734 
901.000000	 98.778518 
900.000000	 98.794426 
899.000000	 98.814737 
898.000000	 98.835640 
897.000000	 98.853761 
896.000000	 98.866769 
895.000000	 98.872973 
894.000000	 98.872854 
893.000000	 98.871332 
892.000000	 98.875920 
891.000000	 98.890557 
890.000000	 98.912003 
889.000000	 98.933874 
888.000000	 98.953064 
887.000000	 98.969985 
886.000000	 98.983483 
885.000000	 98.989253 
884.000000	 98.985053 
883.000000	 98.975414 
882.000000	 98.968595 
881.000000	 98.969204 
880.000000	 98.975782 
879.000000	 98.985399 
878.000000	 98.997860 
877.000000	 99.013578 
876.000000	 99.028559 
875.000000	 99.034670 
874.000000	 99.027028 
873.000000	 99.010679 
872.000000	 98.997856 
871.000000	 98.997206 
870.000000	 99.005643 
869.000000	 99.011795 
868.000000	 99.007916 
867.000000	 98.997884 
866.000000	 98.993318 
865.000000	 99.002472 
864.000000	 99.023523 
863.000000	 99.047615 
862.000000	 99.066629 
861.000000	 99.077773 
860.000000	 99.082888 
859.000000	 99.086125 
858.000000	 99.092585 
857.000000	 99.106589 
856.000000	 99.128543 
855.000000	 99.153016 
854.000000	 99.171289 
853.000000	 99.177320 
852.000000	 99.171967 
851.000000	 99.161987 
850.000000	 99.155058 
849.000000	 99.154966 
848.000000	 99.160316 
847.000000	 99.166930 
846.000000	 99.171530 
845.000000	 99.173951 
844.000000	 99.176541 
843.000000	 99.181323 
842.000000	 99.186969 
841.000000	 99.188719 
840.000000	 99.182881 
839.000000	 99.172176 
838.000000	 99.164756 
837.000000	 99.165537 
836.000000	 99.169845 
835.000000	 99.169145 
834.000000	 99.162944 
833.000000	 99.159987 
832.000000	 99.164763 
831.000000	 99.167548 
830.000000	 99.154733 
829.000000	 99.128505 
828.000000	 99.108510 
827.000000	 99.110175 
826.000000	 99.126676 
825.000000	 99.138591 
824.000000	 99.138029 
823.000000	 99.134837 
822.000000	 99.139630 
821.000000	 99.149580 
820.000000	 99.153619 
819.000000	 99.145332 
818.000000	 99.127696 
817.000000	 99.108934 
816.000000	 99.096359 
815.000000	 99.092034 
814.000000	 99.091812 
813.000000	 99.089484 
812.000000	 99.083242 
811.000000	 99.077106 
810.000000	 99.075101 
809.000000	 99.075636 
808.000000	 99.073169 
807.000000	 99.063779 
806.000000	 99.047001 
805.000000	 99.023251 
804.000000	 98.992909 
803.000000	 98.959222 
802.000000	 98.929586 
801.000000	 98.911328 
800.000000	 98.905891 
799.000000	 98.908117 
798.000000	 98.911896 
797.000000	 98.916373 
796.000000	 98.925703 
795.000000	 98.942616 
794.000000	 98.963954 
793.000000	 98.983771 
792.000000	 98.998727 
791.000000	 99.007793 
790.000000	 99.008523 
789.000000	 98.998587 
788.000000	 98.981913 
787.000000	 98.968311 
786.000000	 98.963703 
785.000000	 98.963690 
784.000000	 98.960507 
783.000000	 98.953683 
782.000000	 98.949303 
781.000000	 98.950439 
780.000000	 98.953545 
779.000000	 98.954274 
778.000000	 98.952467 
777.000000	 98.951035 
776.000000	 98.954044 
775.000000	 98.966306 
774.000000	 98.989800 
773.000000	 99.018338 
772.000000	 99.039792 
771.000000	 99.046607 
770.000000	 99.041893 
769.000000	 99.033525 
768.000000	 99.026040 
767.000000	 99.021158 
766.000000	 99.021566 
765.000000	 99.028331 
764.000000	 99.036460 
763.000000	 99.038714 
762.000000	 99.034219 
761.000000	 99.029127 
760.000000	 99.028395 
759.000000	 99.030782 
758.000000	 99.032493 
757.000000	 99.032070 
756.000000	 99.030503 
755.000000	 99.029912 
754.000000	 99.033472 
753.000000	 99.043533 
752.000000	 99.058035 
751.000000	 99.070743 
750.000000	 99.076582 
749.000000	 99.074962 
748.000000	 99.067545 
747.000000	 99.056464 
746.000000	 99.046385 
745.000000	 99.043795 
744.000000	 99.049869 
743.000000	 99.056603 
742.000000	 99.055075 
741.000000	 99.046540 
740.000000	 99.040596 
739.000000	 99.042890 
738.000000	 99.049554 
737.000000	 99.054394 
736.000000	 99.056479 
735.000000	 99.058642 
734.000000	 99.063045 
733.000000	 99.071067 
732.000000	 99.083462 
731.000000	 99.096385 
730.000000	 99.100984 
729.000000	 99.092704 
728.000000	 99.078499 
727.000000	 99.069657 
726.000000	 99.068887 
725.000000	 99.069375 
724.000000	 99.066296 
723.000000	 99.063483 
722.000000	 99.066983 
721.000000	 99.076606 
720.000000	 99.086402 
719.000000	 99.090452 
718.000000	 99.085650 
717.000000	 99.071373 
716.000000	 99.050370 
715.000000	 99.028961 
714.000000	 99.013051 
713.000000	 99.004410 
712.000000	 99.002615 
711.000000	 99.008478 
710.000000	 99.021746 
709.000000	 99.036584 
708.000000	 99.043693 
707.000000	 99.038588 
706.000000	 99.026448 
705.000000	 99.016861 
704.000000	 99.014560 
703.000000	 99.017355 
702.000000	 99.020746 
701.000000	 99.021971 
700.000000	 99.019979 
699.000000	 99.013435 
698.000000	 99.001498 
697.000000	 98.984651 
696.000000	 98.962527 
695.000000	 98.933590 
694.000000	 98.900055 
693.000000	 98.873932 
692.000000	 98.872159 
691.000000	 98.898646 
690.000000	 98.935863 
689.000000	 98.960641 
688.000000	 98.967768 
687.000000	 98.971667 
686.000000	 98.982849 
685.000000	 98.994122 
684.000000	 98.993875 
683.000000	 98.981918 
682.000000	 98.968071 
681.000000	 98.962666 
680.000000	 98.971701 
679.000000	 98.992293 
678.000000	 99.007943 
677.000000	 99.000544 
676.000000	 98.973566 
675.000000	 98.950707 
674.000000	 98.949890 
673.000000	 98.964147 
672.000000	 98.969311 
671.000000	 98.946643 
670.000000	 98.893770 
669.000000	 98.825986 
668.000000	 98.775683 
667.000000	 98.771164 
666.000000	 98.813193 
665.000000	 98.877837 
664.000000	 98.931632 
663.000000	 98.953256 
662.000000	 98.947865 
661.000000	 98.942325 
660.000000	 98.953159 
659.000000	 98.967162 
658.000000	 98.960585 
657.000000	 98.930670 
656.000000	 98.897008 
655.000000	 98.875903 
654.000000	 98.866465 
653.000000	 98.854731 
652.000000	 98.825586 
651.000000	 98.781936 
650.000000	 98.753919 

