4000.000000	98.611769 
3999.000000	98.613286 
3998.000000	98.614076 
3997.000000	98.614368 
3996.000000	98.613582 
3995.000000	98.611510 
3994.000000	98.609026 
3993.000000	98.607113 
3992.000000	98.605705 
3991.000000	98.604240 
3990.000000	98.603072 
3989.000000	98.603215 
3988.000000	98.604661 
3987.000000	98.606233 
3986.000000	98.607480 
3985.000000	98.609511 
3984.000000	98.613135 
3983.000000	98.616899 
3982.000000	98.618158 
3981.000000	98.615785 
3980.000000	98.611141 
3979.000000	98.606382 
3978.000000	98.602667 
3977.000000	98.600238 
3976.000000	98.599413 
3975.000000	98.600813 
3974.000000	98.604852 
3973.000000	98.611010 
3972.000000	98.617124 
3971.000000	98.619999 
3970.000000	98.617605 
3969.000000	98.611315 
3968.000000	98.604871 
3967.000000	98.601169 
3966.000000	98.600219 
3965.000000	98.599887 
3964.000000	98.598162 
3963.000000	98.594870 
3962.000000	98.591845 
3961.000000	98.591509 
3960.000000	98.594385 
3959.000000	98.598459 
3958.000000	98.601373 
3957.000000	98.603195 
3956.000000	98.605554 
3955.000000	98.609182 
3954.000000	98.613461 
3953.000000	98.617198 
3952.000000	98.619094 
3951.000000	98.617328 
3950.000000	98.610643 
3949.000000	98.600117 
3948.000000	98.589530 
3947.000000	98.583638 
3946.000000	98.584531 
3945.000000	98.589102 
3944.000000	98.591494 
3943.000000	98.589356 
3942.000000	98.586263 
3941.000000	98.586771 
3940.000000	98.590914 
3939.000000	98.595353 
3938.000000	98.597957 
3937.000000	98.599997 
3936.000000	98.602226 
3935.000000	98.601765 
3934.000000	98.596304 
3933.000000	98.589405 
3932.000000	98.588285 
3931.000000	98.594227 
3930.000000	98.601032 
3929.000000	98.603818 
3928.000000	98.604030 
3927.000000	98.604661 
3926.000000	98.604156 
3925.000000	98.600426 
3924.000000	98.596487 
3923.000000	98.595657 
3922.000000	98.595388 
3921.000000	98.591718 
3920.000000	98.586495 
3919.000000	98.585516 
3918.000000	98.589305 
3917.000000	98.593158 
3916.000000	98.594992 
3915.000000	98.597208 
3914.000000	98.600156 
3913.000000	98.601592 
3912.000000	98.601082 
3911.000000	98.602453 
3910.000000	98.607712 
3909.000000	98.615502 
3908.000000	98.622503 
3907.000000	98.625465 
3906.000000	98.621469 
3905.000000	98.609698 
3904.000000	98.596888 
3903.000000	98.592822 
3902.000000	98.598651 
3901.000000	98.604164 
3900.000000	98.599285 
3899.000000	98.586769 
3898.000000	98.577899 
3897.000000	98.578270 
3896.000000	98.584505 
3895.000000	98.592969 
3894.000000	98.602130 
3893.000000	98.609799 
3892.000000	98.609399 
3891.000000	98.600157 
3890.000000	98.592404 
3889.000000	98.596389 
3888.000000	98.607063 
3887.000000	98.607012 
3886.000000	98.592041 
3885.000000	98.581404 
3884.000000	98.589423 
3883.000000	98.605458 
3882.000000	98.609491 
3881.000000	98.597498 
3880.000000	98.585208 
3879.000000	98.586514 
3878.000000	98.599792 
3877.000000	98.614406 
3876.000000	98.618657 
3875.000000	98.607848 
3874.000000	98.592027 
3873.000000	98.587472 
3872.000000	98.594819 
3871.000000	98.595302 
3870.000000	98.580676 
3869.000000	98.571371 
3868.000000	98.583957 
3867.000000	98.605433 
3866.000000	98.610983 
3865.000000	98.600096 
3864.000000	98.595787 
3863.000000	98.606273 
3862.000000	98.615129 
3861.000000	98.613032 
3860.000000	98.604780 
3859.000000	98.596998 
3858.000000	98.591123 
3857.000000	98.590251 
3856.000000	98.596032 
3855.000000	98.595680 
3854.000000	98.581510 
3853.000000	98.573247 
3852.000000	98.582307 
3851.000000	98.596482 
3850.000000	98.601656 
3849.000000	98.597293 
3848.000000	98.595174 
3847.000000	98.604136 
3846.000000	98.619223 
3845.000000	98.630804 
3844.000000	98.633932 
3843.000000	98.630203 
3842.000000	98.623941 
3841.000000	98.618334 
3840.000000	98.612794 
3839.000000	98.610903 
3838.000000	98.616727 
3837.000000	98.626047 
3836.000000	98.630461 
3835.000000	98.628004 
3834.000000	98.624043 
3833.000000	98.623120 
3832.000000	98.625537 
3831.000000	98.630443 
3830.000000	98.635934 
3829.000000	98.638900 
3828.000000	98.635480 
3827.000000	98.624736 
3826.000000	98.613591 
3825.000000	98.614570 
3824.000000	98.630292 
3823.000000	98.646271 
3822.000000	98.645210 
3821.000000	98.632174 
3820.000000	98.626497 
3819.000000	98.632806 
3818.000000	98.637589 
3817.000000	98.624544 
3816.000000	98.601498 
3815.000000	98.594601 
3814.000000	98.608893 
3813.000000	98.623145 
3812.000000	98.622136 
3811.000000	98.613492 
3810.000000	98.612556 
3809.000000	98.619435 
3808.000000	98.618968 
3807.000000	98.606698 
3806.000000	98.597714 
3805.000000	98.602838 
3804.000000	98.613160 
3803.000000	98.611081 
3802.000000	98.593868 
3801.000000	98.584766 
3800.000000	98.598593 
3799.000000	98.620051 
3798.000000	98.628082 
3797.000000	98.618985 
3796.000000	98.607460 
3795.000000	98.605514 
3794.000000	98.609438 
3793.000000	98.609768 
3792.000000	98.606842 
3791.000000	98.608123 
3790.000000	98.615141 
3789.000000	98.621512 
3788.000000	98.622717 
3787.000000	98.620297 
3786.000000	98.616954 
3785.000000	98.613344 
3784.000000	98.611717 
3783.000000	98.616538 
3782.000000	98.627216 
3781.000000	98.636560 
3780.000000	98.638647 
3779.000000	98.636343 
3778.000000	98.635468 
3777.000000	98.636998 
3776.000000	98.636289 
3775.000000	98.630859 
3774.000000	98.625461 
3773.000000	98.626360 
3772.000000	98.631300 
3771.000000	98.632763 
3770.000000	98.631162 
3769.000000	98.634187 
3768.000000	98.642109 
3767.000000	98.645651 
3766.000000	98.637874 
3765.000000	98.624376 
3764.000000	98.617993 
3763.000000	98.622072 
3762.000000	98.625353 
3761.000000	98.618198 
3760.000000	98.607080 
3759.000000	98.604028 
3758.000000	98.605566 
3757.000000	98.603710 
3756.000000	98.602072 
3755.000000	98.606680 
3754.000000	98.612575 
3753.000000	98.609682 
3752.000000	98.602465 
3751.000000	98.602943 
3750.000000	98.605023 
3749.000000	98.599022 
3748.000000	98.595789 
3747.000000	98.608265 
3746.000000	98.621702 
3745.000000	98.610969 
3744.000000	98.592587 
3743.000000	98.594958 
3742.000000	98.607078 
3741.000000	98.605321 
3740.000000	98.589484 
3739.000000	98.582008 
3738.000000	98.592065 
3737.000000	98.602018 
3736.000000	98.600761 
3735.000000	98.601710 
3734.000000	98.614315 
3733.000000	98.624382 
3732.000000	98.620971 
3731.000000	98.613604 
3730.000000	98.614131 
3729.000000	98.619460 
3728.000000	98.616959 
3727.000000	98.602838 
3726.000000	98.589281 
3725.000000	98.585892 
3724.000000	98.587560 
3723.000000	98.586942 
3722.000000	98.586105 
3721.000000	98.589828 
3720.000000	98.596036 
3719.000000	98.599333 
3718.000000	98.595514 
3717.000000	98.586564 
3716.000000	98.578502 
3715.000000	98.571868 
3714.000000	98.560892 
3713.000000	98.543445 
3712.000000	98.527826 
3711.000000	98.521787 
3710.000000	98.520569 
3709.000000	98.515913 
3708.000000	98.505219 
3707.000000	98.491034 
3706.000000	98.477486 
3705.000000	98.465512 
3704.000000	98.451858 
3703.000000	98.433630 
3702.000000	98.413168 
3701.000000	98.396155 
3700.000000	98.385761 
3699.000000	98.379851 
3698.000000	98.371896 
3697.000000	98.358173 
3696.000000	98.344826 
3695.000000	98.339481 
3694.000000	98.340458 
3693.000000	98.341926 
3692.000000	98.343980 
3691.000000	98.350848 
3690.000000	98.358968 
3689.000000	98.358716 
3688.000000	98.349618 
3687.000000	98.342682 
3686.000000	98.344497 
3685.000000	98.349270 
3684.000000	98.350293 
3683.000000	98.350021 
3682.000000	98.352183 
3681.000000	98.349917 
3680.000000	98.335493 
3679.000000	98.314796 
3678.000000	98.299286 
3677.000000	98.282852 
3676.000000	98.255387 
3675.000000	98.229160 
3674.000000	98.217438 
3673.000000	98.215257 
3672.000000	98.207257 
3671.000000	98.185234 
3670.000000	98.163402 
3669.000000	98.156471 
3668.000000	98.154039 
3667.000000	98.140915 
3666.000000	98.117471 
3665.000000	98.092661 
3664.000000	98.072590 
3663.000000	98.056698 
3662.000000	98.039766 
3661.000000	98.018222 
3660.000000	97.995222 
3659.000000	97.976036 
3658.000000	97.961647 
3657.000000	97.946425 
3656.000000	97.927894 
3655.000000	97.910262 
3654.000000	97.896609 
3653.000000	97.883330 
3652.000000	97.862663 
3651.000000	97.834801 
3650.000000	97.812897 
3649.000000	97.801359 
3648.000000	97.786145 
3647.000000	97.760056 
3646.000000	97.731717 
3645.000000	97.709985 
3644.000000	97.695142 
3643.000000	97.683963 
3642.000000	97.675153 
3641.000000	97.668996 
3640.000000	97.662405 
3639.000000	97.649743 
3638.000000	97.630569 
3637.000000	97.610069 
3636.000000	97.591178 
3635.000000	97.570311 
3634.000000	97.546298 
3633.000000	97.525544 
3632.000000	97.512274 
3631.000000	97.497112 
3630.000000	97.467461 
3629.000000	97.435418 
3628.000000	97.423560 
3627.000000	97.428475 
3626.000000	97.431650 
3625.000000	97.425541 
3624.000000	97.416628 
3623.000000	97.414716 
3622.000000	97.420796 
3621.000000	97.427128 
3620.000000	97.429556 
3619.000000	97.432396 
3618.000000	97.439013 
3617.000000	97.449275 
3616.000000	97.464093 
3615.000000	97.482583 
3614.000000	97.501325 
3613.000000	97.518646 
3612.000000	97.536060 
3611.000000	97.555279 
3610.000000	97.576356 
3609.000000	97.598894 
3608.000000	97.621943 
3607.000000	97.641573 
3606.000000	97.652704 
3605.000000	97.656130 
3604.000000	97.659068 
3603.000000	97.667882 
3602.000000	97.682199 
3601.000000	97.696176 
3600.000000	97.706966 
3599.000000	97.716319 
3598.000000	97.726177 
3597.000000	97.736290 
3596.000000	97.745654 
3595.000000	97.751624 
3594.000000	97.752489 
3593.000000	97.749770 
3592.000000	97.748008 
3591.000000	97.751635 
3590.000000	97.759976 
3589.000000	97.767785 
3588.000000	97.772288 
3587.000000	97.775455 
3586.000000	97.778443 
3585.000000	97.780141 
3584.000000	97.779697 
3583.000000	97.776967 
3582.000000	97.772451 
3581.000000	97.766636 
3580.000000	97.760805 
3579.000000	97.757153 
3578.000000	97.757767 
3577.000000	97.762699 
3576.000000	97.769043 
3575.000000	97.772471 
3574.000000	97.770281 
3573.000000	97.764036 
3572.000000	97.757655 
3571.000000	97.753622 
3570.000000	97.749657 
3569.000000	97.740388 
3568.000000	97.725614 
3567.000000	97.713177 
3566.000000	97.708618 
3565.000000	97.709416 
3564.000000	97.711333 
3563.000000	97.713432 
3562.000000	97.716889 
3561.000000	97.721662 
3560.000000	97.724952 
3559.000000	97.723683 
3558.000000	97.717610 
3557.000000	97.709930 
3556.000000	97.704446 
3555.000000	97.702290 
3554.000000	97.701194 
3553.000000	97.698730 
3552.000000	97.695288 
3551.000000	97.692441 
3550.000000	97.689490 
3549.000000	97.683620 
3548.000000	97.674174 
3547.000000	97.664915 
3546.000000	97.660132 
3545.000000	97.659960 
3544.000000	97.661581 
3543.000000	97.663104 
3542.000000	97.664100 
3541.000000	97.664029 
3540.000000	97.661942 
3539.000000	97.657658 
3538.000000	97.652521 
3537.000000	97.648872 
3536.000000	97.648357 
3535.000000	97.649559 
3534.000000	97.648971 
3533.000000	97.644549 
3532.000000	97.638480 
3531.000000	97.634924 
3530.000000	97.635021 
3529.000000	97.635545 
3528.000000	97.633116 
3527.000000	97.628324 
3526.000000	97.624358 
3525.000000	97.623238 
3524.000000	97.624639 
3523.000000	97.627094 
3522.000000	97.628962 
3521.000000	97.629232 
3520.000000	97.628275 
3519.000000	97.627291 
3518.000000	97.626891 
3517.000000	97.626050 
3516.000000	97.622949 
3515.000000	97.616685 
3514.000000	97.608722 
3513.000000	97.602269 
3512.000000	97.600210 
3511.000000	97.603421 
3510.000000	97.610042 
3509.000000	97.616050 
3508.000000	97.617679 
3507.000000	97.614161 
3506.000000	97.607983 
3505.000000	97.602844 
3504.000000	97.601381 
3503.000000	97.603581 
3502.000000	97.606918 
3501.000000	97.608262 
3500.000000	97.605876 
3499.000000	97.600097 
3498.000000	97.593239 
3497.000000	97.588908 
3496.000000	97.589705 
3495.000000	97.594815 
3494.000000	97.600532 
3493.000000	97.603703 
3492.000000	97.604112 
3491.000000	97.603544 
3490.000000	97.603455 
3489.000000	97.603738 
3488.000000	97.603332 
3487.000000	97.601391 
3486.000000	97.597722 
3485.000000	97.592523 
3484.000000	97.585981 
3483.000000	97.578325 
3482.000000	97.570481 
3481.000000	97.564176 
3480.000000	97.560686 
3479.000000	97.559453 
3478.000000	97.558582 
3477.000000	97.556926 
3476.000000	97.555122 
3475.000000	97.554412 
3474.000000	97.555009 
3473.000000	97.556210 
3472.000000	97.557191 
3471.000000	97.556849 
3470.000000	97.553573 
3469.000000	97.546288 
3468.000000	97.536036 
3467.000000	97.526336 
3466.000000	97.521282 
3465.000000	97.522605 
3464.000000	97.528014 
3463.000000	97.532268 
3462.000000	97.530652 
3461.000000	97.522256 
3460.000000	97.510499 
3459.000000	97.500596 
3458.000000	97.496038 
3457.000000	97.496445 
3456.000000	97.498154 
3455.000000	97.497256 
3454.000000	97.493022 
3453.000000	97.488192 
3452.000000	97.485995 
3451.000000	97.486560 
3450.000000	97.486454 
3449.000000	97.482044 
3448.000000	97.472968 
3447.000000	97.462198 
3446.000000	97.453172 
3445.000000	97.448156 
3444.000000	97.448475 
3443.000000	97.453651 
3442.000000	97.459680 
3441.000000	97.460527 
3440.000000	97.453446 
3439.000000	97.441902 
3438.000000	97.431891 
3437.000000	97.425872 
3436.000000	97.421947 
3435.000000	97.418314 
3434.000000	97.416000 
3433.000000	97.416377 
3432.000000	97.418273 
3431.000000	97.418768 
3430.000000	97.415984 
3429.000000	97.410459 
3428.000000	97.404156 
3427.000000	97.398799 
3426.000000	97.394848 
3425.000000	97.391831 
3424.000000	97.389524 
3423.000000	97.388551 
3422.000000	97.389524 
3421.000000	97.391648 
3420.000000	97.392789 
3419.000000	97.391264 
3418.000000	97.387589 
3417.000000	97.384178 
3416.000000	97.383177 
3415.000000	97.384390 
3414.000000	97.385091 
3413.000000	97.382193 
3412.000000	97.375099 
3411.000000	97.366639 
3410.000000	97.361103 
3409.000000	97.361095 
3408.000000	97.365795 
3407.000000	97.371787 
3406.000000	97.375561 
3405.000000	97.375526 
3404.000000	97.372070 
3403.000000	97.366392 
3402.000000	97.360055 
3401.000000	97.355025 
3400.000000	97.352656 
3399.000000	97.352059 
3398.000000	97.350608 
3397.000000	97.346943 
3396.000000	97.342893 
3395.000000	97.341847 
3394.000000	97.345580 
3393.000000	97.352946 
3392.000000	97.360998 
3391.000000	97.366992 
3390.000000	97.369983 
3389.000000	97.371134 
3388.000000	97.372309 
3387.000000	97.373973 
3386.000000	97.374829 
3385.000000	97.373720 
3384.000000	97.371369 
3383.000000	97.369648 
3382.000000	97.369650 
3381.000000	97.370817 
3380.000000	97.371576 
3379.000000	97.370559 
3378.000000	97.367765 
3377.000000	97.364776 
3376.000000	97.363204 
3375.000000	97.362876 
3374.000000	97.362206 
3373.000000	97.360480 
3372.000000	97.358840 
3371.000000	97.358819 
3370.000000	97.360872 
3369.000000	97.364721 
3368.000000	97.370007 
3367.000000	97.375937 
3366.000000	97.381164 
3365.000000	97.384900 
3364.000000	97.387611 
3363.000000	97.389917 
3362.000000	97.391510 
3361.000000	97.392037 
3360.000000	97.392275 
3359.000000	97.393148 
3358.000000	97.393957 
3357.000000	97.393146 
3356.000000	97.391161 
3355.000000	97.391099 
3354.000000	97.395363 
3353.000000	97.402259 
3352.000000	97.407039 
3351.000000	97.406825 
3350.000000	97.404019 
3349.000000	97.404078 
3348.000000	97.409806 
3347.000000	97.418461 
3346.000000	97.424912 
3345.000000	97.426873 
3344.000000	97.426221 
3343.000000	97.425676 
3342.000000	97.425905 
3341.000000	97.426325 
3340.000000	97.427126 
3339.000000	97.429165 
3338.000000	97.432330 
3337.000000	97.435169 
3336.000000	97.436195 
3335.000000	97.435066 
3334.000000	97.432693 
3333.000000	97.430727 
3332.000000	97.430750 
3331.000000	97.433272 
3330.000000	97.437431 
3329.000000	97.441987 
3328.000000	97.446559 
3327.000000	97.451541 
3326.000000	97.456990 
3325.000000	97.462100 
3324.000000	97.465830 
3323.000000	97.467726 
3322.000000	97.468137 
3321.000000	97.467738 
3320.000000	97.466873 
3319.000000	97.465583 
3318.000000	97.464435 
3317.000000	97.464938 
3316.000000	97.468544 
3315.000000	97.475166 
3314.000000	97.483087 
3313.000000	97.490136 
3312.000000	97.494485 
3311.000000	97.494879 
3310.000000	97.491441 
3309.000000	97.486375 
3308.000000	97.482621 
3307.000000	97.481233 
3306.000000	97.481009 
3305.000000	97.481082 
3304.000000	97.482604 
3303.000000	97.487107 
3302.000000	97.494212 
3301.000000	97.501806 
3300.000000	97.507709 
3299.000000	97.510523 
3298.000000	97.510072 
3297.000000	97.508228 
3296.000000	97.508327 
3295.000000	97.512069 
3294.000000	97.517262 
3293.000000	97.520043 
3292.000000	97.519269 
3291.000000	97.517674 
3290.000000	97.518646 
3289.000000	97.523000 
3288.000000	97.529051 
3287.000000	97.534624 
3286.000000	97.538515 
3285.000000	97.540899 
3284.000000	97.542892 
3283.000000	97.545214 
3282.000000	97.546915 
3281.000000	97.545919 
3280.000000	97.541348 
3279.000000	97.535434 
3278.000000	97.532751 
3277.000000	97.536760 
3276.000000	97.546506 
3275.000000	97.556875 
3274.000000	97.562960 
3273.000000	97.564329 
3272.000000	97.564428 
3271.000000	97.566080 
3270.000000	97.568901 
3269.000000	97.571350 
3268.000000	97.573456 
3267.000000	97.576046 
3266.000000	97.578499 
3265.000000	97.579371 
3264.000000	97.578928 
3263.000000	97.579278 
3262.000000	97.581816 
3261.000000	97.585870 
3260.000000	97.590004 
3259.000000	97.593521 
3258.000000	97.596149 
3257.000000	97.597193 
3256.000000	97.596226 
3255.000000	97.594461 
3254.000000	97.594630 
3253.000000	97.599008 
3252.000000	97.607408 
3251.000000	97.616868 
3250.000000	97.623429 
3249.000000	97.624705 
3248.000000	97.621435 
3247.000000	97.617035 
3246.000000	97.615399 
3245.000000	97.618259 
3244.000000	97.623833 
3243.000000	97.628260 
3242.000000	97.629163 
3241.000000	97.627810 
3240.000000	97.627364 
3239.000000	97.629574 
3238.000000	97.634200 
3237.000000	97.641133 
3236.000000	97.650987 
3235.000000	97.662658 
3234.000000	97.671975 
3233.000000	97.674808 
3232.000000	97.671523 
3231.000000	97.667164 
3230.000000	97.667138 
3229.000000	97.673219 
3228.000000	97.683260 
3227.000000	97.693720 
3226.000000	97.702140 
3225.000000	97.707961 
3224.000000	97.711677 
3223.000000	97.713572 
3222.000000	97.713765 
3221.000000	97.713354 
3220.000000	97.714376 
3219.000000	97.717895 
3218.000000	97.722754 
3217.000000	97.726997 
3216.000000	97.730038 
3215.000000	97.732669 
3214.000000	97.735270 
3213.000000	97.737263 
3212.000000	97.738766 
3211.000000	97.741645 
3210.000000	97.747739 
3209.000000	97.756137 
3208.000000	97.763158 
3207.000000	97.765552 
3206.000000	97.763423 
3205.000000	97.759657 
3204.000000	97.756783 
3203.000000	97.755126 
3202.000000	97.754157 
3201.000000	97.754670 
3200.000000	97.758505 
3199.000000	97.766346 
3198.000000	97.776575 
3197.000000	97.786284 
3196.000000	97.792803 
3195.000000	97.794590 
3194.000000	97.792032 
3193.000000	97.787854 
3192.000000	97.785641 
3191.000000	97.786793 
3190.000000	97.789357 
3189.000000	97.790544 
3188.000000	97.790074 
3187.000000	97.790435 
3186.000000	97.794243 
3185.000000	97.801875 
3184.000000	97.811239 
3183.000000	97.819307 
3182.000000	97.824095 
3181.000000	97.826035 
3180.000000	97.827731 
3179.000000	97.831777 
3178.000000	97.838407 
3177.000000	97.845487 
3176.000000	97.850924 
3175.000000	97.854650 
3174.000000	97.858073 
3173.000000	97.862179 
3172.000000	97.866727 
3171.000000	97.871099 
3170.000000	97.875231 
3169.000000	97.879189 
3168.000000	97.882197 
3167.000000	97.882927 
3166.000000	97.881184 
3165.000000	97.878950 
3164.000000	97.879236 
3163.000000	97.883833 
3162.000000	97.892004 
3161.000000	97.900969 
3160.000000	97.907574 
3159.000000	97.910052 
3158.000000	97.908936 
3157.000000	97.906516 
3156.000000	97.905189 
3155.000000	97.906115 
3154.000000	97.909063 
3153.000000	97.912937 
3152.000000	97.916260 
3151.000000	97.917949 
3150.000000	97.918475 
3149.000000	97.920001 
3148.000000	97.924487 
3147.000000	97.931625 
3146.000000	97.939158 
3145.000000	97.945035 
3144.000000	97.948498 
3143.000000	97.949479 
3142.000000	97.948468 
3141.000000	97.947453 
3140.000000	97.949369 
3139.000000	97.955241 
3138.000000	97.962518 
3137.000000	97.967323 
3136.000000	97.968133 
3135.000000	97.966701 
3134.000000	97.965880 
3133.000000	97.967343 
3132.000000	97.970985 
3131.000000	97.975401 
3130.000000	97.978663 
3129.000000	97.979397 
3128.000000	97.977903 
3127.000000	97.976196 
3126.000000	97.976445 
3125.000000	97.979287 
3124.000000	97.983762 
3123.000000	97.988511 
3122.000000	97.992542 
3121.000000	97.995268 
3120.000000	97.996655 
3119.000000	97.997606 
3118.000000	97.999743 
3117.000000	98.004123 
3116.000000	98.010118 
3115.000000	98.016009 
3114.000000	98.020596 
3113.000000	98.023789 
3112.000000	98.025820 
3111.000000	98.026639 
3110.000000	98.026358 
3109.000000	98.025738 
3108.000000	98.025969 
3107.000000	98.028116 
3106.000000	98.032507 
3105.000000	98.038137 
3104.000000	98.042902 
3103.000000	98.045282 
3102.000000	98.046002 
3101.000000	98.047377 
3100.000000	98.050428 
3099.000000	98.053383 
3098.000000	98.053873 
3097.000000	98.051947 
3096.000000	98.049856 
3095.000000	98.049294 
3094.000000	98.050223 
3093.000000	98.052247 
3092.000000	98.055520 
3091.000000	98.059807 
3090.000000	98.063874 
3089.000000	98.066592 
3088.000000	98.067938 
3087.000000	98.068469 
3086.000000	98.068669 
3085.000000	98.069339 
3084.000000	98.071663 
3083.000000	98.075922 
3082.000000	98.080585 
3081.000000	98.083612 
3080.000000	98.084533 
3079.000000	98.084866 
3078.000000	98.086750 
3077.000000	98.091223 
3076.000000	98.097163 
3075.000000	98.101630 
3074.000000	98.101978 
3073.000000	98.098347 
3072.000000	98.093917 
3071.000000	98.092231 
3070.000000	98.094548 
3069.000000	98.099823 
3068.000000	98.106079 
3067.000000	98.111042 
3066.000000	98.112448 
3065.000000	98.109447 
3064.000000	98.103939 
3063.000000	98.099614 
3062.000000	98.099275 
3061.000000	98.103202 
3060.000000	98.109631 
3059.000000	98.116275 
3058.000000	98.121662 
3057.000000	98.125505 
3056.000000	98.127827 
3055.000000	98.127939 
3054.000000	98.125219 
3053.000000	98.121114 
3052.000000	98.119315 
3051.000000	98.122789 
3050.000000	98.130914 
3049.000000	98.140159 
3048.000000	98.147186 
3047.000000	98.150853 
3046.000000	98.151890 
3045.000000	98.151619 
3044.000000	98.150845 
3043.000000	98.149490 
3042.000000	98.147529 
3041.000000	98.146144 
3040.000000	98.146801 
3039.000000	98.148785 
3038.000000	98.149057 
3037.000000	98.145852 
3036.000000	98.141554 
3035.000000	98.140414 
3034.000000	98.143786 
3033.000000	98.148690 
3032.000000	98.150911 
3031.000000	98.148668 
3030.000000	98.143609 
3029.000000	98.139212 
3028.000000	98.138097 
3027.000000	98.140045 
3026.000000	98.142526 
3025.000000	98.143488 
3024.000000	98.143155 
3023.000000	98.142550 
3022.000000	98.141205 
3021.000000	98.137770 
3020.000000	98.132514 
3019.000000	98.127704 
3018.000000	98.125361 
3017.000000	98.125650 
3016.000000	98.127307 
3015.000000	98.128480 
3014.000000	98.127389 
3013.000000	98.123651 
3012.000000	98.119104 
3011.000000	98.116006 
3010.000000	98.114164 
3009.000000	98.111068 
3008.000000	98.105091 
3007.000000	98.097370 
3006.000000	98.090115 
3005.000000	98.084208 
3004.000000	98.078991 
3003.000000	98.073440 
3002.000000	98.066926 
3001.000000	98.059769 
3000.000000	98.053642 
2999.000000	98.050427 
2998.000000	98.049972 
2997.000000	98.049942 
2996.000000	98.048685 
2995.000000	98.047258 
2994.000000	98.047173 
2993.000000	98.046752 
2992.000000	98.041748 
2991.000000	98.030192 
2990.000000	98.015536 
2989.000000	98.004130 
2988.000000	98.000045 
2987.000000	98.002836 
2986.000000	98.009445 
2985.000000	98.016856 
2984.000000	98.022804 
2983.000000	98.025564 
2982.000000	98.024571 
2981.000000	98.021127 
2980.000000	98.017597 
2979.000000	98.015565 
2978.000000	98.015091 
2977.000000	98.015416 
2976.000000	98.015540 
2975.000000	98.014157 
2974.000000	98.010270 
2973.000000	98.004696 
2972.000000	98.000252 
2971.000000	97.999542 
2970.000000	98.002696 
2969.000000	98.007616 
2968.000000	98.011903 
2967.000000	98.014051 
2966.000000	98.013692 
2965.000000	98.011998 
2964.000000	98.011707 
2963.000000	98.015330 
2962.000000	98.022601 
2961.000000	98.030220 
2960.000000	98.034735 
2959.000000	98.035610 
2958.000000	98.035359 
2957.000000	98.036918 
2956.000000	98.041094 
2955.000000	98.046426 
2954.000000	98.051237 
2953.000000	98.055551 
2952.000000	98.060789 
2951.000000	98.067690 
2950.000000	98.074969 
2949.000000	98.080254 
2948.000000	98.082059 
2947.000000	98.080733 
2946.000000	98.078008 
2945.000000	98.075998 
2944.000000	98.076259 
2943.000000	98.079072 
2942.000000	98.083394 
2941.000000	98.087520 
2940.000000	98.089689 
2939.000000	98.088379 
2938.000000	98.083015 
2937.000000	98.075055 
2936.000000	98.067720 
2935.000000	98.063655 
2934.000000	98.062764 
2933.000000	98.062784 
2932.000000	98.061696 
2931.000000	98.059029 
2930.000000	98.055133 
2929.000000	98.050206 
2928.000000	98.044446 
2927.000000	98.038735 
2926.000000	98.034718 
2925.000000	98.033912 
2924.000000	98.036491 
2923.000000	98.040891 
2922.000000	98.044952 
2921.000000	98.047511 
2920.000000	98.048472 
2919.000000	98.047630 
2918.000000	98.044769 
2917.000000	98.041418 
2916.000000	98.041030 
2915.000000	98.045843 
2914.000000	98.054046 
2913.000000	98.061586 
2912.000000	98.066708 
2911.000000	98.071245 
2910.000000	98.077190 
2909.000000	98.083569 
2908.000000	98.087563 
2907.000000	98.087736 
2906.000000	98.085084 
2905.000000	98.081419 
2904.000000	98.077732 
2903.000000	98.074694 
2902.000000	98.073692 
2901.000000	98.076522 
2900.000000	98.084122 
2899.000000	98.095236 
2898.000000	98.106907 
2897.000000	98.116273 
2896.000000	98.122096 
2895.000000	98.124793 
2894.000000	98.125563 
2893.000000	98.125769 
2892.000000	98.126761 
2891.000000	98.129567 
2890.000000	98.134422 
2889.000000	98.140618 
2888.000000	98.146807 
2887.000000	98.151607 
2886.000000	98.154314 
2885.000000	98.155327 
2884.000000	98.155747 
2883.000000	98.156485 
2882.000000	98.158040 
2881.000000	98.160939 
2880.000000	98.165496 
2879.000000	98.170756 
2878.000000	98.174656 
2877.000000	98.176269 
2876.000000	98.177389 
2875.000000	98.180768 
2874.000000	98.186870 
2873.000000	98.193324 
2872.000000	98.197630 
2871.000000	98.199469 
2870.000000	98.200133 
2869.000000	98.200770 
2868.000000	98.201923 
2867.000000	98.204281 
2866.000000	98.208905 
2865.000000	98.216269 
2864.000000	98.225071 
2863.000000	98.232273 
2862.000000	98.235054 
2861.000000	98.233356 
2860.000000	98.230300 
2859.000000	98.229438 
2858.000000	98.231554 
2857.000000	98.234605 
2856.000000	98.236417 
2855.000000	98.236546 
2854.000000	98.235624 
2853.000000	98.234138 
2852.000000	98.232658 
2851.000000	98.232672 
2850.000000	98.236214 
2849.000000	98.244381 
2848.000000	98.256302 
2847.000000	98.269538 
2846.000000	98.281418 
2845.000000	98.290311 
2844.000000	98.296124 
2843.000000	98.299985 
2842.000000	98.303609 
2841.000000	98.308533 
2840.000000	98.315106 
2839.000000	98.321800 
2838.000000	98.326082 
2837.000000	98.326676 
2836.000000	98.324852 
2835.000000	98.323049 
2834.000000	98.322578 
2833.000000	98.323260 
2832.000000	98.324913 
2831.000000	98.328043 
2830.000000	98.332820 
2829.000000	98.338211 
2828.000000	98.342679 
2827.000000	98.345412 
2826.000000	98.346723 
2825.000000	98.347652 
2824.000000	98.349307 
2823.000000	98.352059 
2822.000000	98.355142 
2821.000000	98.357375 
2820.000000	98.358433 
2819.000000	98.359044 
2818.000000	98.359936 
2817.000000	98.361166 
2816.000000	98.362596 
2815.000000	98.364308 
2814.000000	98.366184 
2813.000000	98.367739 
2812.000000	98.368968 
2811.000000	98.370974 
2810.000000	98.375067 
2809.000000	98.381224 
2808.000000	98.387742 
2807.000000	98.392356 
2806.000000	98.393609 
2805.000000	98.391506 
2804.000000	98.387298 
2803.000000	98.382572 
2802.000000	98.378351 
2801.000000	98.375103 
2800.000000	98.373471 
2799.000000	98.374393 
2798.000000	98.378057 
2797.000000	98.383172 
2796.000000	98.387898 
2795.000000	98.391428 
2794.000000	98.394235 
2793.000000	98.396853 
2792.000000	98.398894 
2791.000000	98.399343 
2790.000000	98.397450 
2789.000000	98.393340 
2788.000000	98.388252 
2787.000000	98.384384 
2786.000000	98.383929 
2785.000000	98.387552 
2784.000000	98.393636 
2783.000000	98.399406 
2782.000000	98.403041 
2781.000000	98.404676 
2780.000000	98.405444 
2779.000000	98.405998 
2778.000000	98.406309 
2777.000000	98.406563 
2776.000000	98.407430 
2775.000000	98.409177 
2774.000000	98.411050 
2773.000000	98.412070 
2772.000000	98.412226 
2771.000000	98.412393 
2770.000000	98.413136 
2769.000000	98.414022 
2768.000000	98.414168 
2767.000000	98.413136 
2766.000000	98.411198 
2765.000000	98.409027 
2764.000000	98.407302 
2763.000000	98.406511 
2762.000000	98.406969 
2761.000000	98.408873 
2760.000000	98.412056 
2759.000000	98.415688 
2758.000000	98.418697 
2757.000000	98.420774 
2756.000000	98.422459 
2755.000000	98.423755 
2754.000000	98.423384 
2753.000000	98.420538 
2752.000000	98.417035 
2751.000000	98.416206 
2750.000000	98.419201 
2749.000000	98.423624 
2748.000000	98.426551 
2747.000000	98.427751 
2746.000000	98.428867 
2745.000000	98.430362 
2744.000000	98.430956 
2743.000000	98.429929 
2742.000000	98.428520 
2741.000000	98.428654 
2740.000000	98.431286 
2739.000000	98.436261 
2738.000000	98.442655 
2737.000000	98.448541 
2736.000000	98.451349 
2735.000000	98.449687 
2734.000000	98.444845 
2733.000000	98.439884 
2732.000000	98.437127 
2731.000000	98.436838 
2730.000000	98.438114 
2729.000000	98.440413 
2728.000000	98.443848 
2727.000000	98.448178 
2726.000000	98.451918 
2725.000000	98.453001 
2724.000000	98.450752 
2723.000000	98.447053 
2722.000000	98.444935 
2721.000000	98.445793 
2720.000000	98.448486 
2719.000000	98.451425 
2718.000000	98.454725 
2717.000000	98.459436 
2716.000000	98.465049 
2715.000000	98.468969 
2714.000000	98.468931 
2713.000000	98.465441 
2712.000000	98.461474 
2711.000000	98.459998 
2710.000000	98.461787 
2709.000000	98.465149 
2708.000000	98.467321 
2707.000000	98.466398 
2706.000000	98.462436 
2705.000000	98.457148 
2704.000000	98.452745 
2703.000000	98.450901 
2702.000000	98.452124 
2701.000000	98.455415 
2700.000000	98.458727 
2699.000000	98.460402 
2698.000000	98.460337 
2697.000000	98.459451 
2696.000000	98.458324 
2695.000000	98.457106 
2694.000000	98.456613 
2693.000000	98.458308 
2692.000000	98.462568 
2691.000000	98.467623 
2690.000000	98.470818 
2689.000000	98.470621 
2688.000000	98.467210 
2687.000000	98.461881 
2686.000000	98.456496 
2685.000000	98.452825 
2684.000000	98.451531 
2683.000000	98.451990 
2682.000000	98.453612 
2681.000000	98.456780 
2680.000000	98.461770 
2679.000000	98.467343 
2678.000000	98.471533 
2677.000000	98.473645 
2676.000000	98.474405 
2675.000000	98.474274 
2674.000000	98.472908 
2673.000000	98.470562 
2672.000000	98.468758 
2671.000000	98.468736 
2670.000000	98.469914 
2669.000000	98.470624 
2668.000000	98.469972 
2667.000000	98.468349 
2666.000000	98.466483 
2665.000000	98.464624 
2664.000000	98.462485 
2663.000000	98.459493 
2662.000000	98.455225 
2661.000000	98.450132 
2660.000000	98.445794 
2659.000000	98.443874 
2658.000000	98.444453 
2657.000000	98.445603 
2656.000000	98.444914 
2655.000000	98.441578 
2654.000000	98.436959 
2653.000000	98.433221 
2652.000000	98.431565 
2651.000000	98.431805 
2650.000000	98.433182 
2649.000000	98.434988 
2648.000000	98.436424 
2647.000000	98.436566 
2646.000000	98.434972 
2645.000000	98.432111 
2644.000000	98.428880 
2643.000000	98.425992 
2642.000000	98.423999 
2641.000000	98.423390 
2640.000000	98.424187 
2639.000000	98.425748 
2638.000000	98.427326 
2637.000000	98.428407 
2636.000000	98.428235 
2635.000000	98.425847 
2634.000000	98.421342 
2633.000000	98.416421 
2632.000000	98.412794 
2631.000000	98.410721 
2630.000000	98.410033 
2629.000000	98.411490 
2628.000000	98.415365 
2627.000000	98.419349 
2626.000000	98.420225 
2625.000000	98.417908 
2624.000000	98.415815 
2623.000000	98.416686 
2622.000000	98.419835 
2621.000000	98.423090 
2620.000000	98.425363 
2619.000000	98.426278 
2618.000000	98.425384 
2617.000000	98.423466 
2616.000000	98.422972 
2615.000000	98.425075 
2614.000000	98.427503 
2613.000000	98.427470 
2612.000000	98.425887 
2611.000000	98.426150 
2610.000000	98.429002 
2609.000000	98.431359 
2608.000000	98.430959 
2607.000000	98.429764 
2606.000000	98.431027 
2605.000000	98.434332 
2604.000000	98.435519 
2603.000000	98.431386 
2602.000000	98.423067 
2601.000000	98.414599 
2600.000000	98.409313 
2599.000000	98.408176 
2598.000000	98.410571 
2597.000000	98.415098 
2596.000000	98.419444 
2595.000000	98.421073 
2594.000000	98.419539 
2593.000000	98.417790 
2592.000000	98.419868 
2591.000000	98.426905 
2590.000000	98.435938 
2589.000000	98.442597 
2588.000000	98.444298 
2587.000000	98.441276 
2586.000000	98.436035 
2585.000000	98.432130 
2584.000000	98.431927 
2583.000000	98.434531 
2582.000000	98.436645 
2581.000000	98.436056 
2580.000000	98.433556 
2579.000000	98.431257 
2578.000000	98.430363 
2577.000000	98.431218 
2576.000000	98.433917 
2575.000000	98.437566 
2574.000000	98.440271 
2573.000000	98.441505 
2572.000000	98.443549 
2571.000000	98.448626 
2570.000000	98.455097 
2569.000000	98.458504 
2568.000000	98.456628 
2567.000000	98.451969 
2566.000000	98.448870 
2565.000000	98.449375 
2564.000000	98.452180 
2563.000000	98.454397 
2562.000000	98.453823 
2561.000000	98.450483 
2560.000000	98.446660 
2559.000000	98.444865 
2558.000000	98.445398 
2557.000000	98.446410 
2556.000000	98.446682 
2555.000000	98.447654 
2554.000000	98.452060 
2553.000000	98.460696 
2552.000000	98.470869 
2551.000000	98.478089 
2550.000000	98.479363 
2549.000000	98.475174 
2548.000000	98.468471 
2547.000000	98.461823 
2546.000000	98.455890 
2545.000000	98.450657 
2544.000000	98.447299 
2543.000000	98.447722 
2542.000000	98.452259 
2541.000000	98.458758 
2540.000000	98.464462 
2539.000000	98.468286 
2538.000000	98.470636 
2537.000000	98.471271 
2536.000000	98.468472 
2535.000000	98.461271 
2534.000000	98.452421 
2533.000000	98.447937 
2532.000000	98.452405 
2531.000000	98.464422 
2530.000000	98.477211 
2529.000000	98.484094 
2528.000000	98.483359 
2527.000000	98.478197 
2526.000000	98.472831 
2525.000000	98.469139 
2524.000000	98.466391 
2523.000000	98.463445 
2522.000000	98.460900 
2521.000000	98.460914 
2520.000000	98.464690 
2519.000000	98.470452 
2518.000000	98.474591 
2517.000000	98.474936 
2516.000000	98.472483 
2515.000000	98.469948 
2514.000000	98.469251 
2513.000000	98.470310 
2512.000000	98.471302 
2511.000000	98.469842 
2510.000000	98.464941 
2509.000000	98.458564 
2508.000000	98.454658 
2507.000000	98.455879 
2506.000000	98.461283 
2505.000000	98.467272 
2504.000000	98.470401 
2503.000000	98.469392 
2502.000000	98.465406 
2501.000000	98.461010 
2500.000000	98.458355 
2499.000000	98.457871 
2498.000000	98.458992 
2497.000000	98.461855 
2496.000000	98.467115 
2495.000000	98.473610 
2494.000000	98.477610 
2493.000000	98.475857 
2492.000000	98.469129 
2491.000000	98.461654 
2490.000000	98.456886 
2489.000000	98.454653 
2488.000000	98.452694 
2487.000000	98.450090 
2486.000000	98.448188 
2485.000000	98.448187 
2484.000000	98.449162 
2483.000000	98.449792 
2482.000000	98.451374 
2481.000000	98.456791 
2480.000000	98.465588 
2479.000000	98.472445 
2478.000000	98.472980 
2477.000000	98.469817 
2476.000000	98.469713 
2475.000000	98.474642 
2474.000000	98.479012 
2473.000000	98.476995 
2472.000000	98.470195 
2471.000000	98.465893 
2470.000000	98.468905 
2469.000000	98.476758 
2468.000000	98.482297 
2467.000000	98.480210 
2466.000000	98.471944 
2465.000000	98.464973 
2464.000000	98.465850 
2463.000000	98.472843 
2462.000000	98.476666 
2461.000000	98.469971 
2460.000000	98.455360 
2459.000000	98.442838 
2458.000000	98.440217 
2457.000000	98.447039 
2456.000000	98.456512 
2455.000000	98.461482 
2454.000000	98.459379 
2453.000000	98.453578 
2452.000000	98.450190 
2451.000000	98.452026 
2450.000000	98.455477 
2449.000000	98.454410 
2448.000000	98.447071 
2447.000000	98.437939 
2446.000000	98.432755 
2445.000000	98.433131 
2444.000000	98.436394 
2443.000000	98.439508 
2442.000000	98.442123 
2441.000000	98.446097 
2440.000000	98.452773 
2439.000000	98.460993 
2438.000000	98.467724 
2437.000000	98.470471 
2436.000000	98.469015 
2435.000000	98.465330 
2434.000000	98.462473 
2433.000000	98.463122 
2432.000000	98.467685 
2431.000000	98.473466 
2430.000000	98.477018 
2429.000000	98.478125 
2428.000000	98.480266 
2427.000000	98.486128 
2426.000000	98.493670 
2425.000000	98.497997 
2424.000000	98.496511 
2423.000000	98.490938 
2422.000000	98.484716 
2421.000000	98.479948 
2420.000000	98.477143 
2419.000000	98.476660 
2418.000000	98.479401 
2417.000000	98.485922 
2416.000000	98.494938 
2415.000000	98.503037 
2414.000000	98.506590 
2413.000000	98.504540 
2412.000000	98.499373 
2411.000000	98.495419 
2410.000000	98.496240 
2409.000000	98.502670 
2408.000000	98.511921 
2407.000000	98.518766 
2406.000000	98.519434 
2405.000000	98.515172 
2404.000000	98.510963 
2403.000000	98.510366 
2402.000000	98.512813 
2401.000000	98.516072 
2400.000000	98.519243 
2399.000000	98.522179 
2398.000000	98.523880 
2397.000000	98.523553 
2396.000000	98.522469 
2395.000000	98.522788 
2394.000000	98.524643 
2393.000000	98.525730 
2392.000000	98.523994 
2391.000000	98.519981 
2390.000000	98.516575 
2389.000000	98.516788 
2388.000000	98.521382 
2387.000000	98.528216 
2386.000000	98.534421 
2385.000000	98.539410 
2384.000000	98.545145 
2383.000000	98.553349 
2382.000000	98.563647 
2381.000000	98.574592 
2380.000000	98.584747 
2379.000000	98.591928 
2378.000000	98.593519 
2377.000000	98.589355 
2376.000000	98.582945 
2375.000000	98.578192 
2374.000000	98.575933 
2373.000000	98.574872 
2372.000000	98.574701 
2371.000000	98.576513 
2370.000000	98.580943 
2369.000000	98.587030 
2368.000000	98.592198 
2367.000000	98.593410 
2366.000000	98.589966 
2365.000000	98.585096 
2364.000000	98.582961 
2363.000000	98.583815 
2362.000000	98.585221 
2361.000000	98.586182 
2360.000000	98.586463 
2359.000000	98.585721 
2358.000000	98.584059 
2357.000000	98.583202 
2356.000000	98.584373 
2355.000000	98.586554 
2354.000000	98.590589 
2353.000000	98.595546 
2352.000000	98.598917 
2351.000000	98.596938 
2350.000000	98.587190 
2349.000000	98.573506 
2348.000000	98.563885 
2347.000000	98.565152 
2346.000000	98.572761 
2345.000000	98.575681 
2344.000000	98.570457 
2343.000000	98.561364 
2342.000000	98.555049 
2341.000000	98.552070 
2340.000000	98.551428 
2339.000000	98.552458 
2338.000000	98.555389 
2337.000000	98.558708 
2336.000000	98.559093 
2335.000000	98.556870 
2334.000000	98.555951 
2333.000000	98.558523 
2332.000000	98.560642 
2331.000000	98.559332 
2330.000000	98.552982 
2329.000000	98.542584 
2328.000000	98.523899 
2327.000000	98.497547 
2326.000000	98.467046 
2325.000000	98.439740 
2324.000000	98.420652 
2323.000000	98.411841 
2322.000000	98.412381 
2321.000000	98.417886 
2320.000000	98.424471 
2319.000000	98.430888 
2318.000000	98.436672 
2317.000000	98.441288 
2316.000000	98.444101 
2315.000000	98.448552 
2314.000000	98.456210 
2313.000000	98.465471 
2312.000000	98.469756 
2311.000000	98.467337 
2310.000000	98.460647 
2309.000000	98.455349 
2308.000000	98.453208 
2307.000000	98.454420 
2306.000000	98.457117 
2305.000000	98.460072 
2304.000000	98.461691 
2303.000000	98.462205 
2302.000000	98.461782 
2301.000000	98.460546 
2300.000000	98.457112 
2299.000000	98.451442 
2298.000000	98.444377 
2297.000000	98.438529 
2296.000000	98.435044 
2295.000000	98.433813 
2294.000000	98.432471 
2293.000000	98.429136 
2292.000000	98.422934 
2291.000000	98.414728 
2290.000000	98.405642 
2289.000000	98.397093 
2288.000000	98.391091 
2287.000000	98.389737 
2286.000000	98.393665 
2285.000000	98.401050 
2284.000000	98.408721 
2283.000000	98.413297 
2282.000000	98.412686 
2281.000000	98.407538 
2280.000000	98.402174 
2279.000000	98.401767 
2278.000000	98.408444 
2277.000000	98.420408 
2276.000000	98.434700 
2275.000000	98.448945 
2274.000000	98.460235 
2273.000000	98.465389 
2272.000000	98.464045 
2271.000000	98.460276 
2270.000000	98.458836 
2269.000000	98.460482 
2268.000000	98.461946 
2267.000000	98.460028 
2266.000000	98.454480 
2265.000000	98.447816 
2264.000000	98.443291 
2263.000000	98.442633 
2262.000000	98.444477 
2261.000000	98.445423 
2260.000000	98.443555 
2259.000000	98.440242 
2258.000000	98.438015 
2257.000000	98.437318 
2256.000000	98.436935 
2255.000000	98.436602 
2254.000000	98.437474 
2253.000000	98.439814 
2252.000000	98.441936 
2251.000000	98.442545 
2250.000000	98.442877 
2249.000000	98.445168 
2248.000000	98.449216 
2247.000000	98.451897 
2246.000000	98.451167 
2245.000000	98.449238 
2244.000000	98.449710 
2243.000000	98.452197 
2242.000000	98.452662 
2241.000000	98.449776 
2240.000000	98.447751 
2239.000000	98.450778 
2238.000000	98.457466 
2237.000000	98.463775 
2236.000000	98.469187 
2235.000000	98.475753 
2234.000000	98.482040 
2233.000000	98.482633 
2232.000000	98.474704 
2231.000000	98.462044 
2230.000000	98.451816 
2229.000000	98.449121 
2228.000000	98.453969 
2227.000000	98.460863 
2226.000000	98.462317 
2225.000000	98.456432 
2224.000000	98.450549 
2223.000000	98.453255 
2222.000000	98.463094 
2221.000000	98.469871 
2220.000000	98.467508 
2219.000000	98.460534 
2218.000000	98.456857 
2217.000000	98.459390 
2216.000000	98.466116 
2215.000000	98.472744 
2214.000000	98.473102 
2213.000000	98.463526 
2212.000000	98.450966 
2211.000000	98.450397 
2210.000000	98.467885 
2209.000000	98.490157 
2208.000000	98.497724 
2207.000000	98.486238 
2206.000000	98.468652 
2205.000000	98.458422 
2204.000000	98.457515 
2203.000000	98.460864 
2202.000000	98.465416 
2201.000000	98.471389 
2200.000000	98.478118 
2199.000000	98.481773 
2198.000000	98.477017 
2197.000000	98.461821 
2196.000000	98.442509 
2195.000000	98.432023 
2194.000000	98.438867 
2193.000000	98.457272 
2192.000000	98.471778 
2191.000000	98.472501 
2190.000000	98.462793 
2189.000000	98.451876 
2188.000000	98.444476 
2187.000000	98.439927 
2186.000000	98.437463 
2185.000000	98.437695 
2184.000000	98.439876 
2183.000000	98.442155 
2182.000000	98.445785 
2181.000000	98.455915 
2180.000000	98.475222 
2179.000000	98.497695 
2178.000000	98.511570 
2177.000000	98.509635 
2176.000000	98.495645 
2175.000000	98.479542 
2174.000000	98.468192 
2173.000000	98.462675 
2172.000000	98.461724 
2171.000000	98.462945 
2170.000000	98.461179 
2169.000000	98.451643 
2168.000000	98.437470 
2167.000000	98.429308 
2166.000000	98.432585 
2165.000000	98.437826 
2164.000000	98.430101 
2163.000000	98.408887 
2162.000000	98.393227 
2161.000000	98.404803 
2160.000000	98.447900 
2159.000000	98.507287 
2158.000000	98.563028 
2157.000000	98.603638 
2156.000000	98.626451 
2155.000000	98.632304 
2154.000000	98.624632 
2153.000000	98.611089 
2152.000000	98.600393 
2151.000000	98.595940 
2150.000000	98.595016 
2149.000000	98.595125 
2148.000000	98.598248 
2147.000000	98.606445 
2146.000000	98.615121 
2145.000000	98.614378 
2144.000000	98.597957 
2143.000000	98.569294 
2142.000000	98.539058 
2141.000000	98.518237 
2140.000000	98.512433 
2139.000000	98.520346 
2138.000000	98.536799 
2137.000000	98.557548 
2136.000000	98.581127 
2135.000000	98.606024 
2134.000000	98.627964 
2133.000000	98.642104 
2132.000000	98.647021 
2131.000000	98.644537 
2130.000000	98.636711 
2129.000000	98.625030 
2128.000000	98.611388 
2127.000000	98.597565 
2126.000000	98.584265 
2125.000000	98.572339 
2124.000000	98.563950 
2123.000000	98.560285 
2122.000000	98.558809 
2121.000000	98.555231 
2120.000000	98.548093 
2119.000000	98.539593 
2118.000000	98.532726 
2117.000000	98.529925 
2116.000000	98.533017 
2115.000000	98.540547 
2114.000000	98.545508 
2113.000000	98.540553 
2112.000000	98.527177 
2111.000000	98.515709 
2110.000000	98.514140 
2109.000000	98.520232 
2108.000000	98.526693 
2107.000000	98.530322 
2106.000000	98.532679 
2105.000000	98.534952 
2104.000000	98.536631 
2103.000000	98.537790 
2102.000000	98.538669 
2101.000000	98.537567 
2100.000000	98.532634 
2099.000000	98.525598 
2098.000000	98.521089 
2097.000000	98.522261 
2096.000000	98.529005 
2095.000000	98.539606 
2094.000000	98.550860 
2093.000000	98.557007 
2092.000000	98.553002 
2091.000000	98.540688 
2090.000000	98.529259 
2089.000000	98.527206 
2088.000000	98.534263 
2087.000000	98.542541 
2086.000000	98.544400 
2085.000000	98.537865 
2084.000000	98.525941 
2083.000000	98.513546 
2082.000000	98.505727 
2081.000000	98.506039 
2080.000000	98.513847 
2079.000000	98.523619 
2078.000000	98.529100 
2077.000000	98.528956 
2076.000000	98.527353 
2075.000000	98.528786 
2074.000000	98.533534 
2073.000000	98.538704 
2072.000000	98.541714 
2071.000000	98.541181 
2070.000000	98.536146 
2069.000000	98.526515 
2068.000000	98.513818 
2067.000000	98.500465 
2066.000000	98.489370 
2065.000000	98.484672 
2064.000000	98.489804 
2063.000000	98.502805 
2062.000000	98.515941 
2061.000000	98.522816 
2060.000000	98.524549 
2059.000000	98.526251 
2058.000000	98.529336 
2057.000000	98.531031 
2056.000000	98.529379 
2055.000000	98.523320 
2054.000000	98.508815 
2053.000000	98.482298 
2052.000000	98.450429 
2051.000000	98.431034 
2050.000000	98.440272 
2049.000000	98.478336 
2048.000000	98.528026 
2047.000000	98.567181 
2046.000000	98.581922 
2045.000000	98.572033 
2044.000000	98.549099 
2043.000000	98.528634 
2042.000000	98.520090 
2041.000000	98.522161 
2040.000000	98.526792 
2039.000000	98.527825 
2038.000000	98.526952 
2037.000000	98.533093 
2036.000000	98.554359 
2035.000000	98.587432 
2034.000000	98.616382 
2033.000000	98.626379 
2032.000000	98.618052 
2031.000000	98.603216 
2030.000000	98.588642 
2029.000000	98.571957 
2028.000000	98.552738 
2027.000000	98.538852 
2026.000000	98.538163 
2025.000000	98.549359 
2024.000000	98.564121 
2023.000000	98.574224 
2022.000000	98.574969 
2021.000000	98.566878 
2020.000000	98.557766 
2019.000000	98.559007 
2018.000000	98.575532 
2017.000000	98.600321 
2016.000000	98.620903 
2015.000000	98.629973 
2014.000000	98.627784 
2013.000000	98.618083 
2012.000000	98.605056 
2011.000000	98.592362 
2010.000000	98.583543 
2009.000000	98.583582 
2008.000000	98.597221 
2007.000000	98.621547 
2006.000000	98.641821 
2005.000000	98.641883 
2004.000000	98.621103 
2003.000000	98.595618 
2002.000000	98.582487 
2001.000000	98.585856 
2000.000000	98.597873 
1999.000000	98.607200 
1998.000000	98.604690 
1997.000000	98.588422 
1996.000000	98.567228 
1995.000000	98.554579 
1994.000000	98.555652 
1993.000000	98.562823 
1992.000000	98.565265 
1991.000000	98.560264 
1990.000000	98.552140 
1989.000000	98.543738 
1988.000000	98.533858 
1987.000000	98.521600 
1986.000000	98.509935 
1985.000000	98.503663 
1984.000000	98.503244 
1983.000000	98.501152 
1982.000000	98.488967 
1981.000000	98.471452 
1980.000000	98.469300 
1979.000000	98.499090 
1978.000000	98.551082 
1977.000000	98.597251 
1976.000000	98.621989 
1975.000000	98.632041 
1974.000000	98.635673 
1973.000000	98.629415 
1972.000000	98.609476 
1971.000000	98.582504 
1970.000000	98.559122 
1969.000000	98.546170 
1968.000000	98.548789 
1967.000000	98.569834 
1966.000000	98.601384 
1965.000000	98.625638 
1964.000000	98.631306 
1963.000000	98.623163 
1962.000000	98.612872 
1961.000000	98.607150 
1960.000000	98.607676 
1959.000000	98.614856 
1958.000000	98.625651 
1957.000000	98.632601 
1956.000000	98.630688 
1955.000000	98.622673 
1954.000000	98.614770 
1953.000000	98.611025 
1952.000000	98.613180 
1951.000000	98.620957 
1950.000000	98.628992 
1949.000000	98.627113 
1948.000000	98.610177 
1947.000000	98.585838 
1946.000000	98.567859 
1945.000000	98.563065 
1944.000000	98.567218 
1943.000000	98.571374 
1942.000000	98.569651 
1941.000000	98.562735 
1940.000000	98.556449 
1939.000000	98.555837 
1938.000000	98.560080 
1937.000000	98.564793 
1936.000000	98.568749 
1935.000000	98.574332 
1934.000000	98.580577 
1933.000000	98.581451 
1932.000000	98.573195 
1931.000000	98.560341 
1930.000000	98.551531 
1929.000000	98.550214 
1928.000000	98.554437 
1927.000000	98.561705 
1926.000000	98.570388 
1925.000000	98.577601 
1924.000000	98.579049 
1923.000000	98.573733 
1922.000000	98.564727 
1921.000000	98.555223 
1920.000000	98.546738 
1919.000000	98.539566 
1918.000000	98.532836 
1917.000000	98.524571 
1916.000000	98.515487 
1915.000000	98.511501 
1914.000000	98.516853 
1913.000000	98.527382 
1912.000000	98.533475 
1911.000000	98.529779 
1910.000000	98.519651 
1909.000000	98.510143 
1908.000000	98.506771 
1907.000000	98.510826 
1906.000000	98.519319 
1905.000000	98.526617 
1904.000000	98.528016 
1903.000000	98.524442 
1902.000000	98.519617 
1901.000000	98.514580 
1900.000000	98.509576 
1899.000000	98.506947 
1898.000000	98.508483 
1897.000000	98.512184 
1896.000000	98.514465 
1895.000000	98.515307 
1894.000000	98.516245 
1893.000000	98.515073 
1892.000000	98.508315 
1891.000000	98.497192 
1890.000000	98.486993 
1889.000000	98.480838 
1888.000000	98.477806 
1887.000000	98.477951 
1886.000000	98.482581 
1885.000000	98.489852 
1884.000000	98.495291 
1883.000000	98.497171 
1882.000000	98.497020 
1881.000000	98.495525 
1880.000000	98.493165 
1879.000000	98.491943 
1878.000000	98.492474 
1877.000000	98.491866 
1876.000000	98.487182 
1875.000000	98.480547 
1874.000000	98.477279 
1873.000000	98.477996 
1872.000000	98.477036 
1871.000000	98.469365 
1870.000000	98.456373 
1869.000000	98.444881 
1868.000000	98.440423 
1867.000000	98.443482 
1866.000000	98.450573 
1865.000000	98.455918 
1864.000000	98.456093 
1863.000000	98.454332 
1862.000000	98.457154 
1861.000000	98.466410 
1860.000000	98.477815 
1859.000000	98.486961 
1858.000000	98.492741 
1857.000000	98.495567 
1856.000000	98.497086 
1855.000000	98.500124 
1854.000000	98.504806 
1853.000000	98.505944 
1852.000000	98.501289 
1851.000000	98.496939 
1850.000000	98.498860 
1849.000000	98.505685 
1848.000000	98.511952 
1847.000000	98.515896 
1846.000000	98.518229 
1845.000000	98.517121 
1844.000000	98.511315 
1843.000000	98.505021 
1842.000000	98.503846 
1841.000000	98.507690 
1840.000000	98.512980 
1839.000000	98.517346 
1838.000000	98.520554 
1837.000000	98.521825 
1836.000000	98.520565 
1835.000000	98.520100 
1834.000000	98.523663 
1833.000000	98.528757 
1832.000000	98.530470 
1831.000000	98.526570 
1830.000000	98.519418 
1829.000000	98.513379 
1828.000000	98.509817 
1827.000000	98.507518 
1826.000000	98.504441 
1825.000000	98.500402 
1824.000000	98.497658 
1823.000000	98.498673 
1822.000000	98.503897 
1821.000000	98.510513 
1820.000000	98.515315 
1819.000000	98.518703 
1818.000000	98.524450 
1817.000000	98.532568 
1816.000000	98.536694 
1815.000000	98.534217 
1814.000000	98.530154 
1813.000000	98.529588 
1812.000000	98.530396 
1811.000000	98.526963 
1810.000000	98.520897 
1809.000000	98.517856 
1808.000000	98.518110 
1807.000000	98.518645 
1806.000000	98.518606 
1805.000000	98.517684 
1804.000000	98.513323 
1803.000000	98.505482 
1802.000000	98.499059 
1801.000000	98.499231 
1800.000000	98.503827 
1799.000000	98.506119 
1798.000000	98.505530 
1797.000000	98.505600 
1796.000000	98.507253 
1795.000000	98.508786 
1794.000000	98.507263 
1793.000000	98.500604 
1792.000000	98.489874 
1791.000000	98.479685 
1790.000000	98.476263 
1789.000000	98.481337 
1788.000000	98.490938 
1787.000000	98.499862 
1786.000000	98.505180 
1785.000000	98.505932 
1784.000000	98.502833 
1783.000000	98.500957 
1782.000000	98.503794 
1781.000000	98.509419 
1780.000000	98.514092 
1779.000000	98.516102 
1778.000000	98.517887 
1777.000000	98.520096 
1776.000000	98.521305 
1775.000000	98.521598 
1774.000000	98.522207 
1773.000000	98.525213 
1772.000000	98.530599 
1771.000000	98.532236 
1770.000000	98.528327 
1769.000000	98.523889 
1768.000000	98.521179 
1767.000000	98.518195 
1766.000000	98.513795 
1765.000000	98.511634 
1764.000000	98.515765 
1763.000000	98.524901 
1762.000000	98.532180 
1761.000000	98.532213 
1760.000000	98.525865 
1759.000000	98.518422 
1758.000000	98.514669 
1757.000000	98.515283 
1756.000000	98.519173 
1755.000000	98.522229 
1754.000000	98.520608 
1753.000000	98.514253 
1752.000000	98.507039 
1751.000000	98.502983 
1750.000000	98.502048 
1749.000000	98.502754 
1748.000000	98.505675 
1747.000000	98.511146 
1746.000000	98.514555 
1745.000000	98.512687 
1744.000000	98.507317 
1743.000000	98.500535 
1742.000000	98.493301 
1741.000000	98.487509 
1740.000000	98.484624 
1739.000000	98.483243 
1738.000000	98.480625 
1737.000000	98.476399 
1736.000000	98.470553 
1735.000000	98.463814 
1734.000000	98.462619 
1733.000000	98.464738 
1732.000000	98.463793 
1731.000000	98.460969 
1730.000000	98.458025 
1729.000000	98.454561 
1728.000000	98.452766 
1727.000000	98.455140 
1726.000000	98.458765 
1725.000000	98.458977 
1724.000000	98.454137 
1723.000000	98.447697 
1722.000000	98.446281 
1721.000000	98.451435 
1720.000000	98.458156 
1719.000000	98.459765 
1718.000000	98.456200 
1717.000000	98.450204 
1716.000000	98.437859 
1715.000000	98.421937 
1714.000000	98.412308 
1713.000000	98.410069 
1712.000000	98.408080 
1711.000000	98.405190 
1710.000000	98.406559 
1709.000000	98.412204 
1708.000000	98.415428 
1707.000000	98.411837 
1706.000000	98.404762 
1705.000000	98.398245 
1704.000000	98.389340 
1703.000000	98.376936 
1702.000000	98.362575 
1701.000000	98.348443 
1700.000000	98.337427 
1699.000000	98.324247 
1698.000000	98.316531 
1697.000000	98.319308 
1696.000000	98.321075 
1695.000000	98.310814 
1694.000000	98.293358 
1693.000000	98.279797 
1692.000000	98.272207 
1691.000000	98.267258 
1690.000000	98.263202 
1689.000000	98.259727 
1688.000000	98.257682 
1687.000000	98.256470 
1686.000000	98.252414 
1685.000000	98.243013 
1684.000000	98.229097 
1683.000000	98.210134 
1682.000000	98.190640 
1681.000000	98.175265 
1680.000000	98.167040 
1679.000000	98.165454 
1678.000000	98.165748 
1677.000000	98.162503 
1676.000000	98.154351 
1675.000000	98.143600 
1674.000000	98.129039 
1673.000000	98.113529 
1672.000000	98.103665 
1671.000000	98.100658 
1670.000000	98.099088 
1669.000000	98.091116 
1668.000000	98.077503 
1667.000000	98.064466 
1666.000000	98.053027 
1665.000000	98.042467 
1664.000000	98.034457 
1663.000000	98.031789 
1662.000000	98.029660 
1661.000000	98.019059 
1660.000000	98.002537 
1659.000000	97.987478 
1658.000000	97.975717 
1657.000000	97.966561 
1656.000000	97.961789 
1655.000000	97.961072 
1654.000000	97.962346 
1653.000000	97.967746 
1652.000000	97.959230 
1651.000000	97.940805 
1650.000000	97.927802 
1649.000000	97.922883 
1648.000000	97.921316 
1647.000000	97.920746 
1646.000000	97.918358 
1645.000000	97.911854 
1644.000000	97.904350 
1643.000000	97.900077 
1642.000000	97.899442 
1641.000000	97.898913 
1640.000000	97.897504 
1639.000000	97.896207 
1638.000000	97.895881 
1637.000000	97.895162 
1636.000000	97.893785 
1635.000000	97.891889 
1634.000000	97.888366 
1633.000000	97.886795 
1632.000000	97.888845 
1631.000000	97.894290 
1630.000000	97.901798 
1629.000000	97.908821 
1628.000000	97.913702 
1627.000000	97.917886 
1626.000000	97.922502 
1625.000000	97.927169 
1624.000000	97.932848 
1623.000000	97.940858 
1622.000000	97.948277 
1621.000000	97.952287 
1620.000000	97.957028 
1619.000000	97.966650 
1618.000000	97.979683 
1617.000000	97.991613 
1616.000000	98.001507 
1615.000000	98.012778 
1614.000000	98.026469 
1613.000000	98.039339 
1612.000000	98.049697 
1611.000000	98.059949 
1610.000000	98.070767 
1609.000000	98.080108 
1608.000000	98.090007 
1607.000000	98.104869 
1606.000000	98.121836 
1605.000000	98.134151 
1604.000000	98.142484 
1603.000000	98.151617 
1602.000000	98.162063 
1601.000000	98.171299 
1600.000000	98.179998 
1599.000000	98.190873 
1598.000000	98.202717 
1597.000000	98.212102 
1596.000000	98.218819 
1595.000000	98.225553 
1594.000000	98.232739 
1593.000000	98.238038 
1592.000000	98.241494 
1591.000000	98.246275 
1590.000000	98.253340 
1589.000000	98.259874 
1588.000000	98.264615 
1587.000000	98.269534 
1586.000000	98.275124 
1585.000000	98.278048 
1584.000000	98.278764 
1583.000000	98.282602 
1582.000000	98.290594 
1581.000000	98.298693 
1580.000000	98.304969 
1579.000000	98.310361 
1578.000000	98.313885 
1577.000000	98.314987 
1576.000000	98.316468 
1575.000000	98.318324 
1574.000000	98.317603 
1573.000000	98.315274 
1572.000000	98.314563 
1571.000000	98.316730 
1570.000000	98.319735 
1569.000000	98.317995 
1568.000000	98.313259 
1567.000000	98.311906 
1566.000000	98.313762 
1565.000000	98.314733 
1564.000000	98.315521 
1563.000000	98.317187 
1562.000000	98.318311 
1561.000000	98.310641 
1560.000000	98.298984 
1559.000000	98.301494 
1558.000000	98.304356 
1557.000000	98.294437 
1556.000000	98.286678 
1555.000000	98.287877 
1554.000000	98.291899 
1553.000000	98.293645 
1552.000000	98.294358 
1551.000000	98.293844 
1550.000000	98.291185 
1549.000000	98.288063 
1548.000000	98.287789 
1547.000000	98.291993 
1546.000000	98.297145 
1545.000000	98.298984 
1544.000000	98.297292 
1543.000000	98.292344 
1542.000000	98.284333 
1541.000000	98.278349 
1540.000000	98.281023 
1539.000000	98.290322 
1538.000000	98.297919 
1537.000000	98.302782 
1536.000000	98.307257 
1535.000000	98.311795 
1534.000000	98.313678 
1533.000000	98.310745 
1532.000000	98.305605 
1531.000000	98.304621 
1530.000000	98.311826 
1529.000000	98.323094 
1528.000000	98.329072 
1527.000000	98.325913 
1526.000000	98.318211 
1525.000000	98.312680 
1524.000000	98.313025 
1523.000000	98.319305 
1522.000000	98.329424 
1521.000000	98.336325 
1520.000000	98.333150 
1519.000000	98.325374 
1518.000000	98.321800 
1517.000000	98.324443 
1516.000000	98.328546 
1515.000000	98.330896 
1514.000000	98.333938 
1513.000000	98.339878 
1512.000000	98.345684 
1511.000000	98.346282 
1510.000000	98.342331 
1509.000000	98.337042 
1508.000000	98.333444 
1507.000000	98.335984 
1506.000000	98.345160 
1505.000000	98.350163 
1504.000000	98.349283 
1503.000000	98.346626 
1502.000000	98.343851 
1501.000000	98.341551 
1500.000000	98.339921 
1499.000000	98.337462 
1498.000000	98.333498 
1497.000000	98.333776 
1496.000000	98.341320 
1495.000000	98.352221 
1494.000000	98.363973 
1493.000000	98.375975 
1492.000000	98.385516 
1491.000000	98.390271 
1490.000000	98.392179 
1489.000000	98.394043 
1488.000000	98.393299 
1487.000000	98.388754 
1486.000000	98.385259 
1485.000000	98.382569 
1484.000000	98.377882 
1483.000000	98.371796 
1482.000000	98.366186 
1481.000000	98.362567 
1480.000000	98.360306 
1479.000000	98.358847 
1478.000000	98.357251 
1477.000000	98.352988 
1476.000000	98.343085 
1475.000000	98.329950 
1474.000000	98.320214 
1473.000000	98.316889 
1472.000000	98.315187 
1471.000000	98.309159 
1470.000000	98.302036 
1469.000000	98.298682 
1468.000000	98.297648 
1467.000000	98.295077 
1466.000000	98.289613 
1465.000000	98.281819 
1464.000000	98.272785 
1463.000000	98.263100 
1462.000000	98.255928 
1461.000000	98.254587 
1460.000000	98.257888 
1459.000000	98.258753 
1458.000000	98.249560 
1457.000000	98.233611 
1456.000000	98.218900 
1455.000000	98.207297 
1454.000000	98.199861 
1453.000000	98.200002 
1452.000000	98.208297 
1451.000000	98.218865 
1450.000000	98.225056 
1449.000000	98.226546 
1448.000000	98.225743 
1447.000000	98.224336 
1446.000000	98.222493 
1445.000000	98.221160 
1444.000000	98.221317 
1443.000000	98.219357 
1442.000000	98.213511 
1441.000000	98.208360 
1440.000000	98.208825 
1439.000000	98.211614 
1438.000000	98.209299 
1437.000000	98.202700 
1436.000000	98.199657 
1435.000000	98.200865 
1434.000000	98.203186 
1433.000000	98.206903 
1432.000000	98.211663 
1431.000000	98.213821 
1430.000000	98.210154 
1429.000000	98.203776 
1428.000000	98.199470 
1427.000000	98.198657 
1426.000000	98.198852 
1425.000000	98.198176 
1424.000000	98.199155 
1423.000000	98.201206 
1422.000000	98.201275 
1421.000000	98.199786 
1420.000000	98.200511 
1419.000000	98.202586 
1418.000000	98.200071 
1417.000000	98.195276 
1416.000000	98.195069 
1415.000000	98.198717 
1414.000000	98.200513 
1413.000000	98.198960 
1412.000000	98.198042 
1411.000000	98.198956 
1410.000000	98.198671 
1409.000000	98.197404 
1408.000000	98.197733 
1407.000000	98.199936 
1406.000000	98.202077 
1405.000000	98.205290 
1404.000000	98.214732 
1403.000000	98.229433 
1402.000000	98.242946 
1401.000000	98.252718 
1400.000000	98.261435 
1399.000000	98.270179 
1398.000000	98.274491 
1397.000000	98.271035 
1396.000000	98.262244 
1395.000000	98.254972 
1394.000000	98.254595 
1393.000000	98.262459 
1392.000000	98.277377 
1391.000000	98.294054 
1390.000000	98.305610 
1389.000000	98.308784 
1388.000000	98.305126 
1387.000000	98.298392 
1386.000000	98.292173 
1385.000000	98.289971 
1384.000000	98.293900 
1383.000000	98.300842 
1382.000000	98.305085 
1381.000000	98.304947 
1380.000000	98.303292 
1379.000000	98.303020 
1378.000000	98.304137 
1377.000000	98.305718 
1376.000000	98.308029 
1375.000000	98.311535 
1374.000000	98.314771 
1373.000000	98.316789 
1372.000000	98.319506 
1371.000000	98.325449 
1370.000000	98.333676 
1369.000000	98.340481 
1368.000000	98.344887 
1367.000000	98.348547 
1366.000000	98.352713 
1365.000000	98.357723 
1364.000000	98.363206 
1363.000000	98.367986 
1362.000000	98.370861 
1361.000000	98.372109 
1360.000000	98.373344 
1359.000000	98.375568 
1358.000000	98.378036 
1357.000000	98.379861 
1356.000000	98.381625 
1355.000000	98.384034 
1354.000000	98.386321 
1353.000000	98.387929 
1352.000000	98.388864 
1351.000000	98.390127 
1350.000000	98.392635 
1349.000000	98.395958 
1348.000000	98.399879 
1347.000000	98.403880 
1346.000000	98.406397 
1345.000000	98.405973 
1344.000000	98.403124 
1343.000000	98.399936 
1342.000000	98.397879 
1341.000000	98.396888 
1340.000000	98.396369 
1339.000000	98.396088 
1338.000000	98.396014 
1337.000000	98.396803 
1336.000000	98.399638 
1335.000000	98.404429 
1334.000000	98.409209 
1333.000000	98.412019 
1332.000000	98.412491 
1331.000000	98.411574 
1330.000000	98.410305 
1329.000000	98.409577 
1328.000000	98.409892 
1327.000000	98.410711 
1326.000000	98.410195 
1325.000000	98.406957 
1324.000000	98.402235 
1323.000000	98.397941 
1322.000000	98.394091 
1321.000000	98.389953 
1320.000000	98.386345 
1319.000000	98.384574 
1318.000000	98.384104 
1317.000000	98.383446 
1316.000000	98.382249 
1315.000000	98.380668 
1314.000000	98.378011 
1313.000000	98.374217 
1312.000000	98.371200 
1311.000000	98.370602 
1310.000000	98.371143 
1309.000000	98.370407 
1308.000000	98.367922 
1307.000000	98.364958 
1306.000000	98.361907 
1305.000000	98.357998 
1304.000000	98.353471 
1303.000000	98.349214 
1302.000000	98.345021 
1301.000000	98.340111 
1300.000000	98.334901 
1299.000000	98.330244 
1298.000000	98.325501 
1297.000000	98.319219 
1296.000000	98.311413 
1295.000000	98.303679 
1294.000000	98.297168 
1293.000000	98.291996 
1292.000000	98.287845 
1291.000000	98.283463 
1290.000000	98.276456 
1289.000000	98.265501 
1288.000000	98.252409 
1287.000000	98.240422 
1286.000000	98.230769 
1285.000000	98.222390 
1284.000000	98.214306 
1283.000000	98.206302 
1282.000000	98.198021 
1281.000000	98.189050 
1280.000000	98.179693 
1279.000000	98.170352 
1278.000000	98.160806 
1277.000000	98.151427 
1276.000000	98.143744 
1275.000000	98.137873 
1274.000000	98.130390 
1273.000000	98.117518 
1272.000000	98.100287 
1271.000000	98.084048 
1270.000000	98.072478 
1269.000000	98.063962 
1268.000000	98.054224 
1267.000000	98.040447 
1266.000000	98.022859 
1265.000000	98.004643 
1264.000000	97.990336 
1263.000000	97.982163 
1262.000000	97.977595 
1261.000000	97.971923 
1260.000000	97.963360 
1259.000000	97.953808 
1258.000000	97.944871 
1257.000000	97.935679 
1256.000000	97.924858 
1255.000000	97.912446 
1254.000000	97.899300 
1253.000000	97.886182 
1252.000000	97.873971 
1251.000000	97.863249 
1250.000000	97.852943 
1249.000000	97.840624 
1248.000000	97.825066 
1247.000000	97.807680 
1246.000000	97.790838 
1245.000000	97.775362 
1244.000000	97.759895 
1243.000000	97.742611 
1242.000000	97.723735 
1241.000000	97.706129 
1240.000000	97.692276 
1239.000000	97.680505 
1238.000000	97.665896 
1237.000000	97.645796 
1236.000000	97.622711 
1235.000000	97.600504 
1234.000000	97.579438 
1233.000000	97.556660 
1232.000000	97.530067 
1231.000000	97.499734 
1230.000000	97.467023 
1229.000000	97.434313 
1228.000000	97.404155 
1227.000000	97.376374 
1226.000000	97.346975 
1225.000000	97.311920 
1224.000000	97.270830 
1223.000000	97.225120 
1222.000000	97.174477 
1221.000000	97.117978 
1220.000000	97.057088 
1219.000000	96.994162 
1218.000000	96.929083 
1217.000000	96.860899 
1216.000000	96.791633 
1215.000000	96.724264 
1214.000000	96.657341 
1213.000000	96.586199 
1212.000000	96.509871 
1211.000000	96.432394 
1210.000000	96.356489 
1209.000000	96.280101 
1208.000000	96.200466 
1207.000000	96.117945 
1206.000000	96.034646 
1205.000000	95.952531 
1204.000000	95.873735 
1203.000000	95.799158 
1202.000000	95.725490 
1201.000000	95.647030 
1200.000000	95.561886 
1199.000000	95.473754 
1198.000000	95.387116 
1197.000000	95.303754 
1196.000000	95.223790 
1195.000000	95.145913 
1194.000000	95.065966 
1193.000000	94.979605 
1192.000000	94.887708 
1191.000000	94.795745 
1190.000000	94.707155 
1189.000000	94.620786 
1188.000000	94.534585 
1187.000000	94.447078 
1186.000000	94.355256 
1185.000000	94.256714 
1184.000000	94.154929 
1183.000000	94.056868 
1182.000000	93.963633 
1181.000000	93.868452 
1180.000000	93.765647 
1179.000000	93.656502 
1178.000000	93.544344 
1177.000000	93.429198 
1176.000000	93.309951 
1175.000000	93.187167 
1174.000000	93.061063 
1173.000000	92.930702 
1172.000000	92.797404 
1171.000000	92.664825 
1170.000000	92.533935 
1169.000000	92.402373 
1168.000000	92.270564 
1167.000000	92.144154 
1166.000000	92.029500 
1165.000000	91.932266 
1164.000000	91.861758 
1163.000000	91.829814 
1162.000000	91.841380 
1161.000000	91.889097 
1160.000000	91.957148 
1159.000000	92.025744 
1158.000000	92.073760 
1157.000000	92.085675 
1156.000000	92.059090 
1155.000000	92.002079 
1154.000000	91.923134 
1153.000000	91.827425 
1152.000000	91.721113 
1151.000000	91.612018 
1150.000000	91.504411 
1149.000000	91.398320 
1148.000000	91.294515 
1147.000000	91.194649 
1146.000000	91.096516 
1145.000000	90.995528 
1144.000000	90.891388 
1143.000000	90.787303 
1142.000000	90.682852 
1141.000000	90.574393 
1140.000000	90.462409 
1139.000000	90.351197 
1138.000000	90.241203 
1137.000000	90.128889 
1136.000000	90.013872 
1135.000000	89.898349 
1134.000000	89.779959 
1133.000000	89.654044 
1132.000000	89.523019 
1131.000000	89.394389 
1130.000000	89.268998 
1129.000000	89.140435 
1128.000000	89.006497 
1127.000000	88.871519 
1126.000000	88.736846 
1125.000000	88.599248 
1124.000000	88.459553 
1123.000000	88.322185 
1122.000000	88.185178 
1121.000000	88.042065 
1120.000000	87.895058 
1119.000000	87.754350 
1118.000000	87.622265 
1117.000000	87.490549 
1116.000000	87.356032 
1115.000000	87.226086 
1114.000000	87.104655 
1113.000000	86.985457 
1112.000000	86.863736 
1111.000000	86.743048 
1110.000000	86.625520 
1109.000000	86.506730 
1108.000000	86.385026 
1107.000000	86.265271 
1106.000000	86.149262 
1105.000000	86.032483 
1104.000000	85.913296 
1103.000000	85.794815 
1102.000000	85.675109 
1101.000000	85.547968 
1100.000000	85.415487 
1099.000000	85.288030 
1098.000000	85.169018 
1097.000000	85.051231 
1096.000000	84.931031 
1095.000000	84.812843 
1094.000000	84.696935 
1093.000000	84.576842 
1092.000000	84.453061 
1091.000000	84.335775 
1090.000000	84.229457 
1089.000000	84.127568 
1088.000000	84.026218 
1087.000000	83.929830 
1086.000000	83.839695 
1085.000000	83.750577 
1084.000000	83.662352 
1083.000000	83.581128 
1082.000000	83.505049 
1081.000000	83.423140 
1080.000000	83.332457 
1079.000000	83.242640 
1078.000000	83.159395 
1077.000000	83.077084 
1076.000000	82.991333 
1075.000000	82.904533 
1074.000000	82.814716 
1073.000000	82.713094 
1072.000000	82.596353 
1071.000000	82.467487 
1070.000000	82.321878 
1069.000000	82.148358 
1068.000000	81.948559 
1067.000000	81.740151 
1066.000000	81.535886 
1065.000000	81.333753 
1064.000000	81.131841 
1063.000000	80.936437 
1062.000000	80.749276 
1061.000000	80.562329 
1060.000000	80.371917 
1059.000000	80.184047 
1058.000000	80.000385 
1057.000000	79.813113 
1056.000000	79.618745 
1055.000000	79.422961 
1054.000000	79.227054 
1053.000000	79.023563 
1052.000000	78.809815 
1051.000000	78.590910 
1050.000000	78.365338 
1049.000000	78.125208 
1048.000000	77.874255 
1047.000000	77.625982 
1046.000000	77.381266 
1045.000000	77.127615 
1044.000000	76.862273 
1043.000000	76.596486 
1042.000000	76.334570 
1041.000000	76.068442 
1040.000000	75.797109 
1039.000000	75.532369 
1038.000000	75.280354 
1037.000000	75.036485 
1036.000000	74.803304 
1035.000000	74.593277 
1034.000000	74.408299 
1033.000000	74.235539 
1032.000000	74.068455 
1031.000000	73.913259 
1030.000000	73.771544 
1029.000000	73.637176 
1028.000000	73.513838 
1027.000000	73.413940 
1026.000000	73.335360 
1025.000000	73.260178 
1024.000000	73.180477 
1023.000000	73.104236 
1022.000000	73.032553 
1021.000000	72.954069 
1020.000000	72.866911 
1019.000000	72.783404 
1018.000000	72.706982 
1017.000000	72.626129 
1016.000000	72.536970 
1015.000000	72.450288 
1014.000000	72.370227 
1013.000000	72.287492 
1012.000000	72.200030 
1011.000000	72.119551 
1010.000000	72.050985 
1009.000000	71.985447 
1008.000000	71.919537 
1007.000000	71.862100 
1006.000000	71.816789 
1005.000000	71.777436 
1004.000000	71.744776 
1003.000000	71.727492 
1002.000000	71.722876 
1001.000000	71.717451 
1000.000000	71.710750 
999.000000	 71.717311 
998.000000	 71.741041 
997.000000	 71.768972 
996.000000	 71.794513 
995.000000	 71.825138 
994.000000	 71.862693 
993.000000	 71.898168 
992.000000	 71.931138 
991.000000	 71.972894 
990.000000	 72.025117 
989.000000	 72.076795 
988.000000	 72.127440 
987.000000	 72.191829 
986.000000	 72.276134 
985.000000	 72.370455 
984.000000	 72.470544 
983.000000	 72.585836 
982.000000	 72.720159 
981.000000	 72.865147 
980.000000	 73.018583 
979.000000	 73.189095 
978.000000	 73.377284 
977.000000	 73.572292 
976.000000	 73.772391 
975.000000	 73.989202 
974.000000	 74.226085 
973.000000	 74.471414 
972.000000	 74.718242 
971.000000	 74.971662 
970.000000	 75.231772 
969.000000	 75.488306 
968.000000	 75.737917 
967.000000	 75.989514 
966.000000	 76.247189 
965.000000	 76.503868 
964.000000	 76.755689 
963.000000	 77.006349 
962.000000	 77.253661 
961.000000	 77.488146 
960.000000	 77.708802 
959.000000	 77.925241 
958.000000	 78.141453 
957.000000	 78.352248 
956.000000	 78.557055 
955.000000	 78.760985 
954.000000	 78.960350 
953.000000	 79.143544 
952.000000	 79.308609 
951.000000	 79.464370 
950.000000	 79.612921 
949.000000	 79.747429 
948.000000	 79.868517 
947.000000	 79.985395 
946.000000	 80.098520 
945.000000	 80.198522 
944.000000	 80.285033 
943.000000	 80.369197 
942.000000	 80.454449 
941.000000	 80.532431 
940.000000	 80.601749 
939.000000	 80.673005 
938.000000	 80.750316 
937.000000	 80.824666 
936.000000	 80.891007 
935.000000	 80.956234 
934.000000	 81.025458 
933.000000	 81.095862 
932.000000	 81.168439 
931.000000	 81.249712 
930.000000	 81.337031 
929.000000	 81.417917 
928.000000	 81.488762 
927.000000	 81.558767 
926.000000	 81.631032 
925.000000	 81.695925 
924.000000	 81.748628 
923.000000	 81.797790 
922.000000	 81.850575 
921.000000	 81.902873 
920.000000	 81.949462 
919.000000	 81.990343 
918.000000	 82.022887 
917.000000	 82.041941 
916.000000	 82.052476 
915.000000	 82.069177 
914.000000	 82.100146 
913.000000	 82.144226 
912.000000	 82.205829 
911.000000	 82.295809 
910.000000	 82.414313 
909.000000	 82.549667 
908.000000	 82.698331 
907.000000	 82.869417 
906.000000	 83.065873 
905.000000	 83.278312 
904.000000	 83.501204 
903.000000	 83.737870 
902.000000	 83.985322 
901.000000	 84.231426 
900.000000	 84.472069 
899.000000	 84.715119 
898.000000	 84.962632 
897.000000	 85.204639 
896.000000	 85.435159 
895.000000	 85.659077 
894.000000	 85.878101 
893.000000	 86.084494 
892.000000	 86.274563 
891.000000	 86.455395 
890.000000	 86.632712 
889.000000	 86.803585 
888.000000	 86.965528 
887.000000	 87.121616 
886.000000	 87.273159 
885.000000	 87.418593 
884.000000	 87.562100 
883.000000	 87.710873 
882.000000	 87.861011 
881.000000	 87.999475 
880.000000	 88.123754 
879.000000	 88.246480 
878.000000	 88.376676 
877.000000	 88.510008 
876.000000	 88.642056 
875.000000	 88.777050 
874.000000	 88.917884 
873.000000	 89.060290 
872.000000	 89.201915 
871.000000	 89.345278 
870.000000	 89.488187 
869.000000	 89.623884 
868.000000	 89.754614 
867.000000	 89.892650 
866.000000	 90.042557 
865.000000	 90.192716 
864.000000	 90.329440 
863.000000	 90.450915 
862.000000	 90.563769 
861.000000	 90.674684 
860.000000	 90.789058 
859.000000	 90.909256 
858.000000	 91.029458 
857.000000	 91.138954 
856.000000	 91.233842 
855.000000	 91.319842 
854.000000	 91.402667 
853.000000	 91.482656 
852.000000	 91.559427 
851.000000	 91.633517 
850.000000	 91.701925 
849.000000	 91.759749 
848.000000	 91.807332 
847.000000	 91.848190 
846.000000	 91.879966 
845.000000	 91.896718 
844.000000	 91.900635 
843.000000	 91.901110 
842.000000	 91.899808 
841.000000	 91.886180 
840.000000	 91.850571 
839.000000	 91.793068 
838.000000	 91.717698 
837.000000	 91.628459 
836.000000	 91.535003 
835.000000	 91.451951 
834.000000	 91.386167 
833.000000	 91.331886 
832.000000	 91.282976 
831.000000	 91.242485 
830.000000	 91.216202 
829.000000	 91.205397 
828.000000	 91.210959 
827.000000	 91.236392 
826.000000	 91.280924 
825.000000	 91.336014 
824.000000	 91.391993 
823.000000	 91.442083 
822.000000	 91.480724 
821.000000	 91.507198 
820.000000	 91.529110 
819.000000	 91.551663 
818.000000	 91.564901 
817.000000	 91.551812 
816.000000	 91.507728 
815.000000	 91.441187 
814.000000	 91.356095 
813.000000	 91.243994 
812.000000	 91.093653 
811.000000	 90.895109 
810.000000	 90.632582 
809.000000	 90.288531 
808.000000	 89.862091 
807.000000	 89.373676 
806.000000	 88.846163 
805.000000	 88.292412 
804.000000	 87.726872 
803.000000	 87.175493 
802.000000	 86.664167 
801.000000	 86.208750 
800.000000	 85.824582 
799.000000	 85.532028 
798.000000	 85.342534 
797.000000	 85.250541 
796.000000	 85.244804 
795.000000	 85.313632 
794.000000	 85.434789 
793.000000	 85.576835 
792.000000	 85.716836 
791.000000	 85.844609 
790.000000	 85.948689 
789.000000	 86.014047 
788.000000	 86.035994 
787.000000	 86.020008 
786.000000	 85.963658 
785.000000	 85.853786 
784.000000	 85.686799 
783.000000	 85.478962 
782.000000	 85.253951 
781.000000	 85.035144 
780.000000	 84.852418 
779.000000	 84.736763 
778.000000	 84.699159 
777.000000	 84.728925 
776.000000	 84.816574 
775.000000	 84.960426 
774.000000	 85.147301 
773.000000	 85.348279 
772.000000	 85.542196 
771.000000	 85.727181 
770.000000	 85.903158 
769.000000	 86.059570 
768.000000	 86.187077 
767.000000	 86.286500 
766.000000	 86.360443 
765.000000	 86.410635 
764.000000	 86.448728 
763.000000	 86.493896 
762.000000	 86.551754 
761.000000	 86.608618 
760.000000	 86.653073 
759.000000	 86.690392 
758.000000	 86.730510 
757.000000	 86.776109 
756.000000	 86.828946 
755.000000	 86.894361 
754.000000	 86.972319 
753.000000	 87.054926 
752.000000	 87.136976 
751.000000	 87.217126 
750.000000	 87.287403 
749.000000	 87.338037 
748.000000	 87.377437 
747.000000	 87.431438 
746.000000	 87.515389 
745.000000	 87.619538 
744.000000	 87.727218 
743.000000	 87.834092 
742.000000	 87.944543 
741.000000	 88.063300 
740.000000	 88.196713 
739.000000	 88.348429 
738.000000	 88.506784 
737.000000	 88.648847 
736.000000	 88.763723 
735.000000	 88.861986 
734.000000	 88.957588 
733.000000	 89.051380 
732.000000	 89.136968 
731.000000	 89.210592 
730.000000	 89.268720 
729.000000	 89.306657 
728.000000	 89.327846 
727.000000	 89.344494 
726.000000	 89.362320 
725.000000	 89.376514 
724.000000	 89.388290 
723.000000	 89.413427 
722.000000	 89.467404 
721.000000	 89.551065 
720.000000	 89.655072 
719.000000	 89.766910 
718.000000	 89.868981 
717.000000	 89.944069 
716.000000	 89.991188 
715.000000	 90.027393 
714.000000	 90.067491 
713.000000	 90.108929 
712.000000	 90.141141 
711.000000	 90.159954 
710.000000	 90.167057 
709.000000	 90.163401 
708.000000	 90.149853 
707.000000	 90.127772 
706.000000	 90.093075 
705.000000	 90.038367 
704.000000	 89.962340 
703.000000	 89.864369 
702.000000	 89.729777 
701.000000	 89.533696 
700.000000	 89.263991 
699.000000	 88.934129 
698.000000	 88.572985 
697.000000	 88.218063 
696.000000	 87.919961 
695.000000	 87.729428 
694.000000	 87.669979 
693.000000	 87.730160 
692.000000	 87.882221 
691.000000	 88.095559 
690.000000	 88.330116 
689.000000	 88.540245 
688.000000	 88.698644 
687.000000	 88.808194 
686.000000	 88.889139 
685.000000	 88.963493 
684.000000	 89.049836 
683.000000	 89.155648 
682.000000	 89.266935 
681.000000	 89.358325 
680.000000	 89.419923 
679.000000	 89.466382 
678.000000	 89.515555 
677.000000	 89.567630 
676.000000	 89.618875 
675.000000	 89.681474 
674.000000	 89.767070 
673.000000	 89.864542 
672.000000	 89.954212 
671.000000	 90.032906 
670.000000	 90.114379 
669.000000	 90.193249 
668.000000	 90.232506 
667.000000	 90.251601 
666.000000	 90.283743 
665.000000	 90.298294 
664.000000	 90.290568 
663.000000	 90.286386 
662.000000	 90.305250 
661.000000	 90.340201 
660.000000	 90.378206 
659.000000	 90.415375 
658.000000	 90.437819 
657.000000	 90.418341 
656.000000	 90.355446 
655.000000	 90.286048 
654.000000	 90.232709 
653.000000	 90.179287 
652.000000	 90.120324 
651.000000	 90.086113 
650.000000	 90.095283 

