4000.000000	99.500192 
3999.000000	99.500205 
3998.000000	99.499954 
3997.000000	99.499356 
3996.000000	99.498413 
3995.000000	99.497319 
3994.000000	99.496414 
3993.000000	99.495951 
3992.000000	99.495847 
3991.000000	99.495756 
3990.000000	99.495428 
3989.000000	99.494999 
3988.000000	99.494871 
3987.000000	99.495318 
3986.000000	99.496223 
3985.000000	99.497123 
3984.000000	99.497498 
3983.000000	99.497065 
3982.000000	99.495880 
3981.000000	99.494316 
3980.000000	99.492837 
3979.000000	99.491722 
3978.000000	99.491036 
3977.000000	99.490793 
3976.000000	99.491024 
3975.000000	99.491703 
3974.000000	99.492635 
3973.000000	99.493479 
3972.000000	99.493929 
3971.000000	99.493927 
3970.000000	99.493644 
3969.000000	99.493246 
3968.000000	99.492727 
3967.000000	99.491987 
3966.000000	99.491088 
3965.000000	99.490348 
3964.000000	99.490043 
3963.000000	99.490025 
3962.000000	99.489790 
3961.000000	99.488978 
3960.000000	99.487762 
3959.000000	99.486732 
3958.000000	99.486358 
3957.000000	99.486597 
3956.000000	99.486992 
3955.000000	99.487082 
3954.000000	99.486770 
3953.000000	99.486259 
3952.000000	99.485771 
3951.000000	99.485396 
3950.000000	99.485129 
3949.000000	99.484983 
3948.000000	99.484986 
3947.000000	99.485089 
3946.000000	99.485203 
3945.000000	99.485311 
3944.000000	99.485466 
3943.000000	99.485597 
3942.000000	99.485456 
3941.000000	99.484854 
3940.000000	99.483805 
3939.000000	99.482445 
3938.000000	99.480918 
3937.000000	99.479434 
3936.000000	99.478378 
3935.000000	99.478172 
3934.000000	99.479015 
3933.000000	99.480690 
3932.000000	99.482539 
3931.000000	99.483722 
3930.000000	99.483700 
3929.000000	99.482577 
3928.000000	99.481078 
3927.000000	99.480097 
3926.000000	99.480179 
3925.000000	99.481181 
3924.000000	99.482304 
3923.000000	99.482752 
3922.000000	99.482361 
3921.000000	99.481604 
3920.000000	99.481088 
3919.000000	99.481109 
3918.000000	99.481642 
3917.000000	99.482502 
3916.000000	99.483412 
3915.000000	99.484089 
3914.000000	99.484506 
3913.000000	99.484933 
3912.000000	99.485565 
3911.000000	99.486306 
3910.000000	99.486911 
3909.000000	99.487242 
3908.000000	99.487298 
3907.000000	99.486908 
3906.000000	99.485667 
3905.000000	99.483288 
3904.000000	99.479986 
3903.000000	99.476663 
3902.000000	99.474512 
3901.000000	99.474232 
3900.000000	99.475673 
3899.000000	99.477847 
3898.000000	99.479584 
3897.000000	99.480388 
3896.000000	99.480395 
3895.000000	99.479916 
3894.000000	99.479143 
3893.000000	99.478180 
3892.000000	99.477223 
3891.000000	99.476516 
3890.000000	99.476147 
3889.000000	99.475961 
3888.000000	99.475787 
3887.000000	99.475722 
3886.000000	99.475980 
3885.000000	99.476488 
3884.000000	99.476895 
3883.000000	99.477019 
3882.000000	99.477017 
3881.000000	99.477122 
3880.000000	99.477363 
3879.000000	99.477574 
3878.000000	99.477670 
3877.000000	99.477741 
3876.000000	99.477929 
3875.000000	99.478230 
3874.000000	99.478452 
3873.000000	99.478418 
3872.000000	99.478188 
3871.000000	99.477994 
3870.000000	99.478015 
3869.000000	99.478227 
3868.000000	99.478508 
3867.000000	99.478781 
3866.000000	99.479052 
3865.000000	99.479332 
3864.000000	99.479615 
3863.000000	99.479896 
3862.000000	99.480181 
3861.000000	99.480480 
3860.000000	99.480789 
3859.000000	99.481098 
3858.000000	99.481396 
3857.000000	99.481682 
3856.000000	99.481964 
3855.000000	99.482255 
3854.000000	99.482568 
3853.000000	99.482908 
3852.000000	99.483268 
3851.000000	99.483636 
3850.000000	99.483998 
3849.000000	99.484343 
3848.000000	99.484666 
3847.000000	99.484965 
3846.000000	99.485244 
3845.000000	99.485508 
3844.000000	99.485764 
3843.000000	99.486022 
3842.000000	99.486288 
3841.000000	99.486560 
3840.000000	99.486828 
3839.000000	99.487087 
3838.000000	99.487334 
3837.000000	99.487572 
3836.000000	99.487806 
3835.000000	99.488038 
3834.000000	99.488271 
3833.000000	99.488505 
3832.000000	99.488738 
3831.000000	99.488960 
3830.000000	99.489155 
3829.000000	99.489319 
3828.000000	99.489456 
3827.000000	99.489581 
3826.000000	99.489698 
3825.000000	99.489804 
3824.000000	99.489896 
3823.000000	99.489973 
3822.000000	99.490046 
3821.000000	99.490131 
3820.000000	99.490229 
3819.000000	99.490328 
3818.000000	99.490411 
3817.000000	99.490474 
3816.000000	99.490529 
3815.000000	99.490571 
3814.000000	99.490577 
3813.000000	99.490545 
3812.000000	99.490500 
3811.000000	99.490465 
3810.000000	99.490435 
3809.000000	99.490385 
3808.000000	99.490301 
3807.000000	99.490190 
3806.000000	99.490064 
3805.000000	99.489917 
3804.000000	99.489737 
3803.000000	99.489536 
3802.000000	99.489376 
3801.000000	99.489306 
3800.000000	99.489268 
3799.000000	99.489120 
3798.000000	99.488774 
3797.000000	99.488290 
3796.000000	99.487833 
3795.000000	99.487498 
3794.000000	99.487252 
3793.000000	99.487033 
3792.000000	99.486865 
3791.000000	99.486803 
3790.000000	99.486852 
3789.000000	99.486981 
3788.000000	99.487142 
3787.000000	99.487205 
3786.000000	99.487067 
3785.000000	99.486895 
3784.000000	99.487084 
3783.000000	99.487802 
3782.000000	99.488785 
3781.000000	99.489718 
3780.000000	99.490506 
3779.000000	99.491035 
3778.000000	99.490928 
3777.000000	99.489847 
3776.000000	99.488044 
3775.000000	99.486405 
3774.000000	99.485601 
3773.000000	99.485423 
3772.000000	99.485240 
3771.000000	99.484832 
3770.000000	99.484228 
3769.000000	99.483219 
3768.000000	99.481668 
3767.000000	99.479977 
3766.000000	99.478896 
3765.000000	99.478808 
3764.000000	99.479251 
3763.000000	99.479492 
3762.000000	99.479493 
3761.000000	99.479856 
3760.000000	99.480735 
3759.000000	99.481697 
3758.000000	99.482821 
3757.000000	99.484863 
3756.000000	99.487867 
3755.000000	99.490762 
3754.000000	99.492557 
3753.000000	99.493403 
3752.000000	99.493939 
3751.000000	99.493992 
3750.000000	99.493480 
3749.000000	99.493505 
3748.000000	99.494415 
3747.000000	99.494805 
3746.000000	99.493422 
3745.000000	99.490834 
3744.000000	99.488687 
3743.000000	99.487345 
3742.000000	99.485692 
3741.000000	99.482880 
3740.000000	99.478820 
3739.000000	99.473893 
3738.000000	99.469520 
3737.000000	99.468091 
3736.000000	99.470334 
3735.000000	99.473047 
3734.000000	99.472018 
3733.000000	99.467349 
3732.000000	99.463133 
3731.000000	99.462394 
3730.000000	99.464485 
3729.000000	99.466911 
3728.000000	99.468189 
3727.000000	99.468263 
3726.000000	99.467214 
3725.000000	99.465083 
3724.000000	99.462872 
3723.000000	99.462183 
3722.000000	99.463210 
3721.000000	99.464360 
3720.000000	99.463710 
3719.000000	99.460688 
3718.000000	99.456550 
3717.000000	99.452921 
3716.000000	99.449907 
3715.000000	99.446374 
3714.000000	99.441891 
3713.000000	99.437848 
3712.000000	99.435883 
3711.000000	99.435771 
3710.000000	99.435710 
3709.000000	99.433982 
3708.000000	99.430062 
3707.000000	99.424548 
3706.000000	99.418472 
3705.000000	99.412733 
3704.000000	99.407639 
3703.000000	99.402779 
3702.000000	99.397193 
3701.000000	99.390301 
3700.000000	99.382369 
3699.000000	99.374031 
3698.000000	99.366003 
3697.000000	99.359171 
3696.000000	99.354110 
3695.000000	99.350728 
3694.000000	99.348567 
3693.000000	99.346830 
3692.000000	99.343871 
3691.000000	99.337590 
3690.000000	99.327644 
3689.000000	99.317263 
3688.000000	99.310904 
3687.000000	99.309420 
3686.000000	99.309974 
3685.000000	99.310279 
3684.000000	99.310378 
3683.000000	99.311009 
3682.000000	99.311550 
3681.000000	99.310051 
3680.000000	99.304766 
3679.000000	99.294935 
3678.000000	99.281580 
3677.000000	99.269170 
3676.000000	99.263913 
3675.000000	99.266636 
3674.000000	99.271124 
3673.000000	99.271591 
3672.000000	99.268152 
3671.000000	99.266089 
3670.000000	99.269599 
3669.000000	99.276771 
3668.000000	99.283279 
3667.000000	99.287844 
3666.000000	99.291630 
3665.000000	99.295268 
3664.000000	99.297831 
3663.000000	99.298363 
3662.000000	99.297483 
3661.000000	99.296713 
3660.000000	99.296807 
3659.000000	99.297549 
3658.000000	99.299197 
3657.000000	99.302849 
3656.000000	99.308677 
3655.000000	99.314805 
3654.000000	99.318916 
3653.000000	99.320256 
3652.000000	99.319810 
3651.000000	99.319339 
3650.000000	99.320089 
3649.000000	99.322445 
3648.000000	99.326503 
3647.000000	99.331827 
3646.000000	99.337449 
3645.000000	99.342902 
3644.000000	99.348596 
3643.000000	99.355243 
3642.000000	99.363289 
3641.000000	99.372382 
3640.000000	99.381447 
3639.000000	99.389103 
3638.000000	99.394175 
3637.000000	99.396268 
3636.000000	99.395999 
3635.000000	99.394693 
3634.000000	99.393480 
3633.000000	99.392872 
3632.000000	99.393345 
3631.000000	99.395818 
3630.000000	99.400786 
3629.000000	99.406142 
3628.000000	99.408290 
3627.000000	99.407117 
3626.000000	99.405803 
3625.000000	99.406762 
3624.000000	99.409868 
3623.000000	99.413385 
3622.000000	99.415950 
3621.000000	99.417971 
3620.000000	99.420575 
3619.000000	99.423497 
3618.000000	99.425395 
3617.000000	99.426032 
3616.000000	99.426547 
3615.000000	99.428028 
3614.000000	99.430140 
3613.000000	99.431417 
3612.000000	99.431110 
3611.000000	99.430248 
3610.000000	99.430524 
3609.000000	99.432357 
3608.000000	99.434449 
3607.000000	99.435531 
3606.000000	99.435990 
3605.000000	99.437150 
3604.000000	99.439659 
3603.000000	99.443059 
3602.000000	99.446410 
3601.000000	99.449116 
3600.000000	99.450930 
3599.000000	99.451648 
3598.000000	99.451268 
3597.000000	99.450204 
3596.000000	99.449166 
3595.000000	99.448842 
3594.000000	99.449471 
3593.000000	99.450811 
3592.000000	99.452357 
3591.000000	99.453556 
3590.000000	99.454156 
3589.000000	99.454410 
3588.000000	99.454877 
3587.000000	99.455733 
3586.000000	99.456647 
3585.000000	99.457347 
3584.000000	99.457944 
3583.000000	99.458646 
3582.000000	99.459477 
3581.000000	99.460267 
3580.000000	99.460851 
3579.000000	99.461205 
3578.000000	99.461410 
3577.000000	99.461609 
3576.000000	99.461966 
3575.000000	99.462574 
3574.000000	99.463368 
3573.000000	99.464122 
3572.000000	99.464634 
3571.000000	99.464868 
3570.000000	99.464925 
3569.000000	99.465005 
3568.000000	99.465367 
3567.000000	99.466109 
3566.000000	99.466989 
3565.000000	99.467671 
3564.000000	99.468095 
3563.000000	99.468515 
3562.000000	99.469226 
3561.000000	99.470261 
3560.000000	99.471341 
3559.000000	99.472129 
3558.000000	99.472517 
3557.000000	99.472641 
3556.000000	99.472755 
3555.000000	99.473074 
3554.000000	99.473685 
3553.000000	99.474439 
3552.000000	99.474949 
3551.000000	99.474877 
3550.000000	99.474201 
3549.000000	99.473237 
3548.000000	99.472528 
3547.000000	99.472535 
3546.000000	99.473322 
3545.000000	99.474401 
3544.000000	99.475083 
3543.000000	99.475163 
3542.000000	99.475165 
3541.000000	99.475789 
3540.000000	99.477229 
3539.000000	99.478932 
3538.000000	99.480129 
3537.000000	99.480518 
3536.000000	99.480396 
3535.000000	99.480289 
3534.000000	99.480462 
3533.000000	99.480857 
3532.000000	99.481310 
3531.000000	99.481717 
3530.000000	99.481981 
3529.000000	99.481950 
3528.000000	99.481531 
3527.000000	99.480868 
3526.000000	99.480302 
3525.000000	99.480093 
3524.000000	99.480223 
3523.000000	99.480445 
3522.000000	99.480545 
3521.000000	99.480494 
3520.000000	99.480434 
3519.000000	99.480572 
3518.000000	99.481077 
3517.000000	99.481922 
3516.000000	99.482799 
3515.000000	99.483287 
3514.000000	99.483141 
3513.000000	99.482452 
3512.000000	99.481557 
3511.000000	99.480811 
3510.000000	99.480402 
3509.000000	99.480306 
3508.000000	99.480371 
3507.000000	99.480449 
3506.000000	99.480492 
3505.000000	99.480496 
3504.000000	99.480417 
3503.000000	99.480228 
3502.000000	99.480091 
3501.000000	99.480321 
3500.000000	99.481053 
3499.000000	99.482040 
3498.000000	99.482786 
3497.000000	99.482968 
3496.000000	99.482654 
3495.000000	99.482213 
3494.000000	99.482032 
3493.000000	99.482241 
3492.000000	99.482738 
3491.000000	99.483322 
3490.000000	99.483848 
3489.000000	99.484304 
3488.000000	99.484756 
3487.000000	99.485227 
3486.000000	99.485657 
3485.000000	99.486001 
3484.000000	99.486329 
3483.000000	99.486773 
3482.000000	99.487368 
3481.000000	99.488006 
3480.000000	99.488559 
3479.000000	99.488979 
3478.000000	99.489260 
3477.000000	99.489411 
3476.000000	99.489536 
3475.000000	99.489888 
3474.000000	99.490689 
3473.000000	99.491868 
3472.000000	99.492991 
3471.000000	99.493604 
3470.000000	99.493622 
3469.000000	99.493390 
3468.000000	99.493373 
3467.000000	99.493757 
3466.000000	99.494438 
3465.000000	99.495291 
3464.000000	99.496319 
3463.000000	99.497505 
3462.000000	99.498658 
3461.000000	99.499522 
3460.000000	99.500017 
3459.000000	99.500286 
3458.000000	99.500488 
3457.000000	99.500595 
3456.000000	99.500425 
3455.000000	99.499852 
3454.000000	99.499068 
3453.000000	99.498562 
3452.000000	99.498669 
3451.000000	99.499244 
3450.000000	99.499784 
3449.000000	99.499957 
3448.000000	99.499867 
3447.000000	99.499761 
3446.000000	99.499622 
3445.000000	99.499287 
3444.000000	99.498876 
3443.000000	99.498781 
3442.000000	99.499151 
3441.000000	99.499591 
3440.000000	99.499570 
3439.000000	99.499021 
3438.000000	99.498333 
3437.000000	99.497844 
3436.000000	99.497535 
3435.000000	99.497292 
3434.000000	99.497207 
3433.000000	99.497482 
3432.000000	99.498083 
3431.000000	99.498685 
3430.000000	99.499000 
3429.000000	99.499069 
3428.000000	99.499177 
3427.000000	99.499474 
3426.000000	99.499730 
3425.000000	99.499529 
3424.000000	99.498710 
3423.000000	99.497549 
3422.000000	99.496527 
3421.000000	99.495958 
3420.000000	99.495881 
3419.000000	99.496196 
3418.000000	99.496770 
3417.000000	99.497392 
3416.000000	99.497811 
3415.000000	99.497901 
3414.000000	99.497736 
3413.000000	99.497511 
3412.000000	99.497387 
3411.000000	99.497419 
3410.000000	99.497564 
3409.000000	99.497707 
3408.000000	99.497694 
3407.000000	99.497432 
3406.000000	99.496971 
3405.000000	99.496491 
3404.000000	99.496193 
3403.000000	99.496173 
3402.000000	99.496378 
3401.000000	99.496672 
3400.000000	99.496972 
3399.000000	99.497302 
3398.000000	99.497706 
3397.000000	99.498129 
3396.000000	99.498415 
3395.000000	99.498428 
3394.000000	99.498148 
3393.000000	99.497669 
3392.000000	99.497168 
3391.000000	99.496854 
3390.000000	99.496861 
3389.000000	99.497182 
3388.000000	99.497674 
3387.000000	99.498158 
3386.000000	99.498530 
3385.000000	99.498777 
3384.000000	99.498915 
3383.000000	99.498944 
3382.000000	99.498841 
3381.000000	99.498622 
3380.000000	99.498380 
3379.000000	99.498239 
3378.000000	99.498251 
3377.000000	99.498364 
3376.000000	99.498465 
3375.000000	99.498472 
3374.000000	99.498387 
3373.000000	99.498269 
3372.000000	99.498172 
3371.000000	99.498112 
3370.000000	99.498067 
3369.000000	99.498006 
3368.000000	99.497915 
3367.000000	99.497805 
3366.000000	99.497702 
3365.000000	99.497621 
3364.000000	99.497551 
3363.000000	99.497471 
3362.000000	99.497362 
3361.000000	99.497220 
3360.000000	99.497051 
3359.000000	99.496864 
3358.000000	99.496669 
3357.000000	99.496474 
3356.000000	99.496287 
3355.000000	99.496112 
3354.000000	99.495947 
3353.000000	99.495790 
3352.000000	99.495633 
3351.000000	99.495475 
3350.000000	99.495326 
3349.000000	99.495200 
3348.000000	99.495108 
3347.000000	99.495032 
3346.000000	99.494927 
3345.000000	99.494757 
3344.000000	99.494518 
3343.000000	99.494254 
3342.000000	99.494015 
3341.000000	99.493811 
3340.000000	99.493586 
3339.000000	99.493280 
3338.000000	99.492926 
3337.000000	99.492677 
3336.000000	99.492678 
3335.000000	99.492880 
3334.000000	99.493025 
3333.000000	99.492930 
3332.000000	99.492697 
3331.000000	99.492600 
3330.000000	99.492741 
3329.000000	99.492896 
3328.000000	99.492783 
3327.000000	99.492387 
3326.000000	99.491904 
3325.000000	99.491417 
3324.000000	99.490771 
3323.000000	99.489858 
3322.000000	99.488923 
3321.000000	99.488400 
3320.000000	99.488465 
3319.000000	99.488883 
3318.000000	99.489298 
3317.000000	99.489605 
3316.000000	99.489936 
3315.000000	99.490357 
3314.000000	99.490757 
3313.000000	99.491025 
3312.000000	99.491186 
3311.000000	99.491244 
3310.000000	99.491008 
3309.000000	99.490275 
3308.000000	99.489140 
3307.000000	99.487975 
3306.000000	99.487104 
3305.000000	99.486602 
3304.000000	99.486430 
3303.000000	99.486573 
3302.000000	99.486911 
3301.000000	99.487069 
3300.000000	99.486630 
3299.000000	99.485518 
3298.000000	99.484112 
3297.000000	99.482962 
3296.000000	99.482329 
3295.000000	99.482066 
3294.000000	99.481863 
3293.000000	99.481594 
3292.000000	99.481394 
3291.000000	99.481401 
3290.000000	99.481453 
3289.000000	99.481186 
3288.000000	99.480451 
3287.000000	99.479513 
3286.000000	99.478813 
3285.000000	99.478517 
3284.000000	99.478414 
3283.000000	99.478213 
3282.000000	99.477861 
3281.000000	99.477513 
3280.000000	99.477288 
3279.000000	99.477151 
3278.000000	99.476997 
3277.000000	99.476764 
3276.000000	99.476427 
3275.000000	99.475967 
3274.000000	99.475390 
3273.000000	99.474736 
3272.000000	99.474045 
3271.000000	99.473350 
3270.000000	99.472702 
3269.000000	99.472183 
3268.000000	99.471839 
3267.000000	99.471618 
3266.000000	99.471424 
3265.000000	99.471213 
3264.000000	99.471019 
3263.000000	99.470948 
3262.000000	99.471150 
3261.000000	99.471698 
3260.000000	99.472388 
3259.000000	99.472746 
3258.000000	99.472397 
3257.000000	99.471451 
3256.000000	99.470408 
3255.000000	99.469585 
3254.000000	99.468824 
3253.000000	99.467931 
3252.000000	99.467235 
3251.000000	99.467406 
3250.000000	99.468690 
3249.000000	99.470499 
3248.000000	99.471826 
3247.000000	99.472041 
3246.000000	99.471177 
3245.000000	99.469698 
3244.000000	99.468152 
3243.000000	99.466914 
3242.000000	99.466048 
3241.000000	99.465334 
3240.000000	99.464591 
3239.000000	99.464053 
3238.000000	99.464294 
3237.000000	99.465717 
3236.000000	99.468150 
3235.000000	99.470872 
3234.000000	99.472984 
3233.000000	99.473804 
3232.000000	99.473133 
3231.000000	99.471411 
3230.000000	99.469561 
3229.000000	99.468381 
3228.000000	99.467967 
3227.000000	99.467768 
3226.000000	99.467146 
3225.000000	99.465915 
3224.000000	99.464409 
3223.000000	99.463161 
3222.000000	99.462496 
3221.000000	99.462360 
3220.000000	99.462428 
3219.000000	99.462382 
3218.000000	99.462137 
3217.000000	99.461875 
3216.000000	99.461908 
3215.000000	99.462468 
3214.000000	99.463490 
3213.000000	99.464484 
3212.000000	99.464730 
3211.000000	99.463766 
3210.000000	99.461808 
3209.000000	99.459688 
3208.000000	99.458185 
3207.000000	99.457416 
3206.000000	99.456949 
3205.000000	99.456451 
3204.000000	99.456074 
3203.000000	99.456105 
3202.000000	99.456476 
3201.000000	99.456817 
3200.000000	99.456913 
3199.000000	99.456883 
3198.000000	99.456898 
3197.000000	99.456975 
3196.000000	99.457115 
3195.000000	99.457384 
3194.000000	99.457699 
3193.000000	99.457712 
3192.000000	99.457125 
3191.000000	99.456050 
3190.000000	99.454949 
3189.000000	99.454236 
3188.000000	99.454018 
3187.000000	99.454178 
3186.000000	99.454522 
3185.000000	99.454825 
3184.000000	99.454913 
3183.000000	99.454769 
3182.000000	99.454533 
3181.000000	99.454375 
3180.000000	99.454427 
3179.000000	99.454773 
3178.000000	99.455341 
3177.000000	99.455819 
3176.000000	99.455906 
3175.000000	99.455725 
3174.000000	99.455754 
3173.000000	99.456150 
3172.000000	99.456368 
3171.000000	99.455747 
3170.000000	99.454329 
3169.000000	99.452877 
3168.000000	99.452138 
3167.000000	99.452249 
3166.000000	99.452841 
3165.000000	99.453393 
3164.000000	99.453535 
3163.000000	99.453178 
3162.000000	99.452514 
3161.000000	99.451893 
3160.000000	99.451591 
3159.000000	99.451663 
3158.000000	99.451936 
3157.000000	99.452094 
3156.000000	99.451848 
3155.000000	99.451133 
3154.000000	99.450154 
3153.000000	99.449135 
3152.000000	99.448082 
3151.000000	99.446924 
3150.000000	99.445849 
3149.000000	99.445271 
3148.000000	99.445373 
3147.000000	99.445886 
3146.000000	99.446428 
3145.000000	99.446900 
3144.000000	99.447411 
3143.000000	99.447914 
3142.000000	99.448126 
3141.000000	99.447819 
3140.000000	99.447060 
3139.000000	99.446186 
3138.000000	99.445566 
3137.000000	99.445389 
3136.000000	99.445622 
3135.000000	99.446083 
3134.000000	99.446535 
3133.000000	99.446751 
3132.000000	99.446585 
3131.000000	99.446080 
3130.000000	99.445531 
3129.000000	99.445355 
3128.000000	99.445794 
3127.000000	99.446753 
3126.000000	99.447833 
3125.000000	99.448562 
3124.000000	99.448682 
3123.000000	99.448235 
3122.000000	99.447491 
3121.000000	99.446769 
3120.000000	99.446249 
3119.000000	99.445949 
3118.000000	99.445840 
3117.000000	99.445921 
3116.000000	99.446181 
3115.000000	99.446536 
3114.000000	99.446845 
3113.000000	99.446984 
3112.000000	99.446903 
3111.000000	99.446659 
3110.000000	99.446405 
3109.000000	99.446311 
3108.000000	99.446418 
3107.000000	99.446582 
3106.000000	99.446594 
3105.000000	99.446377 
3104.000000	99.446046 
3103.000000	99.445792 
3102.000000	99.445743 
3101.000000	99.445907 
3100.000000	99.446220 
3099.000000	99.446595 
3098.000000	99.446973 
3097.000000	99.447322 
3096.000000	99.447579 
3095.000000	99.447593 
3094.000000	99.447237 
3093.000000	99.446588 
3092.000000	99.445919 
3091.000000	99.445426 
3090.000000	99.445116 
3089.000000	99.445035 
3088.000000	99.445352 
3087.000000	99.445969 
3086.000000	99.446274 
3085.000000	99.445676 
3084.000000	99.444238 
3083.000000	99.442441 
3082.000000	99.440517 
3081.000000	99.438528 
3080.000000	99.437027 
3079.000000	99.437079 
3078.000000	99.439404 
3077.000000	99.443601 
3076.000000	99.448200 
3075.000000	99.451350 
3074.000000	99.451767 
3073.000000	99.449584 
3072.000000	99.446378 
3071.000000	99.443856 
3070.000000	99.442343 
3069.000000	99.440827 
3068.000000	99.438494 
3067.000000	99.435847 
3066.000000	99.434287 
3065.000000	99.434875 
3064.000000	99.437377 
3063.000000	99.440015 
3062.000000	99.440264 
3061.000000	99.436645 
3060.000000	99.430190 
3059.000000	99.423871 
3058.000000	99.420397 
3057.000000	99.420723 
3056.000000	99.424323 
3055.000000	99.429806 
3054.000000	99.434908 
3053.000000	99.436916 
3052.000000	99.434269 
3051.000000	99.427856 
3050.000000	99.420496 
3049.000000	99.415129 
3048.000000	99.413260 
3047.000000	99.414201 
3046.000000	99.415154 
3045.000000	99.412782 
3044.000000	99.405953 
3043.000000	99.397095 
3042.000000	99.390154 
3041.000000	99.386915 
3040.000000	99.385686 
3039.000000	99.383480 
3038.000000	99.378641 
3037.000000	99.371275 
3036.000000	99.362116 
3035.000000	99.351841 
3034.000000	99.341156 
3033.000000	99.330627 
3032.000000	99.320228 
3031.000000	99.309466 
3030.000000	99.298146 
3029.000000	99.286859 
3028.000000	99.276617 
3027.000000	99.268012 
3026.000000	99.260649 
3025.000000	99.253200 
3024.000000	99.243996 
3023.000000	99.231852 
3022.000000	99.216743 
3021.000000	99.199715 
3020.000000	99.181879 
3019.000000	99.163456 
3018.000000	99.144194 
3017.000000	99.124655 
3016.000000	99.106311 
3015.000000	99.089809 
3014.000000	99.073815 
3013.000000	99.056524 
3012.000000	99.038064 
3011.000000	99.020378 
3010.000000	99.004636 
3009.000000	98.989821 
3008.000000	98.974232 
3007.000000	98.957435 
3006.000000	98.939978 
3005.000000	98.921795 
3004.000000	98.901889 
3003.000000	98.879724 
3002.000000	98.856475 
3001.000000	98.834785 
3000.000000	98.817177 
2999.000000	98.804385 
2998.000000	98.795027 
2997.000000	98.787084 
2996.000000	98.779436 
2995.000000	98.771033 
2994.000000	98.758620 
2993.000000	98.737173 
2992.000000	98.704503 
2991.000000	98.665359 
2990.000000	98.629633 
2989.000000	98.605867 
2988.000000	98.596746 
2987.000000	98.599799 
2986.000000	98.610393 
2985.000000	98.623704 
2984.000000	98.635373 
2983.000000	98.642350 
2982.000000	98.643874 
2981.000000	98.641521 
2980.000000	98.638076 
2979.000000	98.635990 
2978.000000	98.636066 
2977.000000	98.636895 
2976.000000	98.635691 
2975.000000	98.630479 
2974.000000	98.622030 
2973.000000	98.613728 
2972.000000	98.609277 
2971.000000	98.610248 
2970.000000	98.615572 
2969.000000	98.623159 
2968.000000	98.631869 
2967.000000	98.641970 
2966.000000	98.653943 
2965.000000	98.667312 
2964.000000	98.680746 
2963.000000	98.692986 
2962.000000	98.703471 
2961.000000	98.712326 
2960.000000	98.720069 
2959.000000	98.727293 
2958.000000	98.734421 
2957.000000	98.741735 
2956.000000	98.749609 
2955.000000	98.758519 
2954.000000	98.768682 
2953.000000	98.779768 
2952.000000	98.790994 
2951.000000	98.801345 
2950.000000	98.809763 
2949.000000	98.815521 
2948.000000	98.818550 
2947.000000	98.819329 
2946.000000	98.818783 
2945.000000	98.818523 
2944.000000	98.820344 
2943.000000	98.824439 
2942.000000	98.828190 
2941.000000	98.827962 
2940.000000	98.822692 
2939.000000	98.815398 
2938.000000	98.810490 
2937.000000	98.809881 
2936.000000	98.812117 
2935.000000	98.814297 
2934.000000	98.814096 
2933.000000	98.810706 
2932.000000	98.804970 
2931.000000	98.798462 
2930.000000	98.791974 
2929.000000	98.785279 
2928.000000	98.778498 
2927.000000	98.772582 
2926.000000	98.767738 
2925.000000	98.762640 
2924.000000	98.756552 
2923.000000	98.751315 
2922.000000	98.749476 
2921.000000	98.750774 
2920.000000	98.752302 
2919.000000	98.752126 
2918.000000	98.751149 
2917.000000	98.750963 
2916.000000	98.751479 
2915.000000	98.751458 
2914.000000	98.750368 
2913.000000	98.748812 
2912.000000	98.747781 
2911.000000	98.748099 
2910.000000	98.749999 
2909.000000	98.752659 
2908.000000	98.754538 
2907.000000	98.754620 
2906.000000	98.752690 
2905.000000	98.748155 
2904.000000	98.739800 
2903.000000	98.728237 
2902.000000	98.718251 
2901.000000	98.716990 
2900.000000	98.728175 
2899.000000	98.748813 
2898.000000	98.770694 
2897.000000	98.786141 
2896.000000	98.792986 
2895.000000	98.794546 
2894.000000	98.795942 
2893.000000	98.800319 
2892.000000	98.807848 
2891.000000	98.816996 
2890.000000	98.825990 
2889.000000	98.833367 
2888.000000	98.838263 
2887.000000	98.840978 
2886.000000	98.843118 
2885.000000	98.846688 
2884.000000	98.852904 
2883.000000	98.861899 
2882.000000	98.873223 
2881.000000	98.886214 
2880.000000	98.899930 
2879.000000	98.913221 
2878.000000	98.925152 
2877.000000	98.935449 
2876.000000	98.944470 
2875.000000	98.952838 
2874.000000	98.961065 
2873.000000	98.969342 
2872.000000	98.977461 
2871.000000	98.984868 
2870.000000	98.991048 
2869.000000	98.996237 
2868.000000	99.001829 
2867.000000	99.009655 
2866.000000	99.020414 
2865.000000	99.032876 
2864.000000	99.044841 
2863.000000	99.054864 
2862.000000	99.062823 
2861.000000	99.069249 
2860.000000	99.074851 
2859.000000	99.080682 
2858.000000	99.087835 
2857.000000	99.096334 
2856.000000	99.104867 
2855.000000	99.112392 
2854.000000	99.119650 
2853.000000	99.128438 
2852.000000	99.139529 
2851.000000	99.151938 
2850.000000	99.164255 
2849.000000	99.176211 
2848.000000	99.188601 
2847.000000	99.201939 
2846.000000	99.215503 
2845.000000	99.227683 
2844.000000	99.237101 
2843.000000	99.243491 
2842.000000	99.247965 
2841.000000	99.252620 
2840.000000	99.259446 
2839.000000	99.268968 
2838.000000	99.279760 
2837.000000	99.289527 
2836.000000	99.296866 
2835.000000	99.302025 
2834.000000	99.306182 
2833.000000	99.310302 
2832.000000	99.314560 
2831.000000	99.318279 
2830.000000	99.320255 
2829.000000	99.319771 
2828.000000	99.317848 
2827.000000	99.317194 
2826.000000	99.320291 
2825.000000	99.327321 
2824.000000	99.336044 
2823.000000	99.343426 
2822.000000	99.347396 
2821.000000	99.347722 
2820.000000	99.346057 
2819.000000	99.344972 
2818.000000	99.346054 
2817.000000	99.348713 
2816.000000	99.351113 
2815.000000	99.352162 
2814.000000	99.352243 
2813.000000	99.352277 
2812.000000	99.352823 
2811.000000	99.354194 
2810.000000	99.356722 
2809.000000	99.360365 
2808.000000	99.364254 
2807.000000	99.366998 
2806.000000	99.367574 
2805.000000	99.366027 
2804.000000	99.363527 
2803.000000	99.361638 
2802.000000	99.361182 
2801.000000	99.361780 
2800.000000	99.362566 
2799.000000	99.363182 
2798.000000	99.363770 
2797.000000	99.364274 
2796.000000	99.364376 
2795.000000	99.364217 
2794.000000	99.364640 
2793.000000	99.366364 
2792.000000	99.369116 
2791.000000	99.371781 
2790.000000	99.373361 
2789.000000	99.373727 
2788.000000	99.373604 
2787.000000	99.373880 
2786.000000	99.374820 
2785.000000	99.375883 
2784.000000	99.376335 
2783.000000	99.375997 
2782.000000	99.375357 
2781.000000	99.375055 
2780.000000	99.375456 
2779.000000	99.376635 
2778.000000	99.378476 
2777.000000	99.380740 
2776.000000	99.383130 
2775.000000	99.385344 
2774.000000	99.387085 
2773.000000	99.388129 
2772.000000	99.388504 
2771.000000	99.388572 
2770.000000	99.388744 
2769.000000	99.389090 
2768.000000	99.389405 
2767.000000	99.389609 
2766.000000	99.389903 
2765.000000	99.390440 
2764.000000	99.391003 
2763.000000	99.391136 
2762.000000	99.390561 
2761.000000	99.389451 
2760.000000	99.388384 
2759.000000	99.388011 
2758.000000	99.388659 
2757.000000	99.390220 
2756.000000	99.392265 
2755.000000	99.394242 
2754.000000	99.395664 
2753.000000	99.396285 
2752.000000	99.396266 
2751.000000	99.396155 
2750.000000	99.396469 
2749.000000	99.397244 
2748.000000	99.398100 
2747.000000	99.398723 
2746.000000	99.399153 
2745.000000	99.399550 
2744.000000	99.399887 
2743.000000	99.400012 
2742.000000	99.399944 
2741.000000	99.399956 
2740.000000	99.400310 
2739.000000	99.401007 
2738.000000	99.401823 
2737.000000	99.402541 
2736.000000	99.403109 
2735.000000	99.403575 
2734.000000	99.403962 
2733.000000	99.404247 
2732.000000	99.404465 
2731.000000	99.404726 
2730.000000	99.405101 
2729.000000	99.405557 
2728.000000	99.406016 
2727.000000	99.406450 
2726.000000	99.406887 
2725.000000	99.407355 
2724.000000	99.407856 
2723.000000	99.408395 
2722.000000	99.408985 
2721.000000	99.409613 
2720.000000	99.410222 
2719.000000	99.410744 
2718.000000	99.411158 
2717.000000	99.411494 
2716.000000	99.411799 
2715.000000	99.412112 
2714.000000	99.412468 
2713.000000	99.412887 
2712.000000	99.413353 
2711.000000	99.413805 
2710.000000	99.414197 
2709.000000	99.414557 
2708.000000	99.414964 
2707.000000	99.415454 
2706.000000	99.415951 
2705.000000	99.416353 
2704.000000	99.416665 
2703.000000	99.417002 
2702.000000	99.417447 
2701.000000	99.417949 
2700.000000	99.418411 
2699.000000	99.418847 
2698.000000	99.419357 
2697.000000	99.419948 
2696.000000	99.420472 
2695.000000	99.420797 
2694.000000	99.420952 
2693.000000	99.421093 
2692.000000	99.421357 
2691.000000	99.421750 
2690.000000	99.422161 
2689.000000	99.422475 
2688.000000	99.422696 
2687.000000	99.422944 
2686.000000	99.423326 
2685.000000	99.423842 
2684.000000	99.424432 
2683.000000	99.425029 
2682.000000	99.425531 
2681.000000	99.425798 
2680.000000	99.425785 
2679.000000	99.425634 
2678.000000	99.425555 
2677.000000	99.425634 
2676.000000	99.425875 
2675.000000	99.426333 
2674.000000	99.427059 
2673.000000	99.427920 
2672.000000	99.428633 
2671.000000	99.429049 
2670.000000	99.429269 
2669.000000	99.429456 
2668.000000	99.429676 
2667.000000	99.429963 
2666.000000	99.430404 
2665.000000	99.431039 
2664.000000	99.431767 
2663.000000	99.432440 
2662.000000	99.433009 
2661.000000	99.433523 
2660.000000	99.434013 
2659.000000	99.434442 
2658.000000	99.434741 
2657.000000	99.434900 
2656.000000	99.435020 
2655.000000	99.435250 
2654.000000	99.435619 
2653.000000	99.435987 
2652.000000	99.436257 
2651.000000	99.436593 
2650.000000	99.437263 
2649.000000	99.438249 
2648.000000	99.439143 
2647.000000	99.439602 
2646.000000	99.439766 
2645.000000	99.440123 
2644.000000	99.440916 
2643.000000	99.441840 
2642.000000	99.442379 
2641.000000	99.442346 
2640.000000	99.442010 
2639.000000	99.441804 
2638.000000	99.441907 
2637.000000	99.442123 
2636.000000	99.442139 
2635.000000	99.441953 
2634.000000	99.441946 
2633.000000	99.442452 
2632.000000	99.443429 
2631.000000	99.444610 
2630.000000	99.445805 
2629.000000	99.446860 
2628.000000	99.447487 
2627.000000	99.447482 
2626.000000	99.447122 
2625.000000	99.447057 
2624.000000	99.447631 
2623.000000	99.448516 
2622.000000	99.449124 
2621.000000	99.449260 
2620.000000	99.449160 
2619.000000	99.449085 
2618.000000	99.449132 
2617.000000	99.449410 
2616.000000	99.450128 
2615.000000	99.451379 
2614.000000	99.452899 
2613.000000	99.454188 
2612.000000	99.454881 
2611.000000	99.454990 
2610.000000	99.454815 
2609.000000	99.454645 
2608.000000	99.454587 
2607.000000	99.454654 
2606.000000	99.454931 
2605.000000	99.455534 
2604.000000	99.456350 
2603.000000	99.456927 
2602.000000	99.456781 
2601.000000	99.455912 
2600.000000	99.454930 
2599.000000	99.454520 
2598.000000	99.454750 
2597.000000	99.455006 
2596.000000	99.454630 
2595.000000	99.453536 
2594.000000	99.452180 
2593.000000	99.451149 
2592.000000	99.450750 
2591.000000	99.450948 
2590.000000	99.451492 
2589.000000	99.452068 
2588.000000	99.452432 
2587.000000	99.452444 
2586.000000	99.452071 
2585.000000	99.451455 
2584.000000	99.450919 
2583.000000	99.450671 
2582.000000	99.450464 
2581.000000	99.449797 
2580.000000	99.448554 
2579.000000	99.447281 
2578.000000	99.446640 
2577.000000	99.446688 
2576.000000	99.446883 
2575.000000	99.446703 
2574.000000	99.446143 
2573.000000	99.445584 
2572.000000	99.445352 
2571.000000	99.445470 
2570.000000	99.445666 
2569.000000	99.445605 
2568.000000	99.445198 
2567.000000	99.444672 
2566.000000	99.444302 
2565.000000	99.444110 
2564.000000	99.443912 
2563.000000	99.443604 
2562.000000	99.443268 
2561.000000	99.443004 
2560.000000	99.442799 
2559.000000	99.442565 
2558.000000	99.442234 
2557.000000	99.441819 
2556.000000	99.441454 
2555.000000	99.441337 
2554.000000	99.441569 
2553.000000	99.442004 
2552.000000	99.442282 
2551.000000	99.442133 
2550.000000	99.441559 
2549.000000	99.440744 
2548.000000	99.439885 
2547.000000	99.439137 
2546.000000	99.438603 
2545.000000	99.438277 
2544.000000	99.438057 
2543.000000	99.437818 
2542.000000	99.437464 
2541.000000	99.436934 
2540.000000	99.436255 
2539.000000	99.435569 
2538.000000	99.435019 
2537.000000	99.434594 
2536.000000	99.434170 
2535.000000	99.433713 
2534.000000	99.433328 
2533.000000	99.433074 
2532.000000	99.432830 
2531.000000	99.432431 
2530.000000	99.431898 
2529.000000	99.431413 
2528.000000	99.431074 
2527.000000	99.430768 
2526.000000	99.430295 
2525.000000	99.429599 
2524.000000	99.428876 
2523.000000	99.428426 
2522.000000	99.428371 
2521.000000	99.428589 
2520.000000	99.428822 
2519.000000	99.428843 
2518.000000	99.428541 
2517.000000	99.427933 
2516.000000	99.427169 
2515.000000	99.426485 
2514.000000	99.426044 
2513.000000	99.425851 
2512.000000	99.425827 
2511.000000	99.425925 
2510.000000	99.426124 
2509.000000	99.426386 
2508.000000	99.426676 
2507.000000	99.426985 
2506.000000	99.427236 
2505.000000	99.427228 
2504.000000	99.426816 
2503.000000	99.426132 
2502.000000	99.425573 
2501.000000	99.425447 
2500.000000	99.425765 
2499.000000	99.426356 
2498.000000	99.427072 
2497.000000	99.427793 
2496.000000	99.428351 
2495.000000	99.428605 
2494.000000	99.428569 
2493.000000	99.428396 
2492.000000	99.428241 
2491.000000	99.428176 
2490.000000	99.428234 
2489.000000	99.428465 
2488.000000	99.428948 
2487.000000	99.429700 
2486.000000	99.430517 
2485.000000	99.430959 
2484.000000	99.430735 
2483.000000	99.429980 
2482.000000	99.429185 
2481.000000	99.428735 
2480.000000	99.428641 
2479.000000	99.428718 
2478.000000	99.428779 
2477.000000	99.428720 
2476.000000	99.428529 
2475.000000	99.428303 
2474.000000	99.428199 
2473.000000	99.428265 
2472.000000	99.428394 
2471.000000	99.428444 
2470.000000	99.428386 
2469.000000	99.428277 
2468.000000	99.428158 
2467.000000	99.428024 
2466.000000	99.427862 
2465.000000	99.427676 
2464.000000	99.427478 
2463.000000	99.427284 
2462.000000	99.427121 
2461.000000	99.426979 
2460.000000	99.426810 
2459.000000	99.426573 
2458.000000	99.426282 
2457.000000	99.425987 
2456.000000	99.425723 
2455.000000	99.425484 
2454.000000	99.425254 
2453.000000	99.425024 
2452.000000	99.424789 
2451.000000	99.424533 
2450.000000	99.424239 
2449.000000	99.423913 
2448.000000	99.423591 
2447.000000	99.423317 
2446.000000	99.423112 
2445.000000	99.422958 
2444.000000	99.422811 
2443.000000	99.422635 
2442.000000	99.422424 
2441.000000	99.422183 
2440.000000	99.421940 
2439.000000	99.421738 
2438.000000	99.421605 
2437.000000	99.421520 
2436.000000	99.421441 
2435.000000	99.421334 
2434.000000	99.421171 
2433.000000	99.420944 
2432.000000	99.420692 
2431.000000	99.420489 
2430.000000	99.420380 
2429.000000	99.420325 
2428.000000	99.420217 
2427.000000	99.419957 
2426.000000	99.419523 
2425.000000	99.418982 
2424.000000	99.418478 
2423.000000	99.418202 
2422.000000	99.418308 
2421.000000	99.418803 
2420.000000	99.419429 
2419.000000	99.419748 
2418.000000	99.419451 
2417.000000	99.418601 
2416.000000	99.417623 
2415.000000	99.416902 
2414.000000	99.416411 
2413.000000	99.415883 
2412.000000	99.415266 
2411.000000	99.414828 
2410.000000	99.414734 
2409.000000	99.414726 
2408.000000	99.414416 
2407.000000	99.413810 
2406.000000	99.413295 
2405.000000	99.413195 
2404.000000	99.413557 
2403.000000	99.414237 
2402.000000	99.414988 
2401.000000	99.415515 
2400.000000	99.415648 
2399.000000	99.415491 
2398.000000	99.415269 
2397.000000	99.415096 
2396.000000	99.415024 
2395.000000	99.415144 
2394.000000	99.415427 
2393.000000	99.415616 
2392.000000	99.415508 
2391.000000	99.415233 
2390.000000	99.415058 
2389.000000	99.415067 
2388.000000	99.415303 
2387.000000	99.415989 
2386.000000	99.417214 
2385.000000	99.418572 
2384.000000	99.419468 
2383.000000	99.419811 
2382.000000	99.420054 
2381.000000	99.420616 
2380.000000	99.421430 
2379.000000	99.422177 
2378.000000	99.422747 
2377.000000	99.423309 
2376.000000	99.424024 
2375.000000	99.424865 
2374.000000	99.425691 
2373.000000	99.426399 
2372.000000	99.427019 
2371.000000	99.427696 
2370.000000	99.428557 
2369.000000	99.429585 
2368.000000	99.430654 
2367.000000	99.431672 
2366.000000	99.432651 
2365.000000	99.433649 
2364.000000	99.434696 
2363.000000	99.435757 
2362.000000	99.436758 
2361.000000	99.437649 
2360.000000	99.438448 
2359.000000	99.439234 
2358.000000	99.440066 
2357.000000	99.440950 
2356.000000	99.441892 
2355.000000	99.442892 
2354.000000	99.443878 
2353.000000	99.444755 
2352.000000	99.445530 
2351.000000	99.446320 
2350.000000	99.447196 
2349.000000	99.448109 
2348.000000	99.448961 
2347.000000	99.449708 
2346.000000	99.450404 
2345.000000	99.451158 
2344.000000	99.452023 
2343.000000	99.452939 
2342.000000	99.453770 
2341.000000	99.454419 
2340.000000	99.454955 
2339.000000	99.455621 
2338.000000	99.456515 
2337.000000	99.457370 
2336.000000	99.457820 
2335.000000	99.457798 
2334.000000	99.457583 
2333.000000	99.457536 
2332.000000	99.457828 
2331.000000	99.458373 
2330.000000	99.458965 
2329.000000	99.459468 
2328.000000	99.459975 
2327.000000	99.460673 
2326.000000	99.461589 
2325.000000	99.462404 
2324.000000	99.462727 
2323.000000	99.462528 
2322.000000	99.462284 
2321.000000	99.462423 
2320.000000	99.462784 
2319.000000	99.462826 
2318.000000	99.462330 
2317.000000	99.461622 
2316.000000	99.461185 
2315.000000	99.461179 
2314.000000	99.461504 
2313.000000	99.462019 
2312.000000	99.462640 
2311.000000	99.463178 
2310.000000	99.463347 
2309.000000	99.462962 
2308.000000	99.462184 
2307.000000	99.461470 
2306.000000	99.461269 
2305.000000	99.461678 
2304.000000	99.462453 
2303.000000	99.463239 
2302.000000	99.463771 
2301.000000	99.463915 
2300.000000	99.463794 
2299.000000	99.463814 
2298.000000	99.464325 
2297.000000	99.465071 
2296.000000	99.465349 
2295.000000	99.464839 
2294.000000	99.464055 
2293.000000	99.463751 
2292.000000	99.464163 
2291.000000	99.465054 
2290.000000	99.466209 
2289.000000	99.467439 
2288.000000	99.468365 
2287.000000	99.468642 
2286.000000	99.468313 
2285.000000	99.467574 
2284.000000	99.466405 
2283.000000	99.464882 
2282.000000	99.463616 
2281.000000	99.463329 
2280.000000	99.463973 
2279.000000	99.464701 
2278.000000	99.464715 
2277.000000	99.463904 
2276.000000	99.462652 
2275.000000	99.461451 
2274.000000	99.460696 
2273.000000	99.460483 
2272.000000	99.460569 
2271.000000	99.460676 
2270.000000	99.460884 
2269.000000	99.461461 
2268.000000	99.462352 
2267.000000	99.463160 
2266.000000	99.463589 
2265.000000	99.463638 
2264.000000	99.463348 
2263.000000	99.462646 
2262.000000	99.461614 
2261.000000	99.460721 
2260.000000	99.460505 
2259.000000	99.461074 
2258.000000	99.461979 
2257.000000	99.462649 
2256.000000	99.462863 
2255.000000	99.462773 
2254.000000	99.462662 
2253.000000	99.462704 
2252.000000	99.462912 
2251.000000	99.463188 
2250.000000	99.463414 
2249.000000	99.463531 
2248.000000	99.463560 
2247.000000	99.463584 
2246.000000	99.463638 
2245.000000	99.463698 
2244.000000	99.463760 
2243.000000	99.463857 
2242.000000	99.464010 
2241.000000	99.464203 
2240.000000	99.464406 
2239.000000	99.464603 
2238.000000	99.464783 
2237.000000	99.464940 
2236.000000	99.465072 
2235.000000	99.465175 
2234.000000	99.465256 
2233.000000	99.465329 
2232.000000	99.465400 
2231.000000	99.465466 
2230.000000	99.465523 
2229.000000	99.465574 
2228.000000	99.465632 
2227.000000	99.465709 
2226.000000	99.465805 
2225.000000	99.465919 
2224.000000	99.466046 
2223.000000	99.466185 
2222.000000	99.466335 
2221.000000	99.466487 
2220.000000	99.466629 
2219.000000	99.466757 
2218.000000	99.466879 
2217.000000	99.467010 
2216.000000	99.467157 
2215.000000	99.467310 
2214.000000	99.467457 
2213.000000	99.467598 
2212.000000	99.467745 
2211.000000	99.467920 
2210.000000	99.468138 
2209.000000	99.468410 
2208.000000	99.468734 
2207.000000	99.469097 
2206.000000	99.469479 
2205.000000	99.469871 
2204.000000	99.470288 
2203.000000	99.470753 
2202.000000	99.471242 
2201.000000	99.471812 
2200.000000	99.472481 
2199.000000	99.473008 
2198.000000	99.473178 
2197.000000	99.473075 
2196.000000	99.473053 
2195.000000	99.473431 
2194.000000	99.474216 
2193.000000	99.475046 
2192.000000	99.475438 
2191.000000	99.475201 
2190.000000	99.474824 
2189.000000	99.475441 
2188.000000	99.477857 
2187.000000	99.481126 
2186.000000	99.482478 
2185.000000	99.479711 
2184.000000	99.473729 
2183.000000	99.468210 
2182.000000	99.466037 
2181.000000	99.466908 
2180.000000	99.468750 
2179.000000	99.470470 
2178.000000	99.472388 
2177.000000	99.474712 
2176.000000	99.476892 
2175.000000	99.478189 
2174.000000	99.478117 
2173.000000	99.477018 
2172.000000	99.477027 
2171.000000	99.481228 
2170.000000	99.490228 
2169.000000	99.500046 
2168.000000	99.505407 
2167.000000	99.504970 
2166.000000	99.501663 
2165.000000	99.498683 
2164.000000	99.497174 
2163.000000	99.497482 
2162.000000	99.499263 
2161.000000	99.499219 
2160.000000	99.492019 
2159.000000	99.475935 
2158.000000	99.456172 
2157.000000	99.440367 
2156.000000	99.431787 
2155.000000	99.429446 
2154.000000	99.432051 
2153.000000	99.438977 
2152.000000	99.448317 
2151.000000	99.456342 
2150.000000	99.459872 
2149.000000	99.458943 
2148.000000	99.456961 
2147.000000	99.457678 
2146.000000	99.461442 
2145.000000	99.464639 
2144.000000	99.463466 
2143.000000	99.457865 
2142.000000	99.451074 
2141.000000	99.445825 
2140.000000	99.442208 
2139.000000	99.439326 
2138.000000	99.437398 
2137.000000	99.437381 
2136.000000	99.439270 
2135.000000	99.441717 
2134.000000	99.443326 
2133.000000	99.443993 
2132.000000	99.444807 
2131.000000	99.446348 
2130.000000	99.447223 
2129.000000	99.445099 
2128.000000	99.439726 
2127.000000	99.434115 
2126.000000	99.431705 
2125.000000	99.433062 
2124.000000	99.436369 
2123.000000	99.440468 
2122.000000	99.445749 
2121.000000	99.451966 
2120.000000	99.457132 
2119.000000	99.459455 
2118.000000	99.459228 
2117.000000	99.458203 
2116.000000	99.457857 
2115.000000	99.458611 
2114.000000	99.460216 
2113.000000	99.462026 
2112.000000	99.463170 
2111.000000	99.463211 
2110.000000	99.462618 
2109.000000	99.462226 
2108.000000	99.462247 
2107.000000	99.462145 
2106.000000	99.461356 
2105.000000	99.459885 
2104.000000	99.458427 
2103.000000	99.457986 
2102.000000	99.458989 
2101.000000	99.460637 
2100.000000	99.461488 
2099.000000	99.460864 
2098.000000	99.459365 
2097.000000	99.458108 
2096.000000	99.457993 
2095.000000	99.459626 
2094.000000	99.463038 
2093.000000	99.467133 
2092.000000	99.470153 
2091.000000	99.471332 
2090.000000	99.471615 
2089.000000	99.472328 
2088.000000	99.473410 
2087.000000	99.473556 
2086.000000	99.472056 
2085.000000	99.469975 
2084.000000	99.469361 
2083.000000	99.471449 
2082.000000	99.475595 
2081.000000	99.479863 
2080.000000	99.482784 
2079.000000	99.484594 
2078.000000	99.486711 
2077.000000	99.490019 
2076.000000	99.493697 
2075.000000	99.495773 
2074.000000	99.494719 
2073.000000	99.490749 
2072.000000	99.486072 
2071.000000	99.483180 
2070.000000	99.482704 
2069.000000	99.483223 
2068.000000	99.483111 
2067.000000	99.482274 
2066.000000	99.481677 
2065.000000	99.481956 
2064.000000	99.483223 
2063.000000	99.485591 
2062.000000	99.488750 
2061.000000	99.491388 
2060.000000	99.492415 
2059.000000	99.492494 
2058.000000	99.493321 
2057.000000	99.495448 
2056.000000	99.497712 
2055.000000	99.498894 
2054.000000	99.499136 
2053.000000	99.499357 
2052.000000	99.499936 
2051.000000	99.500451 
2050.000000	99.500426 
2049.000000	99.499898 
2048.000000	99.499346 
2047.000000	99.499252 
2046.000000	99.499694 
2045.000000	99.500281 
2044.000000	99.500497 
2043.000000	99.500217 
2042.000000	99.499767 
2041.000000	99.499534 
2040.000000	99.499570 
2039.000000	99.499662 
2038.000000	99.499586 
2037.000000	99.499263 
2036.000000	99.498740 
2035.000000	99.498093 
2034.000000	99.497389 
2033.000000	99.496695 
2032.000000	99.496089 
2031.000000	99.495607 
2030.000000	99.495210 
2029.000000	99.494826 
2028.000000	99.494370 
2027.000000	99.493816 
2026.000000	99.493191 
2025.000000	99.492534 
2024.000000	99.491888 
2023.000000	99.491295 
2022.000000	99.490791 
2021.000000	99.490402 
2020.000000	99.490072 
2019.000000	99.489702 
2018.000000	99.489239 
2017.000000	99.488696 
2016.000000	99.488104 
2015.000000	99.487524 
2014.000000	99.487100 
2013.000000	99.486913 
2012.000000	99.486793 
2011.000000	99.486476 
2010.000000	99.485968 
2009.000000	99.485519 
2008.000000	99.485246 
2007.000000	99.485039 
2006.000000	99.484826 
2005.000000	99.484629 
2004.000000	99.484346 
2003.000000	99.483794 
2002.000000	99.482936 
2001.000000	99.481773 
2000.000000	99.480207 
1999.000000	99.478341 
1998.000000	99.476636 
1997.000000	99.475358 
1996.000000	99.474302 
1995.000000	99.473560 
1994.000000	99.473991 
1993.000000	99.476207 
1992.000000	99.479240 
1991.000000	99.480928 
1990.000000	99.479823 
1989.000000	99.476284 
1988.000000	99.472424 
1987.000000	99.471101 
1986.000000	99.474068 
1985.000000	99.480641 
1984.000000	99.487988 
1983.000000	99.493493 
1982.000000	99.496289 
1981.000000	99.496286 
1980.000000	99.493540 
1979.000000	99.489417 
1978.000000	99.486484 
1977.000000	99.485493 
1976.000000	99.483940 
1975.000000	99.479357 
1974.000000	99.472777 
1973.000000	99.467555 
1972.000000	99.465591 
1971.000000	99.466284 
1970.000000	99.468484 
1969.000000	99.471870 
1968.000000	99.476276 
1967.000000	99.480636 
1966.000000	99.483159 
1965.000000	99.482554 
1964.000000	99.479197 
1963.000000	99.475135 
1962.000000	99.472426 
1961.000000	99.471113 
1960.000000	99.469414 
1959.000000	99.466093 
1958.000000	99.461873 
1957.000000	99.458384 
1956.000000	99.456434 
1955.000000	99.455491 
1954.000000	99.454109 
1953.000000	99.450822 
1952.000000	99.445569 
1951.000000	99.440474 
1950.000000	99.438282 
1949.000000	99.439591 
1948.000000	99.442267 
1947.000000	99.443753 
1946.000000	99.443128 
1945.000000	99.440402 
1944.000000	99.435510 
1943.000000	99.429300 
1942.000000	99.424161 
1941.000000	99.421729 
1940.000000	99.421100 
1939.000000	99.420426 
1938.000000	99.419268 
1937.000000	99.418540 
1936.000000	99.418873 
1935.000000	99.419873 
1934.000000	99.420656 
1933.000000	99.420580 
1932.000000	99.419692 
1931.000000	99.418965 
1930.000000	99.419727 
1929.000000	99.422075 
1928.000000	99.424268 
1927.000000	99.424481 
1926.000000	99.422603 
1925.000000	99.419818 
1924.000000	99.417108 
1923.000000	99.414838 
1922.000000	99.413485 
1921.000000	99.413583 
1920.000000	99.414956 
1919.000000	99.416600 
1918.000000	99.417476 
1917.000000	99.417414 
1916.000000	99.417017 
1915.000000	99.416971 
1914.000000	99.417571 
1913.000000	99.418637 
1912.000000	99.419676 
1911.000000	99.420271 
1910.000000	99.420361 
1909.000000	99.420137 
1908.000000	99.419840 
1907.000000	99.419768 
1906.000000	99.420175 
1905.000000	99.420908 
1904.000000	99.421304 
1903.000000	99.420775 
1902.000000	99.419415 
1901.000000	99.417939 
1900.000000	99.417070 
1899.000000	99.417092 
1898.000000	99.417855 
1897.000000	99.418887 
1896.000000	99.419710 
1895.000000	99.420237 
1894.000000	99.420787 
1893.000000	99.421558 
1892.000000	99.422265 
1891.000000	99.422460 
1890.000000	99.422095 
1889.000000	99.421623 
1888.000000	99.421535 
1887.000000	99.422101 
1886.000000	99.423352 
1885.000000	99.424829 
1884.000000	99.425624 
1883.000000	99.425131 
1882.000000	99.423603 
1881.000000	99.421804 
1880.000000	99.420479 
1879.000000	99.420131 
1878.000000	99.420791 
1877.000000	99.421684 
1876.000000	99.421724 
1875.000000	99.420805 
1874.000000	99.420152 
1873.000000	99.420818 
1872.000000	99.422265 
1871.000000	99.423003 
1870.000000	99.422314 
1869.000000	99.420722 
1868.000000	99.418779 
1867.000000	99.416433 
1866.000000	99.413932 
1865.000000	99.411932 
1864.000000	99.410850 
1863.000000	99.410965 
1862.000000	99.412739 
1861.000000	99.416145 
1860.000000	99.419806 
1859.000000	99.421987 
1858.000000	99.422470 
1857.000000	99.422403 
1856.000000	99.422743 
1855.000000	99.423591 
1854.000000	99.424723 
1853.000000	99.425846 
1852.000000	99.426412 
1851.000000	99.425939 
1850.000000	99.424622 
1849.000000	99.423292 
1848.000000	99.422625 
1847.000000	99.422718 
1846.000000	99.423376 
1845.000000	99.424086 
1844.000000	99.423917 
1843.000000	99.422624 
1842.000000	99.421460 
1841.000000	99.421759 
1840.000000	99.423571 
1839.000000	99.425757 
1838.000000	99.427137 
1837.000000	99.427581 
1836.000000	99.427769 
1835.000000	99.428283 
1834.000000	99.429149 
1833.000000	99.430046 
1832.000000	99.430665 
1831.000000	99.430745 
1830.000000	99.430317 
1829.000000	99.429987 
1828.000000	99.430384 
1827.000000	99.431400 
1826.000000	99.432420 
1825.000000	99.433212 
1824.000000	99.434085 
1823.000000	99.435147 
1822.000000	99.435984 
1821.000000	99.435980 
1820.000000	99.434783 
1819.000000	99.432561 
1818.000000	99.430100 
1817.000000	99.428484 
1816.000000	99.428239 
1815.000000	99.429006 
1814.000000	99.430187 
1813.000000	99.431627 
1812.000000	99.433480 
1811.000000	99.435544 
1810.000000	99.437503 
1809.000000	99.439494 
1808.000000	99.441522 
1807.000000	99.442904 
1806.000000	99.442988 
1805.000000	99.441929 
1804.000000	99.440474 
1803.000000	99.439265 
1802.000000	99.438681 
1801.000000	99.439025 
1800.000000	99.439958 
1799.000000	99.440500 
1798.000000	99.440326 
1797.000000	99.440007 
1796.000000	99.440130 
1795.000000	99.440907 
1794.000000	99.442208 
1793.000000	99.443487 
1792.000000	99.444166 
1791.000000	99.444171 
1790.000000	99.444019 
1789.000000	99.444313 
1788.000000	99.445244 
1787.000000	99.446543 
1786.000000	99.447733 
1785.000000	99.448346 
1784.000000	99.448091 
1783.000000	99.447230 
1782.000000	99.446459 
1781.000000	99.446145 
1780.000000	99.445936 
1779.000000	99.445363 
1778.000000	99.444695 
1777.000000	99.444540 
1776.000000	99.445031 
1775.000000	99.445948 
1774.000000	99.447062 
1773.000000	99.448076 
1772.000000	99.448632 
1771.000000	99.448697 
1770.000000	99.448588 
1769.000000	99.448488 
1768.000000	99.448352 
1767.000000	99.448083 
1766.000000	99.447771 
1765.000000	99.447687 
1764.000000	99.447982 
1763.000000	99.448527 
1762.000000	99.448985 
1761.000000	99.449145 
1760.000000	99.449136 
1759.000000	99.449184 
1758.000000	99.449339 
1757.000000	99.449432 
1756.000000	99.449301 
1755.000000	99.449027 
1754.000000	99.448779 
1753.000000	99.448581 
1752.000000	99.448471 
1751.000000	99.448711 
1750.000000	99.449418 
1749.000000	99.450182 
1748.000000	99.450534 
1747.000000	99.450439 
1746.000000	99.450150 
1745.000000	99.449864 
1744.000000	99.449678 
1743.000000	99.449692 
1742.000000	99.449988 
1741.000000	99.450554 
1740.000000	99.451165 
1739.000000	99.451505 
1738.000000	99.451552 
1737.000000	99.451513 
1736.000000	99.451491 
1735.000000	99.451402 
1734.000000	99.451265 
1733.000000	99.451416 
1732.000000	99.452125 
1731.000000	99.453228 
1730.000000	99.454334 
1729.000000	99.455100 
1728.000000	99.455468 
1727.000000	99.455680 
1726.000000	99.456004 
1725.000000	99.456481 
1724.000000	99.456997 
1723.000000	99.457536 
1722.000000	99.458250 
1721.000000	99.459241 
1720.000000	99.460336 
1719.000000	99.461139 
1718.000000	99.461363 
1717.000000	99.461264 
1716.000000	99.461238 
1715.000000	99.461290 
1714.000000	99.461424 
1713.000000	99.461748 
1712.000000	99.462233 
1711.000000	99.462759 
1710.000000	99.463264 
1709.000000	99.463762 
1708.000000	99.464268 
1707.000000	99.464794 
1706.000000	99.465433 
1705.000000	99.466227 
1704.000000	99.466959 
1703.000000	99.467410 
1702.000000	99.467612 
1701.000000	99.467833 
1700.000000	99.468298 
1699.000000	99.468869 
1698.000000	99.469438 
1697.000000	99.470082 
1696.000000	99.470814 
1695.000000	99.471452 
1694.000000	99.471946 
1693.000000	99.472383 
1692.000000	99.472706 
1691.000000	99.472851 
1690.000000	99.472920 
1689.000000	99.473105 
1688.000000	99.473427 
1687.000000	99.473733 
1686.000000	99.474059 
1685.000000	99.474717 
1684.000000	99.475668 
1683.000000	99.476362 
1682.000000	99.476755 
1681.000000	99.476999 
1680.000000	99.477193 
1679.000000	99.477388 
1678.000000	99.477660 
1677.000000	99.478140 
1676.000000	99.478848 
1675.000000	99.479570 
1674.000000	99.480054 
1673.000000	99.480462 
1672.000000	99.481001 
1671.000000	99.481629 
1670.000000	99.482134 
1669.000000	99.482373 
1668.000000	99.482627 
1667.000000	99.483107 
1666.000000	99.483299 
1665.000000	99.482693 
1664.000000	99.481640 
1663.000000	99.481326 
1662.000000	99.482556 
1661.000000	99.484730 
1660.000000	99.486572 
1659.000000	99.487601 
1658.000000	99.488138 
1657.000000	99.488249 
1656.000000	99.487243 
1655.000000	99.485058 
1654.000000	99.483531 
1653.000000	99.483600 
1652.000000	99.483060 
1651.000000	99.483073 
1650.000000	99.483234 
1649.000000	99.482391 
1648.000000	99.480736 
1647.000000	99.479358 
1646.000000	99.478749 
1645.000000	99.479317 
1644.000000	99.481251 
1643.000000	99.483761 
1642.000000	99.485780 
1641.000000	99.486890 
1640.000000	99.487256 
1639.000000	99.487113 
1638.000000	99.486691 
1637.000000	99.486409 
1636.000000	99.486366 
1635.000000	99.486319 
1634.000000	99.487076 
1633.000000	99.489020 
1632.000000	99.491134 
1631.000000	99.492611 
1630.000000	99.493374 
1629.000000	99.493549 
1628.000000	99.493082 
1627.000000	99.492166 
1626.000000	99.491555 
1625.000000	99.492266 
1624.000000	99.494830 
1623.000000	99.498453 
1622.000000	99.501362 
1621.000000	99.502516 
1620.000000	99.501888 
1619.000000	99.500157 
1618.000000	99.498759 
1617.000000	99.498651 
1616.000000	99.499118 
1615.000000	99.499429 
1614.000000	99.499223 
1613.000000	99.498065 
1612.000000	99.496272 
1611.000000	99.494617 
1610.000000	99.493425 
1609.000000	99.492454 
1608.000000	99.491612 
1607.000000	99.491121 
1606.000000	99.490902 
1605.000000	99.490669 
1604.000000	99.490636 
1603.000000	99.491373 
1602.000000	99.492811 
1601.000000	99.494040 
1600.000000	99.494537 
1599.000000	99.494884 
1598.000000	99.495777 
1597.000000	99.497100 
1596.000000	99.498314 
1595.000000	99.499235 
1594.000000	99.499962 
1593.000000	99.500289 
1592.000000	99.500006 
1591.000000	99.499551 
1590.000000	99.499663 
1589.000000	99.500327 
1588.000000	99.500826 
1587.000000	99.500752 
1586.000000	99.500204 
1585.000000	99.499279 
1584.000000	99.498068 
1583.000000	99.496949 
1582.000000	99.496478 
1581.000000	99.496742 
1580.000000	99.497276 
1579.000000	99.497690 
1578.000000	99.498000 
1577.000000	99.498252 
1576.000000	99.498244 
1575.000000	99.498135 
1574.000000	99.498235 
1573.000000	99.498312 
1572.000000	99.498193 
1571.000000	99.498026 
1570.000000	99.497987 
1569.000000	99.498035 
1568.000000	99.498053 
1567.000000	99.498003 
1566.000000	99.497919 
1565.000000	99.497830 
1564.000000	99.497741 
1563.000000	99.497642 
1562.000000	99.497536 
1561.000000	99.497419 
1560.000000	99.497286 
1559.000000	99.497136 
1558.000000	99.496966 
1557.000000	99.496780 
1556.000000	99.496579 
1555.000000	99.496363 
1554.000000	99.496134 
1553.000000	99.495895 
1552.000000	99.495648 
1551.000000	99.495396 
1550.000000	99.495136 
1549.000000	99.494873 
1548.000000	99.494607 
1547.000000	99.494337 
1546.000000	99.494060 
1545.000000	99.493779 
1544.000000	99.493503 
1543.000000	99.493239 
1542.000000	99.492990 
1541.000000	99.492756 
1540.000000	99.492531 
1539.000000	99.492305 
1538.000000	99.492082 
1537.000000	99.491866 
1536.000000	99.491658 
1535.000000	99.491454 
1534.000000	99.491248 
1533.000000	99.491035 
1532.000000	99.490805 
1531.000000	99.490556 
1530.000000	99.490290 
1529.000000	99.490006 
1528.000000	99.489710 
1527.000000	99.489409 
1526.000000	99.489097 
1525.000000	99.488766 
1524.000000	99.488409 
1523.000000	99.488044 
1522.000000	99.487751 
1521.000000	99.487543 
1520.000000	99.487195 
1519.000000	99.486525 
1518.000000	99.485592 
1517.000000	99.484671 
1516.000000	99.483978 
1515.000000	99.483458 
1514.000000	99.482969 
1513.000000	99.482427 
1512.000000	99.481742 
1511.000000	99.480819 
1510.000000	99.479655 
1509.000000	99.478504 
1508.000000	99.478075 
1507.000000	99.478893 
1506.000000	99.479285 
1505.000000	99.478027 
1504.000000	99.476337 
1503.000000	99.475104 
1502.000000	99.474460 
1501.000000	99.474327 
1500.000000	99.474387 
1499.000000	99.474185 
1498.000000	99.473561 
1497.000000	99.473118 
1496.000000	99.473207 
1495.000000	99.472786 
1494.000000	99.470800 
1493.000000	99.467314 
1492.000000	99.463051 
1491.000000	99.458994 
1490.000000	99.456049 
1489.000000	99.454421 
1488.000000	99.453120 
1487.000000	99.451240 
1486.000000	99.449304 
1485.000000	99.448000 
1484.000000	99.447136 
1483.000000	99.446061 
1482.000000	99.444063 
1481.000000	99.441033 
1480.000000	99.437603 
1479.000000	99.434580 
1478.000000	99.432336 
1477.000000	99.430675 
1476.000000	99.429017 
1475.000000	99.426538 
1474.000000	99.423557 
1473.000000	99.421967 
1472.000000	99.422503 
1471.000000	99.422771 
1470.000000	99.421206 
1469.000000	99.418882 
1468.000000	99.417424 
1467.000000	99.417327 
1466.000000	99.418140 
1465.000000	99.419044 
1464.000000	99.419130 
1463.000000	99.418296 
1462.000000	99.417416 
1461.000000	99.417358 
1460.000000	99.417623 
1459.000000	99.416416 
1458.000000	99.411174 
1457.000000	99.401543 
1456.000000	99.391167 
1455.000000	99.383654 
1454.000000	99.379662 
1453.000000	99.378242 
1452.000000	99.378094 
1451.000000	99.378297 
1450.000000	99.379637 
1449.000000	99.384074 
1448.000000	99.391015 
1447.000000	99.396026 
1446.000000	99.396596 
1445.000000	99.395300 
1444.000000	99.395298 
1443.000000	99.396020 
1442.000000	99.394999 
1441.000000	99.392020 
1440.000000	99.389890 
1439.000000	99.391240 
1438.000000	99.395049 
1437.000000	99.397377 
1436.000000	99.395300 
1435.000000	99.389637 
1434.000000	99.383805 
1433.000000	99.380714 
1432.000000	99.380745 
1431.000000	99.382449 
1430.000000	99.383492 
1429.000000	99.382530 
1428.000000	99.379869 
1427.000000	99.376163 
1426.000000	99.371560 
1425.000000	99.365799 
1424.000000	99.359975 
1423.000000	99.355299 
1422.000000	99.350376 
1421.000000	99.342952 
1420.000000	99.332535 
1419.000000	99.321129 
1418.000000	99.309435 
1417.000000	99.296428 
1416.000000	99.282990 
1415.000000	99.270380 
1414.000000	99.257981 
1413.000000	99.244348 
1412.000000	99.230106 
1411.000000	99.217601 
1410.000000	99.207381 
1409.000000	99.198621 
1408.000000	99.191983 
1407.000000	99.188860 
1406.000000	99.189272 
1405.000000	99.192567 
1404.000000	99.199125 
1403.000000	99.208141 
1402.000000	99.216336 
1401.000000	99.221514 
1400.000000	99.224820 
1399.000000	99.228264 
1398.000000	99.228885 
1397.000000	99.220037 
1396.000000	99.200026 
1395.000000	99.178135 
1394.000000	99.168779 
1393.000000	99.177324 
1392.000000	99.198202 
1391.000000	99.221877 
1390.000000	99.240533 
1389.000000	99.250432 
1388.000000	99.251975 
1387.000000	99.248404 
1386.000000	99.243055 
1385.000000	99.238062 
1384.000000	99.234899 
1383.000000	99.234376 
1382.000000	99.236227 
1381.000000	99.239908 
1380.000000	99.245097 
1379.000000	99.251529 
1378.000000	99.258671 
1377.000000	99.265987 
1376.000000	99.273684 
1375.000000	99.282727 
1374.000000	99.293477 
1373.000000	99.304389 
1372.000000	99.313754 
1371.000000	99.322057 
1370.000000	99.331194 
1369.000000	99.341518 
1368.000000	99.352125 
1367.000000	99.362461 
1366.000000	99.372522 
1365.000000	99.381959 
1364.000000	99.389693 
1363.000000	99.395482 
1362.000000	99.400813 
1361.000000	99.406613 
1360.000000	99.411973 
1359.000000	99.416309 
1358.000000	99.420950 
1357.000000	99.427571 
1356.000000	99.435833 
1355.000000	99.443495 
1354.000000	99.448897 
1353.000000	99.452393 
1352.000000	99.454535 
1351.000000	99.454938 
1350.000000	99.454914 
1349.000000	99.456373 
1348.000000	99.459855 
1347.000000	99.464598 
1346.000000	99.470136 
1345.000000	99.475889 
1344.000000	99.480345 
1343.000000	99.482239 
1342.000000	99.482200 
1341.000000	99.481619 
1340.000000	99.480643 
1339.000000	99.478818 
1338.000000	99.477014 
1337.000000	99.477199 
1336.000000	99.480024 
1335.000000	99.483894 
1334.000000	99.487071 
1333.000000	99.489466 
1332.000000	99.491668 
1331.000000	99.493613 
1330.000000	99.494879 
1329.000000	99.495176 
1328.000000	99.494413 
1327.000000	99.492891 
1326.000000	99.491648 
1325.000000	99.491270 
1324.000000	99.491749 
1323.000000	99.492816 
1322.000000	99.494014 
1321.000000	99.494553 
1320.000000	99.493889 
1319.000000	99.492590 
1318.000000	99.491981 
1317.000000	99.492649 
1316.000000	99.493540 
1315.000000	99.493053 
1314.000000	99.490882 
1313.000000	99.488628 
1312.000000	99.488262 
1311.000000	99.490233 
1310.000000	99.493336 
1309.000000	99.496015 
1308.000000	99.497399 
1307.000000	99.497288 
1306.000000	99.496179 
1305.000000	99.495033 
1304.000000	99.495227 
1303.000000	99.497560 
1302.000000	99.501416 
1301.000000	99.504992 
1300.000000	99.506475 
1299.000000	99.504966 
1298.000000	99.500876 
1297.000000	99.495951 
1296.000000	99.492464 
1295.000000	99.491951 
1294.000000	99.494334 
1293.000000	99.498281 
1292.000000	99.502021 
1291.000000	99.503733 
1290.000000	99.502274 
1289.000000	99.498462 
1288.000000	99.494998 
1287.000000	99.493807 
1286.000000	99.493666 
1285.000000	99.491835 
1284.000000	99.487735 
1283.000000	99.483558 
1282.000000	99.481042 
1281.000000	99.479205 
1280.000000	99.476120 
1279.000000	99.471481 
1278.000000	99.466211 
1277.000000	99.460836 
1276.000000	99.455344 
1275.000000	99.450223 
1274.000000	99.446300 
1273.000000	99.443580 
1272.000000	99.440999 
1271.000000	99.437274 
1270.000000	99.431674 
1269.000000	99.424347 
1268.000000	99.416380 
1267.000000	99.409008 
1266.000000	99.402142 
1265.000000	99.394452 
1264.000000	99.385302 
1263.000000	99.375651 
1262.000000	99.366565 
1261.000000	99.358033 
1260.000000	99.350121 
1259.000000	99.344066 
1258.000000	99.340635 
1257.000000	99.338516 
1256.000000	99.335695 
1255.000000	99.331752 
1254.000000	99.327452 
1253.000000	99.322937 
1252.000000	99.318156 
1251.000000	99.314700 
1250.000000	99.315062 
1249.000000	99.319794 
1248.000000	99.327020 
1247.000000	99.334650 
1246.000000	99.341143 
1245.000000	99.344072 
1244.000000	99.340766 
1243.000000	99.332221 
1242.000000	99.324795 
1241.000000	99.325237 
1240.000000	99.334220 
1239.000000	99.345785 
1238.000000	99.353025 
1237.000000	99.353613 
1236.000000	99.349521 
1235.000000	99.343561 
1234.000000	99.337225 
1233.000000	99.330985 
1232.000000	99.325297 
1231.000000	99.320802 
1230.000000	99.317843 
1229.000000	99.316110 
1228.000000	99.315025 
1227.000000	99.314659 
1226.000000	99.316079 
1225.000000	99.320208 
1224.000000	99.326309 
1223.000000	99.332140 
1222.000000	99.335946 
1221.000000	99.337863 
1220.000000	99.339188 
1219.000000	99.340945 
1218.000000	99.343497 
1217.000000	99.346832 
1216.000000	99.350421 
1215.000000	99.353175 
1214.000000	99.354501 
1213.000000	99.355240 
1212.000000	99.356640 
1211.000000	99.358255 
1210.000000	99.358050 
1209.000000	99.355086 
1208.000000	99.351075 
1207.000000	99.348559 
1206.000000	99.348184 
1205.000000	99.348595 
1204.000000	99.348343 
1203.000000	99.346735 
1202.000000	99.343160 
1201.000000	99.337040 
1200.000000	99.328912 
1199.000000	99.320593 
1198.000000	99.313597 
1197.000000	99.307953 
1196.000000	99.302847 
1195.000000	99.297871 
1194.000000	99.293186 
1193.000000	99.288677 
1192.000000	99.283679 
1191.000000	99.277550 
1190.000000	99.270216 
1189.000000	99.262378 
1188.000000	99.255448 
1187.000000	99.250755 
1186.000000	99.248119 
1185.000000	99.245382 
1184.000000	99.239919 
1183.000000	99.230741 
1182.000000	99.219106 
1181.000000	99.207310 
1180.000000	99.197074 
1179.000000	99.188742 
1178.000000	99.181298 
1177.000000	99.173092 
1176.000000	99.163145 
1175.000000	99.152087 
1174.000000	99.141659 
1173.000000	99.133198 
1172.000000	99.126826 
1171.000000	99.121880 
1170.000000	99.117459 
1169.000000	99.112449 
1168.000000	99.105652 
1167.000000	99.096561 
1166.000000	99.086153 
1165.000000	99.076803 
1164.000000	99.071207 
1163.000000	99.070852 
1162.000000	99.074857 
1161.000000	99.080133 
1160.000000	99.083273 
1159.000000	99.082970 
1158.000000	99.080658 
1157.000000	99.078520 
1156.000000	99.076717 
1155.000000	99.072853 
1154.000000	99.064432 
1153.000000	99.051716 
1152.000000	99.037996 
1151.000000	99.026992 
1150.000000	99.019962 
1149.000000	99.015244 
1148.000000	99.009997 
1147.000000	99.001956 
1146.000000	98.990131 
1145.000000	98.975052 
1144.000000	98.958779 
1143.000000	98.944015 
1142.000000	98.932418 
1141.000000	98.923696 
1140.000000	98.916301 
1139.000000	98.908504 
1138.000000	98.898940 
1137.000000	98.887231 
1136.000000	98.874719 
1135.000000	98.863871 
1134.000000	98.856054 
1133.000000	98.850061 
1132.000000	98.843248 
1131.000000	98.833717 
1130.000000	98.821204 
1129.000000	98.806717 
1128.000000	98.791947 
1127.000000	98.778341 
1126.000000	98.765874 
1125.000000	98.753130 
1124.000000	98.739102 
1123.000000	98.724240 
1122.000000	98.709142 
1121.000000	98.693310 
1120.000000	98.676309 
1119.000000	98.659046 
1118.000000	98.642353 
1117.000000	98.625079 
1116.000000	98.605355 
1115.000000	98.583362 
1114.000000	98.561069 
1113.000000	98.539335 
1112.000000	98.517252 
1111.000000	98.494740 
1110.000000	98.473529 
1109.000000	98.454643 
1108.000000	98.436665 
1107.000000	98.417414 
1106.000000	98.396569 
1105.000000	98.375686 
1104.000000	98.355998 
1103.000000	98.337058 
1102.000000	98.317869 
1101.000000	98.298645 
1100.000000	98.281130 
1099.000000	98.265973 
1098.000000	98.251839 
1097.000000	98.236872 
1096.000000	98.220886 
1095.000000	98.204708 
1094.000000	98.187400 
1093.000000	98.165817 
1092.000000	98.137846 
1091.000000	98.105018 
1090.000000	98.070733 
1089.000000	98.036360 
1088.000000	98.000532 
1087.000000	97.962313 
1086.000000	97.923622 
1085.000000	97.887753 
1084.000000	97.855939 
1083.000000	97.825958 
1082.000000	97.794302 
1081.000000	97.759823 
1080.000000	97.725057 
1079.000000	97.693723 
1078.000000	97.667305 
1077.000000	97.644881 
1076.000000	97.625774 
1075.000000	97.610713 
1074.000000	97.600158 
1073.000000	97.592844 
1072.000000	97.585799 
1071.000000	97.573769 
1070.000000	97.549013 
1069.000000	97.506122 
1068.000000	97.450479 
1067.000000	97.399937 
1066.000000	97.372845 
1065.000000	97.373334 
1064.000000	97.389174 
1063.000000	97.402432 
1062.000000	97.401085 
1061.000000	97.381678 
1060.000000	97.346798 
1059.000000	97.304268 
1058.000000	97.265709 
1057.000000	97.239989 
1056.000000	97.226335 
1055.000000	97.215493 
1054.000000	97.198945 
1053.000000	97.176704 
1052.000000	97.155392 
1051.000000	97.139790 
1050.000000	97.128258 
1049.000000	97.116672 
1048.000000	97.104371 
1047.000000	97.094102 
1046.000000	97.087352 
1045.000000	97.082372 
1044.000000	97.077251 
1043.000000	97.073283 
1042.000000	97.073677 
1041.000000	97.078921 
1040.000000	97.084988 
1039.000000	97.087730 
1038.000000	97.088946 
1037.000000	97.096133 
1036.000000	97.115112 
1035.000000	97.144176 
1034.000000	97.176453 
1033.000000	97.206034 
1032.000000	97.228905 
1031.000000	97.239883 
1030.000000	97.235063 
1029.000000	97.219954 
1028.000000	97.210734 
1027.000000	97.222031 
1026.000000	97.253728 
1025.000000	97.292175 
1024.000000	97.323571 
1023.000000	97.343530 
1022.000000	97.354974 
1021.000000	97.361868 
1020.000000	97.366982 
1019.000000	97.372605 
1018.000000	97.379997 
1017.000000	97.388499 
1016.000000	97.397062 
1015.000000	97.406483 
1014.000000	97.418901 
1013.000000	97.434991 
1012.000000	97.452584 
1011.000000	97.468487 
1010.000000	97.481542 
1009.000000	97.493701 
1008.000000	97.507904 
1007.000000	97.525179 
1006.000000	97.544264 
1005.000000	97.563703 
1004.000000	97.583207 
1003.000000	97.602734 
1002.000000	97.621655 
1001.000000	97.639861 
1000.000000	97.658695 
999.000000	 97.679344 
998.000000	 97.700586 
997.000000	 97.719453 
996.000000	 97.734498 
995.000000	 97.747736 
994.000000	 97.762953 
993.000000	 97.782252 
992.000000	 97.804259 
991.000000	 97.825498 
990.000000	 97.843567 
989.000000	 97.859128 
988.000000	 97.874580 
987.000000	 97.890802 
986.000000	 97.906218 
985.000000	 97.919841 
984.000000	 97.933980 
983.000000	 97.952199 
982.000000	 97.975500 
981.000000	 98.001831 
980.000000	 98.028442 
979.000000	 98.053659 
978.000000	 98.076817 
977.000000	 98.098412 
976.000000	 98.120820 
975.000000	 98.147004 
974.000000	 98.177202 
973.000000	 98.207735 
972.000000	 98.234248 
971.000000	 98.255914 
970.000000	 98.275983 
969.000000	 98.298577 
968.000000	 98.325426 
967.000000	 98.355128 
966.000000	 98.384477 
965.000000	 98.410389 
964.000000	 98.431558 
963.000000	 98.449206 
962.000000	 98.466148 
961.000000	 98.484437 
960.000000	 98.503743 
959.000000	 98.522259 
958.000000	 98.538893 
957.000000	 98.553952 
956.000000	 98.568007 
955.000000	 98.581343 
954.000000	 98.594826 
953.000000	 98.609897 
952.000000	 98.626616 
951.000000	 98.642646 
950.000000	 98.655526 
949.000000	 98.665379 
948.000000	 98.674263 
947.000000	 98.683579 
946.000000	 98.693558 
945.000000	 98.704802 
944.000000	 98.718255 
943.000000	 98.733062 
942.000000	 98.746021 
941.000000	 98.754197 
940.000000	 98.757486 
939.000000	 98.758278 
938.000000	 98.759265 
937.000000	 98.761776 
936.000000	 98.765373 
935.000000	 98.768387 
934.000000	 98.769431 
933.000000	 98.768822 
932.000000	 98.768268 
931.000000	 98.769276 
930.000000	 98.772458 
929.000000	 98.778194 
928.000000	 98.786816 
927.000000	 98.797616 
926.000000	 98.808532 
925.000000	 98.817474 
924.000000	 98.823380 
923.000000	 98.825663 
922.000000	 98.823648 
921.000000	 98.817558 
920.000000	 98.809702 
919.000000	 98.803655 
918.000000	 98.801754 
917.000000	 98.803446 
916.000000	 98.806087 
915.000000	 98.807418 
914.000000	 98.807604 
913.000000	 98.809089 
912.000000	 98.814243 
911.000000	 98.822840 
910.000000	 98.831791 
909.000000	 98.837601 
908.000000	 98.839232 
907.000000	 98.838597 
906.000000	 98.838390 
905.000000	 98.839686 
904.000000	 98.841983 
903.000000	 98.845676 
902.000000	 98.853592 
901.000000	 98.868641 
900.000000	 98.889958 
899.000000	 98.912717 
898.000000	 98.932359 
897.000000	 98.947747 
896.000000	 98.959261 
895.000000	 98.966293 
894.000000	 98.969313 
893.000000	 98.973012 
892.000000	 98.983782 
891.000000	 99.003401 
890.000000	 99.027240 
889.000000	 99.049420 
888.000000	 99.067920 
887.000000	 99.083425 
886.000000	 99.095639 
885.000000	 99.103293 
884.000000	 99.107018 
883.000000	 99.109960 
882.000000	 99.115089 
881.000000	 99.123066 
880.000000	 99.133227 
879.000000	 99.145416 
878.000000	 99.159775 
877.000000	 99.174920 
876.000000	 99.187377 
875.000000	 99.193857 
874.000000	 99.194498 
873.000000	 99.193571 
872.000000	 99.196484 
871.000000	 99.205786 
870.000000	 99.219816 
869.000000	 99.234134 
868.000000	 99.244704 
867.000000	 99.250991 
866.000000	 99.256962 
865.000000	 99.268077 
864.000000	 99.285868 
863.000000	 99.305818 
862.000000	 99.321770 
861.000000	 99.331995 
860.000000	 99.339518 
859.000000	 99.347673 
858.000000	 99.357795 
857.000000	 99.370895 
856.000000	 99.388012 
855.000000	 99.407314 
854.000000	 99.423564 
853.000000	 99.432857 
852.000000	 99.436463 
851.000000	 99.438496 
850.000000	 99.441320 
849.000000	 99.445040 
848.000000	 99.449909 
847.000000	 99.456689 
846.000000	 99.465246 
845.000000	 99.474915 
844.000000	 99.485839 
843.000000	 99.497931 
842.000000	 99.508518 
841.000000	 99.513139 
840.000000	 99.509910 
839.000000	 99.502495 
838.000000	 99.497471 
837.000000	 99.497797 
836.000000	 99.499548 
835.000000	 99.496813 
834.000000	 99.490011 
833.000000	 99.486426 
832.000000	 99.489633 
831.000000	 99.491086 
830.000000	 99.478672 
829.000000	 99.454710 
828.000000	 99.438830 
827.000000	 99.447261 
826.000000	 99.473220 
825.000000	 99.494673 
824.000000	 99.499960 
823.000000	 99.497002 
822.000000	 99.497866 
821.000000	 99.503862 
820.000000	 99.508835 
819.000000	 99.509107 
818.000000	 99.505585 
817.000000	 99.500454 
816.000000	 99.495285 
815.000000	 99.490156 
814.000000	 99.482325 
813.000000	 99.467896 
812.000000	 99.446997 
811.000000	 99.425371 
810.000000	 99.408185 
809.000000	 99.393364 
808.000000	 99.373612 
807.000000	 99.344003 
806.000000	 99.305310 
805.000000	 99.260904 
804.000000	 99.213849 
803.000000	 99.167897 
802.000000	 99.128250 
801.000000	 99.098963 
800.000000	 99.080030 
799.000000	 99.068167 
798.000000	 99.060664 
797.000000	 99.058150 
796.000000	 99.063115 
795.000000	 99.075827 
794.000000	 99.092616 
793.000000	 99.108715 
792.000000	 99.121629 
791.000000	 99.130545 
790.000000	 99.134011 
789.000000	 99.130537 
788.000000	 99.121108 
787.000000	 99.108918 
786.000000	 99.096559 
785.000000	 99.085499 
784.000000	 99.078227 
783.000000	 99.077760 
782.000000	 99.083589 
781.000000	 99.090013 
780.000000	 99.090454 
779.000000	 99.082982 
778.000000	 99.071221 
777.000000	 99.061826 
776.000000	 99.061694 
775.000000	 99.074694 
774.000000	 99.098298 
773.000000	 99.124413 
772.000000	 99.145842 
771.000000	 99.161338 
770.000000	 99.173026 
769.000000	 99.180854 
768.000000	 99.182812 
767.000000	 99.180263 
766.000000	 99.179529 
765.000000	 99.186277 
764.000000	 99.199813 
763.000000	 99.214097 
762.000000	 99.223611 
761.000000	 99.227481 
760.000000	 99.228727 
759.000000	 99.230892 
758.000000	 99.235512 
757.000000	 99.242299 
756.000000	 99.251240 
755.000000	 99.263540 
754.000000	 99.279607 
753.000000	 99.296682 
752.000000	 99.310284 
751.000000	 99.318443 
750.000000	 99.323102 
749.000000	 99.326628 
748.000000	 99.328614 
747.000000	 99.328055 
746.000000	 99.327378 
745.000000	 99.331099 
744.000000	 99.339976 
743.000000	 99.349352 
742.000000	 99.354956 
741.000000	 99.358341 
740.000000	 99.364294 
739.000000	 99.374281 
738.000000	 99.385168 
737.000000	 99.393891 
736.000000	 99.400627 
735.000000	 99.407251 
734.000000	 99.415501 
733.000000	 99.427307 
732.000000	 99.443851 
731.000000	 99.462149 
730.000000	 99.475268 
729.000000	 99.478856 
728.000000	 99.475523 
727.000000	 99.470917 
726.000000	 99.467324 
725.000000	 99.463789 
724.000000	 99.461052 
723.000000	 99.462273 
722.000000	 99.468613 
721.000000	 99.477217 
720.000000	 99.484444 
719.000000	 99.489092 
718.000000	 99.491710 
717.000000	 99.492652 
716.000000	 99.492264 
715.000000	 99.491473 
714.000000	 99.490715 
713.000000	 99.489357 
712.000000	 99.487295 
711.000000	 99.486511 
710.000000	 99.489804 
709.000000	 99.497702 
708.000000	 99.506849 
707.000000	 99.511880 
706.000000	 99.510095 
705.000000	 99.504251 
704.000000	 99.499378 
703.000000	 99.496997 
702.000000	 99.493711 
701.000000	 99.486241 
700.000000	 99.475893 
699.000000	 99.465461 
698.000000	 99.453824 
697.000000	 99.436776 
696.000000	 99.413046 
695.000000	 99.387615 
694.000000	 99.368523 
693.000000	 99.362365 
692.000000	 99.372235 
691.000000	 99.395102 
690.000000	 99.421310 
689.000000	 99.440813 
688.000000	 99.451423 
687.000000	 99.458352 
686.000000	 99.464628 
685.000000	 99.467568 
684.000000	 99.466095 
683.000000	 99.464865 
682.000000	 99.468530 
681.000000	 99.476482 
680.000000	 99.486089 
679.000000	 99.496431 
678.000000	 99.505082 
677.000000	 99.507058 
676.000000	 99.501729 
675.000000	 99.495215 
674.000000	 99.494115 
673.000000	 99.497994 
672.000000	 99.499626 
671.000000	 99.492546 
670.000000	 99.476223 
669.000000	 99.457496 
668.000000	 99.448073 
667.000000	 99.451424 
666.000000	 99.462251 
665.000000	 99.475985 
664.000000	 99.486072 
663.000000	 99.488823 
662.000000	 99.488537 
661.000000	 99.494952 
660.000000	 99.511871 
659.000000	 99.530522 
658.000000	 99.537514 
657.000000	 99.528186 
656.000000	 99.509225 
655.000000	 99.492723 
654.000000	 99.488480 
653.000000	 99.495431 
652.000000	 99.500307 
651.000000	 99.492224 
650.000000	 99.477800 

