4000.000000	99.457271 
3999.000000	99.459428 
3998.000000	99.460783 
3997.000000	99.459296 
3996.000000	99.455183 
3995.000000	99.450687 
3994.000000	99.448286 
3993.000000	99.448982 
3992.000000	99.451816 
3991.000000	99.454756 
3990.000000	99.456258 
3989.000000	99.456447 
3988.000000	99.456908 
3987.000000	99.459158 
3986.000000	99.463193 
3985.000000	99.467409 
3984.000000	99.469809 
3983.000000	99.469258 
3982.000000	99.465929 
3981.000000	99.460882 
3980.000000	99.455205 
3979.000000	99.449719 
3978.000000	99.445590 
3977.000000	99.444584 
3976.000000	99.447901 
3975.000000	99.454616 
3974.000000	99.461848 
3973.000000	99.466798 
3972.000000	99.468508 
3971.000000	99.467870 
3970.000000	99.466338 
3969.000000	99.464738 
3968.000000	99.463169 
3967.000000	99.461548 
3966.000000	99.460277 
3965.000000	99.460491 
3964.000000	99.463041 
3963.000000	99.466934 
3962.000000	99.469243 
3961.000000	99.467306 
3960.000000	99.461158 
3959.000000	99.453859 
3958.000000	99.449114 
3957.000000	99.448406 
3956.000000	99.450557 
3955.000000	99.453291 
3954.000000	99.454997 
3953.000000	99.455048 
3952.000000	99.453248 
3951.000000	99.450006 
3950.000000	99.446575 
3949.000000	99.444721 
3948.000000	99.445468 
3947.000000	99.448146 
3946.000000	99.451273 
3945.000000	99.454102 
3944.000000	99.456986 
3943.000000	99.459830 
3942.000000	99.461473 
3941.000000	99.460878 
3940.000000	99.457889 
3939.000000	99.452701 
3938.000000	99.445640 
3937.000000	99.437773 
3936.000000	99.431560 
3935.000000	99.429780 
3934.000000	99.433785 
3933.000000	99.442335 
3932.000000	99.451827 
3931.000000	99.457838 
3930.000000	99.457551 
3929.000000	99.452072 
3928.000000	99.445886 
3927.000000	99.443381 
3926.000000	99.445978 
3925.000000	99.451294 
3924.000000	99.455102 
3923.000000	99.455102 
3922.000000	99.452140 
3921.000000	99.448774 
3920.000000	99.447161 
3919.000000	99.448173 
3918.000000	99.451670 
3917.000000	99.456690 
3916.000000	99.461867 
3915.000000	99.466235 
3914.000000	99.469861 
3913.000000	99.473189 
3912.000000	99.475779 
3911.000000	99.476850 
3910.000000	99.476574 
3909.000000	99.476152 
3908.000000	99.476589 
3907.000000	99.476577 
3906.000000	99.472491 
3905.000000	99.460893 
3904.000000	99.441998 
3903.000000	99.421858 
3902.000000	99.409251 
3901.000000	99.409211 
3900.000000	99.419913 
3899.000000	99.434256 
3898.000000	99.445469 
3897.000000	99.451273 
3896.000000	99.452666 
3895.000000	99.451432 
3894.000000	99.449164 
3893.000000	99.446801 
3892.000000	99.444169 
3891.000000	99.439945 
3890.000000	99.433891 
3889.000000	99.427519 
3888.000000	99.423037 
3887.000000	99.422516 
3886.000000	99.426064 
3885.000000	99.430653 
3884.000000	99.433203 
3883.000000	99.433993 
3882.000000	99.435610 
3881.000000	99.438941 
3880.000000	99.441372 
3879.000000	99.439811 
3878.000000	99.435582 
3877.000000	99.433286 
3876.000000	99.436289 
3875.000000	99.442811 
3874.000000	99.446451 
3873.000000	99.442246 
3872.000000	99.432414 
3871.000000	99.424136 
3870.000000	99.421648 
3869.000000	99.423125 
3868.000000	99.424971 
3867.000000	99.425965 
3866.000000	99.427880 
3865.000000	99.432320 
3864.000000	99.437044 
3863.000000	99.438357 
3862.000000	99.435350 
3861.000000	99.431190 
3860.000000	99.430290 
3859.000000	99.434153 
3858.000000	99.439730 
3857.000000	99.442130 
3856.000000	99.438959 
3855.000000	99.433541 
3854.000000	99.430534 
3853.000000	99.430636 
3852.000000	99.433196 
3851.000000	99.438469 
3850.000000	99.444477 
3849.000000	99.449249 
3848.000000	99.451620 
3847.000000	99.451197 
3846.000000	99.448154 
3845.000000	99.443199 
3844.000000	99.438251 
3843.000000	99.435868 
3842.000000	99.435871 
3841.000000	99.435366 
3840.000000	99.432445 
3839.000000	99.428298 
3838.000000	99.425704 
3837.000000	99.425891 
3836.000000	99.427995 
3835.000000	99.431293 
3834.000000	99.436180 
3833.000000	99.443753 
3832.000000	99.453742 
3831.000000	99.463227 
3830.000000	99.469031 
3829.000000	99.470017 
3828.000000	99.467225 
3827.000000	99.462951 
3826.000000	99.458889 
3825.000000	99.455251 
3824.000000	99.452028 
3823.000000	99.450989 
3822.000000	99.453642 
3821.000000	99.456957 
3820.000000	99.456221 
3819.000000	99.451841 
3818.000000	99.448196 
3817.000000	99.449442 
3816.000000	99.455298 
3815.000000	99.460320 
3814.000000	99.460202 
3813.000000	99.456306 
3812.000000	99.453058 
3811.000000	99.453388 
3810.000000	99.456338 
3809.000000	99.458855 
3808.000000	99.459257 
3807.000000	99.457935 
3806.000000	99.455124 
3805.000000	99.450447 
3804.000000	99.444419 
3803.000000	99.440684 
3802.000000	99.442973 
3801.000000	99.448653 
3800.000000	99.451992 
3799.000000	99.451335 
3798.000000	99.449051 
3797.000000	99.448497 
3796.000000	99.450723 
3795.000000	99.453824 
3794.000000	99.455702 
3793.000000	99.456485 
3792.000000	99.457605 
3791.000000	99.459738 
3790.000000	99.461989 
3789.000000	99.463123 
3788.000000	99.463113 
3787.000000	99.462727 
3786.000000	99.462321 
3785.000000	99.461542 
3784.000000	99.460120 
3783.000000	99.458555 
3782.000000	99.458022 
3781.000000	99.459530 
3780.000000	99.462739 
3779.000000	99.465870 
3778.000000	99.467276 
3777.000000	99.466678 
3776.000000	99.464641 
3775.000000	99.461978 
3774.000000	99.459322 
3773.000000	99.457022 
3772.000000	99.455650 
3771.000000	99.455719 
3770.000000	99.456125 
3769.000000	99.455035 
3768.000000	99.453121 
3767.000000	99.452699 
3766.000000	99.454491 
3765.000000	99.456367 
3764.000000	99.455353 
3763.000000	99.450610 
3762.000000	99.444313 
3761.000000	99.439836 
3760.000000	99.438359 
3759.000000	99.438300 
3758.000000	99.438245 
3757.000000	99.438587 
3756.000000	99.439868 
3755.000000	99.441394 
3754.000000	99.441982 
3753.000000	99.441224 
3752.000000	99.439327 
3751.000000	99.436094 
3750.000000	99.432372 
3749.000000	99.431108 
3748.000000	99.433670 
3747.000000	99.437599 
3746.000000	99.440448 
3745.000000	99.441305 
3744.000000	99.439948 
3743.000000	99.437867 
3742.000000	99.436228 
3741.000000	99.433230 
3740.000000	99.426760 
3739.000000	99.416480 
3738.000000	99.405593 
3737.000000	99.400343 
3736.000000	99.405262 
3735.000000	99.417573 
3734.000000	99.428831 
3733.000000	99.433899 
3732.000000	99.434317 
3731.000000	99.433679 
3730.000000	99.433004 
3729.000000	99.430950 
3728.000000	99.427792 
3727.000000	99.425763 
3726.000000	99.425527 
3725.000000	99.425472 
3724.000000	99.424975 
3723.000000	99.425581 
3722.000000	99.427732 
3721.000000	99.429986 
3720.000000	99.430151 
3719.000000	99.426790 
3718.000000	99.420467 
3717.000000	99.412377 
3716.000000	99.402908 
3715.000000	99.391562 
3714.000000	99.378665 
3713.000000	99.367416 
3712.000000	99.361685 
3711.000000	99.362157 
3710.000000	99.364853 
3709.000000	99.364127 
3708.000000	99.357450 
3707.000000	99.346127 
3706.000000	99.333428 
3705.000000	99.322324 
3704.000000	99.313811 
3703.000000	99.306067 
3702.000000	99.294732 
3701.000000	99.276498 
3700.000000	99.252351 
3699.000000	99.225991 
3698.000000	99.200745 
3697.000000	99.178011 
3696.000000	99.157227 
3695.000000	99.137526 
3694.000000	99.119597 
3693.000000	99.105301 
3692.000000	99.094899 
3691.000000	99.086071 
3690.000000	99.075538 
3689.000000	99.062396 
3688.000000	99.049620 
3687.000000	99.040561 
3686.000000	99.035523 
3685.000000	99.033986 
3684.000000	99.036871 
3683.000000	99.044599 
3682.000000	99.053849 
3681.000000	99.057201 
3680.000000	99.047089 
3679.000000	99.019922 
3678.000000	98.979845 
3677.000000	98.942099 
3676.000000	98.925424 
3675.000000	98.931700 
3674.000000	98.944391 
3673.000000	98.950071 
3672.000000	98.948292 
3671.000000	98.948784 
3670.000000	98.958374 
3669.000000	98.972290 
3668.000000	98.983013 
3667.000000	98.989230 
3666.000000	98.993414 
3665.000000	98.997066 
3664.000000	98.999202 
3663.000000	98.998501 
3662.000000	98.995489 
3661.000000	98.991717 
3660.000000	98.988612 
3659.000000	98.987985 
3658.000000	98.993159 
3657.000000	99.006628 
3656.000000	99.025542 
3655.000000	99.043316 
3654.000000	99.055327 
3653.000000	99.060961 
3652.000000	99.061779 
3651.000000	99.060608 
3650.000000	99.061396 
3649.000000	99.068434 
3648.000000	99.083041 
3647.000000	99.101342 
3646.000000	99.118439 
3645.000000	99.133200 
3644.000000	99.147897 
3643.000000	99.164640 
3642.000000	99.183700 
3641.000000	99.203502 
3640.000000	99.222247 
3639.000000	99.238225 
3638.000000	99.249524 
3637.000000	99.255070 
3636.000000	99.256016 
3635.000000	99.255418 
3634.000000	99.255307 
3633.000000	99.255108 
3632.000000	99.253618 
3631.000000	99.252204 
3630.000000	99.254901 
3629.000000	99.262072 
3628.000000	99.267559 
3627.000000	99.268996 
3626.000000	99.270913 
3625.000000	99.277552 
3624.000000	99.288997 
3623.000000	99.302128 
3622.000000	99.313860 
3621.000000	99.323996 
3620.000000	99.332807 
3619.000000	99.337273 
3618.000000	99.334192 
3617.000000	99.326090 
3616.000000	99.319563 
3615.000000	99.319536 
3614.000000	99.324819 
3613.000000	99.329420 
3612.000000	99.329335 
3611.000000	99.326858 
3610.000000	99.327348 
3609.000000	99.333496 
3608.000000	99.342451 
3607.000000	99.349530 
3606.000000	99.353832 
3605.000000	99.357886 
3604.000000	99.363836 
3603.000000	99.371450 
3602.000000	99.379056 
3601.000000	99.385682 
3600.000000	99.390470 
3599.000000	99.391852 
3598.000000	99.389110 
3597.000000	99.383828 
3596.000000	99.379278 
3595.000000	99.378653 
3594.000000	99.382142 
3593.000000	99.387098 
3592.000000	99.390554 
3591.000000	99.390972 
3590.000000	99.389484 
3589.000000	99.389442 
3588.000000	99.392825 
3587.000000	99.396410 
3586.000000	99.395955 
3585.000000	99.392467 
3584.000000	99.391152 
3583.000000	99.395016 
3582.000000	99.402325 
3581.000000	99.408696 
3580.000000	99.410919 
3579.000000	99.408648 
3578.000000	99.403172 
3577.000000	99.396375 
3576.000000	99.390298 
3575.000000	99.386902 
3574.000000	99.386710 
3573.000000	99.388029 
3572.000000	99.388507 
3571.000000	99.386984 
3570.000000	99.383669 
3569.000000	99.379977 
3568.000000	99.378146 
3567.000000	99.379143 
3566.000000	99.381405 
3565.000000	99.383210 
3564.000000	99.384927 
3563.000000	99.388475 
3562.000000	99.395024 
3561.000000	99.403183 
3560.000000	99.409700 
3559.000000	99.412051 
3558.000000	99.410625 
3557.000000	99.408117 
3556.000000	99.407009 
3555.000000	99.407643 
3554.000000	99.408631 
3553.000000	99.408093 
3552.000000	99.405047 
3551.000000	99.400039 
3550.000000	99.394456 
3549.000000	99.389374 
3548.000000	99.385623 
3547.000000	99.384002 
3546.000000	99.385038 
3545.000000	99.387782 
3544.000000	99.390260 
3543.000000	99.391668 
3542.000000	99.393577 
3541.000000	99.397983 
3540.000000	99.404688 
3539.000000	99.410785 
3538.000000	99.413406 
3537.000000	99.412432 
3536.000000	99.410220 
3535.000000	99.408923 
3534.000000	99.408517 
3533.000000	99.407964 
3532.000000	99.407119 
3531.000000	99.407151 
3530.000000	99.408795 
3529.000000	99.410914 
3528.000000	99.411345 
3527.000000	99.409118 
3526.000000	99.405372 
3525.000000	99.402124 
3524.000000	99.400543 
3523.000000	99.400413 
3522.000000	99.401039 
3521.000000	99.401972 
3520.000000	99.403222 
3519.000000	99.405053 
3518.000000	99.407824 
3517.000000	99.411439 
3516.000000	99.414716 
3515.000000	99.415931 
3514.000000	99.414127 
3513.000000	99.410042 
3512.000000	99.405578 
3511.000000	99.402490 
3510.000000	99.401352 
3509.000000	99.401716 
3508.000000	99.402926 
3507.000000	99.404751 
3506.000000	99.407285 
3505.000000	99.410037 
3504.000000	99.411488 
3503.000000	99.410325 
3502.000000	99.407732 
3501.000000	99.407483 
3500.000000	99.412601 
3499.000000	99.422037 
3498.000000	99.431069 
3497.000000	99.435096 
3496.000000	99.432804 
3495.000000	99.426084 
3494.000000	99.417921 
3493.000000	99.410663 
3492.000000	99.405589 
3491.000000	99.403109 
3490.000000	99.403258 
3489.000000	99.406081 
3488.000000	99.411125 
3487.000000	99.416534 
3486.000000	99.419665 
3485.000000	99.419326 
3484.000000	99.416850 
3483.000000	99.414510 
3482.000000	99.413059 
3481.000000	99.411557 
3480.000000	99.409316 
3479.000000	99.406902 
3478.000000	99.405035 
3477.000000	99.403662 
3476.000000	99.402834 
3475.000000	99.403831 
3474.000000	99.408204 
3473.000000	99.415329 
3472.000000	99.421857 
3471.000000	99.424583 
3470.000000	99.423645 
3469.000000	99.422050 
3468.000000	99.422001 
3467.000000	99.422508 
3466.000000	99.421304 
3465.000000	99.418253 
3464.000000	99.415671 
3463.000000	99.415520 
3462.000000	99.417399 
3461.000000	99.419723 
3460.000000	99.421801 
3459.000000	99.424089 
3458.000000	99.426936 
3457.000000	99.429739 
3456.000000	99.431434 
3455.000000	99.431418 
3454.000000	99.429890 
3453.000000	99.427715 
3452.000000	99.425689 
3451.000000	99.424078 
3450.000000	99.422701 
3449.000000	99.421416 
3448.000000	99.420138 
3447.000000	99.418506 
3446.000000	99.416159 
3445.000000	99.413687 
3444.000000	99.412707 
3443.000000	99.414290 
3442.000000	99.417480 
3441.000000	99.419850 
3440.000000	99.419713 
3439.000000	99.417422 
3438.000000	99.414438 
3437.000000	99.411682 
3436.000000	99.409299 
3435.000000	99.407661 
3434.000000	99.407722 
3433.000000	99.410121 
3432.000000	99.413896 
3431.000000	99.416799 
3430.000000	99.417176 
3429.000000	99.415689 
3428.000000	99.414813 
3427.000000	99.416161 
3426.000000	99.418508 
3425.000000	99.418882 
3424.000000	99.415686 
3423.000000	99.410233 
3422.000000	99.405118 
3421.000000	99.401767 
3420.000000	99.400208 
3419.000000	99.400474 
3418.000000	99.402941 
3417.000000	99.407146 
3416.000000	99.411272 
3415.000000	99.413407 
3414.000000	99.413136 
3413.000000	99.411704 
3412.000000	99.410851 
3411.000000	99.411587 
3410.000000	99.413613 
3409.000000	99.415502 
3408.000000	99.415515 
3407.000000	99.412694 
3406.000000	99.407599 
3405.000000	99.402089 
3404.000000	99.398318 
3403.000000	99.397557 
3402.000000	99.399627 
3401.000000	99.403497 
3400.000000	99.408378 
3399.000000	99.414099 
3398.000000	99.420322 
3397.000000	99.425765 
3396.000000	99.428624 
3395.000000	99.427723 
3394.000000	99.423019 
3393.000000	99.415299 
3392.000000	99.406012 
3391.000000	99.397456 
3390.000000	99.392494 
3389.000000	99.393228 
3388.000000	99.399572 
3387.000000	99.409148 
3386.000000	99.418818 
3385.000000	99.426542 
3384.000000	99.431877 
3383.000000	99.434922 
3382.000000	99.435183 
3381.000000	99.432006 
3380.000000	99.426085 
3379.000000	99.420073 
3378.000000	99.416854 
3377.000000	99.416990 
3376.000000	99.418247 
3375.000000	99.418019 
3374.000000	99.416048 
3373.000000	99.414414 
3372.000000	99.414986 
3371.000000	99.417356 
3370.000000	99.419359 
3369.000000	99.419145 
3368.000000	99.416668 
3367.000000	99.413664 
3366.000000	99.412485 
3365.000000	99.414360 
3364.000000	99.418237 
3363.000000	99.421609 
3362.000000	99.422897 
3361.000000	99.422672 
3360.000000	99.422102 
3359.000000	99.420972 
3358.000000	99.418455 
3357.000000	99.415624 
3356.000000	99.415448 
3355.000000	99.419329 
3354.000000	99.424606 
3353.000000	99.426824 
3352.000000	99.424237 
3351.000000	99.419371 
3350.000000	99.416317 
3349.000000	99.417255 
3348.000000	99.421473 
3347.000000	99.426544 
3346.000000	99.429843 
3345.000000	99.429714 
3344.000000	99.426292 
3343.000000	99.421537 
3342.000000	99.417770 
3341.000000	99.415729 
3340.000000	99.414123 
3339.000000	99.411448 
3338.000000	99.408136 
3337.000000	99.406388 
3336.000000	99.407685 
3335.000000	99.411021 
3334.000000	99.414220 
3333.000000	99.416597 
3332.000000	99.419428 
3331.000000	99.423640 
3330.000000	99.427899 
3329.000000	99.429682 
3328.000000	99.427941 
3327.000000	99.424065 
3326.000000	99.420256 
3325.000000	99.417453 
3324.000000	99.414957 
3323.000000	99.411904 
3322.000000	99.408777 
3321.000000	99.407293 
3320.000000	99.408726 
3319.000000	99.412550 
3318.000000	99.416994 
3317.000000	99.420643 
3316.000000	99.422917 
3315.000000	99.423320 
3314.000000	99.421479 
3313.000000	99.418475 
3312.000000	99.417074 
3311.000000	99.419440 
3310.000000	99.424675 
3309.000000	99.429385 
3308.000000	99.430677 
3307.000000	99.428246 
3306.000000	99.423978 
3305.000000	99.420387 
3304.000000	99.419356 
3303.000000	99.421253 
3302.000000	99.424543 
3301.000000	99.426529 
3300.000000	99.425101 
3299.000000	99.420256 
3298.000000	99.414292 
3297.000000	99.410456 
3296.000000	99.410556 
3295.000000	99.413386 
3294.000000	99.415929 
3293.000000	99.416600 
3292.000000	99.416722 
3291.000000	99.418007 
3290.000000	99.419351 
3289.000000	99.417848 
3288.000000	99.412989 
3287.000000	99.408167 
3286.000000	99.407064 
3285.000000	99.409523 
3284.000000	99.411986 
3283.000000	99.411497 
3282.000000	99.408399 
3281.000000	99.405422 
3280.000000	99.405080 
3279.000000	99.407912 
3278.000000	99.412366 
3277.000000	99.415920 
3276.000000	99.416616 
3275.000000	99.414101 
3274.000000	99.409655 
3273.000000	99.405409 
3272.000000	99.403280 
3271.000000	99.403941 
3270.000000	99.406364 
3269.000000	99.408538 
3268.000000	99.408893 
3267.000000	99.407126 
3266.000000	99.403958 
3265.000000	99.400718 
3264.000000	99.399149 
3263.000000	99.400775 
3262.000000	99.405658 
3261.000000	99.411748 
3260.000000	99.415991 
3259.000000	99.416354 
3258.000000	99.413029 
3257.000000	99.407957 
3256.000000	99.403187 
3255.000000	99.399413 
3254.000000	99.396045 
3253.000000	99.392837 
3252.000000	99.391055 
3251.000000	99.392396 
3250.000000	99.396699 
3249.000000	99.401535 
3248.000000	99.404357 
3247.000000	99.404486 
3246.000000	99.402767 
3245.000000	99.400072 
3244.000000	99.396817 
3243.000000	99.393450 
3242.000000	99.390532 
3241.000000	99.388444 
3240.000000	99.387676 
3239.000000	99.389268 
3238.000000	99.394180 
3237.000000	99.401907 
3236.000000	99.410086 
3235.000000	99.415775 
3234.000000	99.417212 
3233.000000	99.414651 
3232.000000	99.409972 
3231.000000	99.405651 
3230.000000	99.403542 
3229.000000	99.403929 
3228.000000	99.405366 
3227.000000	99.405538 
3226.000000	99.402874 
3225.000000	99.397884 
3224.000000	99.392908 
3223.000000	99.390170 
3222.000000	99.389857 
3221.000000	99.390202 
3220.000000	99.389372 
3219.000000	99.387041 
3218.000000	99.384442 
3217.000000	99.383573 
3216.000000	99.386338 
3215.000000	99.393264 
3214.000000	99.402200 
3213.000000	99.408793 
3212.000000	99.409305 
3211.000000	99.403359 
3210.000000	99.393988 
3209.000000	99.385389 
3208.000000	99.380689 
3207.000000	99.380880 
3206.000000	99.384688 
3205.000000	99.389399 
3204.000000	99.392727 
3203.000000	99.394298 
3202.000000	99.395186 
3201.000000	99.396184 
3200.000000	99.397219 
3199.000000	99.398283 
3198.000000	99.400028 
3197.000000	99.402911 
3196.000000	99.406284 
3195.000000	99.408768 
3194.000000	99.409310 
3193.000000	99.407674 
3192.000000	99.404285 
3191.000000	99.400001 
3190.000000	99.395841 
3189.000000	99.392640 
3188.000000	99.390840 
3187.000000	99.390560 
3186.000000	99.391653 
3185.000000	99.393640 
3184.000000	99.395960 
3183.000000	99.398331 
3182.000000	99.400760 
3181.000000	99.403289 
3180.000000	99.406041 
3179.000000	99.409296 
3178.000000	99.412820 
3177.000000	99.415201 
3176.000000	99.414891 
3175.000000	99.412323 
3174.000000	99.410045 
3173.000000	99.409904 
3172.000000	99.410744 
3171.000000	99.409975 
3170.000000	99.407067 
3169.000000	99.404263 
3168.000000	99.403723 
3167.000000	99.405206 
3166.000000	99.407131 
3165.000000	99.408810 
3164.000000	99.410598 
3163.000000	99.412314 
3162.000000	99.412794 
3161.000000	99.411361 
3160.000000	99.409012 
3159.000000	99.407477 
3158.000000	99.407206 
3157.000000	99.406757 
3156.000000	99.404378 
3155.000000	99.399881 
3154.000000	99.394638 
3153.000000	99.389908 
3152.000000	99.385822 
3151.000000	99.382272 
3150.000000	99.380119 
3149.000000	99.380692 
3148.000000	99.384141 
3147.000000	99.388963 
3146.000000	99.393327 
3145.000000	99.396441 
3144.000000	99.398589 
3143.000000	99.400374 
3142.000000	99.402260 
3141.000000	99.404374 
3140.000000	99.406232 
3139.000000	99.406873 
3138.000000	99.405674 
3137.000000	99.403175 
3136.000000	99.400904 
3135.000000	99.400425 
3134.000000	99.402361 
3133.000000	99.405789 
3132.000000	99.408365 
3131.000000	99.407788 
3130.000000	99.403976 
3129.000000	99.399772 
3128.000000	99.398831 
3127.000000	99.402462 
3126.000000	99.408524 
3125.000000	99.413252 
3124.000000	99.414035 
3123.000000	99.410849 
3122.000000	99.405818 
3121.000000	99.401566 
3120.000000	99.399513 
3119.000000	99.399270 
3118.000000	99.399491 
3117.000000	99.399277 
3116.000000	99.398804 
3115.000000	99.398813 
3114.000000	99.399723 
3113.000000	99.401147 
3112.000000	99.402131 
3111.000000	99.402107 
3110.000000	99.401757 
3109.000000	99.402541 
3108.000000	99.404890 
3107.000000	99.407141 
3106.000000	99.406874 
3105.000000	99.403482 
3104.000000	99.399008 
3103.000000	99.396299 
3102.000000	99.396608 
3101.000000	99.398926 
3100.000000	99.401379 
3099.000000	99.403069 
3098.000000	99.404726 
3097.000000	99.407675 
3096.000000	99.412078 
3095.000000	99.416182 
3094.000000	99.417600 
3093.000000	99.415377 
3092.000000	99.410644 
3091.000000	99.405576 
3090.000000	99.402135 
3089.000000	99.401490 
3088.000000	99.403463 
3087.000000	99.406174 
3086.000000	99.407090 
3085.000000	99.405270 
3084.000000	99.402189 
3083.000000	99.399812 
3082.000000	99.398457 
3081.000000	99.397250 
3080.000000	99.396221 
3079.000000	99.396821 
3078.000000	99.400348 
3077.000000	99.406531 
3076.000000	99.413626 
3075.000000	99.419218 
3074.000000	99.421094 
3073.000000	99.418498 
3072.000000	99.412950 
3071.000000	99.407122 
3070.000000	99.402482 
3069.000000	99.398469 
3068.000000	99.394205 
3067.000000	99.390355 
3066.000000	99.388790 
3065.000000	99.390749 
3064.000000	99.395574 
3063.000000	99.400834 
3062.000000	99.403526 
3061.000000	99.401877 
3060.000000	99.396702 
3059.000000	99.390873 
3058.000000	99.387142 
3057.000000	99.386562 
3056.000000	99.388687 
3055.000000	99.392403 
3054.000000	99.396048 
3053.000000	99.397534 
3052.000000	99.395282 
3051.000000	99.389247 
3050.000000	99.380982 
3049.000000	99.372949 
3048.000000	99.367382 
3047.000000	99.364622 
3046.000000	99.362023 
3045.000000	99.355605 
3044.000000	99.343982 
3043.000000	99.330307 
3042.000000	99.319355 
3041.000000	99.312760 
3040.000000	99.307774 
3039.000000	99.300360 
3038.000000	99.288571 
3037.000000	99.273078 
3036.000000	99.255558 
3035.000000	99.237159 
3034.000000	99.218044 
3033.000000	99.197840 
3032.000000	99.176430 
3031.000000	99.154199 
3030.000000	99.131572 
3029.000000	99.108778 
3028.000000	99.086424 
3027.000000	99.065619 
3026.000000	99.046530 
3025.000000	99.026901 
3024.000000	99.003159 
3023.000000	98.973646 
3022.000000	98.940207 
3021.000000	98.905966 
3020.000000	98.871858 
3019.000000	98.835960 
3018.000000	98.796323 
3017.000000	98.753846 
3016.000000	98.711801 
3015.000000	98.672519 
3014.000000	98.635299 
3013.000000	98.597995 
3012.000000	98.559995 
3011.000000	98.522431 
3010.000000	98.485520 
3009.000000	98.447263 
3008.000000	98.405622 
3007.000000	98.360994 
3006.000000	98.315430 
3005.000000	98.270072 
3004.000000	98.224628 
3003.000000	98.179167 
3002.000000	98.135053 
3001.000000	98.093729 
3000.000000	98.055275 
2999.000000	98.018723 
2998.000000	97.983804 
2997.000000	97.952347 
2996.000000	97.927028 
2995.000000	97.906377 
2994.000000	97.880046 
2993.000000	97.832267 
2992.000000	97.755095 
2991.000000	97.659936 
2990.000000	97.573589 
2989.000000	97.520445 
2988.000000	97.507657 
2987.000000	97.525806 
2986.000000	97.559583 
2985.000000	97.595916 
2984.000000	97.625472 
2983.000000	97.642789 
2982.000000	97.647513 
2981.000000	97.644025 
2980.000000	97.638111 
2979.000000	97.633621 
2978.000000	97.631365 
2977.000000	97.629484 
2976.000000	97.624650 
2975.000000	97.614676 
2974.000000	97.601388 
2973.000000	97.590573 
2972.000000	97.588369 
2971.000000	97.597613 
2970.000000	97.617505 
2969.000000	97.645610 
2968.000000	97.679280 
2967.000000	97.715699 
2966.000000	97.751950 
2965.000000	97.785892 
2964.000000	97.816945 
2963.000000	97.845680 
2962.000000	97.872548 
2961.000000	97.897153 
2960.000000	97.918941 
2959.000000	97.938495 
2958.000000	97.957678 
2957.000000	97.978119 
2956.000000	97.999729 
2955.000000	98.021174 
2954.000000	98.041895 
2953.000000	98.063258 
2952.000000	98.087311 
2951.000000	98.114301 
2950.000000	98.141433 
2949.000000	98.164172 
2948.000000	98.179032 
2947.000000	98.185737 
2946.000000	98.187363 
2945.000000	98.188635 
2944.000000	98.193530 
2943.000000	98.203371 
2942.000000	98.216292 
2941.000000	98.228607 
2940.000000	98.237447 
2939.000000	98.242837 
2938.000000	98.247403 
2937.000000	98.254104 
2936.000000	98.263988 
2935.000000	98.275474 
2934.000000	98.285185 
2933.000000	98.289670 
2932.000000	98.287357 
2931.000000	98.279488 
2930.000000	98.269149 
2929.000000	98.259240 
2928.000000	98.251131 
2927.000000	98.244585 
2926.000000	98.238225 
2925.000000	98.230355 
2924.000000	98.220421 
2923.000000	98.209900 
2922.000000	98.200953 
2921.000000	98.193867 
2920.000000	98.186607 
2919.000000	98.177151 
2918.000000	98.165363 
2917.000000	98.151943 
2916.000000	98.136414 
2915.000000	98.117268 
2914.000000	98.094204 
2913.000000	98.069741 
2912.000000	98.048541 
2911.000000	98.034698 
2910.000000	98.028731 
2909.000000	98.026901 
2908.000000	98.024023 
2907.000000	98.016920 
2906.000000	98.003907 
2905.000000	97.981510 
2904.000000	97.945534 
2903.000000	97.899106 
2902.000000	97.858495 
2901.000000	97.846303 
2900.000000	97.873919 
2899.000000	97.931437 
2898.000000	97.994352 
2897.000000	98.040741 
2896.000000	98.063523 
2895.000000	98.069907 
2894.000000	98.072367 
2893.000000	98.079626 
2892.000000	98.093329 
2891.000000	98.109891 
2890.000000	98.124382 
2889.000000	98.133407 
2888.000000	98.136364 
2887.000000	98.135789 
2886.000000	98.136615 
2885.000000	98.143735 
2884.000000	98.159275 
2883.000000	98.182184 
2882.000000	98.210315 
2881.000000	98.242128 
2880.000000	98.276178 
2879.000000	98.310226 
2878.000000	98.341986 
2877.000000	98.370473 
2876.000000	98.395764 
2875.000000	98.417742 
2874.000000	98.436021 
2873.000000	98.451079 
2872.000000	98.464462 
2871.000000	98.477491 
2870.000000	98.490594 
2869.000000	98.504541 
2868.000000	98.521718 
2867.000000	98.545037 
2866.000000	98.575158 
2865.000000	98.609314 
2864.000000	98.643341 
2863.000000	98.674756 
2862.000000	98.703638 
2861.000000	98.731080 
2860.000000	98.757844 
2859.000000	98.784715 
2858.000000	98.812825 
2857.000000	98.842310 
2856.000000	98.870931 
2855.000000	98.895420 
2854.000000	98.914697 
2853.000000	98.931020 
2852.000000	98.947498 
2851.000000	98.965075 
2850.000000	98.982517 
2849.000000	98.998597 
2848.000000	99.013321 
2847.000000	99.027249 
2846.000000	99.040595 
2845.000000	99.053166 
2844.000000	99.064540 
2843.000000	99.074182 
2842.000000	99.082077 
2841.000000	99.089504 
2840.000000	99.098569 
2839.000000	99.110378 
2838.000000	99.123849 
2837.000000	99.136608 
2836.000000	99.146919 
2835.000000	99.154679 
2834.000000	99.160937 
2833.000000	99.166863 
2832.000000	99.172894 
2831.000000	99.178401 
2830.000000	99.182182 
2829.000000	99.183691 
2828.000000	99.183962 
2827.000000	99.185120 
2826.000000	99.188815 
2825.000000	99.194992 
2824.000000	99.202101 
2823.000000	99.208406 
2822.000000	99.213218 
2821.000000	99.217094 
2820.000000	99.220940 
2819.000000	99.224984 
2818.000000	99.228643 
2817.000000	99.231338 
2816.000000	99.233222 
2815.000000	99.234945 
2814.000000	99.236791 
2813.000000	99.238313 
2812.000000	99.239027 
2811.000000	99.239459 
2810.000000	99.241223 
2809.000000	99.245646 
2808.000000	99.252191 
2807.000000	99.258528 
2806.000000	99.262446 
2805.000000	99.263594 
2804.000000	99.263259 
2803.000000	99.262791 
2802.000000	99.262758 
2801.000000	99.263365 
2800.000000	99.264856 
2799.000000	99.267144 
2798.000000	99.269454 
2797.000000	99.270732 
2796.000000	99.270395 
2795.000000	99.268755 
2794.000000	99.267027 
2793.000000	99.266829 
2792.000000	99.269021 
2791.000000	99.272807 
2790.000000	99.276499 
2789.000000	99.279425 
2788.000000	99.282502 
2787.000000	99.286580 
2786.000000	99.290892 
2785.000000	99.293752 
2784.000000	99.294361 
2783.000000	99.293261 
2782.000000	99.291443 
2781.000000	99.289786 
2780.000000	99.289082 
2779.000000	99.289709 
2778.000000	99.291259 
2777.000000	99.293271 
2776.000000	99.296253 
2775.000000	99.301075 
2774.000000	99.307174 
2773.000000	99.312375 
2772.000000	99.315036 
2771.000000	99.315693 
2770.000000	99.315966 
2769.000000	99.316432 
2768.000000	99.316425 
2767.000000	99.315667 
2766.000000	99.315073 
2765.000000	99.315494 
2764.000000	99.316189 
2763.000000	99.315214 
2762.000000	99.311566 
2761.000000	99.306640 
2760.000000	99.303206 
2759.000000	99.302953 
2758.000000	99.305338 
2757.000000	99.308829 
2756.000000	99.312470 
2755.000000	99.315714 
2754.000000	99.317476 
2753.000000	99.316747 
2752.000000	99.314393 
2751.000000	99.313186 
2750.000000	99.315245 
2749.000000	99.319863 
2748.000000	99.324436 
2747.000000	99.327174 
2746.000000	99.328281 
2745.000000	99.328719 
2744.000000	99.328723 
2743.000000	99.327978 
2742.000000	99.326891 
2741.000000	99.327010 
2740.000000	99.329705 
2739.000000	99.334449 
2738.000000	99.338950 
2737.000000	99.341416 
2736.000000	99.342411 
2735.000000	99.343829 
2734.000000	99.346289 
2733.000000	99.348419 
2732.000000	99.348878 
2731.000000	99.348083 
2730.000000	99.347375 
2729.000000	99.347255 
2728.000000	99.347297 
2727.000000	99.347328 
2726.000000	99.347694 
2725.000000	99.348467 
2724.000000	99.349312 
2723.000000	99.350412 
2722.000000	99.352742 
2721.000000	99.356859 
2720.000000	99.361692 
2719.000000	99.365064 
2718.000000	99.365503 
2717.000000	99.363361 
2716.000000	99.360259 
2715.000000	99.357759 
2714.000000	99.356711 
2713.000000	99.357447 
2712.000000	99.359853 
2711.000000	99.363109 
2710.000000	99.366019 
2709.000000	99.368125 
2708.000000	99.370088 
2707.000000	99.372422 
2706.000000	99.374315 
2705.000000	99.374638 
2704.000000	99.373872 
2703.000000	99.373826 
2702.000000	99.375247 
2701.000000	99.376803 
2700.000000	99.377037 
2699.000000	99.376405 
2698.000000	99.376556 
2697.000000	99.378166 
2696.000000	99.380278 
2695.000000	99.381516 
2694.000000	99.381369 
2693.000000	99.380511 
2692.000000	99.380303 
2691.000000	99.381601 
2690.000000	99.383674 
2689.000000	99.384719 
2688.000000	99.383936 
2687.000000	99.382547 
2686.000000	99.382321 
2685.000000	99.383697 
2684.000000	99.385977 
2683.000000	99.388542 
2682.000000	99.390777 
2681.000000	99.391307 
2680.000000	99.388759 
2679.000000	99.383573 
2678.000000	99.378195 
2677.000000	99.375267 
2676.000000	99.376070 
2675.000000	99.380323 
2674.000000	99.386408 
2673.000000	99.391679 
2672.000000	99.393824 
2671.000000	99.392621 
2670.000000	99.389896 
2669.000000	99.387472 
2668.000000	99.385699 
2667.000000	99.384251 
2666.000000	99.383493 
2665.000000	99.384315 
2664.000000	99.386857 
2663.000000	99.390055 
2662.000000	99.392554 
2661.000000	99.393829 
2660.000000	99.394303 
2659.000000	99.394462 
2658.000000	99.394130 
2657.000000	99.392955 
2656.000000	99.391447 
2655.000000	99.390738 
2654.000000	99.390948 
2653.000000	99.390734 
2652.000000	99.389423 
2651.000000	99.388835 
2650.000000	99.391446 
2649.000000	99.396792 
2648.000000	99.401358 
2647.000000	99.402679 
2646.000000	99.402296 
2645.000000	99.403680 
2644.000000	99.407882 
2643.000000	99.412170 
2642.000000	99.412720 
2641.000000	99.408221 
2640.000000	99.401185 
2639.000000	99.396056 
2638.000000	99.395515 
2637.000000	99.398055 
2636.000000	99.399475 
2635.000000	99.397144 
2634.000000	99.392534 
2633.000000	99.389520 
2632.000000	99.390791 
2631.000000	99.396045 
2630.000000	99.402654 
2629.000000	99.407315 
2628.000000	99.407930 
2627.000000	99.405112 
2626.000000	99.401813 
2625.000000	99.400655 
2624.000000	99.401573 
2623.000000	99.402457 
2622.000000	99.401797 
2621.000000	99.400015 
2620.000000	99.398428 
2619.000000	99.397838 
2618.000000	99.398351 
2617.000000	99.399900 
2616.000000	99.402464 
2615.000000	99.405943 
2614.000000	99.410054 
2613.000000	99.414285 
2612.000000	99.417909 
2611.000000	99.420154 
2610.000000	99.420449 
2609.000000	99.418657 
2608.000000	99.415254 
2607.000000	99.411416 
2606.000000	99.408791 
2605.000000	99.408877 
2604.000000	99.412165 
2603.000000	99.417480 
2602.000000	99.422289 
2601.000000	99.424556 
2600.000000	99.424827 
2599.000000	99.425726 
2598.000000	99.428343 
2597.000000	99.429726 
2596.000000	99.425553 
2595.000000	99.415556 
2594.000000	99.404811 
2593.000000	99.398945 
2592.000000	99.399212 
2591.000000	99.403123 
2590.000000	99.408470 
2589.000000	99.414792 
2588.000000	99.421263 
2587.000000	99.425419 
2586.000000	99.425318 
2585.000000	99.422229 
2584.000000	99.419835 
2583.000000	99.420395 
2582.000000	99.422292 
2581.000000	99.421956 
2580.000000	99.418016 
2579.000000	99.412808 
2578.000000	99.409534 
2577.000000	99.408712 
2576.000000	99.408163 
2575.000000	99.405981 
2574.000000	99.402433 
2573.000000	99.399088 
2572.000000	99.397320 
2571.000000	99.397990 
2570.000000	99.401441 
2569.000000	99.406951 
2568.000000	99.412720 
2567.000000	99.417025 
2566.000000	99.419201 
2565.000000	99.419407 
2564.000000	99.418181 
2563.000000	99.416666 
2562.000000	99.416490 
2561.000000	99.418387 
2560.000000	99.420890 
2559.000000	99.421018 
2558.000000	99.416888 
2557.000000	99.410073 
2556.000000	99.405352 
2555.000000	99.407195 
2554.000000	99.415419 
2553.000000	99.424548 
2552.000000	99.428500 
2551.000000	99.426038 
2550.000000	99.420865 
2549.000000	99.416784 
2548.000000	99.414276 
2547.000000	99.411991 
2546.000000	99.409716 
2545.000000	99.408637 
2544.000000	99.409516 
2543.000000	99.411573 
2542.000000	99.412782 
2541.000000	99.411030 
2540.000000	99.406038 
2539.000000	99.400560 
2538.000000	99.398332 
2537.000000	99.399930 
2536.000000	99.401851 
2535.000000	99.400782 
2534.000000	99.397498 
2533.000000	99.395042 
2532.000000	99.394226 
2531.000000	99.393179 
2530.000000	99.390998 
2529.000000	99.389416 
2528.000000	99.390009 
2527.000000	99.391455 
2526.000000	99.391027 
2525.000000	99.388205 
2524.000000	99.385630 
2523.000000	99.386365 
2522.000000	99.390853 
2521.000000	99.396791 
2520.000000	99.401453 
2519.000000	99.403468 
2518.000000	99.402395 
2517.000000	99.397764 
2516.000000	99.389698 
2515.000000	99.380285 
2514.000000	99.373220 
2513.000000	99.371662 
2512.000000	99.376652 
2511.000000	99.386968 
2510.000000	99.399367 
2509.000000	99.409502 
2508.000000	99.414686 
2507.000000	99.416299 
2506.000000	99.417879 
2505.000000	99.420222 
2504.000000	99.420147 
2503.000000	99.415050 
2502.000000	99.406878 
2501.000000	99.400205 
2500.000000	99.397895 
2499.000000	99.400114 
2498.000000	99.405796 
2497.000000	99.412792 
2496.000000	99.417574 
2495.000000	99.417509 
2494.000000	99.413424 
2493.000000	99.408216 
2492.000000	99.403439 
2491.000000	99.399215 
2490.000000	99.397031 
2489.000000	99.399907 
2488.000000	99.408959 
2487.000000	99.421339 
2486.000000	99.432097 
2485.000000	99.437164 
2484.000000	99.434993 
2483.000000	99.427291 
2482.000000	99.418421 
2481.000000	99.412258 
2480.000000	99.409007 
2479.000000	99.406262 
2478.000000	99.403036 
2477.000000	99.400903 
2476.000000	99.401142 
2475.000000	99.403084 
2474.000000	99.405832 
2473.000000	99.409254 
2472.000000	99.412255 
2471.000000	99.412481 
2470.000000	99.409430 
2469.000000	99.406052 
2468.000000	99.405342 
2467.000000	99.406758 
2466.000000	99.407839 
2465.000000	99.407993 
2464.000000	99.408517 
2463.000000	99.409785 
2462.000000	99.410723 
2461.000000	99.410745 
2460.000000	99.410082 
2459.000000	99.408270 
2458.000000	99.404377 
2457.000000	99.399123 
2456.000000	99.395147 
2455.000000	99.394576 
2454.000000	99.397299 
2453.000000	99.401666 
2452.000000	99.405494 
2451.000000	99.406323 
2450.000000	99.402507 
2449.000000	99.395168 
2448.000000	99.388107 
2447.000000	99.384823 
2446.000000	99.386004 
2445.000000	99.390055 
2444.000000	99.394934 
2443.000000	99.398771 
2442.000000	99.399861 
2441.000000	99.397639 
2440.000000	99.393706 
2439.000000	99.390967 
2438.000000	99.391350 
2437.000000	99.394486 
2436.000000	99.398384 
2435.000000	99.400985 
2434.000000	99.401337 
2433.000000	99.400131 
2432.000000	99.399596 
2431.000000	99.402271 
2430.000000	99.408713 
2429.000000	99.415857 
2428.000000	99.418574 
2427.000000	99.414232 
2426.000000	99.405913 
2425.000000	99.400000 
2424.000000	99.400230 
2423.000000	99.405060 
2422.000000	99.411027 
2421.000000	99.416628 
2420.000000	99.421422 
2419.000000	99.423269 
2418.000000	99.419666 
2417.000000	99.411708 
2416.000000	99.403881 
2415.000000	99.399002 
2414.000000	99.395624 
2413.000000	99.391454 
2412.000000	99.387110 
2411.000000	99.384698 
2410.000000	99.384390 
2409.000000	99.384637 
2408.000000	99.384861 
2407.000000	99.385694 
2406.000000	99.386935 
2405.000000	99.387433 
2404.000000	99.387191 
2403.000000	99.387729 
2402.000000	99.389843 
2401.000000	99.392357 
2400.000000	99.393494 
2399.000000	99.392343 
2398.000000	99.388798 
2397.000000	99.383557 
2396.000000	99.378759 
2395.000000	99.377096 
2394.000000	99.379084 
2393.000000	99.382105 
2392.000000	99.383197 
2391.000000	99.382107 
2390.000000	99.380705 
2389.000000	99.380371 
2388.000000	99.381365 
2387.000000	99.383959 
2386.000000	99.388123 
2385.000000	99.391918 
2384.000000	99.392347 
2383.000000	99.388977 
2382.000000	99.385451 
2381.000000	99.385729 
2380.000000	99.389387 
2379.000000	99.392359 
2378.000000	99.392575 
2377.000000	99.392581 
2376.000000	99.395318 
2375.000000	99.399383 
2374.000000	99.400951 
2373.000000	99.398842 
2372.000000	99.394918 
2371.000000	99.390832 
2370.000000	99.387627 
2369.000000	99.387175 
2368.000000	99.389774 
2367.000000	99.391898 
2366.000000	99.391294 
2365.000000	99.392286 
2364.000000	99.399865 
2363.000000	99.409866 
2362.000000	99.412000 
2361.000000	99.403465 
2360.000000	99.391582 
2359.000000	99.382736 
2358.000000	99.377132 
2357.000000	99.373585 
2356.000000	99.374114 
2355.000000	99.380770 
2354.000000	99.393886 
2353.000000	99.408293 
2352.000000	99.416085 
2351.000000	99.413779 
2350.000000	99.403676 
2349.000000	99.390870 
2348.000000	99.380879 
2347.000000	99.379352 
2346.000000	99.386427 
2345.000000	99.394037 
2344.000000	99.395882 
2343.000000	99.393100 
2342.000000	99.389513 
2341.000000	99.384430 
2340.000000	99.377837 
2339.000000	99.374827 
2338.000000	99.381133 
2337.000000	99.393957 
2336.000000	99.401500 
2335.000000	99.397623 
2334.000000	99.389534 
2333.000000	99.389300 
2332.000000	99.397572 
2331.000000	99.406785 
2330.000000	99.409546 
2329.000000	99.406905 
2328.000000	99.402310 
2327.000000	99.400872 
2326.000000	99.403481 
2325.000000	99.406155 
2324.000000	99.403108 
2323.000000	99.395220 
2322.000000	99.389453 
2321.000000	99.389374 
2320.000000	99.389829 
2319.000000	99.385820 
2318.000000	99.378893 
2317.000000	99.375794 
2316.000000	99.378405 
2315.000000	99.384475 
2314.000000	99.390041 
2313.000000	99.394928 
2312.000000	99.398817 
2311.000000	99.401385 
2310.000000	99.400813 
2309.000000	99.397417 
2308.000000	99.392953 
2307.000000	99.390590 
2306.000000	99.391193 
2305.000000	99.393978 
2304.000000	99.397960 
2303.000000	99.404128 
2302.000000	99.411996 
2301.000000	99.418966 
2300.000000	99.422725 
2299.000000	99.425801 
2298.000000	99.431204 
2297.000000	99.437423 
2296.000000	99.438019 
2295.000000	99.430308 
2294.000000	99.418795 
2293.000000	99.411265 
2292.000000	99.411447 
2291.000000	99.418130 
2290.000000	99.427609 
2289.000000	99.435748 
2288.000000	99.439507 
2287.000000	99.438792 
2286.000000	99.436026 
2285.000000	99.432133 
2284.000000	99.425181 
2283.000000	99.414251 
2282.000000	99.403588 
2281.000000	99.399551 
2280.000000	99.404236 
2279.000000	99.413741 
2278.000000	99.422749 
2277.000000	99.428605 
2276.000000	99.431116 
2275.000000	99.430741 
2274.000000	99.427826 
2273.000000	99.422889 
2272.000000	99.417022 
2271.000000	99.412627 
2270.000000	99.412754 
2269.000000	99.418586 
2268.000000	99.427846 
2267.000000	99.436958 
2266.000000	99.443879 
2265.000000	99.447517 
2264.000000	99.445603 
2263.000000	99.436203 
2262.000000	99.421979 
2261.000000	99.410308 
2260.000000	99.407063 
2259.000000	99.410814 
2258.000000	99.414851 
2257.000000	99.414754 
2256.000000	99.412755 
2255.000000	99.413866 
2254.000000	99.419086 
2253.000000	99.424516 
2252.000000	99.426963 
2251.000000	99.427819 
2250.000000	99.429740 
2249.000000	99.432069 
2248.000000	99.431712 
2247.000000	99.428445 
2246.000000	99.425026 
2245.000000	99.423155 
2244.000000	99.422002 
2243.000000	99.421177 
2242.000000	99.422100 
2241.000000	99.425802 
2240.000000	99.432421 
2239.000000	99.443339 
2238.000000	99.459626 
2237.000000	99.476278 
2236.000000	99.482471 
2235.000000	99.471821 
2234.000000	99.450616 
2233.000000	99.432318 
2232.000000	99.424726 
2231.000000	99.424967 
2230.000000	99.425340 
2229.000000	99.420644 
2228.000000	99.410905 
2227.000000	99.400840 
2226.000000	99.397077 
2225.000000	99.403204 
2224.000000	99.416662 
2223.000000	99.431392 
2222.000000	99.442184 
2221.000000	99.445244 
2220.000000	99.437987 
2219.000000	99.423029 
2218.000000	99.410968 
2217.000000	99.413179 
2216.000000	99.429796 
2215.000000	99.448646 
2214.000000	99.457518 
2213.000000	99.454239 
2212.000000	99.443815 
2211.000000	99.430949 
2210.000000	99.419707 
2209.000000	99.416451 
2208.000000	99.425534 
2207.000000	99.441043 
2206.000000	99.448584 
2205.000000	99.439597 
2204.000000	99.422300 
2203.000000	99.414539 
2202.000000	99.425526 
2201.000000	99.446811 
2200.000000	99.461794 
2199.000000	99.461810 
2198.000000	99.451218 
2197.000000	99.439539 
2196.000000	99.432786 
2195.000000	99.432355 
2194.000000	99.437576 
2193.000000	99.445817 
2192.000000	99.452382 
2191.000000	99.454590 
2190.000000	99.456065 
2189.000000	99.463424 
2188.000000	99.476795 
2187.000000	99.485726 
2186.000000	99.477489 
2185.000000	99.450232 
2184.000000	99.416814 
2183.000000	99.394667 
2182.000000	99.392157 
2181.000000	99.404153 
2180.000000	99.419020 
2179.000000	99.428377 
2178.000000	99.430730 
2177.000000	99.428905 
2176.000000	99.426196 
2175.000000	99.424079 
2174.000000	99.422360 
2173.000000	99.421894 
2172.000000	99.427078 
2171.000000	99.443218 
2170.000000	99.469514 
2169.000000	99.496402 
2168.000000	99.512896 
2167.000000	99.515932 
2166.000000	99.510253 
2165.000000	99.501617 
2164.000000	99.494678 
2163.000000	99.495729 
2162.000000	99.509376 
2161.000000	99.528499 
2160.000000	99.533453 
2159.000000	99.509038 
2158.000000	99.461265 
2157.000000	99.411469 
2156.000000	99.376012 
2155.000000	99.358541 
2154.000000	99.357605 
2153.000000	99.371472 
2152.000000	99.394471 
2151.000000	99.415429 
2150.000000	99.424679 
2149.000000	99.422822 
2148.000000	99.420443 
2147.000000	99.427246 
2146.000000	99.441345 
2145.000000	99.450589 
2144.000000	99.445689 
2143.000000	99.430602 
2142.000000	99.417592 
2141.000000	99.413017 
2140.000000	99.411650 
2139.000000	99.406139 
2138.000000	99.397968 
2137.000000	99.395174 
2136.000000	99.401069 
2135.000000	99.410040 
2134.000000	99.415423 
2133.000000	99.417584 
2132.000000	99.421505 
2131.000000	99.428208 
2130.000000	99.431809 
2129.000000	99.425606 
2128.000000	99.409757 
2127.000000	99.392133 
2126.000000	99.382213 
2125.000000	99.384578 
2124.000000	99.397192 
2123.000000	99.414138 
2122.000000	99.429288 
2121.000000	99.438916 
2120.000000	99.442988 
2119.000000	99.444222 
2118.000000	99.445107 
2117.000000	99.446005 
2116.000000	99.446541 
2115.000000	99.447554 
2114.000000	99.449804 
2113.000000	99.451243 
2112.000000	99.448236 
2111.000000	99.440663 
2110.000000	99.433875 
2109.000000	99.433479 
2108.000000	99.438397 
2107.000000	99.440789 
2106.000000	99.433696 
2105.000000	99.418648 
2104.000000	99.405312 
2103.000000	99.403109 
2102.000000	99.412912 
2101.000000	99.426905 
2100.000000	99.436258 
2099.000000	99.437986 
2098.000000	99.434597 
2097.000000	99.429742 
2096.000000	99.426249 
2095.000000	99.426523 
2094.000000	99.431301 
2093.000000	99.437537 
2092.000000	99.440384 
2091.000000	99.438508 
2090.000000	99.435804 
2089.000000	99.436687 
2088.000000	99.440574 
2087.000000	99.442239 
2086.000000	99.437532 
2085.000000	99.428562 
2084.000000	99.423253 
2083.000000	99.428739 
2082.000000	99.444122 
2081.000000	99.460366 
2080.000000	99.468955 
2079.000000	99.470240 
2078.000000	99.471668 
2077.000000	99.478630 
2076.000000	99.489097 
2075.000000	99.496626 
2074.000000	99.495814 
2073.000000	99.485215 
2072.000000	99.468375 
2071.000000	99.452744 
2070.000000	99.444901 
2069.000000	99.445232 
2068.000000	99.448044 
2067.000000	99.447072 
2066.000000	99.440013 
2065.000000	99.429625 
2064.000000	99.423175 
2063.000000	99.428689 
2062.000000	99.446480 
2061.000000	99.464262 
2060.000000	99.466986 
2059.000000	99.453855 
2058.000000	99.440258 
2057.000000	99.439967 
2056.000000	99.450485 
2055.000000	99.459874 
2054.000000	99.463031 
2053.000000	99.465044 
2052.000000	99.470973 
2051.000000	99.478812 
2050.000000	99.483017 
2049.000000	99.481205 
2048.000000	99.476804 
2047.000000	99.476856 
2046.000000	99.486464 
2045.000000	99.502523 
2044.000000	99.513594 
2043.000000	99.509978 
2042.000000	99.494519 
2041.000000	99.480404 
2040.000000	99.477228 
2039.000000	99.482401 
2038.000000	99.487222 
2037.000000	99.487130 
2036.000000	99.483452 
2035.000000	99.477470 
2034.000000	99.467043 
2033.000000	99.450781 
2032.000000	99.433882 
2031.000000	99.426754 
2030.000000	99.435846 
2029.000000	99.455838 
2028.000000	99.472545 
2027.000000	99.474730 
2026.000000	99.462322 
2025.000000	99.444525 
2024.000000	99.432263 
2023.000000	99.431731 
2022.000000	99.441318 
2021.000000	99.452720 
2020.000000	99.457469 
2019.000000	99.454510 
2018.000000	99.449822 
2017.000000	99.447884 
2016.000000	99.446338 
2015.000000	99.441175 
2014.000000	99.433096 
2013.000000	99.425234 
2012.000000	99.418282 
2011.000000	99.412062 
2010.000000	99.409910 
2009.000000	99.416652 
2008.000000	99.431928 
2007.000000	99.449127 
2006.000000	99.461169 
2005.000000	99.465134 
2004.000000	99.462232 
2003.000000	99.455913 
2002.000000	99.449769 
2001.000000	99.444868 
2000.000000	99.439286 
1999.000000	99.431372 
1998.000000	99.422021 
1997.000000	99.412679 
1996.000000	99.403591 
1995.000000	99.395751 
1994.000000	99.392809 
1993.000000	99.398374 
1992.000000	99.410786 
1991.000000	99.422670 
1990.000000	99.426937 
1989.000000	99.422146 
1988.000000	99.413557 
1987.000000	99.410574 
1986.000000	99.421003 
1985.000000	99.444488 
1984.000000	99.471035 
1983.000000	99.487468 
1982.000000	99.486479 
1981.000000	99.470904 
1980.000000	99.451226 
1979.000000	99.438401 
1978.000000	99.436117 
1977.000000	99.438340 
1976.000000	99.435994 
1975.000000	99.425960 
1974.000000	99.412393 
1973.000000	99.401347 
1972.000000	99.396795 
1971.000000	99.400616 
1970.000000	99.412961 
1969.000000	99.431395 
1968.000000	99.451048 
1967.000000	99.466561 
1966.000000	99.474421 
1965.000000	99.474377 
1964.000000	99.469623 
1963.000000	99.465048 
1962.000000	99.463868 
1961.000000	99.465560 
1960.000000	99.467144 
1959.000000	99.465420 
1958.000000	99.457698 
1957.000000	99.442902 
1956.000000	99.423696 
1955.000000	99.405646 
1954.000000	99.392319 
1953.000000	99.382512 
1952.000000	99.373717 
1951.000000	99.366875 
1950.000000	99.365528 
1949.000000	99.371206 
1948.000000	99.381922 
1947.000000	99.394180 
1946.000000	99.403187 
1945.000000	99.402562 
1944.000000	99.389194 
1943.000000	99.369625 
1942.000000	99.356600 
1941.000000	99.355580 
1940.000000	99.359836 
1939.000000	99.360539 
1938.000000	99.355832 
1937.000000	99.349755 
1936.000000	99.346732 
1935.000000	99.348589 
1934.000000	99.354169 
1933.000000	99.359608 
1932.000000	99.360728 
1931.000000	99.358225 
1930.000000	99.358925 
1929.000000	99.368111 
1928.000000	99.381965 
1927.000000	99.391363 
1926.000000	99.391829 
1925.000000	99.386016 
1924.000000	99.378598 
1923.000000	99.372847 
1922.000000	99.371863 
1921.000000	99.377452 
1920.000000	99.386430 
1919.000000	99.391483 
1918.000000	99.387680 
1917.000000	99.377550 
1916.000000	99.368443 
1915.000000	99.366546 
1914.000000	99.373545 
1913.000000	99.385687 
1912.000000	99.395589 
1911.000000	99.397745 
1910.000000	99.392965 
1909.000000	99.386137 
1908.000000	99.380835 
1907.000000	99.378435 
1906.000000	99.380540 
1905.000000	99.387444 
1904.000000	99.394693 
1903.000000	99.395164 
1902.000000	99.385542 
1901.000000	99.369125 
1900.000000	99.353688 
1899.000000	99.346897 
1898.000000	99.351442 
1897.000000	99.362424 
1896.000000	99.370812 
1895.000000	99.372388 
1894.000000	99.372068 
1893.000000	99.376112 
1892.000000	99.383173 
1891.000000	99.386762 
1890.000000	99.384001 
1889.000000	99.378692 
1888.000000	99.375689 
1887.000000	99.376506 
1886.000000	99.380129 
1885.000000	99.384391 
1884.000000	99.386756 
1883.000000	99.386276 
1882.000000	99.384415 
1881.000000	99.382492 
1880.000000	99.380224 
1879.000000	99.377291 
1878.000000	99.374018 
1877.000000	99.369901 
1876.000000	99.364064 
1875.000000	99.358847 
1874.000000	99.360054 
1873.000000	99.370281 
1872.000000	99.383986 
1871.000000	99.392492 
1870.000000	99.392605 
1869.000000	99.387602 
1868.000000	99.379259 
1867.000000	99.366190 
1866.000000	99.350412 
1865.000000	99.337222 
1864.000000	99.331336 
1863.000000	99.335610 
1862.000000	99.350279 
1861.000000	99.370491 
1860.000000	99.386791 
1859.000000	99.392652 
1858.000000	99.390700 
1857.000000	99.388092 
1856.000000	99.388175 
1855.000000	99.390523 
1854.000000	99.394951 
1853.000000	99.400528 
1852.000000	99.403474 
1851.000000	99.400072 
1850.000000	99.391546 
1849.000000	99.383350 
1848.000000	99.379617 
1847.000000	99.380093 
1846.000000	99.382397 
1845.000000	99.383862 
1844.000000	99.381487 
1843.000000	99.374863 
1842.000000	99.369019 
1841.000000	99.368738 
1840.000000	99.374334 
1839.000000	99.382864 
1838.000000	99.390930 
1837.000000	99.396233 
1836.000000	99.397946 
1835.000000	99.397339 
1834.000000	99.397068 
1833.000000	99.398920 
1832.000000	99.402812 
1831.000000	99.406348 
1830.000000	99.406551 
1829.000000	99.403507 
1828.000000	99.400882 
1827.000000	99.400324 
1826.000000	99.399739 
1825.000000	99.398079 
1824.000000	99.396871 
1823.000000	99.397185 
1822.000000	99.398007 
1821.000000	99.397302 
1820.000000	99.393849 
1819.000000	99.388022 
1818.000000	99.382409 
1817.000000	99.380001 
1816.000000	99.380008 
1815.000000	99.378759 
1814.000000	99.375591 
1813.000000	99.375069 
1812.000000	99.381833 
1811.000000	99.393928 
1810.000000	99.405906 
1809.000000	99.415522 
1808.000000	99.421560 
1807.000000	99.421343 
1806.000000	99.414694 
1805.000000	99.405784 
1804.000000	99.398664 
1803.000000	99.393745 
1802.000000	99.390229 
1801.000000	99.389555 
1800.000000	99.391212 
1799.000000	99.390796 
1798.000000	99.387216 
1797.000000	99.384512 
1796.000000	99.385590 
1795.000000	99.389170 
1794.000000	99.392312 
1793.000000	99.393892 
1792.000000	99.394439 
1791.000000	99.393306 
1790.000000	99.391362 
1789.000000	99.391458 
1788.000000	99.394591 
1787.000000	99.399101 
1786.000000	99.402631 
1785.000000	99.403331 
1784.000000	99.400057 
1783.000000	99.394785 
1782.000000	99.391881 
1781.000000	99.393648 
1780.000000	99.396443 
1779.000000	99.394585 
1778.000000	99.388459 
1777.000000	99.383388 
1776.000000	99.383107 
1775.000000	99.387402 
1774.000000	99.393906 
1773.000000	99.400596 
1772.000000	99.405942 
1771.000000	99.407444 
1770.000000	99.404733 
1769.000000	99.399728 
1768.000000	99.395408 
1767.000000	99.393336 
1766.000000	99.393154 
1765.000000	99.394902 
1764.000000	99.398604 
1763.000000	99.403085 
1762.000000	99.406012 
1761.000000	99.406827 
1760.000000	99.407653 
1759.000000	99.409403 
1758.000000	99.410198 
1757.000000	99.408540 
1756.000000	99.406156 
1755.000000	99.405175 
1754.000000	99.403990 
1753.000000	99.399527 
1752.000000	99.394049 
1751.000000	99.395821 
1750.000000	99.407063 
1749.000000	99.419276 
1748.000000	99.425797 
1747.000000	99.427391 
1746.000000	99.426497 
1745.000000	99.424166 
1744.000000	99.422003 
1743.000000	99.421569 
1742.000000	99.421852 
1741.000000	99.421217 
1740.000000	99.420182 
1739.000000	99.420152 
1738.000000	99.420729 
1737.000000	99.419930 
1736.000000	99.414257 
1735.000000	99.402059 
1734.000000	99.390263 
1733.000000	99.386267 
1732.000000	99.390968 
1731.000000	99.400853 
1730.000000	99.410440 
1729.000000	99.414463 
1728.000000	99.412993 
1727.000000	99.410666 
1726.000000	99.410161 
1725.000000	99.410393 
1724.000000	99.409998 
1723.000000	99.410697 
1722.000000	99.415559 
1721.000000	99.424963 
1720.000000	99.434870 
1719.000000	99.438732 
1718.000000	99.432886 
1717.000000	99.423054 
1716.000000	99.414857 
1715.000000	99.407507 
1714.000000	99.402454 
1713.000000	99.402088 
1712.000000	99.403934 
1711.000000	99.404752 
1710.000000	99.404639 
1709.000000	99.405885 
1708.000000	99.409362 
1707.000000	99.413362 
1706.000000	99.417977 
1705.000000	99.424861 
1704.000000	99.431007 
1703.000000	99.428957 
1702.000000	99.414276 
1701.000000	99.395335 
1700.000000	99.390084 
1699.000000	99.393595 
1698.000000	99.397115 
1697.000000	99.401643 
1696.000000	99.407928 
1695.000000	99.410607 
1694.000000	99.409046 
1693.000000	99.407552 
1692.000000	99.405402 
1691.000000	99.401092 
1690.000000	99.396682 
1689.000000	99.395507 
1688.000000	99.397362 
1687.000000	99.397590 
1686.000000	99.393375 
1685.000000	99.389668 
1684.000000	99.393711 
1683.000000	99.398483 
1682.000000	99.401168 
1681.000000	99.401530 
1680.000000	99.400677 
1679.000000	99.399936 
1678.000000	99.399688 
1677.000000	99.398838 
1676.000000	99.397343 
1675.000000	99.397320 
1674.000000	99.397645 
1673.000000	99.397035 
1672.000000	99.395992 
1671.000000	99.396136 
1670.000000	99.398683 
1669.000000	99.400910 
1668.000000	99.400893 
1667.000000	99.401062 
1666.000000	99.400848 
1665.000000	99.397878 
1664.000000	99.393166 
1663.000000	99.392117 
1662.000000	99.397122 
1661.000000	99.403587 
1660.000000	99.406949 
1659.000000	99.407979 
1658.000000	99.409279 
1657.000000	99.411017 
1656.000000	99.408531 
1655.000000	99.399069 
1654.000000	99.390676 
1653.000000	99.395013 
1652.000000	99.395680 
1651.000000	99.394324 
1650.000000	99.392080 
1649.000000	99.387749 
1648.000000	99.380123 
1647.000000	99.371798 
1646.000000	99.365432 
1645.000000	99.364653 
1644.000000	99.370084 
1643.000000	99.377721 
1642.000000	99.383653 
1641.000000	99.386662 
1640.000000	99.387579 
1639.000000	99.387439 
1638.000000	99.386634 
1637.000000	99.385363 
1636.000000	99.384053 
1635.000000	99.382842 
1634.000000	99.383753 
1633.000000	99.387549 
1632.000000	99.391094 
1631.000000	99.393221 
1630.000000	99.394802 
1629.000000	99.395650 
1628.000000	99.393891 
1627.000000	99.390394 
1626.000000	99.388753 
1625.000000	99.390901 
1624.000000	99.395718 
1623.000000	99.401334 
1622.000000	99.406271 
1621.000000	99.409706 
1620.000000	99.411191 
1619.000000	99.410632 
1618.000000	99.409220 
1617.000000	99.408119 
1616.000000	99.406115 
1615.000000	99.404184 
1614.000000	99.403703 
1613.000000	99.402083 
1612.000000	99.398108 
1611.000000	99.394340 
1610.000000	99.393431 
1609.000000	99.393667 
1608.000000	99.392373 
1607.000000	99.390870 
1606.000000	99.391064 
1605.000000	99.392177 
1604.000000	99.393759 
1603.000000	99.397469 
1602.000000	99.403176 
1601.000000	99.406999 
1600.000000	99.406778 
1599.000000	99.405701 
1598.000000	99.407321 
1597.000000	99.410841 
1596.000000	99.413714 
1595.000000	99.416129 
1594.000000	99.419629 
1593.000000	99.422713 
1592.000000	99.422794 
1591.000000	99.421312 
1590.000000	99.422320 
1589.000000	99.426216 
1588.000000	99.429621 
1587.000000	99.430826 
1586.000000	99.430425 
1585.000000	99.427748 
1584.000000	99.422309 
1583.000000	99.416710 
1582.000000	99.414922 
1581.000000	99.417620 
1580.000000	99.422661 
1579.000000	99.427930 
1578.000000	99.431404 
1577.000000	99.429848 
1576.000000	99.422523 
1575.000000	99.416638 
1574.000000	99.418610 
1573.000000	99.423693 
1572.000000	99.425706 
1571.000000	99.424965 
1570.000000	99.426270 
1569.000000	99.428344 
1568.000000	99.427267 
1567.000000	99.424810 
1566.000000	99.422639 
1565.000000	99.420922 
1564.000000	99.421421 
1563.000000	99.426896 
1562.000000	99.435719 
1561.000000	99.438596 
1560.000000	99.428696 
1559.000000	99.420347 
1558.000000	99.419448 
1557.000000	99.421439 
1556.000000	99.424649 
1555.000000	99.426407 
1554.000000	99.424479 
1553.000000	99.419506 
1552.000000	99.415307 
1551.000000	99.414644 
1550.000000	99.417639 
1549.000000	99.420843 
1548.000000	99.421324 
1547.000000	99.419165 
1546.000000	99.415496 
1545.000000	99.412345 
1544.000000	99.410701 
1543.000000	99.408133 
1542.000000	99.403812 
1541.000000	99.402704 
1540.000000	99.405200 
1539.000000	99.403970 
1538.000000	99.402471 
1537.000000	99.404608 
1536.000000	99.407394 
1535.000000	99.408230 
1534.000000	99.408366 
1533.000000	99.409263 
1532.000000	99.407962 
1531.000000	99.402798 
1530.000000	99.396649 
1529.000000	99.393010 
1528.000000	99.391361 
1527.000000	99.389268 
1526.000000	99.386381 
1525.000000	99.385095 
1524.000000	99.385766 
1523.000000	99.386366 
1522.000000	99.387613 
1521.000000	99.391048 
1520.000000	99.391359 
1519.000000	99.385474 
1518.000000	99.376311 
1517.000000	99.369508 
1516.000000	99.366508 
1515.000000	99.364043 
1514.000000	99.360326 
1513.000000	99.356671 
1512.000000	99.355345 
1511.000000	99.356059 
1510.000000	99.355666 
1509.000000	99.352058 
1508.000000	99.349211 
1507.000000	99.352314 
1506.000000	99.352397 
1505.000000	99.346067 
1504.000000	99.340735 
1503.000000	99.336760 
1502.000000	99.333673 
1501.000000	99.332547 
1500.000000	99.334829 
1499.000000	99.338639 
1498.000000	99.339405 
1497.000000	99.338209 
1496.000000	99.339835 
1495.000000	99.341496 
1494.000000	99.337540 
1493.000000	99.327594 
1492.000000	99.315195 
1491.000000	99.305461 
1490.000000	99.301799 
1489.000000	99.302917 
1488.000000	99.303126 
1487.000000	99.298422 
1486.000000	99.292380 
1485.000000	99.288341 
1484.000000	99.285191 
1483.000000	99.281005 
1482.000000	99.274854 
1481.000000	99.267489 
1480.000000	99.259874 
1479.000000	99.252458 
1478.000000	99.246171 
1477.000000	99.242714 
1476.000000	99.241802 
1475.000000	99.239292 
1474.000000	99.234420 
1473.000000	99.233756 
1472.000000	99.240454 
1471.000000	99.246086 
1470.000000	99.246227 
1469.000000	99.244808 
1468.000000	99.246201 
1467.000000	99.250288 
1466.000000	99.254062 
1465.000000	99.255473 
1464.000000	99.254168 
1463.000000	99.251211 
1462.000000	99.248656 
1461.000000	99.248456 
1460.000000	99.250227 
1459.000000	99.249936 
1458.000000	99.238841 
1457.000000	99.212157 
1456.000000	99.179088 
1455.000000	99.152827 
1454.000000	99.135984 
1453.000000	99.126459 
1452.000000	99.121855 
1451.000000	99.120278 
1450.000000	99.122566 
1449.000000	99.132823 
1448.000000	99.151576 
1447.000000	99.170304 
1446.000000	99.180445 
1445.000000	99.183378 
1444.000000	99.184497 
1443.000000	99.185074 
1442.000000	99.183771 
1441.000000	99.181561 
1440.000000	99.181971 
1439.000000	99.186120 
1438.000000	99.189896 
1437.000000	99.189130 
1436.000000	99.184161 
1435.000000	99.176433 
1434.000000	99.168313 
1433.000000	99.163531 
1432.000000	99.163676 
1431.000000	99.166636 
1430.000000	99.166975 
1429.000000	99.161463 
1428.000000	99.152613 
1427.000000	99.143873 
1426.000000	99.134697 
1425.000000	99.122368 
1424.000000	99.108411 
1423.000000	99.096430 
1422.000000	99.084108 
1421.000000	99.065055 
1420.000000	99.036544 
1419.000000	99.002568 
1418.000000	98.964138 
1417.000000	98.921289 
1416.000000	98.879117 
1415.000000	98.840508 
1414.000000	98.802338 
1413.000000	98.760539 
1412.000000	98.717654 
1411.000000	98.680590 
1410.000000	98.651102 
1409.000000	98.627000 
1408.000000	98.609362 
1407.000000	98.600874 
1406.000000	98.600765 
1405.000000	98.607621 
1404.000000	98.624811 
1403.000000	98.653117 
1402.000000	98.684469 
1401.000000	98.711552 
1400.000000	98.735248 
1399.000000	98.756088 
1398.000000	98.757919 
1397.000000	98.716349 
1396.000000	98.628400 
1395.000000	98.533508 
1394.000000	98.492317 
1393.000000	98.528685 
1392.000000	98.615828 
1391.000000	98.710178 
1390.000000	98.779461 
1389.000000	98.811100 
1388.000000	98.809354 
1387.000000	98.787698 
1386.000000	98.759432 
1385.000000	98.733620 
1384.000000	98.715941 
1383.000000	98.708626 
1382.000000	98.710094 
1381.000000	98.717937 
1380.000000	98.731271 
1379.000000	98.749941 
1378.000000	98.772338 
1377.000000	98.795896 
1376.000000	98.820074 
1375.000000	98.846633 
1374.000000	98.875637 
1373.000000	98.903402 
1372.000000	98.927651 
1371.000000	98.950918 
1370.000000	98.977018 
1369.000000	99.005144 
1368.000000	99.031815 
1367.000000	99.055470 
1366.000000	99.077215 
1365.000000	99.098444 
1364.000000	99.118515 
1363.000000	99.135534 
1362.000000	99.149145 
1361.000000	99.160812 
1360.000000	99.171869 
1359.000000	99.182882 
1358.000000	99.194463 
1357.000000	99.206967 
1356.000000	99.219641 
1355.000000	99.230719 
1354.000000	99.239152 
1353.000000	99.245737 
1352.000000	99.250893 
1351.000000	99.253655 
1350.000000	99.254851 
1349.000000	99.256083 
1348.000000	99.258868 
1347.000000	99.263959 
1346.000000	99.271346 
1345.000000	99.279549 
1344.000000	99.286275 
1343.000000	99.290445 
1342.000000	99.293237 
1341.000000	99.295944 
1340.000000	99.297735 
1339.000000	99.296900 
1338.000000	99.293661 
1337.000000	99.290544 
1336.000000	99.289712 
1335.000000	99.290923 
1334.000000	99.292988 
1333.000000	99.295857 
1332.000000	99.299848 
1331.000000	99.303901 
1330.000000	99.306030 
1329.000000	99.305256 
1328.000000	99.302806 
1327.000000	99.301001 
1326.000000	99.301133 
1325.000000	99.301843 
1324.000000	99.301930 
1323.000000	99.302074 
1322.000000	99.302927 
1321.000000	99.303351 
1320.000000	99.302200 
1319.000000	99.300420 
1318.000000	99.299766 
1317.000000	99.300468 
1316.000000	99.301215 
1315.000000	99.300786 
1314.000000	99.298826 
1313.000000	99.296029 
1312.000000	99.293900 
1311.000000	99.293675 
1310.000000	99.295161 
1309.000000	99.297019 
1308.000000	99.298059 
1307.000000	99.297559 
1306.000000	99.295246 
1305.000000	99.291420 
1304.000000	99.288407 
1303.000000	99.289104 
1302.000000	99.293665 
1301.000000	99.298666 
1300.000000	99.300318 
1299.000000	99.297388 
1298.000000	99.291110 
1297.000000	99.284004 
1296.000000	99.278987 
1295.000000	99.278133 
1294.000000	99.280707 
1293.000000	99.283379 
1292.000000	99.282973 
1291.000000	99.278356 
1290.000000	99.270236 
1289.000000	99.260660 
1288.000000	99.252439 
1287.000000	99.246965 
1286.000000	99.242126 
1285.000000	99.234590 
1284.000000	99.224595 
1283.000000	99.215961 
1282.000000	99.210780 
1281.000000	99.206627 
1280.000000	99.200103 
1279.000000	99.190803 
1278.000000	99.179902 
1277.000000	99.167407 
1276.000000	99.152976 
1275.000000	99.138075 
1274.000000	99.124644 
1273.000000	99.112523 
1272.000000	99.100018 
1271.000000	99.085872 
1270.000000	99.068975 
1269.000000	99.047811 
1268.000000	99.022526 
1267.000000	98.996116 
1266.000000	98.971125 
1265.000000	98.946894 
1264.000000	98.922058 
1263.000000	98.897584 
1262.000000	98.874954 
1261.000000	98.853565 
1260.000000	98.832848 
1259.000000	98.814998 
1258.000000	98.801742 
1257.000000	98.790728 
1256.000000	98.778674 
1255.000000	98.766302 
1254.000000	98.756110 
1253.000000	98.746952 
1252.000000	98.735758 
1251.000000	98.724542 
1250.000000	98.720708 
1249.000000	98.729535 
1248.000000	98.749973 
1247.000000	98.776895 
1246.000000	98.801508 
1245.000000	98.810053 
1244.000000	98.791415 
1243.000000	98.752726 
1242.000000	98.722149 
1241.000000	98.726705 
1240.000000	98.766196 
1239.000000	98.813216 
1238.000000	98.839112 
1237.000000	98.836321 
1236.000000	98.815691 
1235.000000	98.789589 
1234.000000	98.762895 
1233.000000	98.736667 
1232.000000	98.713367 
1231.000000	98.696017 
1230.000000	98.685063 
1229.000000	98.678660 
1228.000000	98.675474 
1227.000000	98.675912 
1226.000000	98.680963 
1225.000000	98.690522 
1224.000000	98.702604 
1223.000000	98.713963 
1222.000000	98.722140 
1221.000000	98.727429 
1220.000000	98.732501 
1219.000000	98.739889 
1218.000000	98.749901 
1217.000000	98.760770 
1216.000000	98.770030 
1215.000000	98.775791 
1214.000000	98.777838 
1213.000000	98.777941 
1212.000000	98.778091 
1211.000000	98.777834 
1210.000000	98.774528 
1209.000000	98.766904 
1208.000000	98.757062 
1207.000000	98.747993 
1206.000000	98.740425 
1205.000000	98.733391 
1204.000000	98.726559 
1203.000000	98.719959 
1202.000000	98.711889 
1201.000000	98.699400 
1200.000000	98.681625 
1199.000000	98.661447 
1198.000000	98.643080 
1197.000000	98.628806 
1196.000000	98.618182 
1195.000000	98.609120 
1194.000000	98.599042 
1193.000000	98.585791 
1192.000000	98.568566 
1191.000000	98.548424 
1190.000000	98.528064 
1189.000000	98.510931 
1188.000000	98.499370 
1187.000000	98.492370 
1186.000000	98.485393 
1185.000000	98.473678 
1184.000000	98.455650 
1183.000000	98.432652 
1182.000000	98.406625 
1181.000000	98.379641 
1180.000000	98.354691 
1179.000000	98.334156 
1178.000000	98.316678 
1177.000000	98.297650 
1176.000000	98.274012 
1175.000000	98.247258 
1174.000000	98.220903 
1173.000000	98.196333 
1172.000000	98.172628 
1171.000000	98.149256 
1170.000000	98.126987 
1169.000000	98.106216 
1168.000000	98.085764 
1167.000000	98.064003 
1166.000000	98.041142 
1165.000000	98.020567 
1164.000000	98.007673 
1163.000000	98.006398 
1162.000000	98.016197 
1161.000000	98.032347 
1160.000000	98.048996 
1159.000000	98.061852 
1158.000000	98.068839 
1157.000000	98.069277 
1156.000000	98.062512 
1155.000000	98.047287 
1154.000000	98.023140 
1153.000000	97.992662 
1152.000000	97.961163 
1151.000000	97.932988 
1150.000000	97.908749 
1149.000000	97.886787 
1148.000000	97.865819 
1147.000000	97.844494 
1146.000000	97.820067 
1145.000000	97.790593 
1144.000000	97.758268 
1143.000000	97.728009 
1142.000000	97.702198 
1141.000000	97.678760 
1140.000000	97.654552 
1139.000000	97.628331 
1138.000000	97.600156 
1137.000000	97.570448 
1136.000000	97.540724 
1135.000000	97.513388 
1134.000000	97.489609 
1133.000000	97.468320 
1132.000000	97.447379 
1131.000000	97.424381 
1130.000000	97.396816 
1129.000000	97.363649 
1128.000000	97.326920 
1127.000000	97.289969 
1126.000000	97.254208 
1125.000000	97.219396 
1124.000000	97.186171 
1123.000000	97.155206 
1122.000000	97.124081 
1121.000000	97.088576 
1120.000000	97.047693 
1119.000000	97.004214 
1118.000000	96.959801 
1117.000000	96.913119 
1116.000000	96.863728 
1115.000000	96.813902 
1114.000000	96.764632 
1113.000000	96.713312 
1112.000000	96.657960 
1111.000000	96.601239 
1110.000000	96.547730 
1109.000000	96.498965 
1108.000000	96.453269 
1107.000000	96.408276 
1106.000000	96.362381 
1105.000000	96.315427 
1104.000000	96.269065 
1103.000000	96.225119 
1102.000000	96.183730 
1101.000000	96.144860 
1100.000000	96.111575 
1099.000000	96.085884 
1098.000000	96.064783 
1097.000000	96.042780 
1096.000000	96.018609 
1095.000000	95.993459 
1094.000000	95.961901 
1093.000000	95.911424 
1092.000000	95.834751 
1091.000000	95.738568 
1090.000000	95.636768 
1089.000000	95.538233 
1088.000000	95.444020 
1087.000000	95.352518 
1086.000000	95.262930 
1085.000000	95.175494 
1084.000000	95.091147 
1083.000000	95.009917 
1082.000000	94.929306 
1081.000000	94.847327 
1080.000000	94.767452 
1079.000000	94.696552 
1078.000000	94.637755 
1077.000000	94.590202 
1076.000000	94.555843 
1075.000000	94.539865 
1074.000000	94.543131 
1073.000000	94.559597 
1072.000000	94.579255 
1071.000000	94.584139 
1070.000000	94.544085 
1069.000000	94.435469 
1068.000000	94.275840 
1067.000000	94.129577 
1066.000000	94.062415 
1065.000000	94.088063 
1064.000000	94.164273 
1063.000000	94.233027 
1062.000000	94.254862 
1061.000000	94.214635 
1060.000000	94.118097 
1059.000000	93.993904 
1058.000000	93.886066 
1057.000000	93.826767 
1056.000000	93.812810 
1055.000000	93.812451 
1054.000000	93.796149 
1053.000000	93.759791 
1052.000000	93.719680 
1051.000000	93.690058 
1050.000000	93.670067 
1049.000000	93.651664 
1048.000000	93.632932 
1047.000000	93.618314 
1046.000000	93.609536 
1045.000000	93.602881 
1044.000000	93.595863 
1043.000000	93.592002 
1042.000000	93.596182 
1041.000000	93.606810 
1040.000000	93.616410 
1039.000000	93.622467 
1038.000000	93.636181 
1037.000000	93.675432 
1036.000000	93.746316 
1035.000000	93.835114 
1034.000000	93.921841 
1033.000000	93.996026 
1032.000000	94.050975 
1031.000000	94.069840 
1030.000000	94.037294 
1029.000000	93.971385 
1028.000000	93.927223 
1027.000000	93.952846 
1026.000000	94.044318 
1025.000000	94.154167 
1024.000000	94.238895 
1023.000000	94.287348 
1022.000000	94.309952 
1021.000000	94.318605 
1020.000000	94.321505 
1019.000000	94.325065 
1018.000000	94.331869 
1017.000000	94.340380 
1016.000000	94.350421 
1015.000000	94.365529 
1014.000000	94.388161 
1013.000000	94.416353 
1012.000000	94.446464 
1011.000000	94.475804 
1010.000000	94.502392 
1009.000000	94.526267 
1008.000000	94.551342 
1007.000000	94.581963 
1006.000000	94.617447 
1005.000000	94.653734 
1004.000000	94.689810 
1003.000000	94.727833 
1002.000000	94.767326 
1001.000000	94.804594 
1000.000000	94.838457 
999.000000	 94.871557 
998.000000	 94.904899 
997.000000	 94.935809 
996.000000	 94.962989 
995.000000	 94.989669 
994.000000	 95.019793 
993.000000	 95.053775 
992.000000	 95.089207 
991.000000	 95.123196 
990.000000	 95.153409 
989.000000	 95.179489 
988.000000	 95.204141 
987.000000	 95.230736 
986.000000	 95.259878 
985.000000	 95.290493 
984.000000	 95.323556 
983.000000	 95.361649 
982.000000	 95.405178 
981.000000	 95.451916 
980.000000	 95.499749 
979.000000	 95.547085 
978.000000	 95.591805 
977.000000	 95.633597 
976.000000	 95.676515 
975.000000	 95.725207 
974.000000	 95.778818 
973.000000	 95.832434 
972.000000	 95.884154 
971.000000	 95.936348 
970.000000	 95.989822 
969.000000	 96.041450 
968.000000	 96.089005 
967.000000	 96.134383 
966.000000	 96.180096 
965.000000	 96.225403 
964.000000	 96.267867 
963.000000	 96.306713 
962.000000	 96.343098 
961.000000	 96.378616 
960.000000	 96.414651 
959.000000	 96.451726 
958.000000	 96.488412 
957.000000	 96.522105 
956.000000	 96.551969 
955.000000	 96.580477 
954.000000	 96.611258 
953.000000	 96.645388 
952.000000	 96.679724 
951.000000	 96.708998 
950.000000	 96.730488 
949.000000	 96.746955 
948.000000	 96.763876 
947.000000	 96.783689 
946.000000	 96.804458 
945.000000	 96.824340 
944.000000	 96.844277 
943.000000	 96.864590 
942.000000	 96.881975 
941.000000	 96.892937 
940.000000	 96.898498 
939.000000	 96.902898 
938.000000	 96.909199 
937.000000	 96.918556 
936.000000	 96.931671 
935.000000	 96.947343 
934.000000	 96.960931 
933.000000	 96.968253 
932.000000	 96.970938 
931.000000	 96.974938 
930.000000	 96.984012 
929.000000	 96.997259 
928.000000	 97.012350 
927.000000	 97.027780 
926.000000	 97.041963 
925.000000	 97.053261 
924.000000	 97.061536 
923.000000	 97.067522 
922.000000	 97.070650 
921.000000	 97.069616 
920.000000	 97.065057 
919.000000	 97.059609 
918.000000	 97.055225 
917.000000	 97.052087 
916.000000	 97.049762 
915.000000	 97.047694 
914.000000	 97.045154 
913.000000	 97.042591 
912.000000	 97.042240 
911.000000	 97.045293 
910.000000	 97.049357 
909.000000	 97.051059 
908.000000	 97.050483 
907.000000	 97.050819 
906.000000	 97.054439 
905.000000	 97.061559 
904.000000	 97.071959 
903.000000	 97.085861 
902.000000	 97.103878 
901.000000	 97.127710 
900.000000	 97.159263 
899.000000	 97.197016 
898.000000	 97.235148 
897.000000	 97.268026 
896.000000	 97.293387 
895.000000	 97.310221 
894.000000	 97.318581 
893.000000	 97.325077 
892.000000	 97.343501 
891.000000	 97.383367 
890.000000	 97.439250 
889.000000	 97.496226 
888.000000	 97.543616 
887.000000	 97.578669 
886.000000	 97.600937 
885.000000	 97.611269 
884.000000	 97.615398 
883.000000	 97.620540 
882.000000	 97.627261 
881.000000	 97.631612 
880.000000	 97.636735 
879.000000	 97.654577 
878.000000	 97.691767 
877.000000	 97.739069 
876.000000	 97.779191 
875.000000	 97.801551 
874.000000	 97.807432 
873.000000	 97.805690 
872.000000	 97.807480 
871.000000	 97.821405 
870.000000	 97.847954 
869.000000	 97.878643 
868.000000	 97.903560 
867.000000	 97.920278 
866.000000	 97.934855 
865.000000	 97.954995 
864.000000	 97.983224 
863.000000	 98.016185 
862.000000	 98.049366 
861.000000	 98.081679 
860.000000	 98.114889 
859.000000	 98.149569 
858.000000	 98.184174 
857.000000	 98.218530 
856.000000	 98.254627 
855.000000	 98.291540 
854.000000	 98.322639 
853.000000	 98.341733 
852.000000	 98.350465 
851.000000	 98.356068 
850.000000	 98.362959 
849.000000	 98.370417 
848.000000	 98.377908 
847.000000	 98.388002 
846.000000	 98.402692 
845.000000	 98.420249 
844.000000	 98.437381 
843.000000	 98.451959 
842.000000	 98.462013 
841.000000	 98.464485 
840.000000	 98.457893 
839.000000	 98.445941 
838.000000	 98.435932 
837.000000	 98.431827 
836.000000	 98.429645 
835.000000	 98.422290 
834.000000	 98.409966 
833.000000	 98.402313 
832.000000	 98.405571 
831.000000	 98.409729 
830.000000	 98.397061 
829.000000	 98.366912 
828.000000	 98.343323 
827.000000	 98.349187 
826.000000	 98.377717 
825.000000	 98.401075 
824.000000	 98.405458 
823.000000	 98.403871 
822.000000	 98.412708 
821.000000	 98.430233 
820.000000	 98.443693 
819.000000	 98.446079 
818.000000	 98.439218 
817.000000	 98.427333 
816.000000	 98.413444 
815.000000	 98.398517 
814.000000	 98.379575 
813.000000	 98.350916 
812.000000	 98.310461 
811.000000	 98.262659 
810.000000	 98.211924 
809.000000	 98.154949 
808.000000	 98.082698 
807.000000	 97.988659 
806.000000	 97.873137 
805.000000	 97.741992 
804.000000	 97.605425 
803.000000	 97.477229 
802.000000	 97.370141 
801.000000	 97.289842 
800.000000	 97.234368 
799.000000	 97.198865 
798.000000	 97.180286 
797.000000	 97.178929 
796.000000	 97.196039 
795.000000	 97.228913 
794.000000	 97.269367 
793.000000	 97.309234 
792.000000	 97.345692 
791.000000	 97.377820 
790.000000	 97.399982 
789.000000	 97.404428 
788.000000	 97.390917 
787.000000	 97.368344 
786.000000	 97.344842 
785.000000	 97.320214 
784.000000	 97.290369 
783.000000	 97.255083 
782.000000	 97.218079 
781.000000	 97.182770 
780.000000	 97.151635 
779.000000	 97.127882 
778.000000	 97.114894 
777.000000	 97.115515 
776.000000	 97.132910 
775.000000	 97.168625 
774.000000	 97.217505 
773.000000	 97.268183 
772.000000	 97.311770 
771.000000	 97.347536 
770.000000	 97.377597 
769.000000	 97.399724 
768.000000	 97.410452 
767.000000	 97.413716 
766.000000	 97.420264 
765.000000	 97.436488 
764.000000	 97.457546 
763.000000	 97.473587 
762.000000	 97.480532 
761.000000	 97.482891 
760.000000	 97.487969 
759.000000	 97.499778 
758.000000	 97.517419 
757.000000	 97.536812 
756.000000	 97.553952 
755.000000	 97.568635 
754.000000	 97.585481 
753.000000	 97.609385 
752.000000	 97.639327 
751.000000	 97.667723 
750.000000	 97.686349 
749.000000	 97.692049 
748.000000	 97.687474 
747.000000	 97.679838 
746.000000	 97.679807 
745.000000	 97.696277 
744.000000	 97.727235 
743.000000	 97.758273 
742.000000	 97.775754 
741.000000	 97.780979 
740.000000	 97.787028 
739.000000	 97.802855 
738.000000	 97.825589 
737.000000	 97.847746 
736.000000	 97.865579 
735.000000	 97.879468 
734.000000	 97.892516 
733.000000	 97.910556 
732.000000	 97.937467 
731.000000	 97.967206 
730.000000	 97.985995 
729.000000	 97.985917 
728.000000	 97.973741 
727.000000	 97.962727 
726.000000	 97.958677 
725.000000	 97.960309 
724.000000	 97.968607 
723.000000	 97.986825 
722.000000	 98.012052 
721.000000	 98.034233 
720.000000	 98.045108 
719.000000	 98.043769 
718.000000	 98.033760 
717.000000	 98.021026 
716.000000	 98.014438 
715.000000	 98.021105 
714.000000	 98.038371 
713.000000	 98.054943 
712.000000	 98.062894 
711.000000	 98.064545 
710.000000	 98.066116 
709.000000	 98.068341 
708.000000	 98.066824 
707.000000	 98.059991 
706.000000	 98.050929 
705.000000	 98.043739 
704.000000	 98.040010 
703.000000	 98.035287 
702.000000	 98.020030 
701.000000	 97.986984 
700.000000	 97.936535 
699.000000	 97.875727 
698.000000	 97.810425 
697.000000	 97.742066 
696.000000	 97.673692 
695.000000	 97.613786 
694.000000	 97.576335 
693.000000	 97.575464 
692.000000	 97.614344 
691.000000	 97.678564 
690.000000	 97.741328 
689.000000	 97.783073 
688.000000	 97.806680 
687.000000	 97.828232 
686.000000	 97.857317 
685.000000	 97.889750 
684.000000	 97.915074 
683.000000	 97.927221 
682.000000	 97.928894 
681.000000	 97.930505 
680.000000	 97.942828 
679.000000	 97.966514 
678.000000	 97.987773 
677.000000	 97.985998 
676.000000	 97.959338 
675.000000	 97.934989 
674.000000	 97.941005 
673.000000	 97.975997 
672.000000	 98.019808 
671.000000	 98.065813 
670.000000	 98.129716 
669.000000	 98.214247 
668.000000	 98.254311 
667.000000	 98.204074 
666.000000	 98.137723 
665.000000	 98.095689 
664.000000	 98.067374 
663.000000	 98.040281 
662.000000	 98.012909 
661.000000	 97.993452 
660.000000	 97.992607 
659.000000	 98.009441 
658.000000	 98.023554 
657.000000	 98.011161 
656.000000	 97.978875 
655.000000	 97.959115 
654.000000	 97.960193 
653.000000	 97.951136 
652.000000	 97.911066 
651.000000	 97.861755 
650.000000	 97.837673 

