4000.000000	99.465637 
3999.000000	99.465719 
3998.000000	99.465847 
3997.000000	99.465545 
3996.000000	99.464315 
3995.000000	99.462142 
3994.000000	99.459817 
3993.000000	99.458452 
3992.000000	99.458587 
3991.000000	99.459845 
3990.000000	99.461258 
3989.000000	99.462172 
3988.000000	99.462757 
3987.000000	99.463540 
3986.000000	99.464641 
3985.000000	99.465571 
3984.000000	99.465702 
3983.000000	99.464812 
3982.000000	99.463163 
3981.000000	99.461235 
3980.000000	99.459398 
3979.000000	99.457784 
3978.000000	99.456457 
3977.000000	99.455613 
3976.000000	99.455570 
3975.000000	99.456534 
3974.000000	99.458424 
3973.000000	99.460818 
3972.000000	99.463040 
3971.000000	99.464432 
3970.000000	99.464611 
3969.000000	99.463620 
3968.000000	99.461955 
3967.000000	99.460309 
3966.000000	99.459194 
3965.000000	99.458778 
3964.000000	99.458867 
3963.000000	99.458996 
3962.000000	99.458678 
3961.000000	99.457758 
3960.000000	99.456537 
3959.000000	99.455552 
3958.000000	99.455147 
3957.000000	99.455203 
3956.000000	99.455332 
3955.000000	99.455240 
3954.000000	99.454903 
3953.000000	99.454464 
3952.000000	99.454053 
3951.000000	99.453768 
3950.000000	99.453633 
3949.000000	99.453538 
3948.000000	99.453280 
3947.000000	99.452759 
3946.000000	99.452173 
3945.000000	99.451939 
3944.000000	99.452297 
3943.000000	99.452873 
3942.000000	99.452957 
3941.000000	99.452261 
3940.000000	99.451120 
3939.000000	99.450012 
3938.000000	99.449107 
3937.000000	99.448328 
3936.000000	99.447765 
3935.000000	99.447791 
3934.000000	99.448754 
3933.000000	99.450563 
3932.000000	99.452544 
3931.000000	99.453758 
3930.000000	99.453596 
3929.000000	99.452228 
3928.000000	99.450548 
3927.000000	99.449560 
3926.000000	99.449730 
3925.000000	99.450697 
3924.000000	99.451540 
3923.000000	99.451629 
3922.000000	99.451060 
3921.000000	99.450443 
3920.000000	99.450394 
3919.000000	99.451202 
3918.000000	99.452748 
3917.000000	99.454517 
3916.000000	99.455837 
3915.000000	99.456367 
3914.000000	99.456375 
3913.000000	99.456384 
3912.000000	99.456591 
3911.000000	99.456826 
3910.000000	99.456982 
3909.000000	99.457182 
3908.000000	99.457512 
3907.000000	99.457593 
3906.000000	99.456670 
3905.000000	99.454182 
3904.000000	99.450287 
3903.000000	99.446127 
3902.000000	99.443256 
3901.000000	99.442541 
3900.000000	99.443863 
3899.000000	99.446273 
3898.000000	99.448586 
3897.000000	99.450064 
3896.000000	99.450477 
3895.000000	99.449942 
3894.000000	99.448868 
3893.000000	99.447748 
3892.000000	99.446842 
3891.000000	99.446030 
3890.000000	99.445136 
3889.000000	99.444174 
3888.000000	99.443415 
3887.000000	99.443272 
3886.000000	99.443748 
3885.000000	99.444229 
3884.000000	99.444224 
3883.000000	99.443994 
3882.000000	99.444181 
3881.000000	99.444943 
3880.000000	99.445765 
3879.000000	99.446109 
3878.000000	99.446043 
3877.000000	99.446022 
3876.000000	99.446381 
3875.000000	99.446947 
3874.000000	99.447211 
3873.000000	99.446977 
3872.000000	99.446598 
3871.000000	99.446533 
3870.000000	99.446818 
3869.000000	99.447182 
3868.000000	99.447435 
3867.000000	99.447610 
3866.000000	99.447809 
3865.000000	99.448061 
3864.000000	99.448331 
3863.000000	99.448608 
3862.000000	99.448912 
3861.000000	99.449256 
3860.000000	99.449624 
3859.000000	99.449991 
3858.000000	99.450352 
3857.000000	99.450708 
3856.000000	99.451061 
3855.000000	99.451417 
3854.000000	99.451780 
3853.000000	99.452150 
3852.000000	99.452528 
3851.000000	99.452911 
3850.000000	99.453297 
3849.000000	99.453680 
3848.000000	99.454057 
3847.000000	99.454423 
3846.000000	99.454777 
3845.000000	99.455120 
3844.000000	99.455457 
3843.000000	99.455793 
3842.000000	99.456131 
3841.000000	99.456468 
3840.000000	99.456796 
3839.000000	99.457112 
3838.000000	99.457415 
3837.000000	99.457710 
3836.000000	99.457999 
3835.000000	99.458284 
3834.000000	99.458566 
3833.000000	99.458840 
3832.000000	99.459102 
3831.000000	99.459348 
3830.000000	99.459575 
3829.000000	99.459782 
3828.000000	99.459970 
3827.000000	99.460145 
3826.000000	99.460311 
3825.000000	99.460473 
3824.000000	99.460634 
3823.000000	99.460797 
3822.000000	99.460964 
3821.000000	99.461132 
3820.000000	99.461296 
3819.000000	99.461451 
3818.000000	99.461594 
3817.000000	99.461724 
3816.000000	99.461839 
3815.000000	99.461938 
3814.000000	99.462020 
3813.000000	99.462088 
3812.000000	99.462149 
3811.000000	99.462206 
3810.000000	99.462257 
3809.000000	99.462299 
3808.000000	99.462328 
3807.000000	99.462347 
3806.000000	99.462358 
3805.000000	99.462366 
3804.000000	99.462370 
3803.000000	99.462371 
3802.000000	99.462363 
3801.000000	99.462339 
3800.000000	99.462291 
3799.000000	99.462218 
3798.000000	99.462129 
3797.000000	99.462029 
3796.000000	99.461922 
3795.000000	99.461807 
3794.000000	99.461685 
3793.000000	99.461558 
3792.000000	99.461426 
3791.000000	99.461295 
3790.000000	99.461168 
3789.000000	99.461050 
3788.000000	99.460941 
3787.000000	99.460842 
3786.000000	99.460747 
3785.000000	99.460653 
3784.000000	99.460557 
3783.000000	99.460458 
3782.000000	99.460353 
3781.000000	99.460251 
3780.000000	99.460153 
3779.000000	99.460022 
3778.000000	99.459813 
3777.000000	99.459519 
3776.000000	99.459177 
3775.000000	99.458843 
3774.000000	99.458542 
3773.000000	99.458275 
3772.000000	99.458034 
3771.000000	99.457805 
3770.000000	99.457542 
3769.000000	99.457198 
3768.000000	99.456790 
3767.000000	99.456399 
3766.000000	99.456084 
3765.000000	99.455831 
3764.000000	99.455552 
3763.000000	99.455169 
3762.000000	99.454680 
3761.000000	99.454148 
3760.000000	99.453656 
3759.000000	99.453247 
3758.000000	99.452938 
3757.000000	99.452744 
3756.000000	99.452599 
3755.000000	99.452369 
3754.000000	99.452013 
3753.000000	99.451698 
3752.000000	99.451552 
3751.000000	99.451299 
3750.000000	99.450744 
3749.000000	99.450248 
3748.000000	99.450046 
3747.000000	99.449825 
3746.000000	99.449283 
3745.000000	99.448500 
3744.000000	99.447711 
3743.000000	99.447003 
3742.000000	99.446077 
3741.000000	99.444470 
3740.000000	99.441994 
3739.000000	99.438820 
3738.000000	99.435914 
3737.000000	99.434932 
3736.000000	99.436627 
3735.000000	99.439468 
3734.000000	99.440809 
3733.000000	99.439828 
3732.000000	99.437777 
3731.000000	99.435932 
3730.000000	99.434251 
3729.000000	99.432161 
3728.000000	99.429914 
3727.000000	99.428291 
3726.000000	99.427144 
3725.000000	99.425462 
3724.000000	99.423148 
3723.000000	99.421633 
3722.000000	99.422086 
3721.000000	99.424069 
3720.000000	99.425877 
3719.000000	99.425920 
3718.000000	99.423954 
3717.000000	99.420740 
3716.000000	99.416866 
3715.000000	99.412383 
3714.000000	99.407473 
3713.000000	99.403151 
3712.000000	99.400350 
3711.000000	99.398888 
3710.000000	99.397756 
3709.000000	99.395999 
3708.000000	99.393355 
3707.000000	99.390151 
3706.000000	99.386975 
3705.000000	99.384391 
3704.000000	99.382587 
3703.000000	99.380817 
3702.000000	99.377373 
3701.000000	99.371136 
3700.000000	99.362977 
3699.000000	99.354973 
3698.000000	99.348732 
3697.000000	99.344551 
3696.000000	99.341449 
3695.000000	99.338142 
3694.000000	99.334390 
3693.000000	99.331135 
3692.000000	99.329194 
3691.000000	99.328172 
3690.000000	99.326453 
3689.000000	99.322861 
3688.000000	99.318122 
3687.000000	99.313604 
3686.000000	99.309720 
3685.000000	99.306615 
3684.000000	99.304726 
3683.000000	99.304229 
3682.000000	99.304457 
3681.000000	99.303903 
3680.000000	99.300839 
3679.000000	99.294083 
3678.000000	99.284305 
3677.000000	99.275427 
3676.000000	99.271926 
3675.000000	99.273468 
3674.000000	99.275697 
3673.000000	99.275531 
3672.000000	99.273251 
3671.000000	99.271690 
3670.000000	99.272265 
3669.000000	99.273394 
3668.000000	99.273836 
3667.000000	99.274110 
3666.000000	99.274841 
3665.000000	99.275763 
3664.000000	99.275964 
3663.000000	99.274852 
3662.000000	99.272672 
3661.000000	99.269880 
3660.000000	99.266598 
3659.000000	99.263100 
3658.000000	99.260564 
3657.000000	99.260305 
3656.000000	99.262022 
3655.000000	99.263878 
3654.000000	99.264321 
3653.000000	99.263326 
3652.000000	99.262009 
3651.000000	99.261421 
3650.000000	99.261419 
3649.000000	99.261783 
3648.000000	99.263574 
3647.000000	99.267273 
3646.000000	99.271697 
3645.000000	99.275634 
3644.000000	99.279041 
3643.000000	99.282608 
3642.000000	99.287061 
3641.000000	99.292310 
3640.000000	99.297394 
3639.000000	99.301053 
3638.000000	99.302559 
3637.000000	99.302341 
3636.000000	99.301626 
3635.000000	99.301254 
3634.000000	99.300715 
3633.000000	99.298886 
3632.000000	99.295838 
3631.000000	99.293587 
3630.000000	99.294573 
3629.000000	99.298050 
3628.000000	99.300429 
3627.000000	99.300632 
3626.000000	99.300517 
3625.000000	99.301830 
3624.000000	99.304868 
3623.000000	99.308847 
3622.000000	99.312959 
3621.000000	99.317091 
3620.000000	99.320861 
3619.000000	99.322841 
3618.000000	99.322200 
3617.000000	99.320206 
3616.000000	99.319035 
3615.000000	99.319980 
3614.000000	99.322481 
3613.000000	99.324725 
3612.000000	99.325684 
3611.000000	99.326167 
3610.000000	99.327576 
3609.000000	99.330245 
3608.000000	99.333086 
3607.000000	99.335142 
3606.000000	99.337023 
3605.000000	99.339995 
3604.000000	99.344471 
3603.000000	99.349655 
3602.000000	99.354294 
3601.000000	99.357749 
3600.000000	99.359895 
3599.000000	99.360534 
3598.000000	99.359558 
3597.000000	99.357485 
3596.000000	99.355501 
3595.000000	99.354940 
3594.000000	99.356180 
3593.000000	99.358378 
3592.000000	99.360215 
3591.000000	99.360804 
3590.000000	99.360440 
3589.000000	99.360477 
3588.000000	99.361908 
3587.000000	99.363897 
3586.000000	99.364961 
3585.000000	99.364886 
3584.000000	99.364807 
3583.000000	99.365755 
3582.000000	99.367706 
3581.000000	99.369662 
3580.000000	99.370609 
3579.000000	99.370367 
3578.000000	99.369523 
3577.000000	99.368867 
3576.000000	99.368796 
3575.000000	99.369221 
3574.000000	99.369790 
3573.000000	99.370173 
3572.000000	99.370335 
3571.000000	99.370503 
3570.000000	99.370812 
3569.000000	99.371220 
3568.000000	99.371598 
3567.000000	99.371727 
3566.000000	99.371538 
3565.000000	99.371340 
3564.000000	99.371622 
3563.000000	99.372775 
3562.000000	99.374798 
3561.000000	99.377046 
3560.000000	99.378590 
3559.000000	99.378971 
3558.000000	99.378513 
3557.000000	99.377967 
3556.000000	99.377857 
3555.000000	99.378116 
3554.000000	99.378326 
3553.000000	99.378088 
3552.000000	99.377346 
3551.000000	99.376452 
3550.000000	99.375804 
3549.000000	99.375496 
3548.000000	99.375449 
3547.000000	99.375611 
3546.000000	99.376025 
3545.000000	99.376544 
3544.000000	99.376833 
3543.000000	99.376845 
3542.000000	99.377122 
3541.000000	99.378299 
3540.000000	99.380408 
3539.000000	99.382666 
3538.000000	99.384129 
3537.000000	99.384500 
3536.000000	99.384323 
3535.000000	99.384439 
3534.000000	99.385186 
3533.000000	99.386344 
3532.000000	99.387577 
3531.000000	99.388750 
3530.000000	99.389644 
3529.000000	99.389694 
3528.000000	99.388458 
3527.000000	99.386339 
3526.000000	99.384452 
3525.000000	99.383580 
3524.000000	99.383518 
3523.000000	99.383532 
3522.000000	99.383309 
3521.000000	99.383148 
3520.000000	99.383457 
3519.000000	99.384339 
3518.000000	99.385644 
3517.000000	99.387053 
3516.000000	99.388029 
3515.000000	99.388095 
3514.000000	99.387233 
3513.000000	99.386003 
3512.000000	99.385092 
3511.000000	99.384727 
3510.000000	99.384589 
3509.000000	99.384312 
3508.000000	99.383949 
3507.000000	99.383885 
3506.000000	99.384425 
3505.000000	99.385502 
3504.000000	99.386768 
3503.000000	99.387943 
3502.000000	99.389039 
3501.000000	99.390142 
3500.000000	99.391020 
3499.000000	99.391147 
3498.000000	99.390165 
3497.000000	99.388292 
3496.000000	99.386266 
3495.000000	99.384874 
3494.000000	99.384479 
3493.000000	99.384920 
3492.000000	99.385704 
3491.000000	99.386353 
3490.000000	99.386745 
3489.000000	99.387118 
3488.000000	99.387682 
3487.000000	99.388269 
3486.000000	99.388482 
3485.000000	99.388183 
3484.000000	99.387672 
3483.000000	99.387358 
3482.000000	99.387328 
3481.000000	99.387376 
3480.000000	99.387368 
3479.000000	99.387354 
3478.000000	99.387329 
3477.000000	99.387153 
3476.000000	99.386829 
3475.000000	99.386737 
3474.000000	99.387338 
3473.000000	99.388587 
3472.000000	99.389795 
3471.000000	99.390283 
3470.000000	99.390080 
3469.000000	99.389789 
3468.000000	99.389834 
3467.000000	99.389995 
3466.000000	99.389851 
3465.000000	99.389434 
3464.000000	99.389195 
3463.000000	99.389395 
3462.000000	99.389785 
3461.000000	99.389967 
3460.000000	99.389886 
3459.000000	99.389811 
3458.000000	99.389893 
3457.000000	99.389906 
3456.000000	99.389505 
3455.000000	99.388658 
3454.000000	99.387748 
3453.000000	99.387217 
3452.000000	99.387120 
3451.000000	99.387127 
3450.000000	99.386890 
3449.000000	99.386366 
3448.000000	99.385729 
3447.000000	99.385108 
3446.000000	99.384540 
3445.000000	99.384133 
3444.000000	99.384092 
3443.000000	99.384472 
3442.000000	99.384972 
3441.000000	99.385091 
3440.000000	99.384574 
3439.000000	99.383584 
3438.000000	99.382529 
3437.000000	99.381703 
3436.000000	99.381136 
3435.000000	99.380788 
3434.000000	99.380713 
3433.000000	99.380973 
3432.000000	99.381436 
3431.000000	99.381790 
3430.000000	99.381812 
3429.000000	99.381558 
3428.000000	99.381279 
3427.000000	99.381151 
3426.000000	99.381094 
3425.000000	99.380871 
3424.000000	99.380344 
3423.000000	99.379616 
3422.000000	99.378931 
3421.000000	99.378451 
3420.000000	99.378189 
3419.000000	99.378108 
3418.000000	99.378197 
3417.000000	99.378399 
3416.000000	99.378545 
3415.000000	99.378465 
3414.000000	99.378131 
3413.000000	99.377681 
3412.000000	99.377298 
3411.000000	99.377117 
3410.000000	99.377180 
3409.000000	99.377397 
3408.000000	99.377506 
3407.000000	99.377203 
3406.000000	99.376408 
3405.000000	99.375421 
3404.000000	99.374735 
3403.000000	99.374620 
3402.000000	99.374937 
3401.000000	99.375357 
3400.000000	99.375747 
3399.000000	99.376257 
3398.000000	99.377019 
3397.000000	99.377846 
3396.000000	99.378300 
3395.000000	99.378022 
3394.000000	99.376954 
3393.000000	99.375318 
3392.000000	99.373529 
3391.000000	99.372107 
3390.000000	99.371502 
3389.000000	99.371889 
3388.000000	99.373072 
3387.000000	99.374573 
3386.000000	99.375929 
3385.000000	99.376919 
3384.000000	99.377502 
3383.000000	99.377636 
3382.000000	99.377212 
3381.000000	99.376221 
3380.000000	99.374936 
3379.000000	99.373860 
3378.000000	99.373368 
3377.000000	99.373430 
3376.000000	99.373693 
3375.000000	99.373821 
3374.000000	99.373761 
3373.000000	99.373669 
3372.000000	99.373679 
3371.000000	99.373783 
3370.000000	99.373882 
3369.000000	99.373880 
3368.000000	99.373735 
3367.000000	99.373506 
3366.000000	99.373321 
3365.000000	99.373264 
3364.000000	99.373289 
3363.000000	99.373275 
3362.000000	99.373176 
3361.000000	99.373041 
3360.000000	99.372908 
3359.000000	99.372742 
3358.000000	99.372510 
3357.000000	99.372258 
3356.000000	99.372070 
3355.000000	99.371956 
3354.000000	99.371849 
3353.000000	99.371694 
3352.000000	99.371505 
3351.000000	99.371328 
3350.000000	99.371187 
3349.000000	99.371067 
3348.000000	99.370946 
3347.000000	99.370816 
3346.000000	99.370676 
3345.000000	99.370525 
3344.000000	99.370370 
3343.000000	99.370220 
3342.000000	99.370080 
3341.000000	99.369955 
3340.000000	99.369844 
3339.000000	99.369746 
3338.000000	99.369657 
3337.000000	99.369577 
3336.000000	99.369508 
3335.000000	99.369456 
3334.000000	99.369415 
3333.000000	99.369376 
3332.000000	99.369345 
3331.000000	99.369325 
3330.000000	99.369292 
3329.000000	99.369209 
3328.000000	99.369067 
3327.000000	99.368906 
3326.000000	99.368778 
3325.000000	99.368694 
3324.000000	99.368617 
3323.000000	99.368510 
3322.000000	99.368392 
3321.000000	99.368319 
3320.000000	99.368313 
3319.000000	99.368335 
3318.000000	99.368343 
3317.000000	99.368352 
3316.000000	99.368398 
3315.000000	99.368456 
3314.000000	99.368465 
3313.000000	99.368432 
3312.000000	99.368457 
3311.000000	99.368606 
3310.000000	99.368802 
3309.000000	99.368891 
3308.000000	99.368812 
3307.000000	99.368625 
3306.000000	99.368433 
3305.000000	99.368306 
3304.000000	99.368268 
3303.000000	99.368293 
3302.000000	99.368291 
3301.000000	99.368175 
3300.000000	99.367945 
3299.000000	99.367679 
3298.000000	99.367458 
3297.000000	99.367309 
3296.000000	99.367204 
3295.000000	99.367089 
3294.000000	99.366916 
3293.000000	99.366686 
3292.000000	99.366460 
3291.000000	99.366298 
3290.000000	99.366184 
3289.000000	99.366030 
3288.000000	99.365774 
3287.000000	99.365448 
3286.000000	99.365132 
3285.000000	99.364862 
3284.000000	99.364600 
3283.000000	99.364300 
3282.000000	99.363983 
3281.000000	99.363735 
3280.000000	99.363624 
3279.000000	99.363642 
3278.000000	99.363680 
3277.000000	99.363606 
3276.000000	99.363351 
3275.000000	99.362928 
3274.000000	99.362400 
3273.000000	99.361835 
3272.000000	99.361334 
3271.000000	99.361016 
3270.000000	99.360930 
3269.000000	99.360978 
3268.000000	99.360976 
3267.000000	99.360810 
3266.000000	99.360488 
3265.000000	99.360078 
3264.000000	99.359666 
3263.000000	99.359366 
3262.000000	99.359289 
3261.000000	99.359424 
3260.000000	99.359575 
3259.000000	99.359512 
3258.000000	99.359169 
3257.000000	99.358715 
3256.000000	99.358404 
3255.000000	99.358336 
3254.000000	99.358388 
3253.000000	99.358385 
3252.000000	99.358349 
3251.000000	99.358486 
3250.000000	99.358910 
3249.000000	99.359443 
3248.000000	99.359785 
3247.000000	99.359798 
3246.000000	99.359555 
3245.000000	99.359152 
3244.000000	99.358628 
3243.000000	99.358092 
3242.000000	99.357769 
3241.000000	99.357807 
3240.000000	99.358117 
3239.000000	99.358508 
3238.000000	99.358967 
3237.000000	99.359666 
3236.000000	99.360674 
3235.000000	99.361711 
3234.000000	99.362278 
3233.000000	99.362081 
3232.000000	99.361286 
3231.000000	99.360428 
3230.000000	99.360007 
3229.000000	99.360108 
3228.000000	99.360398 
3227.000000	99.360420 
3226.000000	99.359955 
3225.000000	99.359162 
3224.000000	99.358428 
3223.000000	99.358082 
3222.000000	99.358202 
3221.000000	99.358633 
3220.000000	99.359114 
3219.000000	99.359416 
3218.000000	99.359446 
3217.000000	99.359325 
3216.000000	99.359357 
3215.000000	99.359811 
3214.000000	99.360667 
3213.000000	99.361551 
3212.000000	99.361993 
3211.000000	99.361792 
3210.000000	99.361108 
3209.000000	99.360316 
3208.000000	99.359751 
3207.000000	99.359535 
3206.000000	99.359581 
3205.000000	99.359687 
3204.000000	99.359715 
3203.000000	99.359703 
3202.000000	99.359777 
3201.000000	99.359971 
3200.000000	99.360200 
3199.000000	99.360395 
3198.000000	99.360581 
3197.000000	99.360776 
3196.000000	99.360919 
3195.000000	99.360928 
3194.000000	99.360817 
3193.000000	99.360662 
3192.000000	99.360505 
3191.000000	99.360314 
3190.000000	99.360049 
3189.000000	99.359702 
3188.000000	99.359309 
3187.000000	99.358964 
3186.000000	99.358805 
3185.000000	99.358911 
3184.000000	99.359186 
3183.000000	99.359395 
3182.000000	99.359400 
3181.000000	99.359328 
3180.000000	99.359444 
3179.000000	99.359837 
3178.000000	99.360227 
3177.000000	99.360173 
3176.000000	99.359537 
3175.000000	99.358737 
3174.000000	99.358407 
3173.000000	99.358685 
3172.000000	99.358967 
3171.000000	99.358545 
3170.000000	99.357417 
3169.000000	99.356298 
3168.000000	99.355814 
3167.000000	99.355876 
3166.000000	99.355997 
3165.000000	99.355948 
3164.000000	99.355885 
3163.000000	99.355935 
3162.000000	99.355969 
3161.000000	99.355845 
3160.000000	99.355691 
3159.000000	99.355778 
3158.000000	99.356148 
3157.000000	99.356456 
3156.000000	99.356245 
3155.000000	99.355317 
3154.000000	99.353827 
3153.000000	99.352056 
3152.000000	99.350234 
3151.000000	99.348630 
3150.000000	99.347668 
3149.000000	99.347700 
3148.000000	99.348672 
3147.000000	99.350130 
3146.000000	99.351601 
3145.000000	99.352860 
3144.000000	99.353783 
3143.000000	99.354169 
3142.000000	99.353874 
3141.000000	99.353046 
3140.000000	99.352073 
3139.000000	99.351304 
3138.000000	99.350874 
3137.000000	99.350789 
3136.000000	99.351078 
3135.000000	99.351803 
3134.000000	99.352940 
3133.000000	99.354221 
3132.000000	99.355145 
3131.000000	99.355269 
3130.000000	99.354579 
3129.000000	99.353565 
3128.000000	99.352888 
3127.000000	99.352902 
3126.000000	99.353475 
3125.000000	99.354143 
3124.000000	99.354425 
3123.000000	99.354120 
3122.000000	99.353420 
3121.000000	99.352767 
3120.000000	99.352505 
3119.000000	99.352664 
3118.000000	99.353058 
3117.000000	99.353516 
3116.000000	99.353994 
3115.000000	99.354522 
3114.000000	99.355109 
3113.000000	99.355664 
3112.000000	99.355998 
3111.000000	99.355950 
3110.000000	99.355528 
3109.000000	99.354912 
3108.000000	99.354289 
3107.000000	99.353760 
3106.000000	99.353383 
3105.000000	99.353244 
3104.000000	99.353411 
3103.000000	99.353846 
3102.000000	99.354442 
3101.000000	99.355096 
3100.000000	99.355689 
3099.000000	99.356129 
3098.000000	99.356463 
3097.000000	99.356852 
3096.000000	99.357356 
3095.000000	99.357791 
3094.000000	99.357848 
3093.000000	99.357357 
3092.000000	99.356389 
3091.000000	99.355238 
3090.000000	99.354363 
3089.000000	99.354249 
3088.000000	99.355052 
3087.000000	99.356270 
3086.000000	99.357028 
3085.000000	99.356892 
3084.000000	99.356198 
3083.000000	99.355424 
3082.000000	99.354529 
3081.000000	99.353285 
3080.000000	99.352029 
3079.000000	99.351631 
3078.000000	99.352696 
3077.000000	99.355029 
3076.000000	99.357799 
3075.000000	99.359937 
3074.000000	99.360465 
3073.000000	99.358925 
3072.000000	99.355783 
3071.000000	99.352177 
3070.000000	99.349032 
3069.000000	99.346439 
3068.000000	99.344013 
3067.000000	99.341849 
3066.000000	99.341003 
3065.000000	99.342799 
3064.000000	99.347305 
3063.000000	99.352401 
3062.000000	99.354884 
3061.000000	99.353042 
3060.000000	99.348151 
3059.000000	99.343304 
3058.000000	99.340838 
3057.000000	99.341140 
3056.000000	99.343431 
3055.000000	99.346737 
3054.000000	99.349837 
3053.000000	99.351145 
3052.000000	99.349474 
3051.000000	99.345001 
3050.000000	99.339377 
3049.000000	99.334862 
3048.000000	99.333005 
3047.000000	99.333440 
3046.000000	99.333776 
3045.000000	99.331320 
3044.000000	99.325591 
3043.000000	99.319031 
3042.000000	99.314870 
3041.000000	99.314261 
3040.000000	99.315623 
3039.000000	99.316340 
3038.000000	99.314569 
3037.000000	99.309750 
3036.000000	99.302247 
3035.000000	99.292995 
3034.000000	99.283165 
3033.000000	99.273647 
3032.000000	99.264713 
3031.000000	99.256175 
3030.000000	99.247861 
3029.000000	99.240060 
3028.000000	99.233517 
3027.000000	99.228689 
3026.000000	99.224738 
3025.000000	99.219526 
3024.000000	99.211155 
3023.000000	99.199661 
3022.000000	99.186927 
3021.000000	99.174724 
3020.000000	99.162946 
3019.000000	99.149987 
3018.000000	99.134859 
3017.000000	99.118607 
3016.000000	99.103393 
3015.000000	99.090230 
3014.000000	99.078049 
3013.000000	99.065285 
3012.000000	99.051994 
3011.000000	99.039789 
3010.000000	99.029670 
3009.000000	99.020633 
3008.000000	99.010709 
3007.000000	98.998794 
3006.000000	98.985055 
3005.000000	98.970093 
3004.000000	98.954534 
3003.000000	98.939358 
3002.000000	98.925782 
3001.000000	98.914358 
3000.000000	98.904412 
2999.000000	98.894678 
2998.000000	98.884575 
2997.000000	98.874804 
2996.000000	98.866499 
2995.000000	98.859297 
2994.000000	98.850135 
2993.000000	98.834746 
2992.000000	98.811423 
2991.000000	98.783611 
2990.000000	98.758266 
2989.000000	98.741257 
2988.000000	98.734379 
2987.000000	98.736055 
2986.000000	98.743543 
2985.000000	98.753958 
2984.000000	98.764052 
2983.000000	98.770658 
2982.000000	98.772297 
2981.000000	98.770261 
2980.000000	98.767614 
2979.000000	98.766731 
2978.000000	98.767544 
2977.000000	98.767910 
2976.000000	98.765596 
2975.000000	98.760163 
2974.000000	98.753330 
2973.000000	98.747885 
2972.000000	98.746102 
2971.000000	98.748701 
2970.000000	98.754790 
2969.000000	98.762675 
2968.000000	98.770892 
2967.000000	98.778733 
2966.000000	98.786079 
2965.000000	98.793125 
2964.000000	98.800241 
2963.000000	98.807668 
2962.000000	98.815060 
2961.000000	98.821604 
2960.000000	98.826913 
2959.000000	98.831609 
2958.000000	98.836625 
2957.000000	98.842071 
2956.000000	98.847233 
2955.000000	98.851779 
2954.000000	98.856659 
2953.000000	98.863543 
2952.000000	98.873362 
2951.000000	98.885199 
2950.000000	98.896459 
2949.000000	98.904348 
2948.000000	98.907561 
2947.000000	98.906783 
2946.000000	98.903871 
2945.000000	98.900732 
2944.000000	98.898670 
2943.000000	98.898058 
2942.000000	98.898063 
2941.000000	98.896991 
2940.000000	98.893731 
2939.000000	98.889203 
2938.000000	98.885941 
2937.000000	98.885935 
2936.000000	98.889037 
2935.000000	98.893304 
2934.000000	98.896453 
2933.000000	98.896918 
2932.000000	98.894088 
2931.000000	98.888125 
2930.000000	98.879902 
2929.000000	98.871095 
2928.000000	98.863799 
2927.000000	98.859184 
2926.000000	98.856311 
2925.000000	98.852996 
2924.000000	98.848476 
2923.000000	98.844699 
2922.000000	98.844180 
2921.000000	98.846918 
2920.000000	98.850337 
2919.000000	98.852100 
2918.000000	98.852114 
2917.000000	98.851644 
2916.000000	98.851477 
2915.000000	98.851372 
2914.000000	98.850733 
2913.000000	98.849393 
2912.000000	98.848098 
2911.000000	98.848306 
2910.000000	98.850886 
2909.000000	98.854819 
2908.000000	98.857695 
2907.000000	98.857874 
2906.000000	98.855524 
2905.000000	98.851368 
2904.000000	98.845421 
2903.000000	98.838044 
2902.000000	98.831801 
2901.000000	98.831132 
2900.000000	98.838693 
2899.000000	98.853083 
2898.000000	98.869247 
2897.000000	98.881758 
2896.000000	98.888340 
2895.000000	98.890646 
2894.000000	98.892221 
2893.000000	98.895606 
2892.000000	98.901027 
2891.000000	98.907183 
2890.000000	98.912675 
2889.000000	98.916707 
2888.000000	98.919194 
2887.000000	98.920843 
2886.000000	98.922927 
2885.000000	98.926479 
2884.000000	98.931690 
2883.000000	98.938288 
2882.000000	98.946274 
2881.000000	98.955850 
2880.000000	98.966685 
2879.000000	98.977643 
2878.000000	98.987403 
2877.000000	98.995330 
2876.000000	99.001806 
2875.000000	99.007869 
2874.000000	99.014384 
2873.000000	99.021316 
2872.000000	99.027788 
2871.000000	99.032967 
2870.000000	99.036888 
2869.000000	99.040553 
2868.000000	99.045392 
2867.000000	99.052477 
2866.000000	99.061671 
2865.000000	99.071297 
2864.000000	99.079143 
2863.000000	99.084272 
2862.000000	99.087659 
2861.000000	99.090920 
2860.000000	99.094874 
2859.000000	99.099670 
2858.000000	99.105467 
2857.000000	99.112030 
2856.000000	99.118128 
2855.000000	99.122566 
2854.000000	99.125854 
2853.000000	99.129994 
2852.000000	99.136486 
2851.000000	99.145313 
2850.000000	99.155794 
2849.000000	99.167382 
2848.000000	99.179395 
2847.000000	99.190865 
2846.000000	99.201224 
2845.000000	99.210499 
2844.000000	99.218437 
2843.000000	99.224206 
2842.000000	99.227726 
2841.000000	99.230749 
2840.000000	99.235654 
2839.000000	99.243089 
2838.000000	99.251470 
2837.000000	99.258820 
2836.000000	99.264491 
2835.000000	99.269053 
2834.000000	99.273162 
2833.000000	99.276929 
2832.000000	99.280069 
2831.000000	99.282249 
2830.000000	99.283295 
2829.000000	99.283299 
2828.000000	99.282723 
2827.000000	99.282380 
2826.000000	99.283177 
2825.000000	99.285630 
2824.000000	99.289439 
2823.000000	99.293544 
2822.000000	99.296786 
2821.000000	99.298647 
2820.000000	99.299429 
2819.000000	99.299752 
2818.000000	99.299964 
2817.000000	99.300082 
2816.000000	99.300177 
2815.000000	99.300535 
2814.000000	99.301286 
2813.000000	99.302066 
2812.000000	99.302424 
2811.000000	99.302624 
2810.000000	99.303712 
2809.000000	99.306507 
2808.000000	99.310648 
2807.000000	99.314770 
2806.000000	99.317479 
2805.000000	99.318114 
2804.000000	99.316978 
2803.000000	99.315240 
2802.000000	99.314344 
2801.000000	99.314924 
2800.000000	99.316265 
2799.000000	99.317183 
2798.000000	99.317295 
2797.000000	99.317014 
2796.000000	99.316521 
2795.000000	99.315511 
2794.000000	99.314144 
2793.000000	99.313457 
2792.000000	99.314260 
2791.000000	99.316097 
2790.000000	99.317821 
2789.000000	99.318936 
2788.000000	99.319894 
2787.000000	99.321178 
2786.000000	99.322621 
2785.000000	99.323667 
2784.000000	99.323982 
2783.000000	99.323652 
2782.000000	99.323068 
2781.000000	99.322743 
2780.000000	99.323046 
2779.000000	99.323956 
2778.000000	99.325099 
2777.000000	99.326155 
2776.000000	99.327182 
2775.000000	99.328407 
2774.000000	99.329765 
2773.000000	99.330857 
2772.000000	99.331448 
2771.000000	99.331820 
2770.000000	99.332444 
2769.000000	99.333366 
2768.000000	99.334172 
2767.000000	99.334591 
2766.000000	99.334849 
2765.000000	99.335288 
2764.000000	99.335788 
2763.000000	99.335869 
2762.000000	99.335319 
2761.000000	99.334511 
2760.000000	99.334084 
2759.000000	99.334348 
2758.000000	99.335146 
2757.000000	99.336141 
2756.000000	99.337089 
2755.000000	99.337845 
2754.000000	99.338270 
2753.000000	99.338298 
2752.000000	99.338127 
2751.000000	99.338171 
2750.000000	99.338690 
2749.000000	99.339517 
2748.000000	99.340218 
2747.000000	99.340544 
2746.000000	99.340627 
2745.000000	99.340706 
2744.000000	99.340807 
2743.000000	99.340798 
2742.000000	99.340703 
2741.000000	99.340764 
2740.000000	99.341182 
2739.000000	99.341923 
2738.000000	99.342825 
2737.000000	99.343779 
2736.000000	99.344735 
2735.000000	99.345597 
2734.000000	99.346216 
2733.000000	99.346511 
2732.000000	99.346538 
2731.000000	99.346426 
2730.000000	99.346303 
2729.000000	99.346232 
2728.000000	99.346216 
2727.000000	99.346219 
2726.000000	99.346212 
2725.000000	99.346211 
2724.000000	99.346283 
2723.000000	99.346508 
2722.000000	99.346931 
2721.000000	99.347517 
2720.000000	99.348140 
2719.000000	99.348625 
2718.000000	99.348864 
2717.000000	99.348906 
2716.000000	99.348910 
2715.000000	99.349032 
2714.000000	99.349301 
2713.000000	99.349653 
2712.000000	99.350015 
2711.000000	99.350348 
2710.000000	99.350647 
2709.000000	99.350923 
2708.000000	99.351183 
2707.000000	99.351428 
2706.000000	99.351655 
2705.000000	99.351874 
2704.000000	99.352100 
2703.000000	99.352342 
2702.000000	99.352592 
2701.000000	99.352841 
2700.000000	99.353087 
2699.000000	99.353331 
2698.000000	99.353572 
2697.000000	99.353812 
2696.000000	99.354051 
2695.000000	99.354289 
2694.000000	99.354523 
2693.000000	99.354756 
2692.000000	99.354992 
2691.000000	99.355237 
2690.000000	99.355495 
2689.000000	99.355763 
2688.000000	99.356041 
2687.000000	99.356328 
2686.000000	99.356628 
2685.000000	99.356947 
2684.000000	99.357284 
2683.000000	99.357636 
2682.000000	99.357993 
2681.000000	99.358348 
2680.000000	99.358696 
2679.000000	99.359038 
2678.000000	99.359378 
2677.000000	99.359723 
2676.000000	99.360080 
2675.000000	99.360450 
2674.000000	99.360827 
2673.000000	99.361205 
2672.000000	99.361574 
2671.000000	99.361933 
2670.000000	99.362281 
2669.000000	99.362622 
2668.000000	99.362959 
2667.000000	99.363293 
2666.000000	99.363631 
2665.000000	99.363976 
2664.000000	99.364329 
2663.000000	99.364688 
2662.000000	99.365049 
2661.000000	99.365412 
2660.000000	99.365779 
2659.000000	99.366149 
2658.000000	99.366521 
2657.000000	99.366897 
2656.000000	99.367276 
2655.000000	99.367660 
2654.000000	99.368045 
2653.000000	99.368430 
2652.000000	99.368817 
2651.000000	99.369208 
2650.000000	99.369602 
2649.000000	99.369995 
2648.000000	99.370379 
2647.000000	99.370751 
2646.000000	99.371116 
2645.000000	99.371480 
2644.000000	99.371846 
2643.000000	99.372208 
2642.000000	99.372559 
2641.000000	99.372898 
2640.000000	99.373230 
2639.000000	99.373566 
2638.000000	99.373910 
2637.000000	99.374260 
2636.000000	99.374609 
2635.000000	99.374948 
2634.000000	99.375275 
2633.000000	99.375606 
2632.000000	99.375953 
2631.000000	99.376311 
2630.000000	99.376661 
2629.000000	99.376985 
2628.000000	99.377265 
2627.000000	99.377493 
2626.000000	99.377722 
2625.000000	99.378049 
2624.000000	99.378509 
2623.000000	99.379021 
2622.000000	99.379461 
2621.000000	99.379803 
2620.000000	99.380117 
2619.000000	99.380466 
2618.000000	99.380850 
2617.000000	99.381237 
2616.000000	99.381614 
2615.000000	99.381976 
2614.000000	99.382309 
2613.000000	99.382599 
2612.000000	99.382839 
2611.000000	99.383021 
2610.000000	99.383132 
2609.000000	99.383163 
2608.000000	99.383120 
2607.000000	99.383067 
2606.000000	99.383142 
2605.000000	99.383478 
2604.000000	99.384063 
2603.000000	99.384677 
2602.000000	99.385066 
2601.000000	99.385193 
2600.000000	99.385245 
2599.000000	99.385383 
2598.000000	99.385539 
2597.000000	99.385534 
2596.000000	99.385298 
2595.000000	99.384924 
2594.000000	99.384577 
2593.000000	99.384394 
2592.000000	99.384418 
2591.000000	99.384599 
2590.000000	99.384834 
2589.000000	99.385015 
2588.000000	99.385072 
2587.000000	99.384980 
2586.000000	99.384766 
2585.000000	99.384515 
2584.000000	99.384334 
2583.000000	99.384257 
2582.000000	99.384232 
2581.000000	99.384162 
2580.000000	99.383992 
2579.000000	99.383741 
2578.000000	99.383469 
2577.000000	99.383213 
2576.000000	99.382974 
2575.000000	99.382730 
2574.000000	99.382476 
2573.000000	99.382241 
2572.000000	99.382069 
2571.000000	99.381963 
2570.000000	99.381882 
2569.000000	99.381773 
2568.000000	99.381615 
2567.000000	99.381415 
2566.000000	99.381185 
2565.000000	99.380933 
2564.000000	99.380668 
2563.000000	99.380408 
2562.000000	99.380161 
2561.000000	99.379924 
2560.000000	99.379684 
2559.000000	99.379436 
2558.000000	99.379177 
2557.000000	99.378906 
2556.000000	99.378626 
2555.000000	99.378344 
2554.000000	99.378073 
2553.000000	99.377835 
2552.000000	99.377622 
2551.000000	99.377388 
2550.000000	99.377101 
2549.000000	99.376766 
2548.000000	99.376387 
2547.000000	99.375962 
2546.000000	99.375522 
2545.000000	99.375148 
2544.000000	99.374900 
2543.000000	99.374728 
2542.000000	99.374492 
2541.000000	99.374106 
2540.000000	99.373647 
2539.000000	99.373297 
2538.000000	99.373165 
2537.000000	99.373156 
2536.000000	99.373048 
2535.000000	99.372749 
2534.000000	99.372432 
2533.000000	99.372334 
2532.000000	99.372432 
2531.000000	99.372421 
2530.000000	99.372075 
2529.000000	99.371526 
2528.000000	99.371109 
2527.000000	99.370936 
2526.000000	99.370778 
2525.000000	99.370441 
2524.000000	99.370150 
2523.000000	99.370325 
2522.000000	99.371055 
2521.000000	99.371971 
2520.000000	99.372554 
2519.000000	99.372482 
2518.000000	99.371687 
2517.000000	99.370345 
2516.000000	99.368893 
2515.000000	99.367894 
2514.000000	99.367684 
2513.000000	99.368213 
2512.000000	99.369217 
2511.000000	99.370446 
2510.000000	99.371677 
2509.000000	99.372690 
2508.000000	99.373429 
2507.000000	99.374098 
2506.000000	99.374876 
2505.000000	99.375547 
2504.000000	99.375617 
2503.000000	99.374876 
2502.000000	99.373698 
2501.000000	99.372794 
2500.000000	99.372653 
2499.000000	99.373306 
2498.000000	99.374420 
2497.000000	99.375493 
2496.000000	99.376084 
2495.000000	99.376012 
2494.000000	99.375468 
2493.000000	99.374917 
2492.000000	99.374775 
2491.000000	99.375124 
2490.000000	99.375761 
2489.000000	99.376514 
2488.000000	99.377460 
2487.000000	99.378716 
2486.000000	99.379975 
2485.000000	99.380488 
2484.000000	99.379761 
2483.000000	99.378077 
2482.000000	99.376326 
2481.000000	99.375240 
2480.000000	99.374897 
2479.000000	99.374990 
2478.000000	99.375218 
2477.000000	99.375441 
2476.000000	99.375600 
2475.000000	99.375716 
2474.000000	99.375898 
2473.000000	99.376174 
2472.000000	99.376374 
2471.000000	99.376298 
2470.000000	99.375973 
2469.000000	99.375637 
2468.000000	99.375466 
2467.000000	99.375401 
2466.000000	99.375277 
2465.000000	99.375044 
2464.000000	99.374794 
2463.000000	99.374611 
2462.000000	99.374494 
2461.000000	99.374394 
2460.000000	99.374270 
2459.000000	99.374104 
2458.000000	99.373899 
2457.000000	99.373689 
2456.000000	99.373510 
2455.000000	99.373357 
2454.000000	99.373201 
2453.000000	99.373021 
2452.000000	99.372822 
2451.000000	99.372606 
2450.000000	99.372363 
2449.000000	99.372089 
2448.000000	99.371798 
2447.000000	99.371506 
2446.000000	99.371215 
2445.000000	99.370924 
2444.000000	99.370641 
2443.000000	99.370368 
2442.000000	99.370104 
2441.000000	99.369848 
2440.000000	99.369595 
2439.000000	99.369340 
2438.000000	99.369075 
2437.000000	99.368798 
2436.000000	99.368506 
2435.000000	99.368200 
2434.000000	99.367882 
2433.000000	99.367554 
2432.000000	99.367219 
2431.000000	99.366887 
2430.000000	99.366564 
2429.000000	99.366236 
2428.000000	99.365875 
2427.000000	99.365466 
2426.000000	99.365027 
2425.000000	99.364599 
2424.000000	99.364209 
2423.000000	99.363864 
2422.000000	99.363568 
2421.000000	99.363325 
2420.000000	99.363087 
2419.000000	99.362735 
2418.000000	99.362193 
2417.000000	99.361501 
2416.000000	99.360789 
2415.000000	99.360144 
2414.000000	99.359555 
2413.000000	99.358993 
2412.000000	99.358463 
2411.000000	99.357988 
2410.000000	99.357559 
2409.000000	99.357134 
2408.000000	99.356682 
2407.000000	99.356199 
2406.000000	99.355704 
2405.000000	99.355226 
2404.000000	99.354784 
2403.000000	99.354363 
2402.000000	99.353931 
2401.000000	99.353466 
2400.000000	99.352974 
2399.000000	99.352463 
2398.000000	99.351939 
2397.000000	99.351408 
2396.000000	99.350877 
2395.000000	99.350353 
2394.000000	99.349840 
2393.000000	99.349333 
2392.000000	99.348828 
2391.000000	99.348320 
2390.000000	99.347806 
2389.000000	99.347285 
2388.000000	99.346763 
2387.000000	99.346248 
2386.000000	99.345745 
2385.000000	99.345252 
2384.000000	99.344762 
2383.000000	99.344268 
2382.000000	99.343768 
2381.000000	99.343263 
2380.000000	99.342759 
2379.000000	99.342262 
2378.000000	99.341781 
2377.000000	99.341321 
2376.000000	99.340877 
2375.000000	99.340442 
2374.000000	99.340007 
2373.000000	99.339570 
2372.000000	99.339133 
2371.000000	99.338704 
2370.000000	99.338282 
2369.000000	99.337867 
2368.000000	99.337457 
2367.000000	99.337051 
2366.000000	99.336653 
2365.000000	99.336264 
2364.000000	99.335885 
2363.000000	99.335513 
2362.000000	99.335144 
2361.000000	99.334776 
2360.000000	99.334412 
2359.000000	99.334059 
2358.000000	99.333725 
2357.000000	99.333419 
2356.000000	99.333150 
2355.000000	99.332919 
2354.000000	99.332723 
2353.000000	99.332550 
2352.000000	99.332385 
2351.000000	99.332219 
2350.000000	99.332056 
2349.000000	99.331907 
2348.000000	99.331782 
2347.000000	99.331691 
2346.000000	99.331634 
2345.000000	99.331607 
2344.000000	99.331608 
2343.000000	99.331639 
2342.000000	99.331708 
2341.000000	99.331821 
2340.000000	99.331981 
2339.000000	99.332194 
2338.000000	99.332468 
2337.000000	99.332808 
2336.000000	99.333187 
2335.000000	99.333554 
2334.000000	99.333882 
2333.000000	99.334249 
2332.000000	99.334744 
2331.000000	99.335374 
2330.000000	99.336014 
2329.000000	99.336555 
2328.000000	99.336976 
2327.000000	99.337510 
2326.000000	99.338446 
2325.000000	99.339786 
2324.000000	99.341026 
2323.000000	99.341803 
2322.000000	99.342445 
2321.000000	99.343490 
2320.000000	99.344652 
2319.000000	99.345183 
2318.000000	99.344933 
2317.000000	99.344785 
2316.000000	99.345300 
2315.000000	99.346304 
2314.000000	99.347294 
2313.000000	99.348598 
2312.000000	99.350585 
2311.000000	99.353093 
2310.000000	99.355159 
2309.000000	99.356269 
2308.000000	99.356797 
2307.000000	99.357936 
2306.000000	99.360364 
2305.000000	99.363721 
2304.000000	99.366895 
2303.000000	99.369431 
2302.000000	99.371593 
2301.000000	99.373822 
2300.000000	99.376086 
2299.000000	99.378592 
2298.000000	99.381575 
2297.000000	99.384780 
2296.000000	99.386863 
2295.000000	99.387043 
2294.000000	99.386269 
2293.000000	99.386726 
2292.000000	99.389403 
2291.000000	99.393330 
2290.000000	99.396802 
2289.000000	99.399073 
2288.000000	99.400608 
2287.000000	99.402131 
2286.000000	99.403674 
2285.000000	99.404245 
2284.000000	99.402885 
2283.000000	99.400143 
2282.000000	99.398289 
2281.000000	99.399079 
2280.000000	99.401846 
2279.000000	99.404357 
2278.000000	99.405477 
2277.000000	99.406055 
2276.000000	99.407132 
2275.000000	99.408546 
2274.000000	99.409665 
2273.000000	99.410473 
2272.000000	99.411252 
2271.000000	99.411995 
2270.000000	99.412593 
2269.000000	99.413103 
2268.000000	99.413417 
2267.000000	99.413222 
2266.000000	99.412607 
2265.000000	99.412132 
2264.000000	99.411821 
2263.000000	99.410806 
2262.000000	99.408649 
2261.000000	99.406453 
2260.000000	99.405813 
2259.000000	99.406831 
2258.000000	99.408066 
2257.000000	99.408463 
2256.000000	99.408407 
2255.000000	99.408743 
2254.000000	99.409626 
2253.000000	99.410772 
2252.000000	99.412154 
2251.000000	99.413846 
2250.000000	99.415426 
2249.000000	99.416242 
2248.000000	99.416140 
2247.000000	99.415611 
2246.000000	99.415093 
2245.000000	99.414708 
2244.000000	99.414604 
2243.000000	99.415036 
2242.000000	99.415980 
2241.000000	99.417020 
2240.000000	99.417974 
2239.000000	99.419215 
2238.000000	99.420983 
2237.000000	99.422691 
2236.000000	99.423371 
2235.000000	99.422752 
2234.000000	99.421495 
2233.000000	99.420519 
2232.000000	99.420186 
2231.000000	99.420304 
2230.000000	99.420538 
2229.000000	99.420703 
2228.000000	99.420844 
2227.000000	99.421123 
2226.000000	99.421586 
2225.000000	99.422122 
2224.000000	99.422609 
2223.000000	99.423042 
2222.000000	99.423461 
2221.000000	99.423870 
2220.000000	99.424265 
2219.000000	99.424667 
2218.000000	99.425095 
2217.000000	99.425546 
2216.000000	99.426010 
2215.000000	99.426478 
2214.000000	99.426933 
2213.000000	99.427368 
2212.000000	99.427796 
2211.000000	99.428230 
2210.000000	99.428685 
2209.000000	99.429174 
2208.000000	99.429706 
2207.000000	99.430281 
2206.000000	99.430897 
2205.000000	99.431544 
2204.000000	99.432181 
2203.000000	99.432796 
2202.000000	99.433563 
2201.000000	99.434640 
2200.000000	99.435764 
2199.000000	99.436379 
2198.000000	99.436230 
2197.000000	99.435771 
2196.000000	99.435865 
2195.000000	99.437069 
2194.000000	99.439139 
2193.000000	99.441185 
2192.000000	99.442347 
2191.000000	99.442435 
2190.000000	99.442239 
2189.000000	99.443194 
2188.000000	99.446064 
2187.000000	99.449601 
2186.000000	99.451071 
2185.000000	99.448782 
2184.000000	99.443907 
2183.000000	99.439572 
2182.000000	99.437962 
2181.000000	99.438950 
2180.000000	99.441122 
2179.000000	99.443237 
2178.000000	99.444688 
2177.000000	99.445471 
2176.000000	99.446077 
2175.000000	99.446699 
2174.000000	99.446500 
2173.000000	99.444920 
2172.000000	99.443989 
2171.000000	99.447518 
2170.000000	99.456703 
2169.000000	99.467352 
2168.000000	99.473303 
2167.000000	99.472420 
2166.000000	99.467644 
2165.000000	99.463234 
2164.000000	99.461537 
2163.000000	99.463182 
2162.000000	99.467341 
2161.000000	99.470297 
2160.000000	99.466453 
2159.000000	99.453328 
2158.000000	99.434879 
2157.000000	99.418238 
2156.000000	99.407209 
2155.000000	99.401330 
2154.000000	99.399486 
2153.000000	99.401403 
2152.000000	99.405883 
2151.000000	99.409971 
2150.000000	99.411366 
2149.000000	99.411201 
2148.000000	99.413184 
2147.000000	99.419325 
2146.000000	99.426908 
2145.000000	99.430495 
2144.000000	99.427334 
2143.000000	99.419844 
2142.000000	99.412759 
2141.000000	99.408336 
2140.000000	99.405321 
2139.000000	99.402116 
2138.000000	99.399299 
2137.000000	99.398513 
2136.000000	99.399890 
2135.000000	99.401654 
2134.000000	99.402182 
2133.000000	99.401686 
2132.000000	99.401393 
2131.000000	99.401309 
2130.000000	99.399550 
2129.000000	99.394552 
2128.000000	99.387757 
2127.000000	99.382998 
2126.000000	99.382690 
2125.000000	99.385739 
2124.000000	99.389372 
2123.000000	99.392326 
2122.000000	99.395047 
2121.000000	99.397573 
2120.000000	99.399197 
2119.000000	99.400055 
2118.000000	99.401344 
2117.000000	99.403499 
2116.000000	99.405333 
2115.000000	99.405779 
2114.000000	99.405362 
2113.000000	99.405182 
2112.000000	99.405234 
2111.000000	99.404723 
2110.000000	99.403599 
2109.000000	99.402796 
2108.000000	99.402969 
2107.000000	99.403545 
2106.000000	99.403327 
2105.000000	99.401929 
2104.000000	99.400382 
2103.000000	99.400171 
2102.000000	99.401740 
2101.000000	99.404093 
2100.000000	99.405879 
2099.000000	99.406745 
2098.000000	99.407355 
2097.000000	99.408383 
2096.000000	99.409764 
2095.000000	99.410943 
2094.000000	99.411558 
2093.000000	99.411717 
2092.000000	99.411848 
2091.000000	99.412475 
2090.000000	99.413984 
2089.000000	99.416295 
2088.000000	99.418639 
2087.000000	99.419939 
2086.000000	99.419614 
2085.000000	99.418207 
2084.000000	99.417277 
2083.000000	99.418247 
2082.000000	99.421204 
2081.000000	99.424807 
2080.000000	99.427552 
2079.000000	99.429279 
2078.000000	99.431074 
2077.000000	99.433823 
2076.000000	99.437153 
2075.000000	99.439807 
2074.000000	99.440669 
2073.000000	99.439397 
2072.000000	99.436735 
2071.000000	99.434231 
2070.000000	99.433197 
2069.000000	99.433619 
2068.000000	99.434319 
2067.000000	99.434446 
2066.000000	99.434439 
2065.000000	99.435398 
2064.000000	99.437923 
2063.000000	99.441755 
2062.000000	99.445898 
2061.000000	99.448981 
2060.000000	99.450309 
2059.000000	99.450594 
2058.000000	99.451278 
2057.000000	99.452947 
2056.000000	99.454886 
2055.000000	99.456330 
2054.000000	99.457544 
2053.000000	99.459251 
2052.000000	99.461455 
2051.000000	99.463298 
2050.000000	99.464022 
2049.000000	99.463688 
2048.000000	99.463021 
2047.000000	99.462781 
2046.000000	99.463245 
2045.000000	99.464128 
2044.000000	99.464860 
2043.000000	99.465099 
2042.000000	99.465025 
2041.000000	99.465071 
2040.000000	99.465394 
2039.000000	99.465776 
2038.000000	99.465954 
2037.000000	99.465884 
2036.000000	99.465686 
2035.000000	99.465456 
2034.000000	99.465199 
2033.000000	99.464916 
2032.000000	99.464669 
2031.000000	99.464528 
2030.000000	99.464485 
2029.000000	99.464453 
2028.000000	99.464303 
2027.000000	99.463993 
2026.000000	99.463560 
2025.000000	99.463069 
2024.000000	99.462586 
2023.000000	99.462178 
2022.000000	99.461954 
2021.000000	99.462000 
2020.000000	99.462185 
2019.000000	99.462152 
2018.000000	99.461599 
2017.000000	99.460571 
2016.000000	99.459397 
2015.000000	99.458339 
2014.000000	99.457450 
2013.000000	99.456570 
2012.000000	99.455474 
2011.000000	99.454257 
2010.000000	99.453515 
2009.000000	99.453793 
2008.000000	99.454929 
2007.000000	99.456249 
2006.000000	99.457275 
2005.000000	99.457843 
2004.000000	99.457841 
2003.000000	99.457455 
2002.000000	99.457268 
2001.000000	99.457178 
2000.000000	99.455624 
1999.000000	99.451153 
1998.000000	99.444673 
1997.000000	99.439129 
1996.000000	99.436601 
1995.000000	99.436890 
1994.000000	99.438734 
1993.000000	99.441048 
1992.000000	99.442710 
1991.000000	99.442571 
1990.000000	99.440683 
1989.000000	99.438772 
1988.000000	99.439082 
1987.000000	99.443057 
1986.000000	99.450786 
1985.000000	99.460680 
1984.000000	99.469629 
1983.000000	99.474819 
1982.000000	99.475429 
1981.000000	99.472352 
1980.000000	99.467170 
1979.000000	99.461669 
1978.000000	99.456951 
1977.000000	99.451900 
1976.000000	99.444151 
1975.000000	99.434090 
1974.000000	99.426218 
1973.000000	99.424543 
1972.000000	99.427731 
1971.000000	99.430852 
1970.000000	99.431664 
1969.000000	99.432797 
1968.000000	99.437241 
1967.000000	99.443779 
1966.000000	99.448397 
1965.000000	99.449021 
1964.000000	99.446947 
1963.000000	99.444348 
1962.000000	99.441943 
1961.000000	99.439168 
1960.000000	99.435552 
1959.000000	99.431294 
1958.000000	99.426809 
1957.000000	99.422329 
1956.000000	99.417975 
1955.000000	99.413694 
1954.000000	99.408910 
1953.000000	99.402958 
1952.000000	99.396414 
1951.000000	99.391514 
1950.000000	99.390323 
1949.000000	99.392299 
1948.000000	99.394549 
1947.000000	99.394992 
1946.000000	99.394112 
1945.000000	99.393079 
1944.000000	99.391720 
1943.000000	99.389346 
1942.000000	99.386400 
1941.000000	99.383726 
1940.000000	99.381095 
1939.000000	99.377961 
1938.000000	99.374966 
1937.000000	99.373580 
1936.000000	99.374293 
1935.000000	99.375897 
1934.000000	99.376620 
1933.000000	99.375688 
1932.000000	99.373623 
1931.000000	99.371607 
1930.000000	99.370716 
1929.000000	99.371124 
1928.000000	99.371909 
1927.000000	99.371859 
1926.000000	99.370555 
1925.000000	99.368517 
1924.000000	99.366613 
1923.000000	99.365455 
1922.000000	99.365161 
1921.000000	99.365392 
1920.000000	99.365609 
1919.000000	99.365442 
1918.000000	99.364896 
1917.000000	99.364233 
1916.000000	99.363686 
1915.000000	99.363366 
1914.000000	99.363309 
1913.000000	99.363427 
1912.000000	99.363454 
1911.000000	99.363146 
1910.000000	99.362522 
1909.000000	99.361808 
1908.000000	99.361192 
1907.000000	99.360698 
1906.000000	99.360287 
1905.000000	99.359910 
1904.000000	99.359482 
1903.000000	99.358926 
1902.000000	99.358249 
1901.000000	99.357546 
1900.000000	99.356933 
1899.000000	99.356465 
1898.000000	99.356126 
1897.000000	99.355849 
1896.000000	99.355545 
1895.000000	99.355162 
1894.000000	99.354735 
1893.000000	99.354360 
1892.000000	99.354078 
1891.000000	99.353805 
1890.000000	99.353425 
1889.000000	99.352936 
1888.000000	99.352455 
1887.000000	99.352125 
1886.000000	99.352059 
1885.000000	99.352230 
1884.000000	99.352390 
1883.000000	99.352240 
1882.000000	99.351777 
1881.000000	99.351264 
1880.000000	99.350904 
1879.000000	99.350668 
1878.000000	99.350394 
1877.000000	99.349911 
1876.000000	99.349165 
1875.000000	99.348485 
1874.000000	99.348579 
1873.000000	99.349846 
1872.000000	99.351584 
1871.000000	99.352337 
1870.000000	99.351344 
1869.000000	99.349350 
1868.000000	99.347553 
1867.000000	99.346025 
1866.000000	99.344422 
1865.000000	99.343133 
1864.000000	99.342984 
1863.000000	99.344344 
1862.000000	99.346867 
1861.000000	99.349777 
1860.000000	99.352231 
1859.000000	99.353938 
1858.000000	99.355529 
1857.000000	99.357666 
1856.000000	99.359951 
1855.000000	99.361473 
1854.000000	99.362011 
1853.000000	99.361967 
1852.000000	99.361500 
1851.000000	99.360456 
1850.000000	99.359058 
1849.000000	99.358087 
1848.000000	99.358139 
1847.000000	99.359110 
1846.000000	99.360481 
1845.000000	99.361350 
1844.000000	99.360577 
1843.000000	99.358268 
1842.000000	99.356369 
1841.000000	99.356458 
1840.000000	99.358515 
1839.000000	99.361418 
1838.000000	99.363986 
1837.000000	99.365742 
1836.000000	99.366776 
1835.000000	99.367433 
1834.000000	99.368204 
1833.000000	99.369542 
1832.000000	99.371642 
1831.000000	99.373894 
1830.000000	99.374998 
1829.000000	99.374522 
1828.000000	99.373528 
1827.000000	99.372828 
1826.000000	99.372136 
1825.000000	99.371374 
1824.000000	99.371106 
1823.000000	99.371435 
1822.000000	99.371627 
1821.000000	99.370839 
1820.000000	99.368907 
1819.000000	99.366429 
1818.000000	99.364532 
1817.000000	99.364208 
1816.000000	99.365181 
1815.000000	99.366207 
1814.000000	99.366827 
1813.000000	99.368054 
1812.000000	99.371060 
1811.000000	99.375301 
1810.000000	99.379200 
1809.000000	99.382101 
1808.000000	99.383876 
1807.000000	99.383989 
1806.000000	99.382205 
1805.000000	99.379308 
1804.000000	99.376387 
1803.000000	99.373950 
1802.000000	99.372341 
1801.000000	99.372315 
1800.000000	99.373917 
1799.000000	99.375848 
1798.000000	99.377165 
1797.000000	99.378081 
1796.000000	99.378970 
1795.000000	99.379780 
1794.000000	99.380288 
1793.000000	99.380394 
1792.000000	99.380252 
1791.000000	99.380002 
1790.000000	99.379874 
1789.000000	99.380147 
1788.000000	99.380833 
1787.000000	99.381665 
1786.000000	99.382311 
1785.000000	99.382535 
1784.000000	99.382244 
1783.000000	99.381766 
1782.000000	99.381690 
1781.000000	99.382190 
1780.000000	99.382705 
1779.000000	99.382585 
1778.000000	99.381981 
1777.000000	99.381556 
1776.000000	99.381672 
1775.000000	99.382284 
1774.000000	99.383203 
1773.000000	99.384178 
1772.000000	99.384870 
1771.000000	99.385058 
1770.000000	99.384838 
1769.000000	99.384415 
1768.000000	99.384019 
1767.000000	99.383779 
1766.000000	99.383690 
1765.000000	99.383719 
1764.000000	99.383808 
1763.000000	99.383877 
1762.000000	99.383877 
1761.000000	99.383908 
1760.000000	99.384115 
1759.000000	99.384411 
1758.000000	99.384562 
1757.000000	99.384447 
1756.000000	99.384182 
1755.000000	99.383911 
1754.000000	99.383524 
1753.000000	99.382834 
1752.000000	99.382072 
1751.000000	99.381942 
1750.000000	99.382720 
1749.000000	99.383838 
1748.000000	99.384619 
1747.000000	99.384945 
1746.000000	99.385005 
1745.000000	99.385002 
1744.000000	99.385121 
1743.000000	99.385407 
1742.000000	99.385683 
1741.000000	99.385847 
1740.000000	99.386043 
1739.000000	99.386400 
1738.000000	99.386803 
1737.000000	99.387028 
1736.000000	99.386917 
1735.000000	99.386395 
1734.000000	99.385693 
1733.000000	99.385444 
1732.000000	99.386078 
1731.000000	99.387370 
1730.000000	99.388772 
1729.000000	99.389814 
1728.000000	99.390432 
1727.000000	99.390864 
1726.000000	99.391229 
1725.000000	99.391406 
1724.000000	99.391355 
1723.000000	99.391325 
1722.000000	99.391609 
1721.000000	99.392222 
1720.000000	99.392872 
1719.000000	99.393150 
1718.000000	99.392828 
1717.000000	99.392266 
1716.000000	99.391918 
1715.000000	99.391726 
1714.000000	99.391637 
1713.000000	99.391753 
1712.000000	99.392028 
1711.000000	99.392303 
1710.000000	99.392468 
1709.000000	99.392529 
1708.000000	99.392544 
1707.000000	99.392555 
1706.000000	99.392602 
1705.000000	99.392658 
1704.000000	99.392539 
1703.000000	99.392100 
1702.000000	99.391426 
1701.000000	99.390879 
1700.000000	99.390716 
1699.000000	99.390688 
1698.000000	99.390567 
1697.000000	99.390462 
1696.000000	99.390505 
1695.000000	99.390580 
1694.000000	99.390548 
1693.000000	99.390397 
1692.000000	99.390093 
1691.000000	99.389646 
1690.000000	99.389140 
1689.000000	99.388644 
1688.000000	99.388123 
1687.000000	99.387499 
1686.000000	99.386847 
1685.000000	99.386429 
1684.000000	99.386313 
1683.000000	99.386116 
1682.000000	99.385737 
1681.000000	99.385242 
1680.000000	99.384744 
1679.000000	99.384331 
1678.000000	99.383981 
1677.000000	99.383612 
1676.000000	99.383217 
1675.000000	99.382893 
1674.000000	99.382601 
1673.000000	99.382286 
1672.000000	99.381979 
1671.000000	99.381823 
1670.000000	99.381851 
1669.000000	99.381628 
1668.000000	99.380990 
1667.000000	99.380341 
1666.000000	99.379556 
1665.000000	99.378253 
1664.000000	99.376734 
1663.000000	99.376077 
1662.000000	99.377000 
1661.000000	99.378852 
1660.000000	99.380375 
1659.000000	99.381227 
1658.000000	99.381752 
1657.000000	99.381764 
1656.000000	99.380195 
1655.000000	99.377178 
1654.000000	99.375199 
1653.000000	99.374813 
1652.000000	99.372747 
1651.000000	99.371950 
1650.000000	99.371675 
1649.000000	99.370309 
1648.000000	99.367980 
1647.000000	99.365610 
1646.000000	99.363175 
1645.000000	99.361902 
1644.000000	99.362966 
1643.000000	99.365407 
1642.000000	99.367508 
1641.000000	99.368329 
1640.000000	99.367931 
1639.000000	99.366806 
1638.000000	99.365547 
1637.000000	99.364968 
1636.000000	99.365234 
1635.000000	99.365914 
1634.000000	99.367706 
1633.000000	99.370502 
1632.000000	99.372586 
1631.000000	99.373427 
1630.000000	99.373870 
1629.000000	99.374611 
1628.000000	99.375394 
1627.000000	99.376150 
1626.000000	99.377409 
1625.000000	99.379297 
1624.000000	99.381029 
1623.000000	99.381806 
1622.000000	99.382047 
1621.000000	99.382504 
1620.000000	99.382893 
1619.000000	99.382928 
1618.000000	99.383502 
1617.000000	99.385160 
1616.000000	99.386580 
1615.000000	99.387346 
1614.000000	99.387669 
1613.000000	99.386943 
1612.000000	99.385474 
1611.000000	99.384629 
1610.000000	99.385284 
1609.000000	99.386702 
1608.000000	99.387745 
1607.000000	99.388379 
1606.000000	99.388980 
1605.000000	99.389506 
1604.000000	99.390116 
1603.000000	99.391333 
1602.000000	99.392944 
1601.000000	99.393885 
1600.000000	99.394053 
1599.000000	99.394953 
1598.000000	99.397588 
1597.000000	99.401125 
1596.000000	99.404148 
1595.000000	99.406373 
1594.000000	99.408345 
1593.000000	99.409977 
1592.000000	99.410755 
1591.000000	99.410938 
1590.000000	99.411384 
1589.000000	99.412246 
1588.000000	99.413054 
1587.000000	99.413757 
1586.000000	99.414432 
1585.000000	99.414489 
1584.000000	99.413458 
1583.000000	99.412051 
1582.000000	99.411536 
1581.000000	99.412127 
1580.000000	99.413010 
1579.000000	99.413684 
1578.000000	99.414453 
1577.000000	99.415454 
1576.000000	99.415955 
1575.000000	99.416094 
1574.000000	99.416800 
1573.000000	99.417462 
1572.000000	99.417416 
1571.000000	99.417204 
1570.000000	99.417698 
1569.000000	99.418511 
1568.000000	99.418883 
1567.000000	99.418929 
1566.000000	99.418898 
1565.000000	99.418896 
1564.000000	99.418982 
1563.000000	99.419168 
1562.000000	99.419314 
1561.000000	99.419215 
1560.000000	99.418879 
1559.000000	99.418529 
1558.000000	99.418080 
1557.000000	99.418039 
1556.000000	99.418406 
1555.000000	99.418809 
1554.000000	99.419022 
1553.000000	99.419024 
1552.000000	99.418973 
1551.000000	99.419020 
1550.000000	99.419198 
1549.000000	99.419358 
1548.000000	99.419333 
1547.000000	99.419117 
1546.000000	99.418784 
1545.000000	99.418458 
1544.000000	99.418236 
1543.000000	99.418119 
1542.000000	99.418126 
1541.000000	99.418345 
1540.000000	99.418614 
1539.000000	99.418644 
1538.000000	99.418613 
1537.000000	99.418689 
1536.000000	99.418788 
1535.000000	99.418855 
1534.000000	99.419041 
1533.000000	99.419444 
1532.000000	99.419812 
1531.000000	99.419880 
1530.000000	99.419741 
1529.000000	99.419701 
1528.000000	99.419842 
1527.000000	99.420007 
1526.000000	99.420083 
1525.000000	99.420131 
1524.000000	99.420161 
1523.000000	99.420195 
1522.000000	99.420602 
1521.000000	99.421567 
1520.000000	99.422268 
1519.000000	99.422042 
1518.000000	99.420981 
1517.000000	99.419719 
1516.000000	99.418706 
1515.000000	99.417894 
1514.000000	99.417160 
1513.000000	99.416496 
1512.000000	99.415964 
1511.000000	99.415413 
1510.000000	99.414551 
1509.000000	99.413599 
1508.000000	99.413937 
1507.000000	99.416337 
1506.000000	99.417839 
1505.000000	99.417162 
1504.000000	99.416136 
1503.000000	99.415223 
1502.000000	99.414464 
1501.000000	99.414251 
1500.000000	99.414835 
1499.000000	99.415705 
1498.000000	99.416002 
1497.000000	99.416175 
1496.000000	99.417232 
1495.000000	99.418169 
1494.000000	99.417251 
1493.000000	99.414211 
1492.000000	99.410088 
1491.000000	99.406457 
1490.000000	99.404316 
1489.000000	99.403445 
1488.000000	99.402540 
1487.000000	99.400610 
1486.000000	99.398451 
1485.000000	99.397108 
1484.000000	99.396478 
1483.000000	99.395814 
1482.000000	99.394328 
1481.000000	99.391995 
1480.000000	99.389541 
1479.000000	99.387636 
1478.000000	99.386333 
1477.000000	99.385164 
1476.000000	99.383416 
1475.000000	99.380416 
1474.000000	99.376864 
1473.000000	99.374827 
1472.000000	99.375036 
1471.000000	99.375369 
1470.000000	99.374490 
1469.000000	99.373191 
1468.000000	99.372595 
1467.000000	99.372769 
1466.000000	99.373068 
1465.000000	99.372962 
1464.000000	99.372120 
1463.000000	99.370604 
1462.000000	99.368943 
1461.000000	99.367948 
1460.000000	99.367664 
1459.000000	99.366796 
1458.000000	99.362487 
1457.000000	99.353879 
1456.000000	99.345675 
1455.000000	99.341863 
1454.000000	99.341085 
1453.000000	99.341273 
1452.000000	99.341842 
1451.000000	99.342724 
1450.000000	99.343899 
1449.000000	99.345978 
1448.000000	99.349144 
1447.000000	99.351621 
1446.000000	99.352055 
1445.000000	99.351666 
1444.000000	99.352011 
1443.000000	99.352454 
1442.000000	99.351416 
1441.000000	99.348975 
1440.000000	99.347165 
1439.000000	99.347531 
1438.000000	99.348669 
1437.000000	99.347838 
1436.000000	99.344313 
1435.000000	99.339273 
1434.000000	99.334124 
1433.000000	99.330570 
1432.000000	99.329966 
1431.000000	99.332455 
1430.000000	99.335499 
1429.000000	99.336061 
1428.000000	99.333835 
1427.000000	99.330442 
1426.000000	99.327033 
1425.000000	99.323266 
1424.000000	99.319323 
1423.000000	99.315687 
1422.000000	99.310956 
1421.000000	99.303552 
1420.000000	99.294268 
1419.000000	99.285919 
1418.000000	99.278364 
1417.000000	99.270276 
1416.000000	99.262794 
1415.000000	99.256289 
1414.000000	99.248792 
1413.000000	99.238660 
1412.000000	99.227834 
1411.000000	99.219858 
1410.000000	99.214869 
1409.000000	99.210771 
1408.000000	99.207434 
1407.000000	99.206026 
1406.000000	99.206530 
1405.000000	99.208380 
1404.000000	99.212714 
1403.000000	99.219909 
1402.000000	99.227219 
1401.000000	99.232224 
1400.000000	99.235517 
1399.000000	99.238671 
1398.000000	99.239296 
1397.000000	99.232624 
1396.000000	99.218352 
1395.000000	99.204128 
1394.000000	99.199911 
1393.000000	99.208469 
1392.000000	99.225764 
1391.000000	99.245114 
1390.000000	99.260284 
1389.000000	99.267835 
1388.000000	99.268399 
1387.000000	99.265722 
1386.000000	99.263047 
1385.000000	99.261408 
1384.000000	99.261112 
1383.000000	99.262514 
1382.000000	99.265366 
1381.000000	99.269173 
1380.000000	99.273667 
1379.000000	99.278753 
1378.000000	99.283973 
1377.000000	99.288579 
1376.000000	99.292738 
1375.000000	99.298138 
1374.000000	99.306257 
1373.000000	99.315932 
1372.000000	99.324762 
1371.000000	99.332259 
1370.000000	99.339904 
1369.000000	99.348142 
1368.000000	99.356205 
1367.000000	99.363653 
1366.000000	99.370752 
1365.000000	99.377593 
1364.000000	99.383314 
1363.000000	99.387170 
1362.000000	99.390076 
1361.000000	99.393623 
1360.000000	99.398252 
1359.000000	99.403544 
1358.000000	99.409322 
1357.000000	99.415473 
1356.000000	99.421472 
1355.000000	99.426697 
1354.000000	99.431115 
1353.000000	99.435092 
1352.000000	99.437892 
1351.000000	99.438003 
1350.000000	99.436493 
1349.000000	99.435556 
1348.000000	99.436267 
1347.000000	99.438579 
1346.000000	99.442710 
1345.000000	99.448331 
1344.000000	99.453482 
1343.000000	99.455847 
1342.000000	99.455155 
1341.000000	99.453031 
1340.000000	99.450977 
1339.000000	99.449524 
1338.000000	99.448981 
1337.000000	99.450139 
1336.000000	99.453448 
1335.000000	99.457823 
1334.000000	99.461429 
1333.000000	99.463447 
1332.000000	99.464387 
1331.000000	99.465134 
1330.000000	99.466077 
1329.000000	99.466773 
1328.000000	99.466620 
1327.000000	99.465740 
1326.000000	99.465052 
1325.000000	99.464829 
1324.000000	99.464982 
1323.000000	99.465560 
1322.000000	99.466326 
1321.000000	99.466423 
1320.000000	99.465427 
1319.000000	99.464226 
1318.000000	99.463997 
1317.000000	99.464676 
1316.000000	99.465058 
1315.000000	99.464282 
1314.000000	99.462695 
1313.000000	99.461528 
1312.000000	99.461843 
1311.000000	99.463657 
1310.000000	99.465992 
1309.000000	99.467714 
1308.000000	99.468238 
1307.000000	99.467373 
1306.000000	99.465252 
1305.000000	99.462466 
1304.000000	99.460689 
1303.000000	99.461597 
1302.000000	99.465044 
1301.000000	99.468855 
1300.000000	99.470835 
1299.000000	99.470316 
1298.000000	99.467856 
1297.000000	99.464545 
1296.000000	99.461870 
1295.000000	99.461486 
1294.000000	99.463979 
1293.000000	99.468091 
1292.000000	99.471528 
1291.000000	99.472432 
1290.000000	99.470454 
1289.000000	99.467128 
1288.000000	99.464962 
1287.000000	99.465131 
1286.000000	99.466051 
1285.000000	99.465327 
1284.000000	99.462949 
1283.000000	99.461292 
1282.000000	99.461880 
1281.000000	99.463653 
1280.000000	99.464858 
1279.000000	99.465012 
1278.000000	99.464048 
1277.000000	99.461302 
1276.000000	99.456639 
1275.000000	99.451820 
1274.000000	99.449191 
1273.000000	99.449314 
1272.000000	99.450768 
1271.000000	99.451709 
1270.000000	99.450788 
1269.000000	99.447414 
1268.000000	99.442448 
1267.000000	99.438053 
1266.000000	99.435438 
1265.000000	99.433326 
1264.000000	99.429659 
1263.000000	99.424074 
1262.000000	99.417655 
1261.000000	99.411149 
1260.000000	99.404994 
1259.000000	99.400507 
1258.000000	99.398863 
1257.000000	99.399247 
1256.000000	99.399593 
1255.000000	99.399100 
1254.000000	99.398463 
1253.000000	99.397805 
1252.000000	99.396179 
1251.000000	99.393552 
1250.000000	99.391577 
1249.000000	99.391853 
1248.000000	99.394754 
1247.000000	99.399996 
1246.000000	99.406271 
1245.000000	99.410067 
1244.000000	99.407348 
1243.000000	99.398254 
1242.000000	99.388998 
1241.000000	99.387028 
1240.000000	99.394220 
1239.000000	99.405568 
1238.000000	99.414059 
1237.000000	99.416015 
1236.000000	99.412068 
1235.000000	99.404749 
1234.000000	99.396143 
1233.000000	99.387358 
1232.000000	99.379216 
1231.000000	99.372433 
1230.000000	99.366844 
1229.000000	99.361247 
1228.000000	99.354879 
1227.000000	99.348857 
1226.000000	99.345262 
1225.000000	99.344462 
1224.000000	99.344024 
1223.000000	99.340758 
1222.000000	99.333590 
1221.000000	99.324178 
1220.000000	99.315148 
1219.000000	99.308053 
1218.000000	99.302525 
1217.000000	99.296753 
1216.000000	99.288645 
1215.000000	99.276983 
1214.000000	99.262104 
1213.000000	99.245744 
1212.000000	99.229855 
1211.000000	99.214876 
1210.000000	99.199231 
1209.000000	99.181037 
1208.000000	99.160215 
1207.000000	99.138486 
1206.000000	99.117571 
1205.000000	99.098145 
1204.000000	99.080216 
1203.000000	99.063208 
1202.000000	99.045424 
1201.000000	99.024837 
1200.000000	99.001195 
1199.000000	98.976480 
1198.000000	98.952637 
1197.000000	98.929865 
1196.000000	98.907607 
1195.000000	98.885816 
1194.000000	98.864206 
1193.000000	98.841186 
1192.000000	98.815090 
1191.000000	98.786282 
1190.000000	98.757163 
1189.000000	98.730230 
1188.000000	98.706546 
1187.000000	98.685276 
1186.000000	98.663801 
1185.000000	98.638979 
1184.000000	98.609316 
1183.000000	98.575926 
1182.000000	98.541128 
1181.000000	98.506582 
1180.000000	98.472980 
1179.000000	98.440448 
1178.000000	98.408172 
1177.000000	98.374342 
1176.000000	98.337741 
1175.000000	98.299285 
1174.000000	98.261301 
1173.000000	98.225409 
1172.000000	98.191670 
1171.000000	98.159314 
1170.000000	98.127647 
1169.000000	98.096691 
1168.000000	98.067464 
1167.000000	98.041344 
1166.000000	98.019186 
1165.000000	98.002006 
1164.000000	97.992574 
1163.000000	97.994549 
1162.000000	98.008708 
1161.000000	98.030449 
1160.000000	98.051744 
1159.000000	98.065637 
1158.000000	98.068991 
1157.000000	98.061913 
1156.000000	98.045537 
1155.000000	98.020596 
1154.000000	97.987867 
1153.000000	97.949465 
1152.000000	97.908904 
1151.000000	97.869377 
1150.000000	97.832289 
1149.000000	97.797833 
1148.000000	97.765976 
1147.000000	97.735682 
1146.000000	97.704175 
1145.000000	97.669140 
1144.000000	97.631673 
1143.000000	97.595434 
1142.000000	97.562663 
1141.000000	97.532305 
1140.000000	97.501846 
1139.000000	97.469301 
1138.000000	97.433716 
1137.000000	97.395895 
1136.000000	97.358739 
1135.000000	97.324846 
1134.000000	97.293528 
1133.000000	97.262043 
1132.000000	97.229486 
1131.000000	97.196914 
1130.000000	97.163695 
1129.000000	97.126900 
1128.000000	97.085335 
1127.000000	97.041538 
1126.000000	96.998586 
1125.000000	96.957024 
1124.000000	96.916058 
1123.000000	96.875481 
1122.000000	96.835040 
1121.000000	96.793919 
1120.000000	96.752253 
1119.000000	96.711465 
1118.000000	96.672022 
1117.000000	96.632479 
1116.000000	96.591664 
1115.000000	96.550174 
1114.000000	96.509066 
1113.000000	96.468767 
1112.000000	96.429920 
1111.000000	96.393520 
1110.000000	96.359773 
1109.000000	96.328038 
1108.000000	96.297683 
1107.000000	96.267322 
1106.000000	96.234317 
1105.000000	96.197317 
1104.000000	96.158604 
1103.000000	96.121487 
1102.000000	96.086381 
1101.000000	96.052193 
1100.000000	96.020703 
1099.000000	95.993929 
1098.000000	95.970027 
1097.000000	95.944899 
1096.000000	95.917987 
1095.000000	95.891542 
1094.000000	95.864288 
1093.000000	95.831242 
1092.000000	95.790797 
1091.000000	95.746883 
1090.000000	95.702404 
1089.000000	95.655185 
1088.000000	95.603014 
1087.000000	95.548936 
1086.000000	95.498806 
1085.000000	95.455886 
1084.000000	95.419308 
1083.000000	95.385112 
1082.000000	95.347878 
1081.000000	95.304568 
1080.000000	95.257913 
1079.000000	95.213425 
1078.000000	95.172902 
1077.000000	95.134251 
1076.000000	95.097139 
1075.000000	95.063664 
1074.000000	95.032890 
1073.000000	94.999809 
1072.000000	94.960057 
1071.000000	94.909895 
1070.000000	94.841711 
1069.000000	94.748235 
1068.000000	94.635374 
1067.000000	94.524671 
1066.000000	94.436594 
1065.000000	94.373861 
1064.000000	94.324367 
1063.000000	94.274336 
1062.000000	94.213732 
1061.000000	94.135330 
1060.000000	94.038186 
1059.000000	93.932548 
1058.000000	93.834923 
1057.000000	93.754977 
1056.000000	93.688356 
1055.000000	93.621781 
1054.000000	93.544015 
1053.000000	93.453632 
1052.000000	93.358006 
1051.000000	93.264711 
1050.000000	93.174629 
1049.000000	93.085157 
1048.000000	92.997368 
1047.000000	92.914897 
1046.000000	92.837335 
1045.000000	92.760431 
1044.000000	92.682503 
1043.000000	92.605795 
1042.000000	92.531821 
1041.000000	92.460163 
1040.000000	92.392077 
1039.000000	92.330740 
1038.000000	92.277737 
1037.000000	92.233536 
1036.000000	92.200644 
1035.000000	92.181146 
1034.000000	92.171476 
1033.000000	92.164347 
1032.000000	92.154883 
1031.000000	92.140623 
1030.000000	92.119106 
1029.000000	92.092944 
1028.000000	92.074880 
1027.000000	92.078499 
1026.000000	92.102954 
1025.000000	92.133509 
1024.000000	92.157094 
1023.000000	92.170436 
1022.000000	92.174286 
1021.000000	92.169443 
1020.000000	92.160113 
1019.000000	92.153004 
1018.000000	92.150083 
1017.000000	92.147800 
1016.000000	92.144762 
1015.000000	92.144455 
1014.000000	92.149413 
1013.000000	92.158190 
1012.000000	92.168584 
1011.000000	92.178671 
1010.000000	92.185401 
1009.000000	92.188167 
1008.000000	92.192925 
1007.000000	92.206725 
1006.000000	92.229470 
1005.000000	92.257105 
1004.000000	92.290028 
1003.000000	92.330168 
1002.000000	92.372471 
1001.000000	92.409580 
1000.000000	92.443986 
999.000000	 92.484715 
998.000000	 92.531860 
997.000000	 92.575750 
996.000000	 92.613307 
995.000000	 92.653862 
994.000000	 92.704736 
993.000000	 92.761061 
992.000000	 92.814710 
991.000000	 92.864853 
990.000000	 92.914457 
989.000000	 92.963817 
988.000000	 93.013171 
987.000000	 93.065660 
986.000000	 93.122706 
985.000000	 93.181837 
984.000000	 93.243411 
983.000000	 93.313805 
982.000000	 93.396967 
981.000000	 93.487467 
980.000000	 93.577034 
979.000000	 93.664625 
978.000000	 93.755074 
977.000000	 93.850417 
976.000000	 93.947609 
975.000000	 94.043989 
974.000000	 94.141191 
973.000000	 94.242699 
972.000000	 94.348554 
971.000000	 94.453206 
970.000000	 94.550059 
969.000000	 94.639198 
968.000000	 94.728421 
967.000000	 94.823856 
966.000000	 94.921379 
965.000000	 95.011555 
964.000000	 95.091916 
963.000000	 95.169428 
962.000000	 95.250353 
961.000000	 95.332203 
960.000000	 95.407857 
959.000000	 95.474390 
958.000000	 95.535719 
957.000000	 95.598145 
956.000000	 95.664290 
955.000000	 95.730645 
954.000000	 95.791334 
953.000000	 95.845152 
952.000000	 95.897415 
951.000000	 95.952766 
950.000000	 96.007756 
949.000000	 96.054138 
948.000000	 96.088949 
947.000000	 96.117991 
946.000000	 96.149164 
945.000000	 96.184582 
944.000000	 96.219631 
943.000000	 96.247961 
942.000000	 96.267555 
941.000000	 96.283476 
940.000000	 96.303614 
939.000000	 96.329875 
938.000000	 96.355582 
937.000000	 96.374463 
936.000000	 96.389958 
935.000000	 96.411062 
934.000000	 96.439498 
933.000000	 96.466291 
932.000000	 96.482727 
931.000000	 96.491310 
930.000000	 96.503840 
929.000000	 96.529606 
928.000000	 96.566211 
927.000000	 96.601524 
926.000000	 96.625216 
925.000000	 96.638724 
924.000000	 96.651873 
923.000000	 96.669064 
922.000000	 96.682756 
921.000000	 96.683833 
920.000000	 96.674837 
919.000000	 96.667893 
918.000000	 96.671033 
917.000000	 96.681704 
916.000000	 96.693266 
915.000000	 96.703131 
914.000000	 96.714077 
913.000000	 96.731119 
912.000000	 96.757604 
911.000000	 96.791679 
910.000000	 96.827182 
909.000000	 96.861218 
908.000000	 96.899375 
907.000000	 96.949078 
906.000000	 97.009042 
905.000000	 97.070082 
904.000000	 97.126456 
903.000000	 97.181958 
902.000000	 97.243730 
901.000000	 97.313541 
900.000000	 97.386323 
899.000000	 97.455366 
898.000000	 97.518735 
897.000000	 97.580911 
896.000000	 97.646436 
895.000000	 97.711668 
894.000000	 97.767096 
893.000000	 97.810188 
892.000000	 97.851082 
891.000000	 97.901091 
890.000000	 97.959343 
889.000000	 98.016721 
888.000000	 98.069634 
887.000000	 98.121884 
886.000000	 98.174116 
885.000000	 98.219997 
884.000000	 98.255219 
883.000000	 98.284103 
882.000000	 98.313902 
881.000000	 98.346450 
880.000000	 98.379146 
879.000000	 98.411497 
878.000000	 98.446920 
877.000000	 98.488198 
876.000000	 98.532641 
875.000000	 98.572453 
874.000000	 98.601292 
873.000000	 98.621556 
872.000000	 98.643668 
871.000000	 98.675989 
870.000000	 98.716419 
869.000000	 98.756073 
868.000000	 98.789666 
867.000000	 98.819701 
866.000000	 98.851761 
865.000000	 98.888456 
864.000000	 98.928082 
863.000000	 98.967268 
862.000000	 99.004550 
861.000000	 99.041557 
860.000000	 99.079867 
859.000000	 99.117374 
858.000000	 99.150890 
857.000000	 99.182426 
856.000000	 99.217883 
855.000000	 99.257080 
854.000000	 99.290096 
853.000000	 99.308420 
852.000000	 99.316513 
851.000000	 99.327174 
850.000000	 99.346779 
849.000000	 99.369901 
848.000000	 99.387967 
847.000000	 99.398555 
846.000000	 99.406087 
845.000000	 99.417080 
844.000000	 99.434938 
843.000000	 99.456238 
842.000000	 99.471583 
841.000000	 99.472698 
840.000000	 99.459732 
839.000000	 99.441229 
838.000000	 99.427184 
837.000000	 99.421702 
836.000000	 99.420792 
835.000000	 99.417067 
834.000000	 99.408504 
833.000000	 99.401779 
832.000000	 99.402904 
831.000000	 99.405576 
830.000000	 99.397003 
829.000000	 99.378363 
828.000000	 99.369901 
827.000000	 99.386978 
826.000000	 99.417837 
825.000000	 99.437365 
824.000000	 99.438874 
823.000000	 99.438461 
822.000000	 99.449771 
821.000000	 99.468662 
820.000000	 99.483701 
819.000000	 99.489160 
818.000000	 99.485861 
817.000000	 99.478113 
816.000000	 99.470990 
815.000000	 99.463725 
814.000000	 99.445196 
813.000000	 99.403116 
812.000000	 99.338741 
811.000000	 99.265739 
810.000000	 99.192218 
809.000000	 99.110001 
808.000000	 99.004744 
807.000000	 98.871003 
806.000000	 98.714640 
805.000000	 98.546100 
804.000000	 98.376131 
803.000000	 98.214725 
802.000000	 98.069808 
801.000000	 97.948257 
800.000000	 97.858345 
799.000000	 97.806037 
798.000000	 97.787426 
797.000000	 97.790789 
796.000000	 97.808168 
795.000000	 97.839719 
794.000000	 97.885852 
793.000000	 97.941055 
792.000000	 97.996196 
791.000000	 98.041035 
790.000000	 98.064985 
789.000000	 98.063550 
788.000000	 98.045503 
787.000000	 98.025763 
786.000000	 98.007973 
785.000000	 97.980929 
784.000000	 97.935769 
783.000000	 97.879670 
782.000000	 97.827554 
781.000000	 97.786534 
780.000000	 97.754831 
779.000000	 97.731222 
778.000000	 97.718782 
777.000000	 97.721608 
776.000000	 97.742505 
775.000000	 97.781668 
774.000000	 97.834084 
773.000000	 97.890661 
772.000000	 97.944946 
771.000000	 97.996503 
770.000000	 98.045480 
769.000000	 98.087007 
768.000000	 98.114732 
767.000000	 98.129022 
766.000000	 98.138732 
765.000000	 98.153756 
764.000000	 98.175759 
763.000000	 98.196038 
762.000000	 98.204288 
761.000000	 98.201616 
760.000000	 98.202718 
759.000000	 98.220968 
758.000000	 98.252536 
757.000000	 98.280799 
756.000000	 98.296756 
755.000000	 98.309017 
754.000000	 98.331359 
753.000000	 98.366015 
752.000000	 98.403284 
751.000000	 98.433503 
750.000000	 98.455151 
749.000000	 98.472942 
748.000000	 98.492112 
747.000000	 98.514982 
746.000000	 98.541015 
745.000000	 98.569005 
744.000000	 98.598617 
743.000000	 98.629539 
742.000000	 98.660505 
741.000000	 98.690935 
740.000000	 98.722959 
739.000000	 98.759708 
738.000000	 98.801341 
737.000000	 98.843919 
736.000000	 98.882290 
735.000000	 98.914102 
734.000000	 98.942492 
733.000000	 98.974887 
732.000000	 99.016066 
731.000000	 99.060092 
730.000000	 99.092242 
729.000000	 99.102288 
728.000000	 99.095560 
727.000000	 99.087930 
726.000000	 99.089950 
725.000000	 99.101030 
724.000000	 99.117532 
723.000000	 99.139221 
722.000000	 99.166302 
721.000000	 99.195371 
720.000000	 99.220623 
719.000000	 99.236616 
718.000000	 99.240617 
717.000000	 99.236948 
716.000000	 99.238115 
715.000000	 99.255054 
714.000000	 99.283951 
713.000000	 99.308050 
712.000000	 99.315541 
711.000000	 99.310706 
710.000000	 99.306066 
709.000000	 99.307586 
708.000000	 99.310791 
707.000000	 99.309520 
706.000000	 99.302376 
705.000000	 99.292940 
704.000000	 99.285507 
703.000000	 99.277362 
702.000000	 99.257034 
701.000000	 99.214226 
700.000000	 99.149726 
699.000000	 99.073443 
698.000000	 98.992095 
697.000000	 98.906456 
696.000000	 98.823019 
695.000000	 98.758389 
694.000000	 98.729570 
693.000000	 98.742293 
692.000000	 98.788169 
691.000000	 98.850186 
690.000000	 98.908729 
689.000000	 98.950929 
688.000000	 98.979677 
687.000000	 99.008459 
686.000000	 99.045762 
685.000000	 99.086557 
684.000000	 99.119343 
683.000000	 99.138922 
682.000000	 99.150290 
681.000000	 99.163659 
680.000000	 99.186931 
679.000000	 99.220563 
678.000000	 99.256105 
677.000000	 99.278822 
676.000000	 99.282457 
675.000000	 99.278584 
674.000000	 99.283440 
673.000000	 99.301517 
672.000000	 99.329607 
671.000000	 99.369094 
670.000000	 99.426474 
669.000000	 99.492867 
668.000000	 99.520715 
667.000000	 99.492139 
666.000000	 99.464020 
665.000000	 99.456932 
664.000000	 99.457489 
663.000000	 99.457881 
662.000000	 99.460575 
661.000000	 99.469968 
660.000000	 99.487297 
659.000000	 99.508089 
658.000000	 99.520316 
657.000000	 99.510959 
656.000000	 99.484544 
655.000000	 99.463126 
654.000000	 99.455832 
653.000000	 99.447344 
652.000000	 99.429236 
651.000000	 99.419296 
650.000000	 99.437157 

