4000.000000	99.188054 
3999.000000	99.188078 
3998.000000	99.187874 
3997.000000	99.187293 
3996.000000	99.186356 
3995.000000	99.185332 
3994.000000	99.184631 
3993.000000	99.184538 
3992.000000	99.184985 
3991.000000	99.185537 
3990.000000	99.185723 
3989.000000	99.185468 
3988.000000	99.185146 
3987.000000	99.185221 
3986.000000	99.185813 
3985.000000	99.186576 
3984.000000	99.186959 
3983.000000	99.186598 
3982.000000	99.185532 
3981.000000	99.184140 
3980.000000	99.182832 
3979.000000	99.181764 
3978.000000	99.180903 
3977.000000	99.180289 
3976.000000	99.180141 
3975.000000	99.180668 
3974.000000	99.181823 
3973.000000	99.183193 
3972.000000	99.184158 
3971.000000	99.184283 
3970.000000	99.183565 
3969.000000	99.182391 
3968.000000	99.181266 
3967.000000	99.180457 
3966.000000	99.179933 
3965.000000	99.179580 
3964.000000	99.179310 
3963.000000	99.178967 
3962.000000	99.178307 
3961.000000	99.177203 
3960.000000	99.175842 
3959.000000	99.174662 
3958.000000	99.174018 
3957.000000	99.173927 
3956.000000	99.174143 
3955.000000	99.174366 
3954.000000	99.174407 
3953.000000	99.174165 
3952.000000	99.173559 
3951.000000	99.172602 
3950.000000	99.171507 
3949.000000	99.170689 
3948.000000	99.170490 
3947.000000	99.170846 
3946.000000	99.171374 
3945.000000	99.171774 
3944.000000	99.172019 
3943.000000	99.172110 
3942.000000	99.171957 
3941.000000	99.171473 
3940.000000	99.170594 
3939.000000	99.169222 
3938.000000	99.167302 
3937.000000	99.165074 
3936.000000	99.163243 
3935.000000	99.162625 
3934.000000	99.163653 
3933.000000	99.166059 
3932.000000	99.168907 
3931.000000	99.170981 
3930.000000	99.171397 
3929.000000	99.170153 
3928.000000	99.168120 
3927.000000	99.166449 
3926.000000	99.165881 
3925.000000	99.166312 
3924.000000	99.166954 
3923.000000	99.167047 
3922.000000	99.166346 
3921.000000	99.165232 
3920.000000	99.164432 
3919.000000	99.164605 
3918.000000	99.165990 
3917.000000	99.168234 
3916.000000	99.170643 
3915.000000	99.172664 
3914.000000	99.174199 
3913.000000	99.175399 
3912.000000	99.176311 
3911.000000	99.176916 
3910.000000	99.177270 
3909.000000	99.177444 
3908.000000	99.177330 
3907.000000	99.176367 
3906.000000	99.173760 
3905.000000	99.169043 
3904.000000	99.162719 
3903.000000	99.156599 
3902.000000	99.152816 
3901.000000	99.152429 
3900.000000	99.155013 
3899.000000	99.158906 
3898.000000	99.162319 
3897.000000	99.164330 
3896.000000	99.164846 
3895.000000	99.164239 
3894.000000	99.163071 
3893.000000	99.161855 
3892.000000	99.160905 
3891.000000	99.160328 
3890.000000	99.160101 
3889.000000	99.159982 
3888.000000	99.159713 
3887.000000	99.159258 
3886.000000	99.158737 
3885.000000	99.158312 
3884.000000	99.158108 
3883.000000	99.158212 
3882.000000	99.158735 
3881.000000	99.159649 
3880.000000	99.160679 
3879.000000	99.161446 
3878.000000	99.161856 
3877.000000	99.162217 
3876.000000	99.162917 
3875.000000	99.163794 
3874.000000	99.164133 
3873.000000	99.163525 
3872.000000	99.162407 
3871.000000	99.161619 
3870.000000	99.161576 
3869.000000	99.162090 
3868.000000	99.162750 
3867.000000	99.163299 
3866.000000	99.163736 
3865.000000	99.164099 
3864.000000	99.164337 
3863.000000	99.164473 
3862.000000	99.164688 
3861.000000	99.165184 
3860.000000	99.165983 
3859.000000	99.166868 
3858.000000	99.167501 
3857.000000	99.167648 
3856.000000	99.167313 
3855.000000	99.166928 
3854.000000	99.166997 
3853.000000	99.167633 
3852.000000	99.168740 
3851.000000	99.170110 
3850.000000	99.171456 
3849.000000	99.172616 
3848.000000	99.173512 
3847.000000	99.174106 
3846.000000	99.174419 
3845.000000	99.174552 
3844.000000	99.174694 
3843.000000	99.174987 
3842.000000	99.175353 
3841.000000	99.175575 
3840.000000	99.175545 
3839.000000	99.175372 
3838.000000	99.175271 
3837.000000	99.175333 
3836.000000	99.175514 
3835.000000	99.175863 
3834.000000	99.176573 
3833.000000	99.177786 
3832.000000	99.179316 
3831.000000	99.180642 
3830.000000	99.181326 
3829.000000	99.181361 
3828.000000	99.181119 
3827.000000	99.181015 
3826.000000	99.181129 
3825.000000	99.181240 
3824.000000	99.181232 
3823.000000	99.181400 
3822.000000	99.182059 
3821.000000	99.182955 
3820.000000	99.183679 
3819.000000	99.184226 
3818.000000	99.184809 
3817.000000	99.185534 
3816.000000	99.186059 
3815.000000	99.185810 
3814.000000	99.184717 
3813.000000	99.183389 
3812.000000	99.182562 
3811.000000	99.182544 
3810.000000	99.183112 
3809.000000	99.183828 
3808.000000	99.184355 
3807.000000	99.184502 
3806.000000	99.184195 
3805.000000	99.183529 
3804.000000	99.182849 
3803.000000	99.182680 
3802.000000	99.183153 
3801.000000	99.183692 
3800.000000	99.183709 
3799.000000	99.183142 
3798.000000	99.182260 
3797.000000	99.181354 
3796.000000	99.180489 
3795.000000	99.179602 
3794.000000	99.178733 
3793.000000	99.178099 
3792.000000	99.177925 
3791.000000	99.178229 
3790.000000	99.178736 
3789.000000	99.179075 
3788.000000	99.179036 
3787.000000	99.178633 
3786.000000	99.178105 
3785.000000	99.177815 
3784.000000	99.178009 
3783.000000	99.178603 
3782.000000	99.179284 
3781.000000	99.179847 
3780.000000	99.180277 
3779.000000	99.180544 
3778.000000	99.180482 
3777.000000	99.179850 
3776.000000	99.178593 
3775.000000	99.177034 
3774.000000	99.175655 
3773.000000	99.174750 
3772.000000	99.174375 
3771.000000	99.174337 
3770.000000	99.174125 
3769.000000	99.173321 
3768.000000	99.172109 
3767.000000	99.171042 
3766.000000	99.170465 
3765.000000	99.170198 
3764.000000	99.169779 
3763.000000	99.169058 
3762.000000	99.168519 
3761.000000	99.168765 
3760.000000	99.169557 
3759.000000	99.169988 
3758.000000	99.169794 
3757.000000	99.169716 
3756.000000	99.170366 
3755.000000	99.171417 
3754.000000	99.172051 
3753.000000	99.171882 
3752.000000	99.171055 
3751.000000	99.169611 
3750.000000	99.167870 
3749.000000	99.166514 
3748.000000	99.165762 
3747.000000	99.165482 
3746.000000	99.165830 
3745.000000	99.166336 
3744.000000	99.166189 
3743.000000	99.165398 
3742.000000	99.163966 
3741.000000	99.161491 
3740.000000	99.157835 
3739.000000	99.153406 
3738.000000	99.149529 
3737.000000	99.147693 
3736.000000	99.147724 
3735.000000	99.147595 
3734.000000	99.145938 
3733.000000	99.143935 
3732.000000	99.143849 
3731.000000	99.146116 
3730.000000	99.148791 
3729.000000	99.149692 
3728.000000	99.148352 
3727.000000	99.145490 
3726.000000	99.141653 
3725.000000	99.137268 
3724.000000	99.133599 
3723.000000	99.132348 
3722.000000	99.133915 
3721.000000	99.136856 
3720.000000	99.138783 
3719.000000	99.138096 
3718.000000	99.134954 
3717.000000	99.130369 
3716.000000	99.124963 
3715.000000	99.118849 
3714.000000	99.112650 
3713.000000	99.107947 
3712.000000	99.105668 
3711.000000	99.105133 
3710.000000	99.104873 
3709.000000	99.103429 
3708.000000	99.099779 
3707.000000	99.093524 
3706.000000	99.085200 
3705.000000	99.076299 
3704.000000	99.068503 
3703.000000	99.062398 
3702.000000	99.056759 
3701.000000	99.049921 
3700.000000	99.041484 
3699.000000	99.032189 
3698.000000	99.022988 
3697.000000	99.014466 
3696.000000	99.006809 
3695.000000	99.000235 
3694.000000	98.995252 
3693.000000	98.992208 
3692.000000	98.990461 
3691.000000	98.988365 
3690.000000	98.984450 
3689.000000	98.979160 
3688.000000	98.974463 
3687.000000	98.971048 
3686.000000	98.967962 
3685.000000	98.964726 
3684.000000	98.961916 
3683.000000	98.960093 
3682.000000	98.958692 
3681.000000	98.955981 
3680.000000	98.950103 
3679.000000	98.940299 
3678.000000	98.927940 
3677.000000	98.916831 
3676.000000	98.910261 
3675.000000	98.907632 
3674.000000	98.905517 
3673.000000	98.901384 
3672.000000	98.895698 
3671.000000	98.891405 
3670.000000	98.890209 
3669.000000	98.890900 
3668.000000	98.891597 
3667.000000	98.891507 
3666.000000	98.890742 
3665.000000	98.889417 
3664.000000	98.887167 
3663.000000	98.883598 
3662.000000	98.878645 
3661.000000	98.872353 
3660.000000	98.864958 
3659.000000	98.857453 
3658.000000	98.851808 
3657.000000	98.849403 
3656.000000	98.849101 
3655.000000	98.848079 
3654.000000	98.844470 
3653.000000	98.838818 
3652.000000	98.833156 
3651.000000	98.828934 
3650.000000	98.825595 
3649.000000	98.822564 
3648.000000	98.821318 
3647.000000	98.822852 
3646.000000	98.826029 
3645.000000	98.829378 
3644.000000	98.832542 
3643.000000	98.836046 
3642.000000	98.840450 
3641.000000	98.845490 
3640.000000	98.850009 
3639.000000	98.852362 
3638.000000	98.851332 
3637.000000	98.847148 
3636.000000	98.841343 
3635.000000	98.835263 
3634.000000	98.828546 
3633.000000	98.819880 
3632.000000	98.809516 
3631.000000	98.800608 
3630.000000	98.797057 
3629.000000	98.798314 
3628.000000	98.799805 
3627.000000	98.799267 
3626.000000	98.798049 
3625.000000	98.798079 
3624.000000	98.799578 
3623.000000	98.801208 
3622.000000	98.802359 
3621.000000	98.804671 
3620.000000	98.809688 
3619.000000	98.815735 
3618.000000	98.819614 
3617.000000	98.820903 
3616.000000	98.822613 
3615.000000	98.827930 
3614.000000	98.836370 
3613.000000	98.843803 
3612.000000	98.847113 
3611.000000	98.847581 
3610.000000	98.849004 
3609.000000	98.853372 
3608.000000	98.859117 
3607.000000	98.864160 
3606.000000	98.868950 
3605.000000	98.875328 
3604.000000	98.883981 
3603.000000	98.893760 
3602.000000	98.902925 
3601.000000	98.910473 
3600.000000	98.915834 
3599.000000	98.918275 
3598.000000	98.917636 
3597.000000	98.915060 
3596.000000	98.912883 
3595.000000	98.913405 
3594.000000	98.917052 
3593.000000	98.922043 
3592.000000	98.925730 
3591.000000	98.926323 
3590.000000	98.924297 
3589.000000	98.922170 
3588.000000	98.922286 
3587.000000	98.924523 
3586.000000	98.927122 
3585.000000	98.929006 
3584.000000	98.930728 
3583.000000	98.933138 
3582.000000	98.936181 
3581.000000	98.938862 
3580.000000	98.940266 
3579.000000	98.940206 
3578.000000	98.938932 
3577.000000	98.936877 
3576.000000	98.934705 
3575.000000	98.933363 
3574.000000	98.933433 
3573.000000	98.934468 
3572.000000	98.935399 
3571.000000	98.935473 
3570.000000	98.934578 
3569.000000	98.933059 
3568.000000	98.931345 
3567.000000	98.929794 
3566.000000	98.928882 
3565.000000	98.929051 
3564.000000	98.930553 
3563.000000	98.933568 
3562.000000	98.937843 
3561.000000	98.942260 
3560.000000	98.945347 
3559.000000	98.946388 
3558.000000	98.945922 
3557.000000	98.945116 
3556.000000	98.944708 
3555.000000	98.944529 
3554.000000	98.943919 
3553.000000	98.942346 
3552.000000	98.939889 
3551.000000	98.937264 
3550.000000	98.935219 
3549.000000	98.934043 
3548.000000	98.933648 
3547.000000	98.933808 
3546.000000	98.934288 
3545.000000	98.934693 
3544.000000	98.934662 
3543.000000	98.934411 
3542.000000	98.934786 
3541.000000	98.936463 
3540.000000	98.939177 
3539.000000	98.941729 
3538.000000	98.942995 
3537.000000	98.942794 
3536.000000	98.941862 
3535.000000	98.941063 
3534.000000	98.940653 
3533.000000	98.940405 
3532.000000	98.940204 
3531.000000	98.940269 
3530.000000	98.940701 
3529.000000	98.941085 
3528.000000	98.940823 
3527.000000	98.939828 
3526.000000	98.938659 
3525.000000	98.937951 
3524.000000	98.937850 
3523.000000	98.938068 
3522.000000	98.938311 
3521.000000	98.938518 
3520.000000	98.938785 
3519.000000	98.939200 
3518.000000	98.939780 
3517.000000	98.940428 
3516.000000	98.940923 
3515.000000	98.941059 
3514.000000	98.940797 
3513.000000	98.940305 
3512.000000	98.939813 
3511.000000	98.939440 
3510.000000	98.939171 
3509.000000	98.938977 
3508.000000	98.938893 
3507.000000	98.938959 
3506.000000	98.939121 
3505.000000	98.939237 
3504.000000	98.939192 
3503.000000	98.939014 
3502.000000	98.938837 
3501.000000	98.938771 
3500.000000	98.938815 
3499.000000	98.938877 
3498.000000	98.938838 
3497.000000	98.938656 
3496.000000	98.938377 
3495.000000	98.938098 
3494.000000	98.937871 
3493.000000	98.937687 
3492.000000	98.937519 
3491.000000	98.937355 
3490.000000	98.937205 
3489.000000	98.937089 
3488.000000	98.937017 
3487.000000	98.936974 
3486.000000	98.936918 
3485.000000	98.936807 
3484.000000	98.936635 
3483.000000	98.936438 
3482.000000	98.936244 
3481.000000	98.936047 
3480.000000	98.935832 
3479.000000	98.935605 
3478.000000	98.935379 
3477.000000	98.935140 
3476.000000	98.934880 
3475.000000	98.934665 
3474.000000	98.934609 
3473.000000	98.934705 
3472.000000	98.934733 
3471.000000	98.934435 
3470.000000	98.933790 
3469.000000	98.933084 
3468.000000	98.932634 
3467.000000	98.932449 
3466.000000	98.932290 
3465.000000	98.932032 
3464.000000	98.931813 
3463.000000	98.931786 
3462.000000	98.931866 
3461.000000	98.931848 
3460.000000	98.931716 
3459.000000	98.931657 
3458.000000	98.931736 
3457.000000	98.931677 
3456.000000	98.931131 
3455.000000	98.930058 
3454.000000	98.928833 
3453.000000	98.927853 
3452.000000	98.927114 
3451.000000	98.926346 
3450.000000	98.925411 
3449.000000	98.924444 
3448.000000	98.923581 
3447.000000	98.922719 
3446.000000	98.921669 
3445.000000	98.920507 
3444.000000	98.919636 
3443.000000	98.919415 
3442.000000	98.919771 
3441.000000	98.920180 
3440.000000	98.920092 
3439.000000	98.919357 
3438.000000	98.918209 
3437.000000	98.916965 
3436.000000	98.915782 
3435.000000	98.914728 
3434.000000	98.913958 
3433.000000	98.913633 
3432.000000	98.913696 
3431.000000	98.913834 
3430.000000	98.913734 
3429.000000	98.913370 
3428.000000	98.912974 
3427.000000	98.912699 
3426.000000	98.912327 
3425.000000	98.911425 
3424.000000	98.909783 
3423.000000	98.907685 
3422.000000	98.905758 
3421.000000	98.904505 
3420.000000	98.904064 
3419.000000	98.904277 
3418.000000	98.904888 
3417.000000	98.905575 
3416.000000	98.905967 
3415.000000	98.905824 
3414.000000	98.905181 
3413.000000	98.904297 
3412.000000	98.903439 
3411.000000	98.902752 
3410.000000	98.902286 
3409.000000	98.902036 
3408.000000	98.901916 
3407.000000	98.901767 
3406.000000	98.901478 
3405.000000	98.901072 
3404.000000	98.900658 
3403.000000	98.900316 
3402.000000	98.900083 
3401.000000	98.900024 
3400.000000	98.900252 
3399.000000	98.900836 
3398.000000	98.901666 
3397.000000	98.902421 
3396.000000	98.902693 
3395.000000	98.902219 
3394.000000	98.901052 
3393.000000	98.899574 
3392.000000	98.898333 
3391.000000	98.897740 
3390.000000	98.897879 
3389.000000	98.898570 
3388.000000	98.899513 
3387.000000	98.900429 
3386.000000	98.901167 
3385.000000	98.901737 
3384.000000	98.902234 
3383.000000	98.902665 
3382.000000	98.902883 
3381.000000	98.902767 
3380.000000	98.902427 
3379.000000	98.902180 
3378.000000	98.902279 
3377.000000	98.902691 
3376.000000	98.903189 
3375.000000	98.903557 
3374.000000	98.903771 
3373.000000	98.903960 
3372.000000	98.904254 
3371.000000	98.904675 
3370.000000	98.905151 
3369.000000	98.905580 
3368.000000	98.905919 
3367.000000	98.906196 
3366.000000	98.906476 
3365.000000	98.906800 
3364.000000	98.907160 
3363.000000	98.907516 
3362.000000	98.907837 
3361.000000	98.908116 
3360.000000	98.908363 
3359.000000	98.908590 
3358.000000	98.908815 
3357.000000	98.909057 
3356.000000	98.909326 
3355.000000	98.909618 
3354.000000	98.909917 
3353.000000	98.910213 
3352.000000	98.910508 
3351.000000	98.910809 
3350.000000	98.911123 
3349.000000	98.911450 
3348.000000	98.911781 
3347.000000	98.912107 
3346.000000	98.912424 
3345.000000	98.912730 
3344.000000	98.913027 
3343.000000	98.913326 
3342.000000	98.913635 
3341.000000	98.913944 
3340.000000	98.914226 
3339.000000	98.914446 
3338.000000	98.914612 
3337.000000	98.914804 
3336.000000	98.915113 
3335.000000	98.915574 
3334.000000	98.916116 
3333.000000	98.916632 
3332.000000	98.917074 
3331.000000	98.917447 
3330.000000	98.917748 
3329.000000	98.917938 
3328.000000	98.918013 
3327.000000	98.918036 
3326.000000	98.918065 
3325.000000	98.918091 
3324.000000	98.918071 
3323.000000	98.918032 
3322.000000	98.918084 
3321.000000	98.918313 
3320.000000	98.918694 
3319.000000	98.919148 
3318.000000	98.919663 
3317.000000	98.920319 
3316.000000	98.921131 
3315.000000	98.921899 
3314.000000	98.922335 
3313.000000	98.922379 
3312.000000	98.922332 
3311.000000	98.922528 
3310.000000	98.922923 
3309.000000	98.923179 
3308.000000	98.923131 
3307.000000	98.922974 
3306.000000	98.922987 
3305.000000	98.923223 
3304.000000	98.923561 
3303.000000	98.923941 
3302.000000	98.924404 
3301.000000	98.924902 
3300.000000	98.925214 
3299.000000	98.925128 
3298.000000	98.924668 
3297.000000	98.924153 
3296.000000	98.923971 
3295.000000	98.924236 
3294.000000	98.924716 
3293.000000	98.925088 
3292.000000	98.925295 
3291.000000	98.925514 
3290.000000	98.925788 
3289.000000	98.925886 
3288.000000	98.925620 
3287.000000	98.925128 
3286.000000	98.924741 
3285.000000	98.924604 
3284.000000	98.924594 
3283.000000	98.924588 
3282.000000	98.924694 
3281.000000	98.925114 
3280.000000	98.925878 
3279.000000	98.926757 
3278.000000	98.927412 
3277.000000	98.927650 
3276.000000	98.927526 
3275.000000	98.927253 
3274.000000	98.926986 
3273.000000	98.926700 
3272.000000	98.926359 
3271.000000	98.926074 
3270.000000	98.926025 
3269.000000	98.926234 
3268.000000	98.926510 
3267.000000	98.926623 
3266.000000	98.926464 
3265.000000	98.926073 
3264.000000	98.925647 
3263.000000	98.925531 
3262.000000	98.926041 
3261.000000	98.927191 
3260.000000	98.928583 
3259.000000	98.929640 
3258.000000	98.930025 
3257.000000	98.929794 
3256.000000	98.929289 
3255.000000	98.928868 
3254.000000	98.928689 
3253.000000	98.928717 
3252.000000	98.928915 
3251.000000	98.929366 
3250.000000	98.930155 
3249.000000	98.931174 
3248.000000	98.932128 
3247.000000	98.932742 
3246.000000	98.932923 
3245.000000	98.932741 
3244.000000	98.932354 
3243.000000	98.931967 
3242.000000	98.931754 
3241.000000	98.931774 
3240.000000	98.932011 
3239.000000	98.932534 
3238.000000	98.933536 
3237.000000	98.935131 
3236.000000	98.937123 
3235.000000	98.938978 
3234.000000	98.940092 
3233.000000	98.940188 
3232.000000	98.939526 
3231.000000	98.938764 
3230.000000	98.938474 
3229.000000	98.938740 
3228.000000	98.939229 
3227.000000	98.939547 
3226.000000	98.939482 
3225.000000	98.939019 
3224.000000	98.938319 
3223.000000	98.937744 
3222.000000	98.937695 
3221.000000	98.938288 
3220.000000	98.939250 
3219.000000	98.940155 
3218.000000	98.940797 
3217.000000	98.941327 
3216.000000	98.942066 
3215.000000	98.943172 
3214.000000	98.944452 
3213.000000	98.945452 
3212.000000	98.945819 
3211.000000	98.945583 
3210.000000	98.945087 
3209.000000	98.944712 
3208.000000	98.944654 
3207.000000	98.944914 
3206.000000	98.945369 
3205.000000	98.945825 
3204.000000	98.946136 
3203.000000	98.946322 
3202.000000	98.946525 
3201.000000	98.946849 
3200.000000	98.947265 
3199.000000	98.947685 
3198.000000	98.948045 
3197.000000	98.948343 
3196.000000	98.948609 
3195.000000	98.948884 
3194.000000	98.949188 
3193.000000	98.949500 
3192.000000	98.949780 
3191.000000	98.950011 
3190.000000	98.950199 
3189.000000	98.950365 
3188.000000	98.950552 
3187.000000	98.950798 
3186.000000	98.951111 
3185.000000	98.951461 
3184.000000	98.951805 
3183.000000	98.952114 
3182.000000	98.952384 
3181.000000	98.952651 
3180.000000	98.952980 
3179.000000	98.953416 
3178.000000	98.953926 
3177.000000	98.954365 
3176.000000	98.954581 
3175.000000	98.954559 
3174.000000	98.954487 
3173.000000	98.954597 
3172.000000	98.954926 
3171.000000	98.955275 
3170.000000	98.955428 
3169.000000	98.955395 
3168.000000	98.955397 
3167.000000	98.955624 
3166.000000	98.956069 
3165.000000	98.956585 
3164.000000	98.957040 
3163.000000	98.957375 
3162.000000	98.957588 
3161.000000	98.957732 
3160.000000	98.957941 
3159.000000	98.958342 
3158.000000	98.958885 
3157.000000	98.959283 
3156.000000	98.959232 
3155.000000	98.958700 
3154.000000	98.957964 
3153.000000	98.957293 
3152.000000	98.956705 
3151.000000	98.956123 
3150.000000	98.955656 
3149.000000	98.955559 
3148.000000	98.955970 
3147.000000	98.956856 
3146.000000	98.958195 
3145.000000	98.959943 
3144.000000	98.961771 
3143.000000	98.963124 
3142.000000	98.963655 
3141.000000	98.963498 
3140.000000	98.963099 
3139.000000	98.962832 
3138.000000	98.962824 
3137.000000	98.963060 
3136.000000	98.963515 
3135.000000	98.964191 
3134.000000	98.965075 
3133.000000	98.966049 
3132.000000	98.966840 
3131.000000	98.967155 
3130.000000	98.966940 
3129.000000	98.966526 
3128.000000	98.966423 
3127.000000	98.966955 
3126.000000	98.968056 
3125.000000	98.969286 
3124.000000	98.970080 
3123.000000	98.970130 
3122.000000	98.969598 
3121.000000	98.969010 
3120.000000	98.968841 
3119.000000	98.969175 
3118.000000	98.969796 
3117.000000	98.970506 
3116.000000	98.971282 
3115.000000	98.972157 
3114.000000	98.973056 
3113.000000	98.973810 
3112.000000	98.974289 
3111.000000	98.974487 
3110.000000	98.974512 
3109.000000	98.974503 
3108.000000	98.974541 
3107.000000	98.974596 
3106.000000	98.974571 
3105.000000	98.974461 
3104.000000	98.974486 
3103.000000	98.974993 
3102.000000	98.976145 
3101.000000	98.977681 
3100.000000	98.979036 
3099.000000	98.979865 
3098.000000	98.980394 
3097.000000	98.981132 
3096.000000	98.982261 
3095.000000	98.983372 
3094.000000	98.983867 
3093.000000	98.983536 
3092.000000	98.982742 
3091.000000	98.982114 
3090.000000	98.982067 
3089.000000	98.982564 
3088.000000	98.983178 
3087.000000	98.983395 
3086.000000	98.983053 
3085.000000	98.982510 
3084.000000	98.982273 
3083.000000	98.982364 
3082.000000	98.982220 
3081.000000	98.981348 
3080.000000	98.980039 
3079.000000	98.979363 
3078.000000	98.980411 
3077.000000	98.983420 
3076.000000	98.987417 
3075.000000	98.990741 
3074.000000	98.992162 
3073.000000	98.991687 
3072.000000	98.990271 
3071.000000	98.988707 
3070.000000	98.986909 
3069.000000	98.984369 
3068.000000	98.981146 
3067.000000	98.978257 
3066.000000	98.977117 
3065.000000	98.978601 
3064.000000	98.982336 
3063.000000	98.986626 
3062.000000	98.989302 
3061.000000	98.989104 
3060.000000	98.986448 
3059.000000	98.982892 
3058.000000	98.980069 
3057.000000	98.979126 
3056.000000	98.980506 
3055.000000	98.983488 
3054.000000	98.986125 
3053.000000	98.986544 
3052.000000	98.984552 
3051.000000	98.981597 
3050.000000	98.979138 
3049.000000	98.977609 
3048.000000	98.976828 
3047.000000	98.976294 
3046.000000	98.974648 
3045.000000	98.970067 
3044.000000	98.962441 
3043.000000	98.954732 
3042.000000	98.950836 
3041.000000	98.951717 
3040.000000	98.954314 
3039.000000	98.954472 
3038.000000	98.950405 
3037.000000	98.943259 
3036.000000	98.935129 
3035.000000	98.927142 
3034.000000	98.919219 
3033.000000	98.910980 
3032.000000	98.902464 
3031.000000	98.893942 
3030.000000	98.885340 
3029.000000	98.876392 
3028.000000	98.867556 
3027.000000	98.860196 
3026.000000	98.855144 
3025.000000	98.851224 
3024.000000	98.845947 
3023.000000	98.837879 
3022.000000	98.827728 
3021.000000	98.816758 
3020.000000	98.804691 
3019.000000	98.789944 
3018.000000	98.772045 
3017.000000	98.753149 
3016.000000	98.736535 
3015.000000	98.723579 
3014.000000	98.712722 
3013.000000	98.701602 
3012.000000	98.689621 
3011.000000	98.677781 
3010.000000	98.666368 
3009.000000	98.654021 
3008.000000	98.639536 
3007.000000	98.623694 
3006.000000	98.608429 
3005.000000	98.594528 
3004.000000	98.581043 
3003.000000	98.566935 
3002.000000	98.552432 
3001.000000	98.538506 
3000.000000	98.525593 
2999.000000	98.513362 
2998.000000	98.501655 
2997.000000	98.491260 
2996.000000	98.483301 
2995.000000	98.477275 
2994.000000	98.469665 
2993.000000	98.455468 
2992.000000	98.432378 
2991.000000	98.403779 
2990.000000	98.377132 
2989.000000	98.359068 
2988.000000	98.352024 
2987.000000	98.354629 
2986.000000	98.363658 
2985.000000	98.375299 
2984.000000	98.385762 
2983.000000	98.392307 
2982.000000	98.394235 
2981.000000	98.392808 
2980.000000	98.390209 
2979.000000	98.388445 
2978.000000	98.388511 
2977.000000	98.389782 
2976.000000	98.390209 
2975.000000	98.387861 
2974.000000	98.382844 
2973.000000	98.377708 
2972.000000	98.375740 
2971.000000	98.378727 
2970.000000	98.386143 
2969.000000	98.396099 
2968.000000	98.406812 
2967.000000	98.417414 
2966.000000	98.427857 
2965.000000	98.438452 
2964.000000	98.449372 
2963.000000	98.460281 
2962.000000	98.470395 
2961.000000	98.479130 
2960.000000	98.486654 
2959.000000	98.493579 
2958.000000	98.500162 
2957.000000	98.506200 
2956.000000	98.511801 
2955.000000	98.517875 
2954.000000	98.525577 
2953.000000	98.535359 
2952.000000	98.546537 
2951.000000	98.557430 
2950.000000	98.565940 
2949.000000	98.570673 
2948.000000	98.571908 
2947.000000	98.571367 
2946.000000	98.570978 
2945.000000	98.572052 
2944.000000	98.575302 
2943.000000	98.580661 
2942.000000	98.586678 
2941.000000	98.590955 
2940.000000	98.592133 
2939.000000	98.591426 
2938.000000	98.591726 
2937.000000	98.595294 
2936.000000	98.602408 
2935.000000	98.611432 
2934.000000	98.619452 
2933.000000	98.623513 
2932.000000	98.622439 
2931.000000	98.617603 
2930.000000	98.611615 
2929.000000	98.606515 
2928.000000	98.603340 
2927.000000	98.602326 
2926.000000	98.602362 
2925.000000	98.601050 
2924.000000	98.596879 
2923.000000	98.591251 
2922.000000	98.586988 
2921.000000	98.584800 
2920.000000	98.582549 
2919.000000	98.578153 
2918.000000	98.571898 
2917.000000	98.565445 
2916.000000	98.559710 
2915.000000	98.554492 
2914.000000	98.549475 
2913.000000	98.544895 
2912.000000	98.541508 
2911.000000	98.540052 
2910.000000	98.540268 
2909.000000	98.540416 
2908.000000	98.538504 
2907.000000	98.534168 
2906.000000	98.528500 
2905.000000	98.521792 
2904.000000	98.512882 
2903.000000	98.501581 
2902.000000	98.491590 
2901.000000	98.488688 
2900.000000	98.496209 
2899.000000	98.512183 
2898.000000	98.530214 
2897.000000	98.543753 
2896.000000	98.550279 
2895.000000	98.552148 
2894.000000	98.553670 
2893.000000	98.557273 
2892.000000	98.562350 
2891.000000	98.567173 
2890.000000	98.570953 
2889.000000	98.573913 
2888.000000	98.576408 
2887.000000	98.578821 
2886.000000	98.581777 
2885.000000	98.585696 
2884.000000	98.590425 
2883.000000	98.595918 
2882.000000	98.602969 
2881.000000	98.612506 
2880.000000	98.624209 
2879.000000	98.636431 
2878.000000	98.647557 
2877.000000	98.657043 
2876.000000	98.665166 
2875.000000	98.672308 
2874.000000	98.678740 
2873.000000	98.684750 
2872.000000	98.690613 
2871.000000	98.696383 
2870.000000	98.701880 
2869.000000	98.707178 
2868.000000	98.713264 
2867.000000	98.721833 
2866.000000	98.733765 
2865.000000	98.747698 
2864.000000	98.760671 
2863.000000	98.770548 
2862.000000	98.777464 
2861.000000	98.782873 
2860.000000	98.788009 
2859.000000	98.793737 
2858.000000	98.801035 
2857.000000	98.810433 
2856.000000	98.820983 
2855.000000	98.830646 
2854.000000	98.837949 
2853.000000	98.843071 
2852.000000	98.847335 
2851.000000	98.852068 
2850.000000	98.858004 
2849.000000	98.865171 
2848.000000	98.872921 
2847.000000	98.880218 
2846.000000	98.886127 
2845.000000	98.890153 
2844.000000	98.892354 
2843.000000	98.893406 
2842.000000	98.894507 
2841.000000	98.896930 
2840.000000	98.901332 
2839.000000	98.907332 
2838.000000	98.913647 
2837.000000	98.918828 
2836.000000	98.922252 
2835.000000	98.924605 
2834.000000	98.927221 
2833.000000	98.930704 
2832.000000	98.934291 
2831.000000	98.936628 
2830.000000	98.936992 
2829.000000	98.935755 
2828.000000	98.934098 
2827.000000	98.933480 
2826.000000	98.934980 
2825.000000	98.938529 
2824.000000	98.942726 
2823.000000	98.945761 
2822.000000	98.946850 
2821.000000	98.946823 
2820.000000	98.947336 
2819.000000	98.949389 
2818.000000	98.952417 
2817.000000	98.954897 
2816.000000	98.955976 
2815.000000	98.956382 
2814.000000	98.957423 
2813.000000	98.959245 
2812.000000	98.960655 
2811.000000	98.960809 
2810.000000	98.960427 
2809.000000	98.960886 
2808.000000	98.962522 
2807.000000	98.964358 
2806.000000	98.965354 
2805.000000	98.965460 
2804.000000	98.965466 
2803.000000	98.966188 
2802.000000	98.967842 
2801.000000	98.969939 
2800.000000	98.971673 
2799.000000	98.972555 
2798.000000	98.972704 
2797.000000	98.972528 
2796.000000	98.972245 
2795.000000	98.971881 
2794.000000	98.971574 
2793.000000	98.971599 
2792.000000	98.972035 
2791.000000	98.972629 
2790.000000	98.973125 
2789.000000	98.973614 
2788.000000	98.974452 
2787.000000	98.975835 
2786.000000	98.977512 
2785.000000	98.978925 
2784.000000	98.979648 
2783.000000	98.979696 
2782.000000	98.979465 
2781.000000	98.979414 
2780.000000	98.979784 
2779.000000	98.980494 
2778.000000	98.981264 
2777.000000	98.981916 
2776.000000	98.982643 
2775.000000	98.983875 
2774.000000	98.985758 
2773.000000	98.987842 
2772.000000	98.989443 
2771.000000	98.990281 
2770.000000	98.990551 
2769.000000	98.990480 
2768.000000	98.990122 
2767.000000	98.989677 
2766.000000	98.989598 
2765.000000	98.990056 
2764.000000	98.990504 
2763.000000	98.990169 
2762.000000	98.988958 
2761.000000	98.987666 
2760.000000	98.987193 
2759.000000	98.987729 
2758.000000	98.988841 
2757.000000	98.990070 
2756.000000	98.991256 
2755.000000	98.992303 
2754.000000	98.992952 
2753.000000	98.993010 
2752.000000	98.992708 
2751.000000	98.992648 
2750.000000	98.993278 
2749.000000	98.994518 
2748.000000	98.995893 
2747.000000	98.996981 
2746.000000	98.997699 
2745.000000	98.998170 
2744.000000	98.998467 
2743.000000	98.998527 
2742.000000	98.998319 
2741.000000	98.998016 
2740.000000	98.997928 
2739.000000	98.998234 
2738.000000	98.998830 
2737.000000	98.999493 
2736.000000	99.000141 
2735.000000	99.000827 
2734.000000	99.001508 
2733.000000	99.001973 
2732.000000	99.002100 
2731.000000	99.002052 
2730.000000	99.002104 
2729.000000	99.002329 
2728.000000	99.002593 
2727.000000	99.002798 
2726.000000	99.003014 
2725.000000	99.003369 
2724.000000	99.003930 
2723.000000	99.004718 
2722.000000	99.005724 
2721.000000	99.006826 
2720.000000	99.007757 
2719.000000	99.008300 
2718.000000	99.008491 
2717.000000	99.008557 
2716.000000	99.008710 
2715.000000	99.008987 
2714.000000	99.009304 
2713.000000	99.009597 
2712.000000	99.009872 
2711.000000	99.010179 
2710.000000	99.010557 
2709.000000	99.011007 
2708.000000	99.011484 
2707.000000	99.011903 
2706.000000	99.012179 
2705.000000	99.012314 
2704.000000	99.012423 
2703.000000	99.012652 
2702.000000	99.013035 
2701.000000	99.013470 
2700.000000	99.013828 
2699.000000	99.014100 
2698.000000	99.014393 
2697.000000	99.014788 
2696.000000	99.015236 
2695.000000	99.015619 
2694.000000	99.015887 
2693.000000	99.016096 
2692.000000	99.016328 
2691.000000	99.016585 
2690.000000	99.016796 
2689.000000	99.016925 
2688.000000	99.017014 
2687.000000	99.017138 
2686.000000	99.017340 
2685.000000	99.017598 
2684.000000	99.017873 
2683.000000	99.018127 
2682.000000	99.018334 
2681.000000	99.018485 
2680.000000	99.018598 
2679.000000	99.018715 
2678.000000	99.018880 
2677.000000	99.019106 
2676.000000	99.019375 
2675.000000	99.019659 
2674.000000	99.019938 
2673.000000	99.020201 
2672.000000	99.020448 
2671.000000	99.020686 
2670.000000	99.020924 
2669.000000	99.021168 
2668.000000	99.021417 
2667.000000	99.021671 
2666.000000	99.021930 
2665.000000	99.022194 
2664.000000	99.022461 
2663.000000	99.022730 
2662.000000	99.022999 
2661.000000	99.023269 
2660.000000	99.023541 
2659.000000	99.023819 
2658.000000	99.024104 
2657.000000	99.024396 
2656.000000	99.024694 
2655.000000	99.024993 
2654.000000	99.025290 
2653.000000	99.025583 
2652.000000	99.025875 
2651.000000	99.026171 
2650.000000	99.026475 
2649.000000	99.026783 
2648.000000	99.027088 
2647.000000	99.027386 
2646.000000	99.027679 
2645.000000	99.027975 
2644.000000	99.028276 
2643.000000	99.028581 
2642.000000	99.028883 
2641.000000	99.029178 
2640.000000	99.029472 
2639.000000	99.029769 
2638.000000	99.030073 
2637.000000	99.030383 
2636.000000	99.030692 
2635.000000	99.030991 
2634.000000	99.031275 
2633.000000	99.031545 
2632.000000	99.031803 
2631.000000	99.032056 
2630.000000	99.032306 
2629.000000	99.032557 
2628.000000	99.032809 
2627.000000	99.033048 
2626.000000	99.033244 
2625.000000	99.033399 
2624.000000	99.033554 
2623.000000	99.033738 
2622.000000	99.033941 
2621.000000	99.034145 
2620.000000	99.034349 
2619.000000	99.034557 
2618.000000	99.034787 
2617.000000	99.035090 
2616.000000	99.035493 
2615.000000	99.035902 
2614.000000	99.036121 
2613.000000	99.036048 
2612.000000	99.035837 
2611.000000	99.035768 
2610.000000	99.035932 
2609.000000	99.036126 
2608.000000	99.036092 
2607.000000	99.035798 
2606.000000	99.035482 
2605.000000	99.035506 
2604.000000	99.036152 
2603.000000	99.037379 
2602.000000	99.038688 
2601.000000	99.039442 
2600.000000	99.039505 
2599.000000	99.039329 
2598.000000	99.039340 
2597.000000	99.039393 
2596.000000	99.039050 
2595.000000	99.038170 
2594.000000	99.036958 
2593.000000	99.035657 
2592.000000	99.034450 
2591.000000	99.033622 
2590.000000	99.033462 
2589.000000	99.033956 
2588.000000	99.034717 
2587.000000	99.035236 
2586.000000	99.035164 
2585.000000	99.034468 
2584.000000	99.033533 
2583.000000	99.033002 
2582.000000	99.033186 
2581.000000	99.033675 
2580.000000	99.033719 
2579.000000	99.032978 
2578.000000	99.031717 
2577.000000	99.030394 
2576.000000	99.029307 
2575.000000	99.028595 
2574.000000	99.028308 
2573.000000	99.028346 
2572.000000	99.028528 
2571.000000	99.028800 
2570.000000	99.029198 
2569.000000	99.029654 
2568.000000	99.029983 
2567.000000	99.030032 
2566.000000	99.029737 
2565.000000	99.029098 
2564.000000	99.028274 
2563.000000	99.027620 
2562.000000	99.027425 
2561.000000	99.027601 
2560.000000	99.027777 
2559.000000	99.027689 
2558.000000	99.027327 
2557.000000	99.026810 
2556.000000	99.026327 
2555.000000	99.026131 
2554.000000	99.026371 
2553.000000	99.026847 
2552.000000	99.027074 
2551.000000	99.026762 
2550.000000	99.026047 
2549.000000	99.025212 
2548.000000	99.024347 
2547.000000	99.023448 
2546.000000	99.022650 
2545.000000	99.022179 
2544.000000	99.022125 
2543.000000	99.022355 
2542.000000	99.022545 
2541.000000	99.022351 
2540.000000	99.021655 
2539.000000	99.020713 
2538.000000	99.019958 
2537.000000	99.019525 
2536.000000	99.019176 
2535.000000	99.018724 
2534.000000	99.018319 
2533.000000	99.018136 
2532.000000	99.017999 
2531.000000	99.017578 
2530.000000	99.016893 
2529.000000	99.016342 
2528.000000	99.016188 
2527.000000	99.016224 
2526.000000	99.016036 
2525.000000	99.015534 
2524.000000	99.015084 
2523.000000	99.015108 
2522.000000	99.015665 
2521.000000	99.016437 
2520.000000	99.016976 
2519.000000	99.017012 
2518.000000	99.016531 
2517.000000	99.015703 
2516.000000	99.014807 
2515.000000	99.014159 
2514.000000	99.013970 
2513.000000	99.014221 
2512.000000	99.014725 
2511.000000	99.015328 
2510.000000	99.015974 
2509.000000	99.016603 
2508.000000	99.017121 
2507.000000	99.017536 
2506.000000	99.017939 
2505.000000	99.018286 
2504.000000	99.018363 
2503.000000	99.018089 
2502.000000	99.017715 
2501.000000	99.017591 
2500.000000	99.017827 
2499.000000	99.018312 
2498.000000	99.018921 
2497.000000	99.019521 
2496.000000	99.019901 
2495.000000	99.019903 
2494.000000	99.019624 
2493.000000	99.019352 
2492.000000	99.019281 
2491.000000	99.019422 
2490.000000	99.019784 
2489.000000	99.020449 
2488.000000	99.021425 
2487.000000	99.022510 
2486.000000	99.023348 
2485.000000	99.023618 
2484.000000	99.023226 
2483.000000	99.022396 
2482.000000	99.021615 
2481.000000	99.021271 
2480.000000	99.021343 
2479.000000	99.021502 
2478.000000	99.021448 
2477.000000	99.021204 
2476.000000	99.021016 
2475.000000	99.021068 
2474.000000	99.021339 
2473.000000	99.021631 
2472.000000	99.021711 
2471.000000	99.021485 
2470.000000	99.021081 
2469.000000	99.020733 
2468.000000	99.020539 
2467.000000	99.020381 
2466.000000	99.020107 
2465.000000	99.019715 
2464.000000	99.019316 
2463.000000	99.018988 
2462.000000	99.018735 
2461.000000	99.018544 
2460.000000	99.018390 
2459.000000	99.018207 
2458.000000	99.017909 
2457.000000	99.017477 
2456.000000	99.016975 
2455.000000	99.016496 
2454.000000	99.016115 
2453.000000	99.015872 
2452.000000	99.015732 
2451.000000	99.015562 
2450.000000	99.015219 
2449.000000	99.014670 
2448.000000	99.014059 
2447.000000	99.013624 
2446.000000	99.013517 
2445.000000	99.013689 
2444.000000	99.013897 
2443.000000	99.013878 
2442.000000	99.013519 
2441.000000	99.012891 
2440.000000	99.012217 
2439.000000	99.011742 
2438.000000	99.011594 
2437.000000	99.011709 
2436.000000	99.011874 
2435.000000	99.011865 
2434.000000	99.011607 
2433.000000	99.011254 
2432.000000	99.011109 
2431.000000	99.011381 
2430.000000	99.011976 
2429.000000	99.012480 
2428.000000	99.012467 
2427.000000	99.011865 
2426.000000	99.011020 
2425.000000	99.010395 
2424.000000	99.010170 
2423.000000	99.010237 
2422.000000	99.010497 
2421.000000	99.010980 
2420.000000	99.011559 
2419.000000	99.011756 
2418.000000	99.011125 
2417.000000	99.009782 
2416.000000	99.008412 
2415.000000	99.007625 
2414.000000	99.007419 
2413.000000	99.007389 
2412.000000	99.007231 
2411.000000	99.006911 
2410.000000	99.006407 
2409.000000	99.005587 
2408.000000	99.004462 
2407.000000	99.003373 
2406.000000	99.002771 
2405.000000	99.002877 
2404.000000	99.003602 
2403.000000	99.004611 
2402.000000	99.005461 
2401.000000	99.005796 
2400.000000	99.005585 
2399.000000	99.005141 
2398.000000	99.004814 
2397.000000	99.004730 
2396.000000	99.004854 
2395.000000	99.005109 
2394.000000	99.005353 
2393.000000	99.005395 
2392.000000	99.005208 
2391.000000	99.004993 
2390.000000	99.004929 
2389.000000	99.004967 
2388.000000	99.005014 
2387.000000	99.005165 
2386.000000	99.005548 
2385.000000	99.006058 
2384.000000	99.006446 
2383.000000	99.006636 
2382.000000	99.006776 
2381.000000	99.006984 
2380.000000	99.007211 
2379.000000	99.007390 
2378.000000	99.007582 
2377.000000	99.007890 
2376.000000	99.008309 
2375.000000	99.008753 
2374.000000	99.009154 
2373.000000	99.009516 
2372.000000	99.009870 
2371.000000	99.010233 
2370.000000	99.010609 
2369.000000	99.011006 
2368.000000	99.011434 
2367.000000	99.011898 
2366.000000	99.012390 
2365.000000	99.012898 
2364.000000	99.013402 
2363.000000	99.013879 
2362.000000	99.014323 
2361.000000	99.014739 
2360.000000	99.015137 
2359.000000	99.015539 
2358.000000	99.015959 
2357.000000	99.016408 
2356.000000	99.016881 
2355.000000	99.017368 
2354.000000	99.017854 
2353.000000	99.018329 
2352.000000	99.018790 
2351.000000	99.019237 
2350.000000	99.019671 
2349.000000	99.020094 
2348.000000	99.020506 
2347.000000	99.020906 
2346.000000	99.021298 
2345.000000	99.021681 
2344.000000	99.022055 
2343.000000	99.022421 
2342.000000	99.022774 
2341.000000	99.023117 
2340.000000	99.023461 
2339.000000	99.023824 
2338.000000	99.024218 
2337.000000	99.024628 
2336.000000	99.024998 
2335.000000	99.025284 
2334.000000	99.025516 
2333.000000	99.025777 
2332.000000	99.026123 
2331.000000	99.026536 
2330.000000	99.026945 
2329.000000	99.027311 
2328.000000	99.027696 
2327.000000	99.028240 
2326.000000	99.028993 
2325.000000	99.029740 
2324.000000	99.030166 
2323.000000	99.030240 
2322.000000	99.030346 
2321.000000	99.030778 
2320.000000	99.031280 
2319.000000	99.031360 
2318.000000	99.030955 
2317.000000	99.030552 
2316.000000	99.030622 
2315.000000	99.031189 
2314.000000	99.031958 
2313.000000	99.032673 
2312.000000	99.033223 
2311.000000	99.033519 
2310.000000	99.033476 
2309.000000	99.033128 
2308.000000	99.032673 
2307.000000	99.032357 
2306.000000	99.032339 
2305.000000	99.032681 
2304.000000	99.033435 
2303.000000	99.034647 
2302.000000	99.036196 
2301.000000	99.037728 
2300.000000	99.038985 
2299.000000	99.040072 
2298.000000	99.041181 
2297.000000	99.042085 
2296.000000	99.042219 
2295.000000	99.041419 
2294.000000	99.040349 
2293.000000	99.040029 
2292.000000	99.040928 
2291.000000	99.042760 
2290.000000	99.044850 
2289.000000	99.046549 
2288.000000	99.047475 
2287.000000	99.047578 
2286.000000	99.047120 
2285.000000	99.046406 
2284.000000	99.045574 
2283.000000	99.044767 
2282.000000	99.044354 
2281.000000	99.044677 
2280.000000	99.045597 
2279.000000	99.046536 
2278.000000	99.047022 
2277.000000	99.047093 
2276.000000	99.047065 
2275.000000	99.047137 
2274.000000	99.047307 
2273.000000	99.047564 
2272.000000	99.047943 
2271.000000	99.048437 
2270.000000	99.049002 
2269.000000	99.049627 
2268.000000	99.050317 
2267.000000	99.051020 
2266.000000	99.051634 
2265.000000	99.052072 
2264.000000	99.052258 
2263.000000	99.052101 
2262.000000	99.051607 
2261.000000	99.051031 
2260.000000	99.050823 
2259.000000	99.051259 
2258.000000	99.052156 
2257.000000	99.053086 
2256.000000	99.053762 
2255.000000	99.054173 
2254.000000	99.054398 
2253.000000	99.054493 
2252.000000	99.054578 
2251.000000	99.054831 
2250.000000	99.055311 
2249.000000	99.055865 
2248.000000	99.056295 
2247.000000	99.056571 
2246.000000	99.056775 
2245.000000	99.056968 
2244.000000	99.057173 
2243.000000	99.057438 
2242.000000	99.057824 
2241.000000	99.058325 
2240.000000	99.058883 
2239.000000	99.059447 
2238.000000	99.059967 
2237.000000	99.060365 
2236.000000	99.060598 
2235.000000	99.060730 
2234.000000	99.060880 
2233.000000	99.061113 
2232.000000	99.061405 
2231.000000	99.061720 
2230.000000	99.062044 
2229.000000	99.062388 
2228.000000	99.062761 
2227.000000	99.063168 
2226.000000	99.063607 
2225.000000	99.064068 
2224.000000	99.064545 
2223.000000	99.065037 
2222.000000	99.065545 
2221.000000	99.066066 
2220.000000	99.066600 
2219.000000	99.067155 
2218.000000	99.067750 
2217.000000	99.068399 
2216.000000	99.069097 
2215.000000	99.069820 
2214.000000	99.070542 
2213.000000	99.071251 
2212.000000	99.071956 
2211.000000	99.072681 
2210.000000	99.073446 
2209.000000	99.074260 
2208.000000	99.075121 
2207.000000	99.076013 
2206.000000	99.076930 
2205.000000	99.077880 
2204.000000	99.078889 
2203.000000	99.079986 
2202.000000	99.081174 
2201.000000	99.082425 
2200.000000	99.083710 
2199.000000	99.084919 
2198.000000	99.085842 
2197.000000	99.086544 
2196.000000	99.087398 
2195.000000	99.088730 
2194.000000	99.090484 
2193.000000	99.092259 
2192.000000	99.093598 
2191.000000	99.094265 
2190.000000	99.094550 
2189.000000	99.095355 
2188.000000	99.097459 
2187.000000	99.100308 
2186.000000	99.101889 
2185.000000	99.100584 
2184.000000	99.097177 
2183.000000	99.094506 
2182.000000	99.094586 
2181.000000	99.096809 
2180.000000	99.099253 
2179.000000	99.101200 
2178.000000	99.103472 
2177.000000	99.106645 
2176.000000	99.109873 
2175.000000	99.111486 
2174.000000	99.110360 
2173.000000	99.107134 
2172.000000	99.104619 
2171.000000	99.106271 
2170.000000	99.113124 
2169.000000	99.122056 
2168.000000	99.128098 
2167.000000	99.128838 
2166.000000	99.125904 
2165.000000	99.122921 
2164.000000	99.122975 
2163.000000	99.127389 
2162.000000	99.134628 
2161.000000	99.139573 
2160.000000	99.136221 
2159.000000	99.122732 
2158.000000	99.103392 
2157.000000	99.084949 
2156.000000	99.071335 
2155.000000	99.063146 
2154.000000	99.060119 
2153.000000	99.061885 
2152.000000	99.067046 
2151.000000	99.073040 
2150.000000	99.077397 
2149.000000	99.079427 
2148.000000	99.080832 
2147.000000	99.083953 
2146.000000	99.088575 
2145.000000	99.091072 
2144.000000	99.088064 
2143.000000	99.080547 
2142.000000	99.073292 
2141.000000	99.070012 
2140.000000	99.070208 
2139.000000	99.070833 
2138.000000	99.069643 
2137.000000	99.066524 
2136.000000	99.062741 
2135.000000	99.059816 
2134.000000	99.058601 
2133.000000	99.058709 
2132.000000	99.058823 
2131.000000	99.057604 
2130.000000	99.054311 
2129.000000	99.049189 
2128.000000	99.043891 
2127.000000	99.040871 
2126.000000	99.041448 
2125.000000	99.044787 
2124.000000	99.049285 
2123.000000	99.054639 
2122.000000	99.061214 
2121.000000	99.067734 
2120.000000	99.071704 
2119.000000	99.072441 
2118.000000	99.071982 
2117.000000	99.072559 
2116.000000	99.074289 
2115.000000	99.075970 
2114.000000	99.076991 
2113.000000	99.077479 
2112.000000	99.077478 
2111.000000	99.076968 
2110.000000	99.076377 
2109.000000	99.076256 
2108.000000	99.076473 
2107.000000	99.076172 
2106.000000	99.074616 
2105.000000	99.072075 
2104.000000	99.070046 
2103.000000	99.070330 
2102.000000	99.073428 
2101.000000	99.077783 
2100.000000	99.081031 
2099.000000	99.082181 
2098.000000	99.082059 
2097.000000	99.081968 
2096.000000	99.082548 
2095.000000	99.083887 
2094.000000	99.085932 
2093.000000	99.088403 
2092.000000	99.090783 
2091.000000	99.092747 
2090.000000	99.094415 
2089.000000	99.096026 
2088.000000	99.097550 
2087.000000	99.098692 
2086.000000	99.099150 
2085.000000	99.098948 
2084.000000	99.098792 
2083.000000	99.099971 
2082.000000	99.103377 
2081.000000	99.108441 
2080.000000	99.113203 
2079.000000	99.116188 
2078.000000	99.117907 
2077.000000	99.120220 
2076.000000	99.124130 
2075.000000	99.128449 
2074.000000	99.130802 
2073.000000	99.129869 
2072.000000	99.126695 
2071.000000	99.123996 
2070.000000	99.123772 
2069.000000	99.125698 
2068.000000	99.127965 
2067.000000	99.129451 
2066.000000	99.130433 
2065.000000	99.131570 
2064.000000	99.133326 
2063.000000	99.136276 
2062.000000	99.140502 
2061.000000	99.144446 
2060.000000	99.146083 
2059.000000	99.145726 
2058.000000	99.146156 
2057.000000	99.149247 
2056.000000	99.153801 
2055.000000	99.157586 
2054.000000	99.160393 
2053.000000	99.163711 
2052.000000	99.168201 
2051.000000	99.172874 
2050.000000	99.176429 
2049.000000	99.178424 
2048.000000	99.179359 
2047.000000	99.180318 
2046.000000	99.182324 
2045.000000	99.185317 
2044.000000	99.187893 
2043.000000	99.188699 
2042.000000	99.187904 
2041.000000	99.186884 
2040.000000	99.186717 
2039.000000	99.187469 
2038.000000	99.188602 
2037.000000	99.189416 
2036.000000	99.189322 
2035.000000	99.188162 
2034.000000	99.186294 
2033.000000	99.184425 
2032.000000	99.183477 
2031.000000	99.184352 
2030.000000	99.187224 
2029.000000	99.190754 
2028.000000	99.192725 
2027.000000	99.191967 
2026.000000	99.189037 
2025.000000	99.185351 
2024.000000	99.182244 
2023.000000	99.180803 
2022.000000	99.181714 
2021.000000	99.184421 
2020.000000	99.186866 
2019.000000	99.187291 
2018.000000	99.186013 
2017.000000	99.184832 
2016.000000	99.184833 
2015.000000	99.185557 
2014.000000	99.186106 
2013.000000	99.185953 
2012.000000	99.184943 
2011.000000	99.183600 
2010.000000	99.183315 
2009.000000	99.185122 
2008.000000	99.188186 
2007.000000	99.190466 
2006.000000	99.190946 
2005.000000	99.190221 
2004.000000	99.189044 
2003.000000	99.187426 
2002.000000	99.185096 
2001.000000	99.181758 
2000.000000	99.176987 
1999.000000	99.170902 
1998.000000	99.164903 
1997.000000	99.160742 
1996.000000	99.158900 
1995.000000	99.158827 
1994.000000	99.160406 
1993.000000	99.163774 
1992.000000	99.167516 
1991.000000	99.168759 
1990.000000	99.166072 
1989.000000	99.161336 
1988.000000	99.158395 
1987.000000	99.160128 
1986.000000	99.166611 
1985.000000	99.175313 
1984.000000	99.183114 
1983.000000	99.188822 
1982.000000	99.193033 
1981.000000	99.195564 
1980.000000	99.194845 
1979.000000	99.190731 
1978.000000	99.186078 
1977.000000	99.183329 
1976.000000	99.180898 
1975.000000	99.175687 
1974.000000	99.168258 
1973.000000	99.162930 
1972.000000	99.162687 
1971.000000	99.166150 
1970.000000	99.169880 
1969.000000	99.172141 
1968.000000	99.173547 
1967.000000	99.174873 
1966.000000	99.175482 
1965.000000	99.174109 
1964.000000	99.170577 
1963.000000	99.166447 
1962.000000	99.163983 
1961.000000	99.164344 
1960.000000	99.166531 
1959.000000	99.167973 
1958.000000	99.166358 
1957.000000	99.161252 
1956.000000	99.154333 
1955.000000	99.147785 
1954.000000	99.142186 
1953.000000	99.136336 
1952.000000	99.129444 
1951.000000	99.122987 
1950.000000	99.119655 
1949.000000	99.120441 
1948.000000	99.123415 
1947.000000	99.125437 
1946.000000	99.124669 
1945.000000	99.121187 
1944.000000	99.116235 
1943.000000	99.111473 
1942.000000	99.108148 
1941.000000	99.106267 
1940.000000	99.104968 
1939.000000	99.103673 
1938.000000	99.102303 
1937.000000	99.100717 
1936.000000	99.098686 
1935.000000	99.096366 
1934.000000	99.094305 
1933.000000	99.092893 
1932.000000	99.092085 
1931.000000	99.091720 
1930.000000	99.091667 
1929.000000	99.091498 
1928.000000	99.090571 
1927.000000	99.088697 
1926.000000	99.086316 
1925.000000	99.083941 
1924.000000	99.081849 
1923.000000	99.080296 
1922.000000	99.079511 
1921.000000	99.079308 
1920.000000	99.079142 
1919.000000	99.078582 
1918.000000	99.077635 
1917.000000	99.076560 
1916.000000	99.075557 
1915.000000	99.074688 
1914.000000	99.073932 
1913.000000	99.073238 
1912.000000	99.072565 
1911.000000	99.071905 
1910.000000	99.071257 
1909.000000	99.070605 
1908.000000	99.069949 
1907.000000	99.069287 
1906.000000	99.068622 
1905.000000	99.067953 
1904.000000	99.067278 
1903.000000	99.066599 
1902.000000	99.065923 
1901.000000	99.065262 
1900.000000	99.064630 
1899.000000	99.064036 
1898.000000	99.063485 
1897.000000	99.062971 
1896.000000	99.062485 
1895.000000	99.062021 
1894.000000	99.061582 
1893.000000	99.061169 
1892.000000	99.060777 
1891.000000	99.060397 
1890.000000	99.060022 
1889.000000	99.059653 
1888.000000	99.059299 
1887.000000	99.058976 
1886.000000	99.058696 
1885.000000	99.058468 
1884.000000	99.058244 
1883.000000	99.057915 
1882.000000	99.057408 
1881.000000	99.056811 
1880.000000	99.056333 
1879.000000	99.056138 
1878.000000	99.056167 
1877.000000	99.056104 
1876.000000	99.055655 
1875.000000	99.054968 
1874.000000	99.054660 
1873.000000	99.055168 
1872.000000	99.056136 
1871.000000	99.056650 
1870.000000	99.056206 
1869.000000	99.055130 
1868.000000	99.053833 
1867.000000	99.052193 
1866.000000	99.050217 
1865.000000	99.048440 
1864.000000	99.047518 
1863.000000	99.047967 
1862.000000	99.050079 
1861.000000	99.053527 
1860.000000	99.056996 
1859.000000	99.059183 
1858.000000	99.060180 
1857.000000	99.061016 
1856.000000	99.062155 
1855.000000	99.063235 
1854.000000	99.063954 
1853.000000	99.064351 
1852.000000	99.064341 
1851.000000	99.063634 
1850.000000	99.062397 
1849.000000	99.061419 
1848.000000	99.061292 
1847.000000	99.061871 
1846.000000	99.062639 
1845.000000	99.063056 
1844.000000	99.062651 
1843.000000	99.061776 
1842.000000	99.061698 
1841.000000	99.063192 
1840.000000	99.065726 
1839.000000	99.067974 
1838.000000	99.069065 
1837.000000	99.069252 
1836.000000	99.069333 
1835.000000	99.069797 
1834.000000	99.070580 
1833.000000	99.071465 
1832.000000	99.072365 
1831.000000	99.073054 
1830.000000	99.073247 
1829.000000	99.073172 
1828.000000	99.073478 
1827.000000	99.074324 
1826.000000	99.075242 
1825.000000	99.075956 
1824.000000	99.076626 
1823.000000	99.077377 
1822.000000	99.077999 
1821.000000	99.077988 
1820.000000	99.076885 
1819.000000	99.074833 
1818.000000	99.072910 
1817.000000	99.072283 
1816.000000	99.072908 
1815.000000	99.073779 
1814.000000	99.074518 
1813.000000	99.075851 
1812.000000	99.078370 
1811.000000	99.081459 
1810.000000	99.084131 
1809.000000	99.086258 
1808.000000	99.087859 
1807.000000	99.088304 
1806.000000	99.087201 
1805.000000	99.085142 
1804.000000	99.083114 
1803.000000	99.081551 
1802.000000	99.080634 
1801.000000	99.080917 
1800.000000	99.082333 
1799.000000	99.083745 
1798.000000	99.084472 
1797.000000	99.085003 
1796.000000	99.086008 
1795.000000	99.087620 
1794.000000	99.089547 
1793.000000	99.091356 
1792.000000	99.092652 
1791.000000	99.093263 
1790.000000	99.093481 
1789.000000	99.093863 
1788.000000	99.094656 
1787.000000	99.095561 
1786.000000	99.096116 
1785.000000	99.096151 
1784.000000	99.095874 
1783.000000	99.095701 
1782.000000	99.095990 
1781.000000	99.096759 
1780.000000	99.097478 
1779.000000	99.097625 
1778.000000	99.097448 
1777.000000	99.097696 
1776.000000	99.098779 
1775.000000	99.100575 
1774.000000	99.102727 
1773.000000	99.104791 
1772.000000	99.106230 
1771.000000	99.106833 
1770.000000	99.106920 
1769.000000	99.106943 
1768.000000	99.107221 
1767.000000	99.107774 
1766.000000	99.108417 
1765.000000	99.109055 
1764.000000	99.109742 
1763.000000	99.110537 
1762.000000	99.111400 
1761.000000	99.112230 
1760.000000	99.112952 
1759.000000	99.113550 
1758.000000	99.114038 
1757.000000	99.114465 
1756.000000	99.114871 
1755.000000	99.115211 
1754.000000	99.115398 
1753.000000	99.115432 
1752.000000	99.115523 
1751.000000	99.115980 
1750.000000	99.116838 
1749.000000	99.117773 
1748.000000	99.118471 
1747.000000	99.118881 
1746.000000	99.119083 
1745.000000	99.119215 
1744.000000	99.119452 
1743.000000	99.119890 
1742.000000	99.120434 
1741.000000	99.120878 
1740.000000	99.121096 
1739.000000	99.121129 
1738.000000	99.121079 
1737.000000	99.120972 
1736.000000	99.120771 
1735.000000	99.120496 
1734.000000	99.120289 
1733.000000	99.120286 
1732.000000	99.120466 
1731.000000	99.120700 
1730.000000	99.120863 
1729.000000	99.120861 
1728.000000	99.120701 
1727.000000	99.120469 
1726.000000	99.120223 
1725.000000	99.119938 
1724.000000	99.119587 
1723.000000	99.119236 
1722.000000	99.118985 
1721.000000	99.118843 
1720.000000	99.118697 
1719.000000	99.118368 
1718.000000	99.117745 
1717.000000	99.116917 
1716.000000	99.116057 
1715.000000	99.115222 
1714.000000	99.114436 
1713.000000	99.113714 
1712.000000	99.113018 
1711.000000	99.112300 
1710.000000	99.111541 
1709.000000	99.110733 
1708.000000	99.109864 
1707.000000	99.108938 
1706.000000	99.108006 
1705.000000	99.107098 
1704.000000	99.106139 
1703.000000	99.105060 
1702.000000	99.103880 
1701.000000	99.102698 
1700.000000	99.101588 
1699.000000	99.100514 
1698.000000	99.099413 
1697.000000	99.098273 
1696.000000	99.097105 
1695.000000	99.095911 
1694.000000	99.094690 
1693.000000	99.093429 
1692.000000	99.092103 
1691.000000	99.090709 
1690.000000	99.089285 
1689.000000	99.087870 
1688.000000	99.086460 
1687.000000	99.085018 
1686.000000	99.083511 
1685.000000	99.081989 
1684.000000	99.080515 
1683.000000	99.079018 
1682.000000	99.077380 
1681.000000	99.075544 
1680.000000	99.073656 
1679.000000	99.071957 
1678.000000	99.070470 
1677.000000	99.068977 
1676.000000	99.067407 
1675.000000	99.065983 
1674.000000	99.064807 
1673.000000	99.063743 
1672.000000	99.062654 
1671.000000	99.061716 
1670.000000	99.061083 
1669.000000	99.060305 
1668.000000	99.059166 
1667.000000	99.057967 
1666.000000	99.056431 
1665.000000	99.053952 
1664.000000	99.050822 
1663.000000	99.048464 
1662.000000	99.047897 
1661.000000	99.048537 
1660.000000	99.049102 
1659.000000	99.049158 
1658.000000	99.049269 
1657.000000	99.048922 
1656.000000	99.046629 
1655.000000	99.041618 
1654.000000	99.037683 
1653.000000	99.036720 
1652.000000	99.035923 
1651.000000	99.036174 
1650.000000	99.036338 
1649.000000	99.034073 
1648.000000	99.029605 
1647.000000	99.024082 
1646.000000	99.018854 
1645.000000	99.015722 
1644.000000	99.015546 
1643.000000	99.017298 
1642.000000	99.019386 
1641.000000	99.021247 
1640.000000	99.022587 
1639.000000	99.022996 
1638.000000	99.022473 
1637.000000	99.022235 
1636.000000	99.022964 
1635.000000	99.023581 
1634.000000	99.024339 
1633.000000	99.025624 
1632.000000	99.026489 
1631.000000	99.026509 
1630.000000	99.026213 
1629.000000	99.026231 
1628.000000	99.026965 
1627.000000	99.028621 
1626.000000	99.031214 
1625.000000	99.034757 
1624.000000	99.039270 
1623.000000	99.044087 
1622.000000	99.047894 
1621.000000	99.049877 
1620.000000	99.049985 
1619.000000	99.048963 
1618.000000	99.048729 
1617.000000	99.050394 
1616.000000	99.052539 
1615.000000	99.053812 
1614.000000	99.053850 
1613.000000	99.052691 
1612.000000	99.051729 
1611.000000	99.052457 
1610.000000	99.054532 
1609.000000	99.056378 
1608.000000	99.057433 
1607.000000	99.058401 
1606.000000	99.059565 
1605.000000	99.060988 
1604.000000	99.063406 
1603.000000	99.067395 
1602.000000	99.071869 
1601.000000	99.074834 
1600.000000	99.076111 
1599.000000	99.077601 
1598.000000	99.080615 
1597.000000	99.084541 
1596.000000	99.088340 
1595.000000	99.092040 
1594.000000	99.095909 
1593.000000	99.099251 
1592.000000	99.101382 
1591.000000	99.102972 
1590.000000	99.105126 
1589.000000	99.107743 
1588.000000	99.110059 
1587.000000	99.112210 
1586.000000	99.114458 
1585.000000	99.115924 
1584.000000	99.115647 
1583.000000	99.114176 
1582.000000	99.113441 
1581.000000	99.114547 
1580.000000	99.116664 
1579.000000	99.118447 
1578.000000	99.119781 
1577.000000	99.121339 
1576.000000	99.122913 
1575.000000	99.124698 
1574.000000	99.127227 
1573.000000	99.129170 
1572.000000	99.129317 
1571.000000	99.128924 
1570.000000	99.130173 
1569.000000	99.132826 
1568.000000	99.134908 
1567.000000	99.135473 
1566.000000	99.134998 
1565.000000	99.134661 
1564.000000	99.135808 
1563.000000	99.138051 
1562.000000	99.140172 
1561.000000	99.140779 
1560.000000	99.140426 
1559.000000	99.139644 
1558.000000	99.137506 
1557.000000	99.135996 
1556.000000	99.135739 
1555.000000	99.135678 
1554.000000	99.134918 
1553.000000	99.133696 
1552.000000	99.132506 
1551.000000	99.132105 
1550.000000	99.132913 
1549.000000	99.134247 
1548.000000	99.134605 
1547.000000	99.133186 
1546.000000	99.130259 
1545.000000	99.127036 
1544.000000	99.124704 
1543.000000	99.123316 
1542.000000	99.122546 
1541.000000	99.122410 
1540.000000	99.121497 
1539.000000	99.118963 
1538.000000	99.116738 
1537.000000	99.115613 
1536.000000	99.114628 
1535.000000	99.113317 
1534.000000	99.112111 
1533.000000	99.111161 
1532.000000	99.109743 
1531.000000	99.107462 
1530.000000	99.105020 
1529.000000	99.103270 
1528.000000	99.102211 
1527.000000	99.101210 
1526.000000	99.099899 
1525.000000	99.098485 
1524.000000	99.097129 
1523.000000	99.095783 
1522.000000	99.094665 
1521.000000	99.093750 
1520.000000	99.092249 
1519.000000	99.089608 
1518.000000	99.086155 
1517.000000	99.082783 
1516.000000	99.080026 
1515.000000	99.077673 
1514.000000	99.075461 
1513.000000	99.073447 
1512.000000	99.071707 
1511.000000	99.069888 
1510.000000	99.067510 
1509.000000	99.064628 
1508.000000	99.062743 
1507.000000	99.063256 
1506.000000	99.063828 
1505.000000	99.062250 
1504.000000	99.059697 
1503.000000	99.057226 
1502.000000	99.055139 
1501.000000	99.053921 
1500.000000	99.053586 
1499.000000	99.053560 
1498.000000	99.053023 
1497.000000	99.052245 
1496.000000	99.051742 
1495.000000	99.050655 
1494.000000	99.047813 
1493.000000	99.043183 
1492.000000	99.037565 
1491.000000	99.032196 
1490.000000	99.028181 
1489.000000	99.025699 
1488.000000	99.023445 
1487.000000	99.020422 
1486.000000	99.017534 
1485.000000	99.015665 
1484.000000	99.014434 
1483.000000	99.012822 
1482.000000	99.010070 
1481.000000	99.006348 
1480.000000	99.002502 
1479.000000	98.999196 
1478.000000	98.996624 
1477.000000	98.994700 
1476.000000	98.993003 
1475.000000	98.990741 
1474.000000	98.988116 
1473.000000	98.987028 
1472.000000	98.987923 
1471.000000	98.988309 
1470.000000	98.986849 
1469.000000	98.984865 
1468.000000	98.983838 
1467.000000	98.983772 
1466.000000	98.983631 
1465.000000	98.982726 
1464.000000	98.981030 
1463.000000	98.978819 
1462.000000	98.976539 
1461.000000	98.974646 
1460.000000	98.973003 
1459.000000	98.970533 
1458.000000	98.965400 
1457.000000	98.957469 
1456.000000	98.949997 
1455.000000	98.945098 
1454.000000	98.941883 
1453.000000	98.939593 
1452.000000	98.937766 
1451.000000	98.936119 
1450.000000	98.935100 
1449.000000	98.936201 
1448.000000	98.939552 
1447.000000	98.942326 
1446.000000	98.942202 
1445.000000	98.940627 
1444.000000	98.939610 
1443.000000	98.938640 
1442.000000	98.936525 
1441.000000	98.934063 
1440.000000	98.933342 
1439.000000	98.934823 
1438.000000	98.936059 
1437.000000	98.934191 
1436.000000	98.929389 
1435.000000	98.923348 
1434.000000	98.917340 
1433.000000	98.913171 
1432.000000	98.912288 
1431.000000	98.914374 
1430.000000	98.916697 
1429.000000	98.916659 
1428.000000	98.914429 
1427.000000	98.911495 
1426.000000	98.908411 
1425.000000	98.904962 
1424.000000	98.901974 
1423.000000	98.900007 
1422.000000	98.897200 
1421.000000	98.891407 
1420.000000	98.883125 
1419.000000	98.874938 
1418.000000	98.867100 
1417.000000	98.858123 
1416.000000	98.848897 
1415.000000	98.840947 
1414.000000	98.833470 
1413.000000	98.824591 
1412.000000	98.814653 
1411.000000	98.806298 
1410.000000	98.800711 
1409.000000	98.797183 
1408.000000	98.795493 
1407.000000	98.795946 
1406.000000	98.798203 
1405.000000	98.802359 
1404.000000	98.809815 
1403.000000	98.820211 
1402.000000	98.830464 
1401.000000	98.838660 
1400.000000	98.845971 
1399.000000	98.853568 
1398.000000	98.858061 
1397.000000	98.853873 
1396.000000	98.840535 
1395.000000	98.826425 
1394.000000	98.822853 
1393.000000	98.833581 
1392.000000	98.854049 
1391.000000	98.876654 
1390.000000	98.894911 
1389.000000	98.905602 
1388.000000	98.909167 
1387.000000	98.908593 
1386.000000	98.906895 
1385.000000	98.905951 
1384.000000	98.906977 
1383.000000	98.910318 
1382.000000	98.915245 
1381.000000	98.921167 
1380.000000	98.928313 
1379.000000	98.936866 
1378.000000	98.945814 
1377.000000	98.953516 
1376.000000	98.959717 
1375.000000	98.966392 
1374.000000	98.975620 
1373.000000	98.986630 
1372.000000	98.996740 
1371.000000	99.005161 
1370.000000	99.013593 
1369.000000	99.023291 
1368.000000	99.033920 
1367.000000	99.044407 
1366.000000	99.053953 
1365.000000	99.062142 
1364.000000	99.068393 
1363.000000	99.072733 
1362.000000	99.076747 
1361.000000	99.082056 
1360.000000	99.088689 
1359.000000	99.096085 
1358.000000	99.104270 
1357.000000	99.113227 
1356.000000	99.121931 
1355.000000	99.128969 
1354.000000	99.134097 
1353.000000	99.138393 
1352.000000	99.141898 
1351.000000	99.143474 
1350.000000	99.143878 
1349.000000	99.145125 
1348.000000	99.148021 
1347.000000	99.151984 
1346.000000	99.156700 
1345.000000	99.162125 
1344.000000	99.167247 
1343.000000	99.170558 
1342.000000	99.171720 
1341.000000	99.171510 
1340.000000	99.170561 
1339.000000	99.169262 
1338.000000	99.168308 
1337.000000	99.168547 
1336.000000	99.170249 
1335.000000	99.172981 
1334.000000	99.176496 
1333.000000	99.180830 
1332.000000	99.185110 
1331.000000	99.187732 
1330.000000	99.188106 
1329.000000	99.187210 
1328.000000	99.186353 
1327.000000	99.186280 
1326.000000	99.187176 
1325.000000	99.188362 
1324.000000	99.189064 
1323.000000	99.189180 
1322.000000	99.188980 
1321.000000	99.188379 
1320.000000	99.187121 
1319.000000	99.185635 
1318.000000	99.184959 
1317.000000	99.185545 
1316.000000	99.186476 
1315.000000	99.186320 
1314.000000	99.184640 
1313.000000	99.182605 
1312.000000	99.181929 
1311.000000	99.183367 
1310.000000	99.186297 
1309.000000	99.189424 
1308.000000	99.191463 
1307.000000	99.191516 
1306.000000	99.189552 
1305.000000	99.186592 
1304.000000	99.184609 
1303.000000	99.185245 
1302.000000	99.188357 
1301.000000	99.191939 
1300.000000	99.193691 
1299.000000	99.192673 
1298.000000	99.189667 
1297.000000	99.186372 
1296.000000	99.184264 
1295.000000	99.184149 
1294.000000	99.186124 
1293.000000	99.189542 
1292.000000	99.192930 
1291.000000	99.194452 
1290.000000	99.193324 
1289.000000	99.190837 
1288.000000	99.189285 
1287.000000	99.189412 
1286.000000	99.189573 
1285.000000	99.188039 
1284.000000	99.185494 
1283.000000	99.184357 
1282.000000	99.185853 
1281.000000	99.188808 
1280.000000	99.191326 
1279.000000	99.192491 
1278.000000	99.192145 
1277.000000	99.190220 
1276.000000	99.187018 
1275.000000	99.183716 
1274.000000	99.181749 
1273.000000	99.181706 
1272.000000	99.183048 
1271.000000	99.184552 
1270.000000	99.184840 
1269.000000	99.183077 
1268.000000	99.179720 
1267.000000	99.176154 
1266.000000	99.173102 
1265.000000	99.170023 
1264.000000	99.166367 
1263.000000	99.162511 
1262.000000	99.158938 
1261.000000	99.155412 
1260.000000	99.151916 
1259.000000	99.149598 
1258.000000	99.149425 
1257.000000	99.150565 
1256.000000	99.151259 
1255.000000	99.150893 
1254.000000	99.150070 
1253.000000	99.149026 
1252.000000	99.147391 
1251.000000	99.145728 
1250.000000	99.145911 
1249.000000	99.149517 
1248.000000	99.156630 
1247.000000	99.165916 
1246.000000	99.174407 
1245.000000	99.177575 
1244.000000	99.172109 
1243.000000	99.160274 
1242.000000	99.150393 
1241.000000	99.150665 
1240.000000	99.162014 
1239.000000	99.177417 
1238.000000	99.188069 
1237.000000	99.189812 
1236.000000	99.184050 
1235.000000	99.174415 
1234.000000	99.163651 
1233.000000	99.153091 
1232.000000	99.143652 
1231.000000	99.135995 
1230.000000	99.129668 
1229.000000	99.123244 
1228.000000	99.116201 
1227.000000	99.110190 
1226.000000	99.107362 
1225.000000	99.107263 
1224.000000	99.106396 
1223.000000	99.101456 
1222.000000	99.092395 
1221.000000	99.081760 
1220.000000	99.071645 
1219.000000	99.062164 
1218.000000	99.052358 
1217.000000	99.041311 
1216.000000	99.028059 
1215.000000	99.011552 
1214.000000	98.991832 
1213.000000	98.970891 
1212.000000	98.951182 
1211.000000	98.932870 
1210.000000	98.913531 
1209.000000	98.891136 
1208.000000	98.866433 
1207.000000	98.841615 
1206.000000	98.817554 
1205.000000	98.793637 
1204.000000	98.769671 
1203.000000	98.746093 
1202.000000	98.722268 
1201.000000	98.696432 
1200.000000	98.668138 
1199.000000	98.639415 
1198.000000	98.612609 
1197.000000	98.588032 
1196.000000	98.564416 
1195.000000	98.540504 
1194.000000	98.515301 
1193.000000	98.487676 
1192.000000	98.457104 
1191.000000	98.424765 
1190.000000	98.393211 
1189.000000	98.364867 
1188.000000	98.340679 
1187.000000	98.319210 
1186.000000	98.296729 
1185.000000	98.269361 
1184.000000	98.235959 
1183.000000	98.198531 
1182.000000	98.159887 
1181.000000	98.121646 
1180.000000	98.084461 
1179.000000	98.048528 
1178.000000	98.012901 
1177.000000	97.975588 
1176.000000	97.935578 
1175.000000	97.894174 
1174.000000	97.853487 
1173.000000	97.814249 
1172.000000	97.775804 
1171.000000	97.737332 
1170.000000	97.698225 
1169.000000	97.658133 
1168.000000	97.617573 
1167.000000	97.578111 
1166.000000	97.541837 
1165.000000	97.511721 
1164.000000	97.492441 
1163.000000	97.488574 
1162.000000	97.500406 
1161.000000	97.522271 
1160.000000	97.545785 
1159.000000	97.564157 
1158.000000	97.573408 
1157.000000	97.571382 
1156.000000	97.557188 
1155.000000	97.531362 
1154.000000	97.495838 
1153.000000	97.453759 
1152.000000	97.409131 
1151.000000	97.365562 
1150.000000	97.324597 
1149.000000	97.285722 
1148.000000	97.247932 
1147.000000	97.210303 
1146.000000	97.171377 
1145.000000	97.129827 
1144.000000	97.086229 
1143.000000	97.042845 
1142.000000	97.001131 
1141.000000	96.960610 
1140.000000	96.920163 
1139.000000	96.878821 
1138.000000	96.835302 
1137.000000	96.788801 
1136.000000	96.740597 
1135.000000	96.693088 
1134.000000	96.646807 
1133.000000	96.600110 
1132.000000	96.551771 
1131.000000	96.501799 
1130.000000	96.449857 
1129.000000	96.395494 
1128.000000	96.340101 
1127.000000	96.285796 
1126.000000	96.231969 
1125.000000	96.175862 
1124.000000	96.116980 
1123.000000	96.057653 
1122.000000	95.998515 
1121.000000	95.937091 
1120.000000	95.872362 
1119.000000	95.807259 
1118.000000	95.744739 
1117.000000	95.684495 
1116.000000	95.625385 
1115.000000	95.568085 
1114.000000	95.513259 
1113.000000	95.459678 
1112.000000	95.406224 
1111.000000	95.353821 
1110.000000	95.303979 
1109.000000	95.256921 
1108.000000	95.211541 
1107.000000	95.165484 
1106.000000	95.115778 
1105.000000	95.061866 
1104.000000	95.007385 
1103.000000	94.956190 
1102.000000	94.907296 
1101.000000	94.857775 
1100.000000	94.809116 
1099.000000	94.765195 
1098.000000	94.725680 
1097.000000	94.685697 
1096.000000	94.642991 
1095.000000	94.599437 
1094.000000	94.554937 
1093.000000	94.505719 
1092.000000	94.450417 
1091.000000	94.392330 
1090.000000	94.333530 
1089.000000	94.271801 
1088.000000	94.205927 
1087.000000	94.139416 
1086.000000	94.076311 
1085.000000	94.017110 
1084.000000	93.960776 
1083.000000	93.906688 
1082.000000	93.852803 
1081.000000	93.796156 
1080.000000	93.737182 
1079.000000	93.679794 
1078.000000	93.625900 
1077.000000	93.573879 
1076.000000	93.523222 
1075.000000	93.475648 
1074.000000	93.430409 
1073.000000	93.383256 
1072.000000	93.330310 
1071.000000	93.267150 
1070.000000	93.184627 
1069.000000	93.074882 
1068.000000	92.945193 
1067.000000	92.818943 
1066.000000	92.716754 
1065.000000	92.639905 
1064.000000	92.574911 
1063.000000	92.507288 
1062.000000	92.426633 
1061.000000	92.326278 
1060.000000	92.207097 
1059.000000	92.080536 
1058.000000	91.961879 
1057.000000	91.858873 
1056.000000	91.767294 
1055.000000	91.674996 
1054.000000	91.569953 
1053.000000	91.449083 
1052.000000	91.321122 
1051.000000	91.197070 
1050.000000	91.077598 
1049.000000	90.955480 
1048.000000	90.828943 
1047.000000	90.703356 
1046.000000	90.580052 
1045.000000	90.453858 
1044.000000	90.323513 
1043.000000	90.195489 
1042.000000	90.074336 
1041.000000	89.956718 
1040.000000	89.838801 
1039.000000	89.723434 
1038.000000	89.616678 
1037.000000	89.522630 
1036.000000	89.444019 
1035.000000	89.382092 
1034.000000	89.333241 
1033.000000	89.290096 
1032.000000	89.246546 
1031.000000	89.197900 
1030.000000	89.139795 
1029.000000	89.075598 
1028.000000	89.022536 
1027.000000	88.999012 
1026.000000	89.004081 
1025.000000	89.017847 
1024.000000	89.022938 
1023.000000	89.016569 
1022.000000	89.001875 
1021.000000	88.979840 
1020.000000	88.953089 
1019.000000	88.927224 
1018.000000	88.903702 
1017.000000	88.878741 
1016.000000	88.851850 
1015.000000	88.827693 
1014.000000	88.807609 
1013.000000	88.787548 
1012.000000	88.766501 
1011.000000	88.748779 
1010.000000	88.736146 
1009.000000	88.725939 
1008.000000	88.718510 
1007.000000	88.717996 
1006.000000	88.724273 
1005.000000	88.733000 
1004.000000	88.745092 
1003.000000	88.766931 
1002.000000	88.799292 
1001.000000	88.835235 
1000.000000	88.871073 
999.000000	 88.910143 
998.000000	 88.953277 
997.000000	 88.995078 
996.000000	 89.033293 
995.000000	 89.073750 
994.000000	 89.122178 
993.000000	 89.177657 
992.000000	 89.236485 
991.000000	 89.296045 
990.000000	 89.353494 
989.000000	 89.407684 
988.000000	 89.463612 
987.000000	 89.528171 
986.000000	 89.601121 
985.000000	 89.677555 
984.000000	 89.758732 
983.000000	 89.851487 
982.000000	 89.956855 
981.000000	 90.068446 
980.000000	 90.182854 
979.000000	 90.302648 
978.000000	 90.427988 
977.000000	 90.555009 
976.000000	 90.684456 
975.000000	 90.822364 
974.000000	 90.969503 
973.000000	 91.118750 
972.000000	 91.265593 
971.000000	 91.412861 
970.000000	 91.562371 
969.000000	 91.710356 
968.000000	 91.854662 
967.000000	 91.998635 
966.000000	 92.143709 
965.000000	 92.284809 
964.000000	 92.417446 
963.000000	 92.543906 
962.000000	 92.668517 
961.000000	 92.791401 
960.000000	 92.910358 
959.000000	 93.024704 
958.000000	 93.134019 
957.000000	 93.236823 
956.000000	 93.333509 
955.000000	 93.427657 
954.000000	 93.521937 
953.000000	 93.614762 
952.000000	 93.702288 
951.000000	 93.781532 
950.000000	 93.851456 
949.000000	 93.913789 
948.000000	 93.972765 
947.000000	 94.031019 
946.000000	 94.086173 
945.000000	 94.134824 
944.000000	 94.178626 
943.000000	 94.221803 
942.000000	 94.263588 
941.000000	 94.298941 
940.000000	 94.327069 
939.000000	 94.353674 
938.000000	 94.383626 
937.000000	 94.416297 
936.000000	 94.449307 
935.000000	 94.481873 
934.000000	 94.513130 
933.000000	 94.541911 
932.000000	 94.569909 
931.000000	 94.601118 
930.000000	 94.636894 
929.000000	 94.675145 
928.000000	 94.714635 
927.000000	 94.755570 
926.000000	 94.795542 
925.000000	 94.829792 
924.000000	 94.856480 
923.000000	 94.877259 
922.000000	 94.892113 
921.000000	 94.898574 
920.000000	 94.897298 
919.000000	 94.893676 
918.000000	 94.892297 
917.000000	 94.893894 
916.000000	 94.898919 
915.000000	 94.909645 
914.000000	 94.927417 
913.000000	 94.952212 
912.000000	 94.986077 
911.000000	 95.032365 
910.000000	 95.090344 
909.000000	 95.155242 
908.000000	 95.224743 
907.000000	 95.300673 
906.000000	 95.383431 
905.000000	 95.470302 
904.000000	 95.561107 
903.000000	 95.660370 
902.000000	 95.771203 
901.000000	 95.890542 
900.000000	 96.012279 
899.000000	 96.132021 
898.000000	 96.247377 
897.000000	 96.356397 
896.000000	 96.457357 
895.000000	 96.549241 
894.000000	 96.633040 
893.000000	 96.713854 
892.000000	 96.799367 
891.000000	 96.892706 
890.000000	 96.988069 
889.000000	 97.077137 
888.000000	 97.158105 
887.000000	 97.234005 
886.000000	 97.303883 
885.000000	 97.362049 
884.000000	 97.407033 
883.000000	 97.445887 
882.000000	 97.487312 
881.000000	 97.534286 
880.000000	 97.585597 
879.000000	 97.640453 
878.000000	 97.697853 
877.000000	 97.753706 
876.000000	 97.802312 
875.000000	 97.841130 
874.000000	 97.873587 
873.000000	 97.907622 
872.000000	 97.951053 
871.000000	 98.006438 
870.000000	 98.069471 
869.000000	 98.132931 
868.000000	 98.192123 
867.000000	 98.246630 
866.000000	 98.298889 
865.000000	 98.352401 
864.000000	 98.409756 
863.000000	 98.470567 
862.000000	 98.532006 
861.000000	 98.591901 
860.000000	 98.649727 
859.000000	 98.704670 
858.000000	 98.756209 
857.000000	 98.807380 
856.000000	 98.862723 
855.000000	 98.920312 
854.000000	 98.970525 
853.000000	 99.006832 
852.000000	 99.033892 
851.000000	 99.060484 
850.000000	 99.087924 
849.000000	 99.111384 
848.000000	 99.129904 
847.000000	 99.147679 
846.000000	 99.165992 
845.000000	 99.181144 
844.000000	 99.191712 
843.000000	 99.201362 
842.000000	 99.211374 
841.000000	 99.215270 
840.000000	 99.205351 
839.000000	 99.182572 
838.000000	 99.156303 
837.000000	 99.134196 
836.000000	 99.114637 
835.000000	 99.090634 
834.000000	 99.060553 
833.000000	 99.032617 
832.000000	 99.016189 
831.000000	 99.009898 
830.000000	 99.003983 
829.000000	 98.996472 
828.000000	 98.999858 
827.000000	 99.024661 
826.000000	 99.061517 
825.000000	 99.090324 
824.000000	 99.105172 
823.000000	 99.118286 
822.000000	 99.139108 
821.000000	 99.161993 
820.000000	 99.177300 
819.000000	 99.183690 
818.000000	 99.185419 
817.000000	 99.184718 
816.000000	 99.180508 
815.000000	 99.169776 
814.000000	 99.146872 
813.000000	 99.104934 
812.000000	 99.041201 
811.000000	 98.958872 
810.000000	 98.861623 
809.000000	 98.748181 
808.000000	 98.613803 
807.000000	 98.454819 
806.000000	 98.270869 
805.000000	 98.066492 
804.000000	 97.853452 
803.000000	 97.648790 
802.000000	 97.467138 
801.000000	 97.316266 
800.000000	 97.200639 
799.000000	 97.124672 
798.000000	 97.090006 
797.000000	 97.093026 
796.000000	 97.126603 
795.000000	 97.181569 
794.000000	 97.247466 
793.000000	 97.316243 
792.000000	 97.383997 
791.000000	 97.444977 
790.000000	 97.487359 
789.000000	 97.502189 
788.000000	 97.494617 
787.000000	 97.478168 
786.000000	 97.457805 
785.000000	 97.426013 
784.000000	 97.376381 
783.000000	 97.313349 
782.000000	 97.246835 
781.000000	 97.185201 
780.000000	 97.136538 
779.000000	 97.109242 
778.000000	 97.106782 
777.000000	 97.127210 
776.000000	 97.169830 
775.000000	 97.235309 
774.000000	 97.316869 
773.000000	 97.399556 
772.000000	 97.472602 
771.000000	 97.536055 
770.000000	 97.591543 
769.000000	 97.633866 
768.000000	 97.657821 
767.000000	 97.668221 
766.000000	 97.676383 
765.000000	 97.688728 
764.000000	 97.703579 
763.000000	 97.716699 
762.000000	 97.725535 
761.000000	 97.730195 
760.000000	 97.734588 
759.000000	 97.745155 
758.000000	 97.764607 
757.000000	 97.788078 
756.000000	 97.808527 
755.000000	 97.825039 
754.000000	 97.843351 
753.000000	 97.869171 
752.000000	 97.903356 
751.000000	 97.942488 
750.000000	 97.981802 
749.000000	 98.017571 
748.000000	 98.048241 
747.000000	 98.074744 
746.000000	 98.100794 
745.000000	 98.132087 
744.000000	 98.171920 
743.000000	 98.216040 
742.000000	 98.255478 
741.000000	 98.287755 
740.000000	 98.321914 
739.000000	 98.368457 
738.000000	 98.427090 
737.000000	 98.488704 
736.000000	 98.546378 
735.000000	 98.598905 
734.000000	 98.646319 
733.000000	 98.688810 
732.000000	 98.728463 
731.000000	 98.764973 
730.000000	 98.791063 
729.000000	 98.800274 
728.000000	 98.799077 
727.000000	 98.802637 
726.000000	 98.817140 
725.000000	 98.835202 
724.000000	 98.850685 
723.000000	 98.868230 
722.000000	 98.893861 
721.000000	 98.924206 
720.000000	 98.950984 
719.000000	 98.970926 
718.000000	 98.985845 
717.000000	 98.997480 
716.000000	 99.007720 
715.000000	 99.019933 
714.000000	 99.034859 
713.000000	 99.047762 
712.000000	 99.053716 
711.000000	 99.053681 
710.000000	 99.052496 
709.000000	 99.052662 
708.000000	 99.052386 
707.000000	 99.047910 
706.000000	 99.036004 
705.000000	 99.016813 
704.000000	 98.994286 
703.000000	 98.970042 
702.000000	 98.937145 
701.000000	 98.884735 
700.000000	 98.808807 
699.000000	 98.714503 
698.000000	 98.608818 
697.000000	 98.498464 
696.000000	 98.396320 
695.000000	 98.321280 
694.000000	 98.287858 
693.000000	 98.299331 
692.000000	 98.349202 
691.000000	 98.422175 
690.000000	 98.495481 
689.000000	 98.551462 
688.000000	 98.592596 
687.000000	 98.634523 
686.000000	 98.681847 
685.000000	 98.722100 
684.000000	 98.745584 
683.000000	 98.758139 
682.000000	 98.770460 
681.000000	 98.786890 
680.000000	 98.809375 
679.000000	 98.840229 
678.000000	 98.872605 
677.000000	 98.890280 
676.000000	 98.889903 
675.000000	 98.891330 
674.000000	 98.914739 
673.000000	 98.955803 
672.000000	 98.994102 
671.000000	 99.019358 
670.000000	 99.038167 
669.000000	 99.057099 
668.000000	 99.066596 
667.000000	 99.066759 
666.000000	 99.081038 
665.000000	 99.112023 
664.000000	 99.145314 
663.000000	 99.170449 
662.000000	 99.185800 
661.000000	 99.196252 
660.000000	 99.208935 
659.000000	 99.227313 
658.000000	 99.244444 
657.000000	 99.245126 
656.000000	 99.222586 
655.000000	 99.189665 
654.000000	 99.167573 
653.000000	 99.162636 
652.000000	 99.162811 
651.000000	 99.158089 
650.000000	 99.156847 

