4000.000000	99.265155 
3999.000000	99.266346 
3998.000000	99.266673 
3997.000000	99.266150 
3996.000000	99.264697 
3995.000000	99.262281 
3994.000000	99.259451 
3993.000000	99.257215 
3992.000000	99.256144 
3991.000000	99.255821 
3990.000000	99.255479 
3989.000000	99.255213 
3988.000000	99.256210 
3987.000000	99.259498 
3986.000000	99.264489 
3985.000000	99.268916 
3984.000000	99.270361 
3983.000000	99.268003 
3982.000000	99.263158 
3981.000000	99.258269 
3980.000000	99.254933 
3979.000000	99.252842 
3978.000000	99.250872 
3977.000000	99.249014 
3976.000000	99.248873 
3975.000000	99.252055 
3974.000000	99.258284 
3973.000000	99.265187 
3972.000000	99.269889 
3971.000000	99.271083 
3970.000000	99.269679 
3969.000000	99.267535 
3968.000000	99.265808 
3967.000000	99.264421 
3966.000000	99.262858 
3965.000000	99.261307 
3964.000000	99.260499 
3963.000000	99.260550 
3962.000000	99.260464 
3961.000000	99.259035 
3960.000000	99.256044 
3959.000000	99.252715 
3958.000000	99.250767 
3957.000000	99.250805 
3956.000000	99.252076 
3955.000000	99.253545 
3954.000000	99.254937 
3953.000000	99.256532 
3952.000000	99.258140 
3951.000000	99.259067 
3950.000000	99.258732 
3949.000000	99.257323 
3948.000000	99.255671 
3947.000000	99.254280 
3946.000000	99.253117 
3945.000000	99.252406 
3944.000000	99.252934 
3943.000000	99.254528 
3942.000000	99.255467 
3941.000000	99.254217 
3940.000000	99.250789 
3939.000000	99.246168 
3938.000000	99.241212 
3937.000000	99.236240 
3936.000000	99.231916 
3935.000000	99.229879 
3934.000000	99.232230 
3933.000000	99.239717 
3932.000000	99.250056 
3931.000000	99.258512 
3930.000000	99.261008 
3929.000000	99.257469 
3928.000000	99.251872 
3927.000000	99.248914 
3926.000000	99.251034 
3925.000000	99.256887 
3924.000000	99.261957 
3923.000000	99.262374 
3922.000000	99.257720 
3921.000000	99.250719 
3920.000000	99.244725 
3919.000000	99.241733 
3918.000000	99.242272 
3917.000000	99.245688 
3916.000000	99.250302 
3915.000000	99.254295 
3914.000000	99.257244 
3913.000000	99.260146 
3912.000000	99.263566 
3911.000000	99.267036 
3910.000000	99.270021 
3909.000000	99.272543 
3908.000000	99.274499 
3907.000000	99.274435 
3906.000000	99.269828 
3905.000000	99.259119 
3904.000000	99.243399 
3903.000000	99.227327 
3902.000000	99.217355 
3901.000000	99.217419 
3900.000000	99.226617 
3899.000000	99.239493 
3898.000000	99.249863 
3897.000000	99.255163 
3896.000000	99.256340 
3895.000000	99.255377 
3894.000000	99.253795 
3893.000000	99.252131 
3892.000000	99.250122 
3891.000000	99.247206 
3890.000000	99.243133 
3889.000000	99.237861 
3888.000000	99.232343 
3887.000000	99.229940 
3886.000000	99.233142 
3885.000000	99.238986 
3884.000000	99.241698 
3883.000000	99.239832 
3882.000000	99.237458 
3881.000000	99.238339 
3880.000000	99.241322 
3879.000000	99.242427 
3878.000000	99.240421 
3877.000000	99.238184 
3876.000000	99.240409 
3875.000000	99.248448 
3874.000000	99.256755 
3873.000000	99.257118 
3872.000000	99.247832 
3871.000000	99.236343 
3870.000000	99.231288 
3869.000000	99.233625 
3868.000000	99.237758 
3867.000000	99.239563 
3866.000000	99.240845 
3865.000000	99.244725 
3864.000000	99.248517 
3863.000000	99.247611 
3862.000000	99.242747 
3861.000000	99.239409 
3860.000000	99.242112 
3859.000000	99.250992 
3858.000000	99.261368 
3857.000000	99.266918 
3856.000000	99.263781 
3855.000000	99.256314 
3854.000000	99.252472 
3853.000000	99.252495 
3852.000000	99.252435 
3851.000000	99.251916 
3850.000000	99.251558 
3849.000000	99.252452 
3848.000000	99.254411 
3847.000000	99.256063 
3846.000000	99.256545 
3845.000000	99.255746 
3844.000000	99.254360 
3843.000000	99.254630 
3842.000000	99.257720 
3841.000000	99.261823 
3840.000000	99.264179 
3839.000000	99.263333 
3838.000000	99.259671 
3837.000000	99.255099 
3836.000000	99.251407 
3835.000000	99.250055 
3834.000000	99.251992 
3833.000000	99.257604 
3832.000000	99.265851 
3831.000000	99.273514 
3830.000000	99.277452 
3829.000000	99.277135 
3828.000000	99.274410 
3827.000000	99.271768 
3826.000000	99.269953 
3825.000000	99.267280 
3824.000000	99.262595 
3823.000000	99.259456 
3822.000000	99.262624 
3821.000000	99.269420 
3820.000000	99.272133 
3819.000000	99.268983 
3818.000000	99.264427 
3817.000000	99.264118 
3816.000000	99.268889 
3815.000000	99.272423 
3814.000000	99.268935 
3813.000000	99.260593 
3812.000000	99.254745 
3811.000000	99.255912 
3810.000000	99.262244 
3809.000000	99.269077 
3808.000000	99.273965 
3807.000000	99.276952 
3806.000000	99.277430 
3805.000000	99.274294 
3804.000000	99.268960 
3803.000000	99.266794 
3802.000000	99.271847 
3801.000000	99.279901 
3800.000000	99.283203 
3799.000000	99.279696 
3798.000000	99.272924 
3797.000000	99.267278 
3796.000000	99.264180 
3795.000000	99.262219 
3794.000000	99.260013 
3793.000000	99.257889 
3792.000000	99.256962 
3791.000000	99.257461 
3790.000000	99.258753 
3789.000000	99.260352 
3788.000000	99.262338 
3787.000000	99.264776 
3786.000000	99.267532 
3785.000000	99.270248 
3784.000000	99.272189 
3783.000000	99.272385 
3782.000000	99.271112 
3781.000000	99.270793 
3780.000000	99.273660 
3779.000000	99.278639 
3778.000000	99.282143 
3777.000000	99.281590 
3776.000000	99.277140 
3775.000000	99.271354 
3774.000000	99.266672 
3773.000000	99.263708 
3772.000000	99.262227 
3771.000000	99.262206 
3770.000000	99.262169 
3769.000000	99.259469 
3768.000000	99.254389 
3767.000000	99.250335 
3766.000000	99.249925 
3765.000000	99.252165 
3764.000000	99.253314 
3763.000000	99.250994 
3762.000000	99.247390 
3761.000000	99.247420 
3760.000000	99.252646 
3759.000000	99.259164 
3758.000000	99.263211 
3757.000000	99.265019 
3756.000000	99.265483 
3755.000000	99.264354 
3754.000000	99.261949 
3753.000000	99.260100 
3752.000000	99.259328 
3751.000000	99.256675 
3750.000000	99.252074 
3749.000000	99.250779 
3748.000000	99.254365 
3747.000000	99.258153 
3746.000000	99.259190 
3745.000000	99.260074 
3744.000000	99.262626 
3743.000000	99.263334 
3742.000000	99.258437 
3741.000000	99.248895 
3740.000000	99.238430 
3739.000000	99.228685 
3738.000000	99.220966 
3737.000000	99.220028 
3736.000000	99.229144 
3735.000000	99.242816 
3734.000000	99.250817 
3733.000000	99.250216 
3732.000000	99.246575 
3731.000000	99.244738 
3730.000000	99.243856 
3729.000000	99.240635 
3728.000000	99.235366 
3727.000000	99.231747 
3726.000000	99.231193 
3725.000000	99.231199 
3724.000000	99.230206 
3723.000000	99.230239 
3722.000000	99.232908 
3721.000000	99.237031 
3720.000000	99.239703 
3719.000000	99.238509 
3718.000000	99.233954 
3717.000000	99.228275 
3716.000000	99.222018 
3715.000000	99.213586 
3714.000000	99.202393 
3713.000000	99.191941 
3712.000000	99.186612 
3711.000000	99.186451 
3710.000000	99.187102 
3709.000000	99.183909 
3708.000000	99.175698 
3707.000000	99.164416 
3706.000000	99.152571 
3705.000000	99.141763 
3704.000000	99.132550 
3703.000000	99.124087 
3702.000000	99.113188 
3701.000000	99.096744 
3700.000000	99.075383 
3699.000000	99.052793 
3698.000000	99.032931 
3697.000000	99.018118 
3696.000000	99.007624 
3695.000000	98.999127 
3694.000000	98.992475 
3693.000000	98.989990 
3692.000000	98.992045 
3691.000000	98.994388 
3690.000000	98.990944 
3689.000000	98.980302 
3688.000000	98.967667 
3687.000000	98.957793 
3686.000000	98.950369 
3685.000000	98.944773 
3684.000000	98.942588 
3683.000000	98.944581 
3682.000000	98.948153 
3681.000000	98.948538 
3680.000000	98.941483 
3679.000000	98.924015 
3678.000000	98.896943 
3677.000000	98.870752 
3676.000000	98.860550 
3675.000000	98.866555 
3674.000000	98.874257 
3673.000000	98.873276 
3672.000000	98.864677 
3671.000000	98.858399 
3670.000000	98.859910 
3669.000000	98.863382 
3668.000000	98.863475 
3667.000000	98.862179 
3666.000000	98.862775 
3665.000000	98.865093 
3664.000000	98.865885 
3663.000000	98.862359 
3662.000000	98.854944 
3661.000000	98.845910 
3660.000000	98.836799 
3659.000000	98.828583 
3658.000000	98.823712 
3657.000000	98.825116 
3656.000000	98.831870 
3655.000000	98.838700 
3654.000000	98.840865 
3653.000000	98.837824 
3652.000000	98.832611 
3651.000000	98.828716 
3650.000000	98.826353 
3649.000000	98.824417 
3648.000000	98.825107 
3647.000000	98.830595 
3646.000000	98.839104 
3645.000000	98.847923 
3644.000000	98.856696 
3643.000000	98.866542 
3642.000000	98.878000 
3641.000000	98.889222 
3640.000000	98.897515 
3639.000000	98.901862 
3638.000000	98.902998 
3637.000000	98.901758 
3636.000000	98.898208 
3635.000000	98.892685 
3634.000000	98.886045 
3633.000000	98.878544 
3632.000000	98.870076 
3631.000000	98.862351 
3630.000000	98.859380 
3629.000000	98.860778 
3628.000000	98.859973 
3627.000000	98.855330 
3626.000000	98.851966 
3625.000000	98.854806 
3624.000000	98.864690 
3623.000000	98.878209 
3622.000000	98.890859 
3621.000000	98.901388 
3620.000000	98.910355 
3619.000000	98.915734 
3618.000000	98.915049 
3617.000000	98.910533 
3616.000000	98.907429 
3615.000000	98.909792 
3614.000000	98.916594 
3613.000000	98.922017 
3612.000000	98.921990 
3611.000000	98.919206 
3610.000000	98.920085 
3609.000000	98.928276 
3608.000000	98.940908 
3607.000000	98.952562 
3606.000000	98.961775 
3605.000000	98.970409 
3604.000000	98.979767 
3603.000000	98.989747 
3602.000000	99.000191 
3601.000000	99.011666 
3600.000000	99.022720 
3599.000000	99.028958 
3598.000000	99.027240 
3597.000000	99.019304 
3596.000000	99.010560 
3595.000000	99.006613 
3594.000000	99.009182 
3593.000000	99.015606 
3592.000000	99.021620 
3591.000000	99.023627 
3590.000000	99.021266 
3589.000000	99.018327 
3588.000000	99.018957 
3587.000000	99.021907 
3586.000000	99.023258 
3585.000000	99.022428 
3584.000000	99.022613 
3583.000000	99.026350 
3582.000000	99.032907 
3581.000000	99.038986 
3580.000000	99.041712 
3579.000000	99.040521 
3578.000000	99.036347 
3577.000000	99.030678 
3576.000000	99.025465 
3575.000000	99.023160 
3574.000000	99.024970 
3573.000000	99.028824 
3572.000000	99.030707 
3571.000000	99.028062 
3570.000000	99.021513 
3569.000000	99.014536 
3568.000000	99.010852 
3567.000000	99.010774 
3566.000000	99.012079 
3565.000000	99.013984 
3564.000000	99.017282 
3563.000000	99.022318 
3562.000000	99.028070 
3561.000000	99.032437 
3560.000000	99.033879 
3559.000000	99.032557 
3558.000000	99.030295 
3557.000000	99.029187 
3556.000000	99.030221 
3555.000000	99.032571 
3554.000000	99.034133 
3553.000000	99.032432 
3552.000000	99.026344 
3551.000000	99.017508 
3550.000000	99.009203 
3549.000000	99.003849 
3548.000000	99.002153 
3547.000000	99.003409 
3546.000000	99.006230 
3545.000000	99.008571 
3544.000000	99.008521 
3543.000000	99.006107 
3542.000000	99.004085 
3541.000000	99.005617 
3540.000000	99.011163 
3539.000000	99.017557 
3538.000000	99.020855 
3537.000000	99.019850 
3536.000000	99.016713 
3535.000000	99.014569 
3534.000000	99.014589 
3533.000000	99.016001 
3532.000000	99.017833 
3531.000000	99.019953 
3530.000000	99.021972 
3529.000000	99.022101 
3528.000000	99.018454 
3527.000000	99.011652 
3526.000000	99.005019 
3525.000000	99.001623 
3524.000000	99.001532 
3523.000000	99.002302 
3522.000000	99.002060 
3521.000000	99.001134 
3520.000000	99.001173 
3519.000000	99.003421 
3518.000000	99.007916 
3517.000000	99.013296 
3516.000000	99.017033 
3515.000000	99.016924 
3514.000000	99.012699 
3513.000000	99.006355 
3512.000000	99.000705 
3511.000000	98.997586 
3510.000000	98.996943 
3509.000000	98.997515 
3508.000000	98.998133 
3507.000000	98.998442 
3506.000000	98.998757 
3505.000000	98.999120 
3504.000000	98.998704 
3503.000000	98.996728 
3502.000000	98.994450 
3501.000000	98.995043 
3500.000000	99.000342 
3499.000000	99.008016 
3498.000000	99.012574 
3497.000000	99.009814 
3496.000000	99.000495 
3495.000000	98.989812 
3494.000000	98.983328 
3493.000000	98.982990 
3492.000000	98.986545 
3491.000000	98.990217 
3490.000000	98.992033 
3489.000000	98.992903 
3488.000000	98.994552 
3487.000000	98.996809 
3486.000000	98.997678 
3485.000000	98.996063 
3484.000000	98.993270 
3483.000000	98.991429 
3482.000000	98.990898 
3481.000000	98.990179 
3480.000000	98.988143 
3479.000000	98.985140 
3478.000000	98.981839 
3477.000000	98.978294 
3476.000000	98.975039 
3475.000000	98.974215 
3474.000000	98.977982 
3473.000000	98.985297 
3472.000000	98.991542 
3471.000000	98.992680 
3470.000000	98.989453 
3469.000000	98.986315 
3468.000000	98.986357 
3467.000000	98.988269 
3466.000000	98.988904 
3465.000000	98.987512 
3464.000000	98.986038 
3463.000000	98.985772 
3462.000000	98.985405 
3461.000000	98.983278 
3460.000000	98.980383 
3459.000000	98.979804 
3458.000000	98.983100 
3457.000000	98.987951 
3456.000000	98.990086 
3455.000000	98.987457 
3454.000000	98.981980 
3453.000000	98.977370 
3452.000000	98.975510 
3451.000000	98.975499 
3450.000000	98.975658 
3449.000000	98.975497 
3448.000000	98.975283 
3447.000000	98.974633 
3446.000000	98.972605 
3445.000000	98.969179 
3444.000000	98.965741 
3443.000000	98.963781 
3442.000000	98.963463 
3441.000000	98.963527 
3440.000000	98.962474 
3439.000000	98.959735 
3438.000000	98.955800 
3437.000000	98.951490 
3436.000000	98.947371 
3435.000000	98.943952 
3434.000000	98.942023 
3433.000000	98.942483 
3432.000000	98.945194 
3431.000000	98.948479 
3430.000000	98.950340 
3429.000000	98.950388 
3428.000000	98.950164 
3427.000000	98.951035 
3426.000000	98.952198 
3425.000000	98.951319 
3424.000000	98.947197 
3423.000000	98.941260 
3422.000000	98.936175 
3421.000000	98.933503 
3420.000000	98.933257 
3419.000000	98.935117 
3418.000000	98.938802 
3417.000000	98.943089 
3416.000000	98.945639 
3415.000000	98.944734 
3414.000000	98.941122 
3413.000000	98.937553 
3412.000000	98.936436 
3411.000000	98.938145 
3410.000000	98.941235 
3409.000000	98.943598 
3408.000000	98.943356 
3407.000000	98.939478 
3406.000000	98.932497 
3405.000000	98.924623 
3404.000000	98.918597 
3403.000000	98.916035 
3402.000000	98.916753 
3401.000000	98.919698 
3400.000000	98.924052 
3399.000000	98.929330 
3398.000000	98.934796 
3397.000000	98.939423 
3396.000000	98.942446 
3395.000000	98.943529 
3394.000000	98.942312 
3393.000000	98.938377 
3392.000000	98.932092 
3391.000000	98.925237 
3390.000000	98.920416 
3389.000000	98.919664 
3388.000000	98.923372 
3387.000000	98.930092 
3386.000000	98.937311 
3385.000000	98.942875 
3384.000000	98.946035 
3383.000000	98.947104 
3382.000000	98.946168 
3381.000000	98.942894 
3380.000000	98.937890 
3379.000000	98.933667 
3378.000000	98.933007 
3377.000000	98.936133 
3376.000000	98.940196 
3375.000000	98.942039 
3374.000000	98.941096 
3373.000000	98.939254 
3372.000000	98.938421 
3371.000000	98.938895 
3370.000000	98.939885 
3369.000000	98.940647 
3368.000000	98.940912 
3367.000000	98.940850 
3366.000000	98.941087 
3365.000000	98.942278 
3364.000000	98.944218 
3363.000000	98.945801 
3362.000000	98.946341 
3361.000000	98.946444 
3360.000000	98.946899 
3359.000000	98.947144 
3358.000000	98.945965 
3357.000000	98.943839 
3356.000000	98.943275 
3355.000000	98.945903 
3354.000000	98.949866 
3353.000000	98.951273 
3352.000000	98.948245 
3351.000000	98.942941 
3350.000000	98.939535 
3349.000000	98.940607 
3348.000000	98.945497 
3347.000000	98.951237 
3346.000000	98.954642 
3345.000000	98.954156 
3344.000000	98.950709 
3343.000000	98.947091 
3342.000000	98.945715 
3341.000000	98.946394 
3340.000000	98.946404 
3339.000000	98.943301 
3338.000000	98.937843 
3337.000000	98.933713 
3336.000000	98.934119 
3335.000000	98.938950 
3334.000000	98.945600 
3333.000000	98.951884 
3332.000000	98.957263 
3331.000000	98.961443 
3330.000000	98.963237 
3329.000000	98.961795 
3328.000000	98.958431 
3327.000000	98.955987 
3326.000000	98.956083 
3325.000000	98.957542 
3324.000000	98.957737 
3323.000000	98.955368 
3322.000000	98.951731 
3321.000000	98.949551 
3320.000000	98.950739 
3319.000000	98.954996 
3318.000000	98.960255 
3317.000000	98.964260 
3316.000000	98.965804 
3315.000000	98.965048 
3314.000000	98.963339 
3313.000000	98.962742 
3312.000000	98.964841 
3311.000000	98.969198 
3310.000000	98.973144 
3309.000000	98.973750 
3308.000000	98.970183 
3307.000000	98.964194 
3306.000000	98.958752 
3305.000000	98.956479 
3304.000000	98.958614 
3303.000000	98.964226 
3302.000000	98.970283 
3301.000000	98.973363 
3300.000000	98.971921 
3299.000000	98.967027 
3298.000000	98.961249 
3297.000000	98.957241 
3296.000000	98.956631 
3295.000000	98.959024 
3294.000000	98.961956 
3293.000000	98.963024 
3292.000000	98.962587 
3291.000000	98.963280 
3290.000000	98.966184 
3289.000000	98.968761 
3288.000000	98.967851 
3287.000000	98.964010 
3286.000000	98.961201 
3285.000000	98.962027 
3284.000000	98.964641 
3283.000000	98.965115 
3282.000000	98.962127 
3281.000000	98.958387 
3280.000000	98.957721 
3279.000000	98.961425 
3278.000000	98.967420 
3277.000000	98.972254 
3276.000000	98.973516 
3275.000000	98.970895 
3274.000000	98.965976 
3273.000000	98.961480 
3272.000000	98.959957 
3271.000000	98.962130 
3270.000000	98.966173 
3269.000000	98.969169 
3268.000000	98.969522 
3267.000000	98.967723 
3266.000000	98.965060 
3265.000000	98.962563 
3264.000000	98.961391 
3263.000000	98.963066 
3262.000000	98.968076 
3261.000000	98.974471 
3260.000000	98.979017 
3259.000000	98.980010 
3258.000000	98.978472 
3257.000000	98.976468 
3256.000000	98.974834 
3255.000000	98.972872 
3254.000000	98.969920 
3253.000000	98.966731 
3252.000000	98.965104 
3251.000000	98.966384 
3250.000000	98.970359 
3249.000000	98.975498 
3248.000000	98.979911 
3247.000000	98.981954 
3246.000000	98.980642 
3245.000000	98.976399 
3244.000000	98.971388 
3243.000000	98.968146 
3242.000000	98.967423 
3241.000000	98.967860 
3240.000000	98.968174 
3239.000000	98.969060 
3238.000000	98.972443 
3237.000000	98.979272 
3236.000000	98.988505 
3235.000000	98.997684 
3234.000000	99.003938 
3233.000000	99.005168 
3232.000000	99.001473 
3231.000000	98.995576 
3230.000000	98.990898 
3229.000000	98.988835 
3228.000000	98.988311 
3227.000000	98.987779 
3226.000000	98.986894 
3225.000000	98.986108 
3224.000000	98.985543 
3223.000000	98.984975 
3222.000000	98.984596 
3221.000000	98.985037 
3220.000000	98.986484 
3219.000000	98.988141 
3218.000000	98.989031 
3217.000000	98.989389 
3216.000000	98.990874 
3215.000000	98.994805 
3214.000000	99.000207 
3213.000000	99.004225 
3212.000000	99.004714 
3211.000000	99.001879 
3210.000000	98.997249 
3209.000000	98.992099 
3208.000000	98.987653 
3207.000000	98.985811 
3206.000000	98.988037 
3205.000000	98.993473 
3204.000000	98.999301 
3203.000000	99.003216 
3202.000000	99.004819 
3201.000000	99.004753 
3200.000000	99.003803 
3199.000000	99.003019 
3198.000000	99.003366 
3197.000000	99.004505 
3196.000000	99.005019 
3195.000000	99.004563 
3194.000000	99.004776 
3193.000000	99.007096 
3192.000000	99.010465 
3191.000000	99.012387 
3190.000000	99.011805 
3189.000000	99.009836 
3188.000000	99.007949 
3187.000000	99.006685 
3186.000000	99.006316 
3185.000000	99.007447 
3184.000000	99.010289 
3183.000000	99.013739 
3182.000000	99.015973 
3181.000000	99.016130 
3180.000000	99.015342 
3179.000000	99.015872 
3178.000000	99.018767 
3177.000000	99.022345 
3176.000000	99.023691 
3175.000000	99.022007 
3174.000000	99.019652 
3173.000000	99.019174 
3172.000000	99.020004 
3171.000000	99.019319 
3170.000000	99.015920 
3169.000000	99.011941 
3168.000000	99.010457 
3167.000000	99.012499 
3166.000000	99.016843 
3165.000000	99.021647 
3164.000000	99.025593 
3163.000000	99.028089 
3162.000000	99.029296 
3161.000000	99.029891 
3160.000000	99.030396 
3159.000000	99.030865 
3158.000000	99.031228 
3157.000000	99.031356 
3156.000000	99.030492 
3155.000000	99.027306 
3154.000000	99.021194 
3153.000000	99.013373 
3152.000000	99.006286 
3151.000000	99.002165 
3150.000000	99.002269 
3149.000000	99.006771 
3148.000000	99.014451 
3147.000000	99.022721 
3146.000000	99.028928 
3145.000000	99.032092 
3144.000000	99.033157 
3143.000000	99.033546 
3142.000000	99.033832 
3141.000000	99.033846 
3140.000000	99.033466 
3139.000000	99.032929 
3138.000000	99.032499 
3137.000000	99.032213 
3136.000000	99.032099 
3135.000000	99.032516 
3134.000000	99.034012 
3133.000000	99.036536 
3132.000000	99.038843 
3131.000000	99.039221 
3130.000000	99.037165 
3129.000000	99.034225 
3128.000000	99.032933 
3127.000000	99.034951 
3126.000000	99.040112 
3125.000000	99.046588 
3124.000000	99.051627 
3123.000000	99.052789 
3122.000000	99.049626 
3121.000000	99.044311 
3120.000000	99.039987 
3119.000000	99.038282 
3118.000000	99.038674 
3117.000000	99.040154 
3116.000000	99.042712 
3115.000000	99.046733 
3114.000000	99.051439 
3113.000000	99.054768 
3112.000000	99.055008 
3111.000000	99.052419 
3110.000000	99.049069 
3109.000000	99.047132 
3108.000000	99.047288 
3107.000000	99.048617 
3106.000000	99.049688 
3105.000000	99.049669 
3104.000000	99.048787 
3103.000000	99.048116 
3102.000000	99.048929 
3101.000000	99.051587 
3100.000000	99.054956 
3099.000000	99.057344 
3098.000000	99.058250 
3097.000000	99.058763 
3096.000000	99.060029 
3095.000000	99.061742 
3094.000000	99.062655 
3093.000000	99.062142 
3092.000000	99.060562 
3091.000000	99.058500 
3090.000000	99.056568 
3089.000000	99.055873 
3088.000000	99.057404 
3087.000000	99.060439 
3086.000000	99.062503 
3085.000000	99.061785 
3084.000000	99.059063 
3083.000000	99.056399 
3082.000000	99.054479 
3081.000000	99.052344 
3080.000000	99.049769 
3079.000000	99.048668 
3078.000000	99.051398 
3077.000000	99.058047 
3076.000000	99.065908 
3075.000000	99.071504 
3074.000000	99.072911 
3073.000000	99.070649 
3072.000000	99.066851 
3071.000000	99.063565 
3070.000000	99.061389 
3069.000000	99.059379 
3068.000000	99.056412 
3067.000000	99.052935 
3066.000000	99.051425 
3065.000000	99.054618 
3064.000000	99.062585 
3063.000000	99.071422 
3062.000000	99.075577 
3061.000000	99.072160 
3060.000000	99.063158 
3059.000000	99.053459 
3058.000000	99.047206 
3057.000000	99.046160 
3056.000000	99.050159 
3055.000000	99.057443 
3054.000000	99.064515 
3053.000000	99.067503 
3052.000000	99.064811 
3051.000000	99.058181 
3050.000000	99.050901 
3049.000000	99.045485 
3048.000000	99.042952 
3047.000000	99.042829 
3046.000000	99.042828 
3045.000000	99.039576 
3044.000000	99.031461 
3043.000000	99.020821 
3042.000000	99.012177 
3041.000000	99.007900 
3040.000000	99.006176 
3039.000000	99.003219 
3038.000000	98.996652 
3037.000000	98.986504 
3036.000000	98.973858 
3035.000000	98.959592 
3034.000000	98.944438 
3033.000000	98.929428 
3032.000000	98.915531 
3031.000000	98.902734 
3030.000000	98.889963 
3029.000000	98.876418 
3028.000000	98.862850 
3027.000000	98.850950 
3026.000000	98.841255 
3025.000000	98.831957 
3024.000000	98.820105 
3023.000000	98.803772 
3022.000000	98.782932 
3021.000000	98.758653 
3020.000000	98.732033 
3019.000000	98.703858 
3018.000000	98.674956 
3017.000000	98.646581 
3016.000000	98.620162 
3015.000000	98.596147 
3014.000000	98.573085 
3013.000000	98.548591 
3012.000000	98.521740 
3011.000000	98.494074 
3010.000000	98.467713 
3009.000000	98.442882 
3008.000000	98.417939 
3007.000000	98.391483 
3006.000000	98.363680 
3005.000000	98.335479 
3004.000000	98.307303 
3003.000000	98.278918 
3002.000000	98.250344 
3001.000000	98.222549 
3000.000000	98.196969 
2999.000000	98.174299 
2998.000000	98.154168 
2997.000000	98.136384 
2996.000000	98.121647 
2995.000000	98.109049 
2994.000000	98.092496 
2993.000000	98.062389 
2992.000000	98.014081 
2991.000000	97.954963 
2990.000000	97.901376 
2989.000000	97.867538 
2988.000000	97.857442 
2987.000000	97.866015 
2986.000000	97.884939 
2985.000000	97.906385 
2984.000000	97.923902 
2983.000000	97.933600 
2982.000000	97.935522 
2981.000000	97.932941 
2980.000000	97.929561 
2979.000000	97.927230 
2978.000000	97.925495 
2977.000000	97.922309 
2976.000000	97.915356 
2975.000000	97.903987 
2974.000000	97.890583 
2973.000000	97.879639 
2972.000000	97.874920 
2971.000000	97.877274 
2970.000000	97.885009 
2969.000000	97.895956 
2968.000000	97.909095 
2967.000000	97.924600 
2966.000000	97.942707 
2965.000000	97.962523 
2964.000000	97.981721 
2963.000000	97.997488 
2962.000000	98.008262 
2961.000000	98.015098 
2960.000000	98.021304 
2959.000000	98.030252 
2958.000000	98.043002 
2957.000000	98.057922 
2956.000000	98.072546 
2955.000000	98.085737 
2954.000000	98.098297 
2953.000000	98.112001 
2952.000000	98.128234 
2951.000000	98.146884 
2950.000000	98.165779 
2949.000000	98.181275 
2948.000000	98.190134 
2947.000000	98.191482 
2946.000000	98.187355 
2945.000000	98.181521 
2944.000000	98.177462 
2943.000000	98.176448 
2942.000000	98.176697 
2941.000000	98.174628 
2940.000000	98.167648 
2939.000000	98.156199 
2938.000000	98.143121 
2937.000000	98.131328 
2936.000000	98.122068 
2935.000000	98.114591 
2934.000000	98.106629 
2933.000000	98.095465 
2932.000000	98.079507 
2931.000000	98.059177 
2930.000000	98.036302 
2929.000000	98.013059 
2928.000000	97.991560 
2927.000000	97.973311 
2926.000000	97.958057 
2925.000000	97.943973 
2924.000000	97.930433 
2923.000000	97.920006 
2922.000000	97.916042 
2921.000000	97.918381 
2920.000000	97.923417 
2919.000000	97.928659 
2918.000000	97.935355 
2917.000000	97.945540 
2916.000000	97.958079 
2915.000000	97.969148 
2914.000000	97.976243 
2913.000000	97.980665 
2912.000000	97.986282 
2911.000000	97.996153 
2910.000000	98.009726 
2909.000000	98.022720 
2908.000000	98.030107 
2907.000000	98.029791 
2906.000000	98.022903 
2905.000000	98.010761 
2904.000000	97.993382 
2903.000000	97.972788 
2902.000000	97.956844 
2901.000000	97.957390 
2900.000000	97.980880 
2899.000000	98.022084 
2898.000000	98.066345 
2897.000000	98.099574 
2896.000000	98.117280 
2895.000000	98.125230 
2894.000000	98.132421 
2893.000000	98.143503 
2892.000000	98.157371 
2891.000000	98.170928 
2890.000000	98.182469 
2889.000000	98.191682 
2888.000000	98.198520 
2887.000000	98.203405 
2886.000000	98.207794 
2885.000000	98.213520 
2884.000000	98.221972 
2883.000000	98.234450 
2882.000000	98.252407 
2881.000000	98.275974 
2880.000000	98.302439 
2879.000000	98.327436 
2878.000000	98.347972 
2877.000000	98.363953 
2876.000000	98.376947 
2875.000000	98.388452 
2874.000000	98.399406 
2873.000000	98.410246 
2872.000000	98.420549 
2871.000000	98.429028 
2870.000000	98.434851 
2869.000000	98.439409 
2868.000000	98.446289 
2867.000000	98.458662 
2866.000000	98.476127 
2865.000000	98.494442 
2864.000000	98.508906 
2863.000000	98.517992 
2862.000000	98.523351 
2861.000000	98.526929 
2860.000000	98.529388 
2859.000000	98.531355 
2858.000000	98.534296 
2857.000000	98.539026 
2856.000000	98.544438 
2855.000000	98.549182 
2854.000000	98.554137 
2853.000000	98.562038 
2852.000000	98.574968 
2851.000000	98.593268 
2850.000000	98.616575 
2849.000000	98.644358 
2848.000000	98.675123 
2847.000000	98.706310 
2846.000000	98.735754 
2845.000000	98.762608 
2844.000000	98.786464 
2843.000000	98.806424 
2842.000000	98.822022 
2841.000000	98.834714 
2840.000000	98.847424 
2839.000000	98.862157 
2838.000000	98.878359 
2837.000000	98.893845 
2836.000000	98.907039 
2835.000000	98.917970 
2834.000000	98.927243 
2833.000000	98.934816 
2832.000000	98.940307 
2831.000000	98.944075 
2830.000000	98.947094 
2829.000000	98.949728 
2828.000000	98.951547 
2827.000000	98.952777 
2826.000000	98.955020 
2825.000000	98.959628 
2824.000000	98.965912 
2823.000000	98.971898 
2822.000000	98.976657 
2821.000000	98.980969 
2820.000000	98.985796 
2819.000000	98.991109 
2818.000000	98.996277 
2817.000000	99.000621 
2816.000000	99.003296 
2815.000000	99.003623 
2814.000000	99.002130 
2813.000000	99.000623 
2812.000000	99.000616 
2811.000000	99.002251 
2810.000000	99.005209 
2809.000000	99.009805 
2808.000000	99.016014 
2807.000000	99.021794 
2806.000000	99.023963 
2805.000000	99.021496 
2804.000000	99.017297 
2803.000000	99.015785 
2802.000000	99.018749 
2801.000000	99.024106 
2800.000000	99.028623 
2799.000000	99.031049 
2798.000000	99.032139 
2797.000000	99.032423 
2796.000000	99.031399 
2795.000000	99.029203 
2794.000000	99.027685 
2793.000000	99.028567 
2792.000000	99.031083 
2791.000000	99.032892 
2790.000000	99.033360 
2789.000000	99.034497 
2788.000000	99.038122 
2787.000000	99.043305 
2786.000000	99.047562 
2785.000000	99.049564 
2784.000000	99.049532 
2783.000000	99.047829 
2782.000000	99.044953 
2781.000000	99.042758 
2780.000000	99.043693 
2779.000000	99.047971 
2778.000000	99.052802 
2777.000000	99.055561 
2776.000000	99.056820 
2775.000000	99.058939 
2774.000000	99.062290 
2773.000000	99.064672 
2772.000000	99.064690 
2771.000000	99.063982 
2770.000000	99.064988 
2769.000000	99.067618 
2768.000000	99.069736 
2767.000000	99.070579 
2766.000000	99.071889 
2765.000000	99.075000 
2764.000000	99.078208 
2763.000000	99.078373 
2762.000000	99.074619 
2761.000000	99.069111 
2760.000000	99.064404 
2759.000000	99.061454 
2758.000000	99.060537 
2757.000000	99.062363 
2756.000000	99.066830 
2755.000000	99.071546 
2754.000000	99.073436 
2753.000000	99.072061 
2752.000000	99.070137 
2751.000000	99.070388 
2750.000000	99.072926 
2749.000000	99.076148 
2748.000000	99.079069 
2747.000000	99.081718 
2746.000000	99.083908 
2745.000000	99.084908 
2744.000000	99.084365 
2743.000000	99.082729 
2742.000000	99.080747 
2741.000000	99.079192 
2740.000000	99.078990 
2739.000000	99.080727 
2738.000000	99.083772 
2737.000000	99.086633 
2736.000000	99.088618 
2735.000000	99.090478 
2734.000000	99.092950 
2733.000000	99.095236 
2732.000000	99.095715 
2731.000000	99.093942 
2730.000000	99.091190 
2729.000000	99.089032 
2728.000000	99.088023 
2727.000000	99.088040 
2726.000000	99.089260 
2725.000000	99.092086 
2724.000000	99.096117 
2723.000000	99.099849 
2722.000000	99.101868 
2721.000000	99.102227 
2720.000000	99.102184 
2719.000000	99.102588 
2718.000000	99.102997 
2717.000000	99.102585 
2716.000000	99.101415 
2715.000000	99.100343 
2714.000000	99.100048 
2713.000000	99.100803 
2712.000000	99.102926 
2711.000000	99.106614 
2710.000000	99.111234 
2709.000000	99.115472 
2708.000000	99.118375 
2707.000000	99.119657 
2706.000000	99.118985 
2705.000000	99.116114 
2704.000000	99.112310 
2703.000000	99.110477 
2702.000000	99.112477 
2701.000000	99.116565 
2700.000000	99.118895 
2699.000000	99.117948 
2698.000000	99.116441 
2697.000000	99.118060 
2696.000000	99.122928 
2695.000000	99.127350 
2694.000000	99.128155 
2693.000000	99.126206 
2692.000000	99.124877 
2691.000000	99.125625 
2690.000000	99.126443 
2689.000000	99.124922 
2688.000000	99.121534 
2687.000000	99.118808 
2686.000000	99.118194 
2685.000000	99.119194 
2684.000000	99.121033 
2683.000000	99.123213 
2682.000000	99.124320 
2681.000000	99.122540 
2680.000000	99.118503 
2679.000000	99.115839 
2678.000000	99.117224 
2677.000000	99.121123 
2676.000000	99.124220 
2675.000000	99.126102 
2674.000000	99.129084 
2673.000000	99.133782 
2672.000000	99.137487 
2671.000000	99.137781 
2670.000000	99.135602 
2669.000000	99.133369 
2668.000000	99.131615 
2667.000000	99.129320 
2666.000000	99.126670 
2665.000000	99.125344 
2664.000000	99.125872 
2663.000000	99.126519 
2662.000000	99.125777 
2661.000000	99.124830 
2660.000000	99.125952 
2659.000000	99.128742 
2658.000000	99.129935 
2657.000000	99.128010 
2656.000000	99.126356 
2655.000000	99.129465 
2654.000000	99.136320 
2653.000000	99.140571 
2652.000000	99.138554 
2651.000000	99.134367 
2650.000000	99.134359 
2649.000000	99.138461 
2648.000000	99.140856 
2647.000000	99.138808 
2646.000000	99.136574 
2645.000000	99.139005 
2644.000000	99.144705 
2643.000000	99.148272 
2642.000000	99.147151 
2641.000000	99.143342 
2640.000000	99.139620 
2639.000000	99.137261 
2638.000000	99.137064 
2637.000000	99.139370 
2636.000000	99.142365 
2635.000000	99.143002 
2634.000000	99.140928 
2633.000000	99.139562 
2632.000000	99.141735 
2631.000000	99.145795 
2630.000000	99.148000 
2629.000000	99.147705 
2628.000000	99.147739 
2627.000000	99.149602 
2626.000000	99.150985 
2625.000000	99.149524 
2624.000000	99.146979 
2623.000000	99.147000 
2622.000000	99.149304 
2621.000000	99.149355 
2620.000000	99.144988 
2619.000000	99.140417 
2618.000000	99.140927 
2617.000000	99.145421 
2616.000000	99.148152 
2615.000000	99.147614 
2614.000000	99.149115 
2613.000000	99.156562 
2612.000000	99.165590 
2611.000000	99.168760 
2610.000000	99.165423 
2609.000000	99.161648 
2608.000000	99.160847 
2607.000000	99.159767 
2606.000000	99.155643 
2605.000000	99.152590 
2604.000000	99.156340 
2603.000000	99.164875 
2602.000000	99.169702 
2601.000000	99.166879 
2600.000000	99.162033 
2599.000000	99.162005 
2598.000000	99.165266 
2597.000000	99.164869 
2596.000000	99.158996 
2595.000000	99.153285 
2594.000000	99.152104 
2593.000000	99.152678 
2592.000000	99.150892 
2591.000000	99.148985 
2590.000000	99.152484 
2589.000000	99.161017 
2588.000000	99.167619 
2587.000000	99.167896 
2586.000000	99.165112 
2585.000000	99.163972 
2584.000000	99.163480 
2583.000000	99.159801 
2582.000000	99.153690 
2581.000000	99.150235 
2580.000000	99.151494 
2579.000000	99.153765 
2578.000000	99.153457 
2577.000000	99.152099 
2576.000000	99.152972 
2575.000000	99.155165 
2574.000000	99.154605 
2573.000000	99.150581 
2572.000000	99.147630 
2571.000000	99.149503 
2570.000000	99.153861 
2569.000000	99.155569 
2568.000000	99.153880 
2567.000000	99.152911 
2566.000000	99.154906 
2565.000000	99.156868 
2564.000000	99.155958 
2563.000000	99.154942 
2562.000000	99.158316 
2561.000000	99.164514 
2560.000000	99.166635 
2559.000000	99.161413 
2558.000000	99.153357 
2557.000000	99.148525 
2556.000000	99.148036 
2555.000000	99.150217 
2554.000000	99.155398 
2553.000000	99.164030 
2552.000000	99.171857 
2551.000000	99.172270 
2550.000000	99.164340 
2549.000000	99.154737 
2548.000000	99.150029 
2547.000000	99.149813 
2546.000000	99.149488 
2545.000000	99.147489 
2544.000000	99.146647 
2543.000000	99.148873 
2542.000000	99.151538 
2541.000000	99.150476 
2540.000000	99.145114 
2539.000000	99.138857 
2538.000000	99.134741 
2537.000000	99.132580 
2536.000000	99.131100 
2535.000000	99.131076 
2534.000000	99.134082 
2533.000000	99.138633 
2532.000000	99.140433 
2531.000000	99.137704 
2530.000000	99.134323 
2529.000000	99.135734 
2528.000000	99.142736 
2527.000000	99.151031 
2526.000000	99.156074 
2525.000000	99.156533 
2524.000000	99.153731 
2523.000000	99.150231 
2522.000000	99.149097 
2521.000000	99.151814 
2520.000000	99.155543 
2519.000000	99.154356 
2518.000000	99.145200 
2517.000000	99.131829 
2516.000000	99.121165 
2515.000000	99.116356 
2514.000000	99.115356 
2513.000000	99.116014 
2512.000000	99.119704 
2511.000000	99.128242 
2510.000000	99.139287 
2509.000000	99.147961 
2508.000000	99.152968 
2507.000000	99.157839 
2506.000000	99.164596 
2505.000000	99.168982 
2504.000000	99.165132 
2503.000000	99.153793 
2502.000000	99.142441 
2501.000000	99.137271 
2500.000000	99.138243 
2499.000000	99.142463 
2498.000000	99.148412 
2497.000000	99.154540 
2496.000000	99.156996 
2495.000000	99.152818 
2494.000000	99.144420 
2493.000000	99.137653 
2492.000000	99.135697 
2491.000000	99.137523 
2490.000000	99.141905 
2489.000000	99.149501 
2488.000000	99.160025 
2487.000000	99.170181 
2486.000000	99.176191 
2485.000000	99.176951 
2484.000000	99.173450 
2483.000000	99.166551 
2482.000000	99.157088 
2481.000000	99.147415 
2480.000000	99.140889 
2479.000000	99.139208 
2478.000000	99.140890 
2477.000000	99.142920 
2476.000000	99.143967 
2475.000000	99.145659 
2474.000000	99.150090 
2473.000000	99.156172 
2472.000000	99.159680 
2471.000000	99.157742 
2470.000000	99.152147 
2469.000000	99.146961 
2468.000000	99.143932 
2467.000000	99.142132 
2466.000000	99.141178 
2465.000000	99.142067 
2464.000000	99.144692 
2463.000000	99.147333 
2462.000000	99.149459 
2461.000000	99.152471 
2460.000000	99.156252 
2459.000000	99.157505 
2458.000000	99.153848 
2457.000000	99.147962 
2456.000000	99.145040 
2455.000000	99.146917 
2454.000000	99.151005 
2453.000000	99.154353 
2452.000000	99.156026 
2451.000000	99.155480 
2450.000000	99.151650 
2449.000000	99.145134 
2448.000000	99.139380 
2447.000000	99.137811 
2446.000000	99.140428 
2445.000000	99.144265 
2444.000000	99.146456 
2443.000000	99.145800 
2442.000000	99.142292 
2441.000000	99.137003 
2440.000000	99.132607 
2439.000000	99.132360 
2438.000000	99.137243 
2437.000000	99.144405 
2436.000000	99.149328 
2435.000000	99.149851 
2434.000000	99.147825 
2433.000000	99.146984 
2432.000000	99.149639 
2431.000000	99.155349 
2430.000000	99.161675 
2429.000000	99.165370 
2428.000000	99.163673 
2427.000000	99.156306 
2426.000000	99.146844 
2425.000000	99.140830 
2424.000000	99.141380 
2423.000000	99.147027 
2422.000000	99.154309 
2421.000000	99.161172 
2420.000000	99.166559 
2419.000000	99.168089 
2418.000000	99.163184 
2417.000000	99.153165 
2416.000000	99.143733 
2415.000000	99.139517 
2414.000000	99.139381 
2413.000000	99.138724 
2412.000000	99.135533 
2411.000000	99.132199 
2410.000000	99.131734 
2409.000000	99.134282 
2408.000000	99.137747 
2407.000000	99.140107 
2406.000000	99.140221 
2405.000000	99.137849 
2404.000000	99.134218 
2403.000000	99.131747 
2402.000000	99.131869 
2401.000000	99.133336 
2400.000000	99.133604 
2399.000000	99.131736 
2398.000000	99.129268 
2397.000000	99.128497 
2396.000000	99.130679 
2395.000000	99.135572 
2394.000000	99.141561 
2393.000000	99.146022 
2392.000000	99.146480 
2391.000000	99.142097 
2390.000000	99.134183 
2389.000000	99.125739 
2388.000000	99.120752 
2387.000000	99.122628 
2386.000000	99.131308 
2385.000000	99.141671 
2384.000000	99.146758 
2383.000000	99.143947 
2382.000000	99.137363 
2381.000000	99.133493 
2380.000000	99.135369 
2379.000000	99.141936 
2378.000000	99.151620 
2377.000000	99.163325 
2376.000000	99.173655 
2375.000000	99.176979 
2374.000000	99.171185 
2373.000000	99.161112 
2372.000000	99.153413 
2371.000000	99.149755 
2370.000000	99.148122 
2369.000000	99.148161 
2368.000000	99.150381 
2367.000000	99.152199 
2366.000000	99.151017 
2365.000000	99.150117 
2364.000000	99.154921 
2363.000000	99.163138 
2362.000000	99.165454 
2361.000000	99.157695 
2360.000000	99.145650 
2359.000000	99.137340 
2358.000000	99.135877 
2357.000000	99.139529 
2356.000000	99.145906 
2355.000000	99.152966 
2354.000000	99.160986 
2353.000000	99.167784 
2352.000000	99.169000 
2351.000000	99.163476 
2350.000000	99.153863 
2349.000000	99.144128 
2348.000000	99.137602 
2347.000000	99.138541 
2346.000000	99.147737 
2345.000000	99.158181 
2344.000000	99.162814 
2343.000000	99.160705 
2342.000000	99.157102 
2341.000000	99.155227 
2340.000000	99.155752 
2339.000000	99.158665 
2338.000000	99.163684 
2337.000000	99.168302 
2336.000000	99.167091 
2335.000000	99.159894 
2334.000000	99.153622 
2333.000000	99.155412 
2332.000000	99.161420 
2331.000000	99.164560 
2330.000000	99.161505 
2329.000000	99.157909 
2328.000000	99.157562 
2327.000000	99.162711 
2326.000000	99.171052 
2325.000000	99.177653 
2324.000000	99.177207 
2323.000000	99.170480 
2322.000000	99.164294 
2321.000000	99.162786 
2320.000000	99.161663 
2319.000000	99.156009 
2318.000000	99.147175 
2317.000000	99.143100 
2316.000000	99.147096 
2315.000000	99.156882 
2314.000000	99.165777 
2313.000000	99.171111 
2312.000000	99.172671 
2311.000000	99.173635 
2310.000000	99.175150 
2309.000000	99.176747 
2308.000000	99.175469 
2307.000000	99.171068 
2306.000000	99.165825 
2305.000000	99.163550 
2304.000000	99.165404 
2303.000000	99.170857 
2302.000000	99.177689 
2301.000000	99.184146 
2300.000000	99.188649 
2299.000000	99.192032 
2298.000000	99.195207 
2297.000000	99.198135 
2296.000000	99.198263 
2295.000000	99.194844 
2294.000000	99.190353 
2293.000000	99.189027 
2292.000000	99.191976 
2291.000000	99.196870 
2290.000000	99.200742 
2289.000000	99.202585 
2288.000000	99.203204 
2287.000000	99.203658 
2286.000000	99.204119 
2285.000000	99.203035 
2284.000000	99.198680 
2283.000000	99.191856 
2282.000000	99.186877 
2281.000000	99.187499 
2280.000000	99.192634 
2279.000000	99.197347 
2278.000000	99.198383 
2277.000000	99.196752 
2276.000000	99.194976 
2275.000000	99.194298 
2274.000000	99.195123 
2273.000000	99.197957 
2272.000000	99.201974 
2271.000000	99.204694 
2270.000000	99.204671 
2269.000000	99.203768 
2268.000000	99.205008 
2267.000000	99.208893 
2266.000000	99.212846 
2265.000000	99.213560 
2264.000000	99.208723 
2263.000000	99.197752 
2262.000000	99.183244 
2261.000000	99.171423 
2260.000000	99.168630 
2259.000000	99.175798 
2258.000000	99.187516 
2257.000000	99.197131 
2256.000000	99.202099 
2255.000000	99.203668 
2254.000000	99.203268 
2253.000000	99.201756 
2252.000000	99.201370 
2251.000000	99.205090 
2250.000000	99.212305 
2249.000000	99.217572 
2248.000000	99.215458 
2247.000000	99.206901 
2246.000000	99.197890 
2245.000000	99.193581 
2244.000000	99.195059 
2243.000000	99.200891 
2242.000000	99.208817 
2241.000000	99.215943 
2240.000000	99.220505 
2239.000000	99.224458 
2238.000000	99.231476 
2237.000000	99.240823 
2236.000000	99.245766 
2235.000000	99.240356 
2234.000000	99.226224 
2233.000000	99.210682 
2232.000000	99.199546 
2231.000000	99.193811 
2230.000000	99.191719 
2229.000000	99.191011 
2228.000000	99.189537 
2227.000000	99.186209 
2226.000000	99.181876 
2225.000000	99.178450 
2224.000000	99.177925 
2223.000000	99.182693 
2222.000000	99.193872 
2221.000000	99.206827 
2220.000000	99.211671 
2219.000000	99.203442 
2218.000000	99.190694 
2217.000000	99.188491 
2216.000000	99.201919 
2215.000000	99.221272 
2214.000000	99.234426 
2213.000000	99.238282 
2212.000000	99.235659 
2211.000000	99.227595 
2210.000000	99.215564 
2209.000000	99.207718 
2208.000000	99.213765 
2207.000000	99.231613 
2206.000000	99.245498 
2205.000000	99.241875 
2204.000000	99.224964 
2203.000000	99.212716 
2202.000000	99.218215 
2201.000000	99.237505 
2200.000000	99.255179 
2199.000000	99.259432 
2198.000000	99.250838 
2197.000000	99.238898 
2196.000000	99.232613 
2195.000000	99.234309 
2194.000000	99.240150 
2193.000000	99.244198 
2192.000000	99.242570 
2191.000000	99.236542 
2190.000000	99.233118 
2189.000000	99.240263 
2188.000000	99.258196 
2187.000000	99.275650 
2186.000000	99.277938 
2185.000000	99.260448 
2184.000000	99.232981 
2183.000000	99.210054 
2182.000000	99.199260 
2181.000000	99.199481 
2180.000000	99.206200 
2179.000000	99.215081 
2178.000000	99.222639 
2177.000000	99.227985 
2176.000000	99.233751 
2175.000000	99.241673 
2174.000000	99.247797 
2173.000000	99.246760 
2172.000000	99.241451 
2171.000000	99.243258 
2170.000000	99.260174 
2169.000000	99.287758 
2168.000000	99.314066 
2167.000000	99.330400 
2166.000000	99.334668 
2165.000000	99.328956 
2164.000000	99.319581 
2163.000000	99.316694 
2162.000000	99.326267 
2161.000000	99.340693 
2160.000000	99.342451 
2159.000000	99.320795 
2158.000000	99.282126 
2157.000000	99.241649 
2156.000000	99.209352 
2155.000000	99.187916 
2154.000000	99.178700 
2153.000000	99.182912 
2152.000000	99.197331 
2151.000000	99.213051 
2150.000000	99.220924 
2149.000000	99.219095 
2148.000000	99.214853 
2147.000000	99.217275 
2146.000000	99.227198 
2145.000000	99.235818 
2144.000000	99.234585 
2143.000000	99.224728 
2142.000000	99.214677 
2141.000000	99.209795 
2140.000000	99.207958 
2139.000000	99.205129 
2138.000000	99.201522 
2137.000000	99.200328 
2136.000000	99.202401 
2135.000000	99.204782 
2134.000000	99.204550 
2133.000000	99.202651 
2132.000000	99.202612 
2131.000000	99.205046 
2130.000000	99.204629 
2129.000000	99.194775 
2128.000000	99.176088 
2127.000000	99.158090 
2126.000000	99.150790 
2125.000000	99.155956 
2124.000000	99.168249 
2123.000000	99.182722 
2122.000000	99.197409 
2121.000000	99.209870 
2120.000000	99.216715 
2119.000000	99.218187 
2118.000000	99.219162 
2117.000000	99.223048 
2116.000000	99.227289 
2115.000000	99.227495 
2114.000000	99.223803 
2113.000000	99.220013 
2112.000000	99.217678 
2111.000000	99.214716 
2110.000000	99.210089 
2109.000000	99.206565 
2108.000000	99.206961 
2107.000000	99.209304 
2106.000000	99.208091 
2105.000000	99.200709 
2104.000000	99.191404 
2103.000000	99.187650 
2102.000000	99.192410 
2101.000000	99.200655 
2100.000000	99.204156 
2099.000000	99.199391 
2098.000000	99.190307 
2097.000000	99.184192 
2096.000000	99.185779 
2095.000000	99.194756 
2094.000000	99.207132 
2093.000000	99.218088 
2092.000000	99.224701 
2091.000000	99.227161 
2090.000000	99.227775 
2089.000000	99.228643 
2088.000000	99.229611 
2087.000000	99.227853 
2086.000000	99.220177 
2085.000000	99.207848 
2084.000000	99.199286 
2083.000000	99.204500 
2082.000000	99.224217 
2081.000000	99.246594 
2080.000000	99.258494 
2079.000000	99.259284 
2078.000000	99.259806 
2077.000000	99.268223 
2076.000000	99.280823 
2075.000000	99.287471 
2074.000000	99.282171 
2073.000000	99.266958 
2072.000000	99.248991 
2071.000000	99.235831 
2070.000000	99.231264 
2069.000000	99.233024 
2068.000000	99.234682 
2067.000000	99.230749 
2066.000000	99.220365 
2065.000000	99.208112 
2064.000000	99.202780 
2063.000000	99.212344 
2062.000000	99.235294 
2061.000000	99.257669 
2060.000000	99.265026 
2059.000000	99.258842 
2058.000000	99.255151 
2057.000000	99.264565 
2056.000000	99.279461 
2055.000000	99.285136 
2054.000000	99.278785 
2053.000000	99.271435 
2052.000000	99.273238 
2051.000000	99.282647 
2050.000000	99.290244 
2049.000000	99.289644 
2048.000000	99.284165 
2047.000000	99.283554 
2046.000000	99.293922 
2045.000000	99.310455 
2044.000000	99.321070 
2043.000000	99.318459 
2042.000000	99.307380 
2041.000000	99.298989 
2040.000000	99.299379 
2039.000000	99.305867 
2038.000000	99.312802 
2037.000000	99.317163 
2036.000000	99.318223 
2035.000000	99.314513 
2034.000000	99.303718 
2033.000000	99.286904 
2032.000000	99.272024 
2031.000000	99.269714 
2030.000000	99.282651 
2029.000000	99.300195 
2028.000000	99.307336 
2027.000000	99.299064 
2026.000000	99.282664 
2025.000000	99.267824 
2024.000000	99.259530 
2023.000000	99.259687 
2022.000000	99.268280 
2021.000000	99.280122 
2020.000000	99.286099 
2019.000000	99.281593 
2018.000000	99.270464 
2017.000000	99.258923 
2016.000000	99.249364 
2015.000000	99.242597 
2014.000000	99.240523 
2013.000000	99.242322 
2012.000000	99.243137 
2011.000000	99.241155 
2010.000000	99.241860 
2009.000000	99.250654 
2008.000000	99.264764 
2007.000000	99.277496 
2006.000000	99.286635 
2005.000000	99.293129 
2004.000000	99.295453 
2003.000000	99.291401 
2002.000000	99.282836 
2001.000000	99.272964 
2000.000000	99.260796 
1999.000000	99.243539 
1998.000000	99.223077 
1997.000000	99.205860 
1996.000000	99.197408 
1995.000000	99.199530 
1994.000000	99.210695 
1993.000000	99.225327 
1992.000000	99.234720 
1991.000000	99.233862 
1990.000000	99.226803 
1989.000000	99.221608 
1988.000000	99.222545 
1987.000000	99.230022 
1986.000000	99.244605 
1985.000000	99.266158 
1984.000000	99.290214 
1983.000000	99.309619 
1982.000000	99.319733 
1981.000000	99.319530 
1980.000000	99.309739 
1979.000000	99.293707 
1978.000000	99.278228 
1977.000000	99.268565 
1976.000000	99.262841 
1975.000000	99.255451 
1974.000000	99.245287 
1973.000000	99.236540 
1972.000000	99.232480 
1971.000000	99.233083 
1970.000000	99.238836 
1969.000000	99.252026 
1968.000000	99.271594 
1967.000000	99.289577 
1966.000000	99.297057 
1965.000000	99.293139 
1964.000000	99.285092 
1963.000000	99.280195 
1962.000000	99.279451 
1961.000000	99.278651 
1960.000000	99.273583 
1959.000000	99.263145 
1958.000000	99.248852 
1957.000000	99.233688 
1956.000000	99.221110 
1955.000000	99.212784 
1954.000000	99.206438 
1953.000000	99.198001 
1952.000000	99.187316 
1951.000000	99.180358 
1950.000000	99.183874 
1949.000000	99.197477 
1948.000000	99.212431 
1947.000000	99.219232 
1946.000000	99.214980 
1945.000000	99.203351 
1944.000000	99.189865 
1943.000000	99.178401 
1942.000000	99.170184 
1941.000000	99.163845 
1940.000000	99.157604 
1939.000000	99.152124 
1938.000000	99.150335 
1937.000000	99.154445 
1936.000000	99.163446 
1935.000000	99.172961 
1934.000000	99.177126 
1933.000000	99.172567 
1932.000000	99.162245 
1931.000000	99.154707 
1930.000000	99.157590 
1929.000000	99.169758 
1928.000000	99.181434 
1927.000000	99.183979 
1926.000000	99.177127 
1925.000000	99.165814 
1924.000000	99.153934 
1923.000000	99.144263 
1922.000000	99.141588 
1921.000000	99.149257 
1920.000000	99.163047 
1919.000000	99.172816 
1918.000000	99.171133 
1917.000000	99.160276 
1916.000000	99.149467 
1915.000000	99.147077 
1914.000000	99.155835 
1913.000000	99.171184 
1912.000000	99.183490 
1911.000000	99.185334 
1910.000000	99.177868 
1909.000000	99.168515 
1908.000000	99.163513 
1907.000000	99.164885 
1906.000000	99.171768 
1905.000000	99.180030 
1904.000000	99.181914 
1903.000000	99.171308 
1902.000000	99.150309 
1901.000000	99.127824 
1900.000000	99.112933 
1899.000000	99.110550 
1898.000000	99.119900 
1897.000000	99.133927 
1896.000000	99.142349 
1895.000000	99.140443 
1894.000000	99.134371 
1893.000000	99.133233 
1892.000000	99.138286 
1891.000000	99.144221 
1890.000000	99.147464 
1889.000000	99.148863 
1888.000000	99.149427 
1887.000000	99.148948 
1886.000000	99.148009 
1885.000000	99.147274 
1884.000000	99.145540 
1883.000000	99.141689 
1882.000000	99.137899 
1881.000000	99.136988 
1880.000000	99.138027 
1879.000000	99.137465 
1878.000000	99.133297 
1877.000000	99.126514 
1876.000000	99.119929 
1875.000000	99.117338 
1874.000000	99.121945 
1873.000000	99.132321 
1872.000000	99.141260 
1871.000000	99.142066 
1870.000000	99.135451 
1869.000000	99.127811 
1868.000000	99.121855 
1867.000000	99.115746 
1866.000000	99.109945 
1865.000000	99.105372 
1864.000000	99.100524 
1863.000000	99.096111 
1862.000000	99.098622 
1861.000000	99.113169 
1860.000000	99.133936 
1859.000000	99.149070 
1858.000000	99.154712 
1857.000000	99.156563 
1856.000000	99.158894 
1855.000000	99.160201 
1854.000000	99.159190 
1853.000000	99.157853 
1852.000000	99.157370 
1851.000000	99.155917 
1850.000000	99.152173 
1849.000000	99.147648 
1848.000000	99.144077 
1847.000000	99.141120 
1846.000000	99.138318 
1845.000000	99.136152 
1844.000000	99.133886 
1843.000000	99.130388 
1842.000000	99.128005 
1841.000000	99.129659 
1840.000000	99.135718 
1839.000000	99.144225 
1838.000000	99.152242 
1837.000000	99.157570 
1836.000000	99.159594 
1835.000000	99.159533 
1834.000000	99.159214 
1833.000000	99.159227 
1832.000000	99.159433 
1831.000000	99.159605 
1830.000000	99.159178 
1829.000000	99.157857 
1828.000000	99.156396 
1827.000000	99.154587 
1826.000000	99.151542 
1825.000000	99.148734 
1824.000000	99.148331 
1823.000000	99.149421 
1822.000000	99.149195 
1821.000000	99.146039 
1820.000000	99.140410 
1819.000000	99.133642 
1818.000000	99.128277 
1817.000000	99.127710 
1816.000000	99.131572 
1815.000000	99.134964 
1814.000000	99.134945 
1813.000000	99.134866 
1812.000000	99.140412 
1811.000000	99.151236 
1810.000000	99.162181 
1809.000000	99.170526 
1808.000000	99.174735 
1807.000000	99.172434 
1806.000000	99.164732 
1805.000000	99.157394 
1804.000000	99.154481 
1803.000000	99.154294 
1802.000000	99.153758 
1801.000000	99.153421 
1800.000000	99.153277 
1799.000000	99.149616 
1798.000000	99.142328 
1797.000000	99.136703 
1796.000000	99.135615 
1795.000000	99.136463 
1794.000000	99.136256 
1793.000000	99.135988 
1792.000000	99.137822 
1791.000000	99.139581 
1790.000000	99.140026 
1789.000000	99.142225 
1788.000000	99.147867 
1787.000000	99.154118 
1786.000000	99.156958 
1785.000000	99.155886 
1784.000000	99.153248 
1783.000000	99.151569 
1782.000000	99.151839 
1781.000000	99.152702 
1780.000000	99.151147 
1779.000000	99.145543 
1778.000000	99.138752 
1777.000000	99.134927 
1776.000000	99.135610 
1775.000000	99.141014 
1774.000000	99.151101 
1773.000000	99.162524 
1772.000000	99.167608 
1771.000000	99.162417 
1770.000000	99.152660 
1769.000000	99.146081 
1768.000000	99.146214 
1767.000000	99.149921 
1766.000000	99.151574 
1765.000000	99.149858 
1764.000000	99.147214 
1763.000000	99.145934 
1762.000000	99.145825 
1761.000000	99.146368 
1760.000000	99.148609 
1759.000000	99.151386 
1758.000000	99.150874 
1757.000000	99.144701 
1756.000000	99.135674 
1755.000000	99.128123 
1754.000000	99.120848 
1753.000000	99.109980 
1752.000000	99.098501 
1751.000000	99.097229 
1750.000000	99.108852 
1749.000000	99.121206 
1748.000000	99.124136 
1747.000000	99.119722 
1746.000000	99.114065 
1745.000000	99.108746 
1744.000000	99.103132 
1743.000000	99.098106 
1742.000000	99.095203 
1741.000000	99.095309 
1740.000000	99.097619 
1739.000000	99.099472 
1738.000000	99.099511 
1737.000000	99.098843 
1736.000000	99.097722 
1735.000000	99.094381 
1734.000000	99.089257 
1733.000000	99.088415 
1732.000000	99.097504 
1731.000000	99.111497 
1730.000000	99.120375 
1729.000000	99.119677 
1728.000000	99.115484 
1727.000000	99.115989 
1726.000000	99.120454 
1725.000000	99.121941 
1724.000000	99.118321 
1723.000000	99.115412 
1722.000000	99.118733 
1721.000000	99.127441 
1720.000000	99.137003 
1719.000000	99.143058 
1718.000000	99.141509 
1717.000000	99.133374 
1716.000000	99.122700 
1715.000000	99.111962 
1714.000000	99.106651 
1713.000000	99.110500 
1712.000000	99.117845 
1711.000000	99.120506 
1710.000000	99.117041 
1709.000000	99.112987 
1708.000000	99.113250 
1707.000000	99.116496 
1706.000000	99.120010 
1705.000000	99.124077 
1704.000000	99.126431 
1703.000000	99.119352 
1702.000000	99.099744 
1701.000000	99.081148 
1700.000000	99.083826 
1699.000000	99.097218 
1698.000000	99.104221 
1697.000000	99.104292 
1696.000000	99.102793 
1695.000000	99.100760 
1694.000000	99.099513 
1693.000000	99.100175 
1692.000000	99.099904 
1691.000000	99.097390 
1690.000000	99.093895 
1689.000000	99.089500 
1688.000000	99.081852 
1687.000000	99.069611 
1686.000000	99.058100 
1685.000000	99.058597 
1684.000000	99.070047 
1683.000000	99.073936 
1682.000000	99.070617 
1681.000000	99.066276 
1680.000000	99.063892 
1679.000000	99.063552 
1678.000000	99.063640 
1677.000000	99.062798 
1676.000000	99.061365 
1675.000000	99.060066 
1674.000000	99.056926 
1673.000000	99.051930 
1672.000000	99.048440 
1671.000000	99.050476 
1670.000000	99.057610 
1669.000000	99.061393 
1668.000000	99.057877 
1667.000000	99.052835 
1666.000000	99.048094 
1665.000000	99.041190 
1664.000000	99.032674 
1663.000000	99.027568 
1662.000000	99.028598 
1661.000000	99.031302 
1660.000000	99.030543 
1659.000000	99.027976 
1658.000000	99.027796 
1657.000000	99.028586 
1656.000000	99.022408 
1655.000000	99.007293 
1654.000000	98.995689 
1653.000000	98.997080 
1652.000000	98.996102 
1651.000000	98.996097 
1650.000000	98.994314 
1649.000000	98.988508 
1648.000000	98.980356 
1647.000000	98.973073 
1646.000000	98.967280 
1645.000000	98.967051 
1644.000000	98.973645 
1643.000000	98.981286 
1642.000000	98.984666 
1641.000000	98.983205 
1640.000000	98.979631 
1639.000000	98.976754 
1638.000000	98.975922 
1637.000000	98.977410 
1636.000000	98.978759 
1635.000000	98.977892 
1634.000000	98.979397 
1633.000000	98.985045 
1632.000000	98.990083 
1631.000000	98.992795 
1630.000000	98.995386 
1629.000000	98.998905 
1628.000000	99.000838 
1627.000000	99.000315 
1626.000000	99.000278 
1625.000000	99.002994 
1624.000000	99.007682 
1623.000000	99.012705 
1622.000000	99.017576 
1621.000000	99.021035 
1620.000000	99.020442 
1619.000000	99.015922 
1618.000000	99.012942 
1617.000000	99.016210 
1616.000000	99.021391 
1615.000000	99.024658 
1614.000000	99.026820 
1613.000000	99.026983 
1612.000000	99.024733 
1611.000000	99.021946 
1610.000000	99.021036 
1609.000000	99.021434 
1608.000000	99.021486 
1607.000000	99.022463 
1606.000000	99.025806 
1605.000000	99.029676 
1604.000000	99.032441 
1603.000000	99.035981 
1602.000000	99.041543 
1601.000000	99.045673 
1600.000000	99.045111 
1599.000000	99.042708 
1598.000000	99.043778 
1597.000000	99.049505 
1596.000000	99.057103 
1595.000000	99.064378 
1594.000000	99.070782 
1593.000000	99.074574 
1592.000000	99.074118 
1591.000000	99.071827 
1590.000000	99.072378 
1589.000000	99.076321 
1588.000000	99.080129 
1587.000000	99.082083 
1586.000000	99.082906 
1585.000000	99.081526 
1584.000000	99.076096 
1583.000000	99.068707 
1582.000000	99.064420 
1581.000000	99.064621 
1580.000000	99.066511 
1579.000000	99.068632 
1578.000000	99.072234 
1577.000000	99.076113 
1576.000000	99.075134 
1575.000000	99.071823 
1574.000000	99.073920 
1573.000000	99.078046 
1572.000000	99.078460 
1571.000000	99.077149 
1570.000000	99.080374 
1569.000000	99.085764 
1568.000000	99.087149 
1567.000000	99.086390 
1566.000000	99.086758 
1565.000000	99.088207 
1564.000000	99.088996 
1563.000000	99.088993 
1562.000000	99.088534 
1561.000000	99.085434 
1560.000000	99.079622 
1559.000000	99.077467 
1558.000000	99.075825 
1557.000000	99.077188 
1556.000000	99.081575 
1555.000000	99.084289 
1554.000000	99.083869 
1553.000000	99.081774 
1552.000000	99.081045 
1551.000000	99.083200 
1550.000000	99.087722 
1549.000000	99.091814 
1548.000000	99.093174 
1547.000000	99.091602 
1546.000000	99.087564 
1545.000000	99.082542 
1544.000000	99.077525 
1543.000000	99.071896 
1542.000000	99.067923 
1541.000000	99.072386 
1540.000000	99.081048 
1539.000000	99.081476 
1538.000000	99.080142 
1537.000000	99.082869 
1536.000000	99.085992 
1535.000000	99.087956 
1534.000000	99.091651 
1533.000000	99.096885 
1532.000000	99.098563 
1531.000000	99.094979 
1530.000000	99.090460 
1529.000000	99.090338 
1528.000000	99.094184 
1527.000000	99.096953 
1526.000000	99.095758 
1525.000000	99.093314 
1524.000000	99.092091 
1523.000000	99.091934 
1522.000000	99.094602 
1521.000000	99.101644 
1520.000000	99.107620 
1519.000000	99.108080 
1518.000000	99.103938 
1517.000000	99.099584 
1516.000000	99.096594 
1515.000000	99.092970 
1514.000000	99.087768 
1513.000000	99.082533 
1512.000000	99.080174 
1511.000000	99.080407 
1510.000000	99.079782 
1509.000000	99.078340 
1508.000000	99.083927 
1507.000000	99.097369 
1506.000000	99.099269 
1505.000000	99.090967 
1504.000000	99.086723 
1503.000000	99.085876 
1502.000000	99.085412 
1501.000000	99.085275 
1500.000000	99.086902 
1499.000000	99.089294 
1498.000000	99.088459 
1497.000000	99.085819 
1496.000000	99.087282 
1495.000000	99.090370 
1494.000000	99.088098 
1493.000000	99.079327 
1492.000000	99.068367 
1491.000000	99.060511 
1490.000000	99.057445 
1489.000000	99.057865 
1488.000000	99.058606 
1487.000000	99.055433 
1486.000000	99.050011 
1485.000000	99.046205 
1484.000000	99.044367 
1483.000000	99.042559 
1482.000000	99.037656 
1481.000000	99.028649 
1480.000000	99.017525 
1479.000000	99.006751 
1478.000000	98.997772 
1477.000000	98.991416 
1476.000000	98.986563 
1475.000000	98.978572 
1474.000000	98.966943 
1473.000000	98.958566 
1472.000000	98.957316 
1471.000000	98.955860 
1470.000000	98.949343 
1469.000000	98.940844 
1468.000000	98.935433 
1467.000000	98.934647 
1466.000000	98.937030 
1465.000000	98.940569 
1464.000000	98.942707 
1463.000000	98.942280 
1462.000000	98.940445 
1461.000000	98.939634 
1460.000000	98.940277 
1459.000000	98.939025 
1458.000000	98.927900 
1457.000000	98.904215 
1456.000000	98.881103 
1455.000000	98.869879 
1454.000000	98.866085 
1453.000000	98.864358 
1452.000000	98.864206 
1451.000000	98.866071 
1450.000000	98.869807 
1449.000000	98.877300 
1448.000000	98.890195 
1447.000000	98.903896 
1446.000000	98.912072 
1445.000000	98.914466 
1444.000000	98.914328 
1443.000000	98.912822 
1442.000000	98.909009 
1441.000000	98.903174 
1440.000000	98.898145 
1439.000000	98.896272 
1438.000000	98.895734 
1437.000000	98.893882 
1436.000000	98.891257 
1435.000000	98.888741 
1434.000000	98.885862 
1433.000000	98.883565 
1432.000000	98.883480 
1431.000000	98.886340 
1430.000000	98.889207 
1429.000000	98.888574 
1428.000000	98.885077 
1427.000000	98.880674 
1426.000000	98.874802 
1425.000000	98.864933 
1424.000000	98.852434 
1423.000000	98.841602 
1422.000000	98.831480 
1421.000000	98.817719 
1420.000000	98.800106 
1419.000000	98.782702 
1418.000000	98.762691 
1417.000000	98.737115 
1416.000000	98.711305 
1415.000000	98.689299 
1414.000000	98.668302 
1413.000000	98.643390 
1412.000000	98.616179 
1411.000000	98.593574 
1410.000000	98.577263 
1409.000000	98.564096 
1408.000000	98.554312 
1407.000000	98.550784 
1406.000000	98.553782 
1405.000000	98.561363 
1404.000000	98.574436 
1403.000000	98.593176 
1402.000000	98.612227 
1401.000000	98.627935 
1400.000000	98.643535 
1399.000000	98.661539 
1398.000000	98.670005 
1397.000000	98.650123 
1396.000000	98.598926 
1395.000000	98.541942 
1394.000000	98.517344 
1393.000000	98.539655 
1392.000000	98.593735 
1391.000000	98.654101 
1390.000000	98.700449 
1389.000000	98.723714 
1388.000000	98.725809 
1387.000000	98.714865 
1386.000000	98.698496 
1385.000000	98.681920 
1384.000000	98.669320 
1383.000000	98.663122 
1382.000000	98.662406 
1381.000000	98.665415 
1380.000000	98.672079 
1379.000000	98.683417 
1378.000000	98.698681 
1377.000000	98.714982 
1376.000000	98.731009 
1375.000000	98.749073 
1374.000000	98.771084 
1373.000000	98.793695 
1372.000000	98.812408 
1371.000000	98.827811 
1370.000000	98.844819 
1369.000000	98.865133 
1368.000000	98.885907 
1367.000000	98.903909 
1366.000000	98.918654 
1365.000000	98.931818 
1364.000000	98.944298 
1363.000000	98.955249 
1362.000000	98.964038 
1361.000000	98.971228 
1360.000000	98.977618 
1359.000000	98.983917 
1358.000000	98.991303 
1357.000000	99.000428 
1356.000000	99.010313 
1355.000000	99.018806 
1354.000000	99.024642 
1353.000000	99.028655 
1352.000000	99.031658 
1351.000000	99.033096 
1350.000000	99.034054 
1349.000000	99.035484 
1348.000000	99.037636 
1347.000000	99.040749 
1346.000000	99.045663 
1345.000000	99.052206 
1344.000000	99.058676 
1343.000000	99.063614 
1342.000000	99.067269 
1341.000000	99.069991 
1340.000000	99.070726 
1339.000000	99.068825 
1338.000000	99.065891 
1337.000000	99.064450 
1336.000000	99.065467 
1335.000000	99.067836 
1334.000000	99.070239 
1333.000000	99.072434 
1332.000000	99.074404 
1331.000000	99.075654 
1330.000000	99.075784 
1329.000000	99.074682 
1328.000000	99.072600 
1327.000000	99.070293 
1326.000000	99.068850 
1325.000000	99.067891 
1324.000000	99.066994 
1323.000000	99.066791 
1322.000000	99.067350 
1321.000000	99.066926 
1320.000000	99.064296 
1319.000000	99.061146 
1318.000000	99.059957 
1317.000000	99.060451 
1316.000000	99.059932 
1315.000000	99.056793 
1314.000000	99.052061 
1313.000000	99.048042 
1312.000000	99.046361 
1311.000000	99.047213 
1310.000000	99.049664 
1309.000000	99.052333 
1308.000000	99.054152 
1307.000000	99.054422 
1306.000000	99.052869 
1305.000000	99.049222 
1304.000000	99.044544 
1303.000000	99.041158 
1302.000000	99.040814 
1301.000000	99.042977 
1300.000000	99.045255 
1299.000000	99.044845 
1298.000000	99.040033 
1297.000000	99.031786 
1296.000000	99.023812 
1295.000000	99.020072 
1294.000000	99.021191 
1293.000000	99.024166 
1292.000000	99.025366 
1291.000000	99.022574 
1290.000000	99.014950 
1289.000000	99.003443 
1288.000000	98.991412 
1287.000000	98.982359 
1286.000000	98.975995 
1285.000000	98.968816 
1284.000000	98.959388 
1283.000000	98.950347 
1282.000000	98.944089 
1281.000000	98.939188 
1280.000000	98.932838 
1279.000000	98.924764 
1278.000000	98.916069 
1277.000000	98.906277 
1276.000000	98.894138 
1275.000000	98.880750 
1274.000000	98.868956 
1273.000000	98.859842 
1272.000000	98.851683 
1271.000000	98.842032 
1270.000000	98.829389 
1269.000000	98.813619 
1268.000000	98.796352 
1267.000000	98.780061 
1266.000000	98.765033 
1265.000000	98.748944 
1264.000000	98.730607 
1263.000000	98.711795 
1262.000000	98.693728 
1261.000000	98.674668 
1260.000000	98.653756 
1259.000000	98.634662 
1258.000000	98.621135 
1257.000000	98.611464 
1256.000000	98.601296 
1255.000000	98.590068 
1254.000000	98.580113 
1253.000000	98.570795 
1252.000000	98.558810 
1251.000000	98.544894 
1250.000000	98.535217 
1249.000000	98.534665 
1248.000000	98.542417 
1247.000000	98.554529 
1246.000000	98.565660 
1245.000000	98.567393 
1244.000000	98.551602 
1243.000000	98.521176 
1242.000000	98.493984 
1241.000000	98.488999 
1240.000000	98.507464 
1239.000000	98.531280 
1238.000000	98.540690 
1237.000000	98.530754 
1236.000000	98.509861 
1235.000000	98.486923 
1234.000000	98.464158 
1233.000000	98.440590 
1232.000000	98.417450 
1231.000000	98.397565 
1230.000000	98.381384 
1229.000000	98.366523 
1228.000000	98.351282 
1227.000000	98.336709 
1226.000000	98.324617 
1225.000000	98.314720 
1224.000000	98.304524 
1223.000000	98.291498 
1222.000000	98.274758 
1221.000000	98.255025 
1220.000000	98.233640 
1219.000000	98.211643 
1218.000000	98.189169 
1217.000000	98.165440 
1216.000000	98.139334 
1215.000000	98.110166 
1214.000000	98.078300 
1213.000000	98.045018 
1212.000000	98.011142 
1211.000000	97.975456 
1210.000000	97.935736 
1209.000000	97.892110 
1208.000000	97.847968 
1207.000000	97.806244 
1206.000000	97.766209 
1205.000000	97.725751 
1204.000000	97.685068 
1203.000000	97.645233 
1202.000000	97.604286 
1201.000000	97.558647 
1200.000000	97.508628 
1199.000000	97.458900 
1198.000000	97.412470 
1197.000000	97.367707 
1196.000000	97.322561 
1195.000000	97.277904 
1194.000000	97.234582 
1193.000000	97.190221 
1192.000000	97.141963 
1191.000000	97.090518 
1190.000000	97.039046 
1189.000000	96.989440 
1188.000000	96.941701 
1187.000000	96.895373 
1186.000000	96.849382 
1185.000000	96.801376 
1184.000000	96.748868 
1183.000000	96.690695 
1182.000000	96.627251 
1181.000000	96.560653 
1180.000000	96.494721 
1179.000000	96.432481 
1178.000000	96.372607 
1177.000000	96.310268 
1176.000000	96.242256 
1175.000000	96.169418 
1174.000000	96.094062 
1173.000000	96.017830 
1172.000000	95.942856 
1171.000000	95.871438 
1170.000000	95.802887 
1169.000000	95.733793 
1168.000000	95.663214 
1167.000000	95.595119 
1166.000000	95.534912 
1165.000000	95.487344 
1164.000000	95.459022 
1163.000000	95.457591 
1162.000000	95.484096 
1161.000000	95.528288 
1160.000000	95.573964 
1159.000000	95.607504 
1158.000000	95.621142 
1157.000000	95.612157 
1156.000000	95.582194 
1155.000000	95.535905 
1154.000000	95.477862 
1153.000000	95.411290 
1152.000000	95.340309 
1151.000000	95.270843 
1150.000000	95.207087 
1149.000000	95.148407 
1148.000000	95.091009 
1147.000000	95.031312 
1146.000000	94.967459 
1145.000000	94.900111 
1144.000000	94.832669 
1143.000000	94.768571 
1142.000000	94.707589 
1141.000000	94.646862 
1140.000000	94.585298 
1139.000000	94.523753 
1138.000000	94.461138 
1137.000000	94.394618 
1136.000000	94.324309 
1135.000000	94.253585 
1134.000000	94.183760 
1133.000000	94.112553 
1132.000000	94.038716 
1131.000000	93.963764 
1130.000000	93.887965 
1129.000000	93.809293 
1128.000000	93.727990 
1127.000000	93.647558 
1126.000000	93.569306 
1125.000000	93.490264 
1124.000000	93.408403 
1123.000000	93.325665 
1122.000000	93.243872 
1121.000000	93.161800 
1120.000000	93.078186 
1119.000000	92.993595 
1118.000000	92.907847 
1117.000000	92.819904 
1116.000000	92.731601 
1115.000000	92.646779 
1114.000000	92.565374 
1113.000000	92.483142 
1112.000000	92.398576 
1111.000000	92.315136 
1110.000000	92.235401 
1109.000000	92.158202 
1108.000000	92.083003 
1107.000000	92.011022 
1106.000000	91.940961 
1105.000000	91.869337 
1104.000000	91.796247 
1103.000000	91.725346 
1102.000000	91.657670 
1101.000000	91.591316 
1100.000000	91.528288 
1099.000000	91.472132 
1098.000000	91.421158 
1097.000000	91.369429 
1096.000000	91.315889 
1095.000000	91.264010 
1094.000000	91.211261 
1093.000000	91.147882 
1092.000000	91.068947 
1091.000000	90.980172 
1090.000000	90.889360 
1089.000000	90.799193 
1088.000000	90.710588 
1087.000000	90.625537 
1086.000000	90.543893 
1085.000000	90.463879 
1084.000000	90.387137 
1083.000000	90.316299 
1082.000000	90.247574 
1081.000000	90.174501 
1080.000000	90.099466 
1079.000000	90.031920 
1078.000000	89.974511 
1077.000000	89.921392 
1076.000000	89.871011 
1075.000000	89.828544 
1074.000000	89.793406 
1073.000000	89.755899 
1072.000000	89.707585 
1071.000000	89.641666 
1070.000000	89.541991 
1069.000000	89.390560 
1068.000000	89.196322 
1067.000000	89.003440 
1066.000000	88.857291 
1065.000000	88.767082 
1064.000000	88.708054 
1063.000000	88.648756 
1062.000000	88.566286 
1061.000000	88.447296 
1060.000000	88.292738 
1059.000000	88.123091 
1058.000000	87.967868 
1057.000000	87.844331 
1056.000000	87.746794 
1055.000000	87.654174 
1054.000000	87.546755 
1053.000000	87.420410 
1052.000000	87.286881 
1051.000000	87.157376 
1050.000000	87.028275 
1049.000000	86.890411 
1048.000000	86.747934 
1047.000000	86.614745 
1046.000000	86.494207 
1045.000000	86.376403 
1044.000000	86.255563 
1043.000000	86.136930 
1042.000000	86.024089 
1041.000000	85.911765 
1040.000000	85.796474 
1039.000000	85.685354 
1038.000000	85.589495 
1037.000000	85.515191 
1036.000000	85.464011 
1035.000000	85.433598 
1034.000000	85.415775 
1033.000000	85.399886 
1032.000000	85.378113 
1031.000000	85.343110 
1030.000000	85.287490 
1029.000000	85.217580 
1028.000000	85.162553 
1027.000000	85.153135 
1026.000000	85.189149 
1025.000000	85.240440 
1024.000000	85.279242 
1023.000000	85.298278 
1022.000000	85.299905 
1021.000000	85.286343 
1020.000000	85.264855 
1019.000000	85.246989 
1018.000000	85.235952 
1017.000000	85.225187 
1016.000000	85.212356 
1015.000000	85.202969 
1014.000000	85.197961 
1013.000000	85.190793 
1012.000000	85.180434 
1011.000000	85.174608 
1010.000000	85.176398 
1009.000000	85.180033 
1008.000000	85.184176 
1007.000000	85.197022 
1006.000000	85.222951 
1005.000000	85.255155 
1004.000000	85.286837 
1003.000000	85.319930 
1002.000000	85.358140 
1001.000000	85.400553 
1000.000000	85.446231 
999.000000	 85.496556 
998.000000	 85.549621 
997.000000	 85.600478 
996.000000	 85.649618 
995.000000	 85.703348 
994.000000	 85.764111 
993.000000	 85.828269 
992.000000	 85.893871 
991.000000	 85.961821 
990.000000	 86.029576 
989.000000	 86.093724 
988.000000	 86.158909 
987.000000	 86.233798 
986.000000	 86.318211 
985.000000	 86.405463 
984.000000	 86.497278 
983.000000	 86.603373 
982.000000	 86.724573 
981.000000	 86.849556 
980.000000	 86.971653 
979.000000	 87.096662 
978.000000	 87.230170 
977.000000	 87.368949 
976.000000	 87.509906 
975.000000	 87.656877 
974.000000	 87.812500 
973.000000	 87.971749 
972.000000	 88.128939 
971.000000	 88.284402 
970.000000	 88.440201 
969.000000	 88.595463 
968.000000	 88.749148 
967.000000	 88.901592 
966.000000	 89.050932 
965.000000	 89.193539 
964.000000	 89.329554 
963.000000	 89.462390 
962.000000	 89.592107 
961.000000	 89.715477 
960.000000	 89.833018 
959.000000	 89.948989 
958.000000	 90.063583 
957.000000	 90.172333 
956.000000	 90.274442 
955.000000	 90.374471 
954.000000	 90.474084 
953.000000	 90.569110 
952.000000	 90.656690 
951.000000	 90.738564 
950.000000	 90.815136 
949.000000	 90.883140 
948.000000	 90.942182 
947.000000	 90.997732 
946.000000	 91.054350 
945.000000	 91.110647 
944.000000	 91.163455 
943.000000	 91.212328 
942.000000	 91.257388 
941.000000	 91.296896 
940.000000	 91.329750 
939.000000	 91.357907 
938.000000	 91.385160 
937.000000	 91.415541 
936.000000	 91.452143 
935.000000	 91.494075 
934.000000	 91.535676 
933.000000	 91.572685 
932.000000	 91.607531 
931.000000	 91.644346 
930.000000	 91.681642 
929.000000	 91.715895 
928.000000	 91.749467 
927.000000	 91.787308 
926.000000	 91.827515 
925.000000	 91.863186 
924.000000	 91.892509 
923.000000	 91.918556 
922.000000	 91.940034 
921.000000	 91.951937 
920.000000	 91.956246 
919.000000	 91.962347 
918.000000	 91.974253 
917.000000	 91.985921 
916.000000	 91.992491 
915.000000	 91.998545 
914.000000	 92.011788 
913.000000	 92.035300 
912.000000	 92.069409 
911.000000	 92.114646 
910.000000	 92.169131 
909.000000	 92.228580 
908.000000	 92.292095 
907.000000	 92.363301 
906.000000	 92.444054 
905.000000	 92.532358 
904.000000	 92.627972 
903.000000	 92.734282 
902.000000	 92.852174 
901.000000	 92.976251 
900.000000	 93.098531 
899.000000	 93.212785 
898.000000	 93.316544 
897.000000	 93.412990 
896.000000	 93.509156 
895.000000	 93.607044 
894.000000	 93.698976 
893.000000	 93.778518 
892.000000	 93.853448 
891.000000	 93.938689 
890.000000	 94.036393 
889.000000	 94.132538 
888.000000	 94.215219 
887.000000	 94.287140 
886.000000	 94.356332 
885.000000	 94.422846 
884.000000	 94.481061 
883.000000	 94.530058 
882.000000	 94.575310 
881.000000	 94.622535 
880.000000	 94.674868 
879.000000	 94.734506 
878.000000	 94.802265 
877.000000	 94.874704 
876.000000	 94.943733 
875.000000	 95.000560 
874.000000	 95.042125 
873.000000	 95.075462 
872.000000	 95.114222 
871.000000	 95.167793 
870.000000	 95.233357 
869.000000	 95.300041 
868.000000	 95.359777 
867.000000	 95.412544 
866.000000	 95.463408 
865.000000	 95.517530 
864.000000	 95.576797 
863.000000	 95.638518 
862.000000	 95.698163 
861.000000	 95.755007 
860.000000	 95.813120 
859.000000	 95.875227 
858.000000	 95.938848 
857.000000	 96.000863 
856.000000	 96.061586 
855.000000	 96.120172 
854.000000	 96.170144 
853.000000	 96.205452 
852.000000	 96.229057 
851.000000	 96.250049 
850.000000	 96.273256 
849.000000	 96.296308 
848.000000	 96.315935 
847.000000	 96.332443 
846.000000	 96.348230 
845.000000	 96.365663 
844.000000	 96.385643 
843.000000	 96.404410 
842.000000	 96.412666 
841.000000	 96.402201 
840.000000	 96.373748 
839.000000	 96.336123 
838.000000	 96.298731 
837.000000	 96.266930 
836.000000	 96.242124 
835.000000	 96.222294 
834.000000	 96.203726 
833.000000	 96.185299 
832.000000	 96.168746 
831.000000	 96.152300 
830.000000	 96.130124 
829.000000	 96.104750 
828.000000	 96.094009 
827.000000	 96.113674 
826.000000	 96.154604 
825.000000	 96.190284 
824.000000	 96.208424 
823.000000	 96.221527 
822.000000	 96.243536 
821.000000	 96.270512 
820.000000	 96.289723 
819.000000	 96.295675 
818.000000	 96.290913 
817.000000	 96.278388 
816.000000	 96.257984 
815.000000	 96.226415 
814.000000	 96.177321 
813.000000	 96.104419 
812.000000	 96.006087 
811.000000	 95.883757 
810.000000	 95.735203 
809.000000	 95.553355 
808.000000	 95.332735 
807.000000	 95.073267 
806.000000	 94.778334 
805.000000	 94.455791 
804.000000	 94.123180 
803.000000	 93.805440 
802.000000	 93.523007 
801.000000	 93.286532 
800.000000	 93.103796 
799.000000	 92.982270 
798.000000	 92.921232 
797.000000	 92.910419 
796.000000	 92.940174 
795.000000	 93.004564 
794.000000	 93.092590 
793.000000	 93.186526 
792.000000	 93.272699 
791.000000	 93.346080 
790.000000	 93.401988 
789.000000	 93.431878 
788.000000	 93.430934 
787.000000	 93.402488 
786.000000	 93.350964 
785.000000	 93.276297 
784.000000	 93.179427 
783.000000	 93.068960 
782.000000	 92.959081 
781.000000	 92.863896 
780.000000	 92.793832 
779.000000	 92.752004 
778.000000	 92.734606 
777.000000	 92.741763 
776.000000	 92.785480 
775.000000	 92.876001 
774.000000	 93.000921 
773.000000	 93.130410 
772.000000	 93.244678 
771.000000	 93.344315 
770.000000	 93.432439 
769.000000	 93.502104 
768.000000	 93.548865 
767.000000	 93.583467 
766.000000	 93.620587 
765.000000	 93.660669 
764.000000	 93.692263 
763.000000	 93.708651 
762.000000	 93.714795 
761.000000	 93.720715 
760.000000	 93.735028 
759.000000	 93.763330 
758.000000	 93.805722 
757.000000	 93.854415 
756.000000	 93.897456 
755.000000	 93.927413 
754.000000	 93.947494 
753.000000	 93.969584 
752.000000	 94.004855 
751.000000	 94.053474 
750.000000	 94.103488 
749.000000	 94.141715 
748.000000	 94.164925 
747.000000	 94.179718 
746.000000	 94.196076 
745.000000	 94.224266 
744.000000	 94.272152 
743.000000	 94.337971 
742.000000	 94.408280 
741.000000	 94.470125 
740.000000	 94.523566 
739.000000	 94.576499 
738.000000	 94.630952 
737.000000	 94.682898 
736.000000	 94.733009 
735.000000	 94.787603 
734.000000	 94.848092 
733.000000	 94.907250 
732.000000	 94.957320 
731.000000	 94.994951 
730.000000	 95.018061 
729.000000	 95.025282 
728.000000	 95.021898 
727.000000	 95.019372 
726.000000	 95.024552 
725.000000	 95.035649 
724.000000	 95.049996 
723.000000	 95.068901 
722.000000	 95.093659 
721.000000	 95.123544 
720.000000	 95.158661 
719.000000	 95.197644 
718.000000	 95.232260 
717.000000	 95.253320 
716.000000	 95.262790 
715.000000	 95.272106 
714.000000	 95.287433 
713.000000	 95.304566 
712.000000	 95.320461 
711.000000	 95.339264 
710.000000	 95.362133 
709.000000	 95.379262 
708.000000	 95.378972 
707.000000	 95.360406 
706.000000	 95.330519 
705.000000	 95.295393 
704.000000	 95.258884 
703.000000	 95.220685 
702.000000	 95.170535 
701.000000	 95.089791 
700.000000	 94.963433 
699.000000	 94.792474 
698.000000	 94.593564 
697.000000	 94.392451 
696.000000	 94.219421 
695.000000	 94.100160 
694.000000	 94.047811 
693.000000	 94.062984 
692.000000	 94.135976 
691.000000	 94.245705 
690.000000	 94.361129 
689.000000	 94.458569 
688.000000	 94.538381 
687.000000	 94.612890 
686.000000	 94.682403 
685.000000	 94.735573 
684.000000	 94.769805 
683.000000	 94.797369 
682.000000	 94.829399 
681.000000	 94.866576 
680.000000	 94.906721 
679.000000	 94.949403 
678.000000	 94.987361 
677.000000	 95.003281 
676.000000	 94.994411 
675.000000	 94.986735 
674.000000	 95.007405 
673.000000	 95.055507 
672.000000	 95.115405 
671.000000	 95.185511 
670.000000	 95.277633 
669.000000	 95.379131 
668.000000	 95.414864 
667.000000	 95.354484 
666.000000	 95.289739 
665.000000	 95.261516 
664.000000	 95.255016 
663.000000	 95.257096 
662.000000	 95.263370 
661.000000	 95.272058 
660.000000	 95.284194 
659.000000	 95.297915 
658.000000	 95.297561 
657.000000	 95.262732 
656.000000	 95.203338 
655.000000	 95.159193 
654.000000	 95.144602 
653.000000	 95.124911 
652.000000	 95.071691 
651.000000	 95.006964 
650.000000	 94.970460 

