4000.000000	99.692263 
3999.000000	99.692290 
3998.000000	99.692053 
3997.000000	99.691255 
3996.000000	99.689936 
3995.000000	99.688601 
3994.000000	99.687851 
3993.000000	99.687952 
3992.000000	99.688637 
3991.000000	99.689243 
3990.000000	99.689264 
3989.000000	99.688769 
3988.000000	99.688289 
3987.000000	99.688305 
3986.000000	99.688827 
3985.000000	99.689444 
3984.000000	99.689693 
3983.000000	99.689354 
3982.000000	99.688471 
3981.000000	99.687223 
3980.000000	99.685786 
3979.000000	99.684294 
3978.000000	99.682947 
3977.000000	99.682109 
3976.000000	99.682140 
3975.000000	99.683106 
3974.000000	99.684653 
3973.000000	99.686115 
3972.000000	99.686926 
3971.000000	99.686939 
3970.000000	99.686376 
3969.000000	99.685614 
3968.000000	99.684958 
3967.000000	99.684491 
3966.000000	99.684134 
3965.000000	99.683822 
3964.000000	99.683558 
3963.000000	99.683272 
3962.000000	99.682753 
3961.000000	99.681827 
3960.000000	99.680586 
3959.000000	99.679360 
3958.000000	99.678449 
3957.000000	99.677918 
3956.000000	99.677651 
3955.000000	99.677548 
3954.000000	99.677611 
3953.000000	99.677844 
3952.000000	99.678138 
3951.000000	99.678337 
3950.000000	99.678418 
3949.000000	99.678523 
3948.000000	99.678772 
3947.000000	99.679077 
3946.000000	99.679201 
3945.000000	99.678978 
3944.000000	99.678482 
3943.000000	99.677941 
3942.000000	99.677524 
3941.000000	99.677216 
3940.000000	99.676864 
3939.000000	99.676247 
3938.000000	99.675242 
3937.000000	99.674036 
3936.000000	99.673158 
3935.000000	99.673176 
3934.000000	99.674288 
3933.000000	99.676149 
3932.000000	99.677986 
3931.000000	99.679023 
3930.000000	99.678905 
3929.000000	99.677795 
3928.000000	99.676324 
3927.000000	99.675312 
3926.000000	99.675283 
3925.000000	99.676139 
3924.000000	99.677203 
3923.000000	99.677797 
3922.000000	99.677784 
3921.000000	99.677489 
3920.000000	99.677330 
3919.000000	99.677583 
3918.000000	99.678362 
3917.000000	99.679595 
3916.000000	99.680989 
3915.000000	99.682151 
3914.000000	99.682875 
3913.000000	99.683230 
3912.000000	99.683421 
3911.000000	99.683577 
3910.000000	99.683749 
3909.000000	99.683975 
3908.000000	99.684246 
3907.000000	99.684398 
3906.000000	99.684113 
3905.000000	99.683117 
3904.000000	99.681355 
3903.000000	99.679089 
3902.000000	99.676992 
3901.000000	99.675916 
3900.000000	99.676346 
3899.000000	99.678022 
3898.000000	99.680047 
3897.000000	99.681549 
3896.000000	99.682170 
3895.000000	99.681963 
3894.000000	99.681194 
3893.000000	99.680214 
3892.000000	99.679295 
3891.000000	99.678447 
3890.000000	99.677588 
3889.000000	99.676870 
3888.000000	99.676526 
3887.000000	99.676699 
3886.000000	99.677395 
3885.000000	99.678277 
3884.000000	99.678818 
3883.000000	99.678897 
3882.000000	99.678919 
3881.000000	99.679343 
3880.000000	99.680137 
3879.000000	99.680843 
3878.000000	99.681312 
3877.000000	99.681844 
3876.000000	99.682719 
3875.000000	99.683817 
3874.000000	99.684573 
3873.000000	99.684498 
3872.000000	99.683751 
3871.000000	99.683029 
3870.000000	99.682845 
3869.000000	99.683079 
3868.000000	99.683429 
3867.000000	99.683830 
3866.000000	99.684284 
3865.000000	99.684685 
3864.000000	99.684815 
3863.000000	99.684556 
3862.000000	99.684118 
3861.000000	99.683892 
3860.000000	99.684114 
3859.000000	99.684754 
3858.000000	99.685598 
3857.000000	99.686382 
3856.000000	99.686926 
3855.000000	99.687348 
3854.000000	99.688105 
3853.000000	99.689179 
3852.000000	99.689890 
3851.000000	99.690028 
3850.000000	99.689842 
3849.000000	99.689498 
3848.000000	99.689069 
3847.000000	99.688640 
3846.000000	99.688366 
3845.000000	99.688410 
3844.000000	99.688850 
3843.000000	99.689649 
3842.000000	99.690691 
3841.000000	99.691777 
3840.000000	99.692646 
3839.000000	99.693029 
3838.000000	99.692774 
3837.000000	99.691988 
3836.000000	99.691036 
3835.000000	99.690331 
3834.000000	99.690138 
3833.000000	99.690479 
3832.000000	99.691144 
3831.000000	99.691792 
3830.000000	99.692159 
3829.000000	99.692159 
3828.000000	99.691843 
3827.000000	99.691344 
3826.000000	99.690908 
3825.000000	99.690828 
3824.000000	99.691249 
3823.000000	99.692005 
3822.000000	99.692693 
3821.000000	99.692907 
3820.000000	99.692587 
3819.000000	99.692241 
3818.000000	99.692276 
3817.000000	99.692311 
3816.000000	99.691552 
3815.000000	99.689662 
3814.000000	99.687154 
3813.000000	99.684980 
3812.000000	99.683854 
3811.000000	99.683999 
3810.000000	99.685205 
3809.000000	99.686937 
3808.000000	99.688512 
3807.000000	99.689372 
3806.000000	99.689400 
3805.000000	99.689019 
3804.000000	99.688805 
3803.000000	99.688917 
3802.000000	99.688961 
3801.000000	99.688306 
3800.000000	99.686835 
3799.000000	99.685223 
3798.000000	99.684091 
3797.000000	99.683340 
3796.000000	99.682395 
3795.000000	99.680885 
3794.000000	99.679016 
3793.000000	99.677305 
3792.000000	99.676174 
3791.000000	99.675803 
3790.000000	99.676143 
3789.000000	99.676986 
3788.000000	99.678024 
3787.000000	99.678865 
3786.000000	99.679128 
3785.000000	99.678658 
3784.000000	99.677719 
3783.000000	99.676927 
3782.000000	99.676866 
3781.000000	99.677666 
3780.000000	99.678844 
3779.000000	99.679506 
3778.000000	99.679045 
3777.000000	99.677682 
3776.000000	99.676142 
3775.000000	99.675102 
3774.000000	99.674962 
3773.000000	99.675758 
3772.000000	99.676995 
3771.000000	99.677729 
3770.000000	99.677120 
3769.000000	99.675219 
3768.000000	99.673268 
3767.000000	99.672687 
3766.000000	99.673661 
3765.000000	99.675032 
3764.000000	99.675514 
3763.000000	99.674791 
3762.000000	99.673385 
3761.000000	99.671972 
3760.000000	99.671128 
3759.000000	99.671306 
3758.000000	99.672817 
3757.000000	99.675804 
3756.000000	99.680016 
3755.000000	99.684751 
3754.000000	99.689103 
3753.000000	99.692354 
3752.000000	99.694184 
3751.000000	99.694477 
3750.000000	99.693375 
3749.000000	99.691955 
3748.000000	99.691633 
3747.000000	99.692484 
3746.000000	99.692975 
3745.000000	99.691656 
3744.000000	99.688537 
3743.000000	99.684901 
3742.000000	99.682096 
3741.000000	99.680251 
3740.000000	99.678431 
3739.000000	99.675881 
3738.000000	99.673158 
3737.000000	99.672089 
3736.000000	99.673625 
3735.000000	99.676039 
3734.000000	99.676618 
3733.000000	99.674938 
3732.000000	99.672704 
3731.000000	99.671309 
3730.000000	99.670799 
3729.000000	99.670529 
3728.000000	99.670067 
3727.000000	99.669366 
3726.000000	99.668356 
3725.000000	99.666860 
3724.000000	99.665041 
3723.000000	99.663575 
3722.000000	99.663011 
3721.000000	99.663141 
3720.000000	99.663164 
3719.000000	99.662232 
3718.000000	99.660009 
3717.000000	99.656884 
3716.000000	99.653605 
3715.000000	99.650700 
3714.000000	99.648298 
3713.000000	99.646599 
3712.000000	99.646096 
3711.000000	99.646703 
3710.000000	99.647117 
3709.000000	99.645779 
3708.000000	99.642148 
3707.000000	99.636962 
3706.000000	99.631691 
3705.000000	99.627628 
3704.000000	99.625240 
3703.000000	99.624006 
3702.000000	99.622641 
3701.000000	99.619789 
3700.000000	99.615056 
3699.000000	99.609342 
3698.000000	99.604056 
3697.000000	99.600369 
3696.000000	99.598918 
3695.000000	99.599803 
3694.000000	99.602715 
3693.000000	99.606895 
3692.000000	99.610966 
3691.000000	99.613144 
3690.000000	99.612195 
3689.000000	99.608190 
3688.000000	99.602294 
3687.000000	99.595944 
3686.000000	99.590138 
3685.000000	99.585491 
3684.000000	99.582464 
3683.000000	99.581004 
3682.000000	99.580247 
3681.000000	99.579013 
3680.000000	99.576679 
3679.000000	99.573567 
3678.000000	99.570572 
3677.000000	99.568683 
3676.000000	99.568185 
3675.000000	99.566825 
3674.000000	99.561969 
3673.000000	99.554247 
3672.000000	99.545980 
3671.000000	99.539293 
3670.000000	99.535232 
3669.000000	99.532273 
3668.000000	99.528236 
3667.000000	99.523193 
3666.000000	99.518335 
3665.000000	99.513970 
3664.000000	99.509314 
3663.000000	99.503296 
3662.000000	99.495541 
3661.000000	99.486466 
3660.000000	99.476615 
3659.000000	99.466497 
3658.000000	99.457150 
3657.000000	99.450204 
3656.000000	99.446310 
3655.000000	99.444019 
3654.000000	99.441207 
3653.000000	99.436323 
3652.000000	99.428282 
3651.000000	99.417319 
3650.000000	99.406146 
3649.000000	99.398039 
3648.000000	99.393105 
3647.000000	99.388676 
3646.000000	99.382592 
3645.000000	99.374751 
3644.000000	99.366760 
3643.000000	99.360535 
3642.000000	99.357178 
3641.000000	99.356283 
3640.000000	99.356082 
3639.000000	99.354334 
3638.000000	99.349345 
3637.000000	99.340898 
3636.000000	99.330364 
3635.000000	99.319635 
3634.000000	99.309596 
3633.000000	99.299822 
3632.000000	99.290007 
3631.000000	99.281324 
3630.000000	99.276127 
3629.000000	99.274641 
3628.000000	99.272550 
3627.000000	99.267296 
3626.000000	99.261948 
3625.000000	99.259401 
3624.000000	99.258961 
3623.000000	99.258325 
3622.000000	99.256776 
3621.000000	99.256629 
3620.000000	99.261020 
3619.000000	99.269739 
3618.000000	99.278822 
3617.000000	99.285601 
3616.000000	99.291017 
3615.000000	99.297021 
3614.000000	99.303797 
3613.000000	99.309534 
3612.000000	99.312814 
3611.000000	99.314770 
3610.000000	99.317880 
3609.000000	99.322942 
3608.000000	99.327932 
3607.000000	99.330450 
3606.000000	99.331176 
3605.000000	99.333416 
3604.000000	99.339718 
3603.000000	99.349942 
3602.000000	99.361732 
3601.000000	99.372257 
3600.000000	99.379530 
3599.000000	99.382770 
3598.000000	99.382289 
3597.000000	99.379485 
3596.000000	99.376555 
3595.000000	99.375820 
3594.000000	99.378318 
3593.000000	99.382892 
3592.000000	99.387068 
3591.000000	99.388803 
3590.000000	99.388053 
3589.000000	99.387099 
3588.000000	99.388485 
3587.000000	99.391476 
3586.000000	99.393154 
3585.000000	99.392868 
3584.000000	99.392506 
3583.000000	99.393416 
3582.000000	99.395011 
3581.000000	99.395930 
3580.000000	99.395560 
3579.000000	99.394188 
3578.000000	99.392191 
3577.000000	99.389873 
3576.000000	99.387986 
3575.000000	99.387474 
3574.000000	99.388426 
3573.000000	99.389665 
3572.000000	99.389821 
3571.000000	99.388610 
3570.000000	99.386829 
3569.000000	99.385576 
3568.000000	99.385612 
3567.000000	99.386738 
3566.000000	99.387849 
3565.000000	99.388240 
3564.000000	99.388181 
3563.000000	99.388122 
3562.000000	99.388151 
3561.000000	99.387940 
3560.000000	99.387061 
3559.000000	99.385419 
3558.000000	99.383521 
3557.000000	99.382169 
3556.000000	99.381786 
3555.000000	99.381978 
3554.000000	99.381772 
3553.000000	99.380396 
3552.000000	99.377933 
3551.000000	99.375233 
3550.000000	99.373139 
3549.000000	99.371898 
3548.000000	99.371355 
3547.000000	99.371318 
3546.000000	99.371516 
3545.000000	99.371445 
3544.000000	99.370712 
3543.000000	99.369475 
3542.000000	99.368342 
3541.000000	99.367764 
3540.000000	99.367661 
3539.000000	99.367561 
3538.000000	99.367086 
3537.000000	99.366234 
3536.000000	99.365250 
3535.000000	99.364368 
3534.000000	99.363664 
3533.000000	99.363138 
3532.000000	99.362802 
3531.000000	99.362663 
3530.000000	99.362612 
3529.000000	99.362396 
3528.000000	99.361793 
3527.000000	99.360817 
3526.000000	99.359711 
3525.000000	99.358729 
3524.000000	99.357928 
3523.000000	99.357204 
3522.000000	99.356449 
3521.000000	99.355655 
3520.000000	99.354892 
3519.000000	99.354249 
3518.000000	99.353761 
3517.000000	99.353366 
3516.000000	99.352916 
3515.000000	99.352286 
3514.000000	99.351471 
3513.000000	99.350581 
3512.000000	99.349759 
3511.000000	99.349096 
3510.000000	99.348600 
3509.000000	99.348213 
3508.000000	99.347855 
3507.000000	99.347474 
3506.000000	99.347065 
3505.000000	99.346640 
3504.000000	99.346194 
3503.000000	99.345723 
3502.000000	99.345265 
3501.000000	99.344889 
3500.000000	99.344602 
3499.000000	99.344279 
3498.000000	99.343742 
3497.000000	99.342933 
3496.000000	99.341963 
3495.000000	99.341055 
3494.000000	99.340364 
3493.000000	99.339892 
3492.000000	99.339523 
3491.000000	99.339106 
3490.000000	99.338556 
3489.000000	99.337893 
3488.000000	99.337199 
3487.000000	99.336539 
3486.000000	99.335927 
3485.000000	99.335349 
3484.000000	99.334791 
3483.000000	99.334227 
3482.000000	99.333592 
3481.000000	99.332827 
3480.000000	99.331943 
3479.000000	99.331011 
3478.000000	99.330088 
3477.000000	99.329179 
3476.000000	99.328323 
3475.000000	99.327673 
3474.000000	99.327395 
3473.000000	99.327402 
3472.000000	99.327252 
3471.000000	99.326517 
3470.000000	99.325224 
3469.000000	99.323841 
3468.000000	99.322768 
3467.000000	99.321894 
3466.000000	99.320834 
3465.000000	99.319462 
3464.000000	99.318063 
3463.000000	99.316959 
3462.000000	99.316142 
3461.000000	99.315376 
3460.000000	99.314539 
3459.000000	99.313729 
3458.000000	99.313009 
3457.000000	99.312161 
3456.000000	99.310764 
3455.000000	99.308566 
3454.000000	99.305838 
3453.000000	99.303324 
3452.000000	99.301669 
3451.000000	99.300916 
3450.000000	99.300534 
3449.000000	99.299993 
3448.000000	99.299211 
3447.000000	99.298378 
3446.000000	99.297530 
3445.000000	99.296489 
3444.000000	99.295147 
3443.000000	99.293586 
3442.000000	99.291916 
3441.000000	99.290130 
3440.000000	99.288156 
3439.000000	99.285951 
3438.000000	99.283503 
3437.000000	99.280877 
3436.000000	99.278345 
3435.000000	99.276400 
3434.000000	99.275491 
3433.000000	99.275717 
3432.000000	99.276716 
3431.000000	99.277774 
3430.000000	99.278231 
3429.000000	99.277864 
3428.000000	99.276925 
3427.000000	99.275736 
3426.000000	99.274238 
3425.000000	99.272102 
3424.000000	99.269364 
3423.000000	99.266751 
3422.000000	99.265110 
3421.000000	99.264581 
3420.000000	99.264557 
3419.000000	99.264458 
3418.000000	99.264317 
3417.000000	99.264427 
3416.000000	99.264673 
3415.000000	99.264462 
3414.000000	99.263264 
3413.000000	99.261117 
3412.000000	99.258638 
3411.000000	99.256609 
3410.000000	99.255463 
3409.000000	99.255028 
3408.000000	99.254676 
3407.000000	99.253823 
3406.000000	99.252417 
3405.000000	99.250943 
3404.000000	99.249970 
3403.000000	99.249699 
3402.000000	99.249928 
3401.000000	99.250380 
3400.000000	99.250988 
3399.000000	99.251836 
3398.000000	99.252899 
3397.000000	99.253921 
3396.000000	99.254564 
3395.000000	99.254592 
3394.000000	99.253896 
3393.000000	99.252461 
3392.000000	99.250470 
3391.000000	99.248461 
3390.000000	99.247207 
3389.000000	99.247283 
3388.000000	99.248712 
3387.000000	99.250943 
3386.000000	99.253169 
3385.000000	99.254802 
3384.000000	99.255680 
3383.000000	99.255906 
3382.000000	99.255577 
3381.000000	99.254718 
3380.000000	99.253503 
3379.000000	99.252422 
3378.000000	99.252034 
3377.000000	99.252471 
3376.000000	99.253308 
3375.000000	99.253938 
3374.000000	99.254126 
3373.000000	99.254123 
3372.000000	99.254290 
3371.000000	99.254712 
3370.000000	99.255175 
3369.000000	99.255438 
3368.000000	99.255467 
3367.000000	99.255453 
3366.000000	99.255639 
3365.000000	99.256102 
3364.000000	99.256698 
3363.000000	99.257200 
3362.000000	99.257510 
3361.000000	99.257707 
3360.000000	99.257896 
3359.000000	99.258079 
3358.000000	99.258192 
3357.000000	99.258262 
3356.000000	99.258429 
3355.000000	99.258791 
3354.000000	99.259264 
3353.000000	99.259657 
3352.000000	99.259882 
3351.000000	99.260051 
3350.000000	99.260356 
3349.000000	99.260876 
3348.000000	99.261546 
3347.000000	99.262235 
3346.000000	99.262831 
3345.000000	99.263281 
3344.000000	99.263599 
3343.000000	99.263860 
3342.000000	99.264159 
3341.000000	99.264525 
3340.000000	99.264913 
3339.000000	99.265283 
3338.000000	99.265662 
3337.000000	99.266122 
3336.000000	99.266698 
3335.000000	99.267336 
3334.000000	99.267954 
3333.000000	99.268520 
3332.000000	99.269059 
3331.000000	99.269589 
3330.000000	99.270092 
3329.000000	99.270538 
3328.000000	99.270938 
3327.000000	99.271338 
3326.000000	99.271775 
3325.000000	99.272238 
3324.000000	99.272698 
3323.000000	99.273147 
3322.000000	99.273616 
3321.000000	99.274133 
3320.000000	99.274693 
3319.000000	99.275272 
3318.000000	99.275847 
3317.000000	99.276409 
3316.000000	99.276960 
3315.000000	99.277499 
3314.000000	99.278028 
3313.000000	99.278548 
3312.000000	99.279059 
3311.000000	99.279562 
3310.000000	99.280055 
3309.000000	99.280534 
3308.000000	99.280997 
3307.000000	99.281442 
3306.000000	99.281874 
3305.000000	99.282297 
3304.000000	99.282719 
3303.000000	99.283143 
3302.000000	99.283570 
3301.000000	99.283997 
3300.000000	99.284421 
3299.000000	99.284839 
3298.000000	99.285255 
3297.000000	99.285673 
3296.000000	99.286100 
3295.000000	99.286536 
3294.000000	99.286970 
3293.000000	99.287394 
3292.000000	99.287809 
3291.000000	99.288230 
3290.000000	99.288660 
3289.000000	99.289070 
3288.000000	99.289437 
3287.000000	99.289773 
3286.000000	99.290124 
3285.000000	99.290519 
3284.000000	99.290949 
3283.000000	99.291378 
3282.000000	99.291785 
3281.000000	99.292195 
3280.000000	99.292667 
3279.000000	99.293252 
3278.000000	99.293931 
3277.000000	99.294589 
3276.000000	99.295090 
3275.000000	99.295371 
3274.000000	99.295474 
3273.000000	99.295525 
3272.000000	99.295685 
3271.000000	99.296084 
3270.000000	99.296755 
3269.000000	99.297580 
3268.000000	99.298346 
3267.000000	99.298907 
3266.000000	99.299247 
3265.000000	99.299456 
3264.000000	99.299713 
3263.000000	99.300275 
3262.000000	99.301340 
3261.000000	99.302850 
3260.000000	99.304448 
3259.000000	99.305735 
3258.000000	99.306546 
3257.000000	99.306988 
3256.000000	99.307276 
3255.000000	99.307552 
3254.000000	99.307862 
3253.000000	99.308269 
3252.000000	99.308922 
3251.000000	99.309981 
3250.000000	99.311448 
3249.000000	99.313067 
3248.000000	99.314465 
3247.000000	99.315409 
3246.000000	99.315919 
3245.000000	99.316207 
3244.000000	99.316543 
3243.000000	99.317113 
3242.000000	99.317917 
3241.000000	99.318775 
3240.000000	99.319534 
3239.000000	99.320328 
3238.000000	99.321561 
3237.000000	99.323554 
3236.000000	99.326164 
3235.000000	99.328745 
3234.000000	99.330557 
3233.000000	99.331293 
3232.000000	99.331289 
3231.000000	99.331286 
3230.000000	99.331824 
3229.000000	99.332856 
3228.000000	99.333879 
3227.000000	99.334398 
3226.000000	99.334271 
3225.000000	99.333759 
3224.000000	99.333342 
3223.000000	99.333435 
3222.000000	99.334172 
3221.000000	99.335388 
3220.000000	99.336780 
3219.000000	99.338102 
3218.000000	99.339265 
3217.000000	99.340377 
3216.000000	99.341718 
3215.000000	99.343523 
3214.000000	99.345660 
3213.000000	99.347571 
3212.000000	99.348705 
3211.000000	99.348971 
3210.000000	99.348724 
3209.000000	99.348384 
3208.000000	99.348218 
3207.000000	99.348441 
3206.000000	99.349232 
3205.000000	99.350516 
3204.000000	99.351866 
3203.000000	99.352824 
3202.000000	99.353306 
3201.000000	99.353610 
3200.000000	99.354114 
3199.000000	99.355023 
3198.000000	99.356335 
3197.000000	99.357914 
3196.000000	99.359562 
3195.000000	99.361104 
3194.000000	99.362395 
3193.000000	99.363309 
3192.000000	99.363753 
3191.000000	99.363758 
3190.000000	99.363522 
3189.000000	99.363298 
3188.000000	99.363283 
3187.000000	99.363628 
3186.000000	99.364458 
3185.000000	99.365803 
3184.000000	99.367477 
3183.000000	99.369112 
3182.000000	99.370413 
3181.000000	99.371444 
3180.000000	99.372659 
3179.000000	99.374522 
3178.000000	99.376898 
3177.000000	99.378865 
3176.000000	99.379486 
3175.000000	99.378811 
3174.000000	99.377955 
3173.000000	99.377946 
3172.000000	99.378603 
3171.000000	99.378960 
3170.000000	99.378693 
3169.000000	99.378655 
3168.000000	99.379736 
3167.000000	99.381600 
3166.000000	99.383004 
3165.000000	99.383295 
3164.000000	99.383088 
3163.000000	99.383336 
3162.000000	99.384133 
3161.000000	99.384848 
3160.000000	99.385202 
3159.000000	99.385642 
3158.000000	99.386513 
3157.000000	99.387318 
3156.000000	99.387220 
3155.000000	99.386038 
3154.000000	99.384370 
3153.000000	99.382837 
3152.000000	99.381603 
3151.000000	99.380719 
3150.000000	99.380493 
3149.000000	99.381223 
3148.000000	99.382783 
3147.000000	99.384723 
3146.000000	99.386670 
3145.000000	99.388444 
3144.000000	99.389920 
3143.000000	99.391066 
3142.000000	99.392089 
3141.000000	99.393315 
3140.000000	99.394826 
3139.000000	99.396314 
3138.000000	99.397350 
3137.000000	99.397799 
3136.000000	99.397952 
3135.000000	99.398299 
3134.000000	99.399135 
3133.000000	99.400308 
3132.000000	99.401348 
3131.000000	99.401866 
3130.000000	99.401888 
3129.000000	99.401838 
3128.000000	99.402234 
3127.000000	99.403335 
3126.000000	99.405007 
3125.000000	99.406767 
3124.000000	99.408051 
3123.000000	99.408620 
3122.000000	99.408660 
3121.000000	99.408616 
3120.000000	99.408842 
3119.000000	99.409390 
3118.000000	99.410150 
3117.000000	99.411041 
3116.000000	99.412047 
3115.000000	99.413123 
3114.000000	99.414140 
3113.000000	99.414956 
3112.000000	99.415538 
3111.000000	99.415997 
3110.000000	99.416504 
3109.000000	99.417137 
3108.000000	99.417839 
3107.000000	99.418496 
3106.000000	99.419058 
3105.000000	99.419574 
3104.000000	99.420127 
3103.000000	99.420750 
3102.000000	99.421413 
3101.000000	99.422088 
3100.000000	99.422783 
3099.000000	99.423507 
3098.000000	99.424234 
3097.000000	99.424908 
3096.000000	99.425468 
3095.000000	99.425886 
3094.000000	99.426179 
3093.000000	99.426394 
3092.000000	99.426574 
3091.000000	99.426766 
3090.000000	99.427041 
3089.000000	99.427479 
3088.000000	99.428089 
3087.000000	99.428765 
3086.000000	99.429376 
3085.000000	99.429892 
3084.000000	99.430364 
3083.000000	99.430804 
3082.000000	99.431158 
3081.000000	99.431418 
3080.000000	99.431692 
3079.000000	99.432122 
3078.000000	99.432757 
3077.000000	99.433543 
3076.000000	99.434358 
3075.000000	99.435087 
3074.000000	99.435663 
3073.000000	99.436080 
3072.000000	99.436401 
3071.000000	99.436708 
3070.000000	99.437038 
3069.000000	99.437379 
3068.000000	99.437725 
3067.000000	99.438125 
3066.000000	99.438633 
3065.000000	99.439256 
3064.000000	99.439937 
3063.000000	99.440583 
3062.000000	99.441111 
3061.000000	99.441487 
3060.000000	99.441736 
3059.000000	99.441947 
3058.000000	99.442220 
3057.000000	99.442622 
3056.000000	99.443169 
3055.000000	99.443822 
3054.000000	99.444488 
3053.000000	99.445045 
3052.000000	99.445414 
3051.000000	99.445619 
3050.000000	99.445783 
3049.000000	99.446033 
3048.000000	99.446419 
3047.000000	99.446889 
3046.000000	99.447287 
3045.000000	99.447430 
3044.000000	99.447279 
3043.000000	99.447083 
3042.000000	99.447238 
3041.000000	99.447963 
3040.000000	99.449114 
3039.000000	99.450307 
3038.000000	99.451202 
3037.000000	99.451623 
3036.000000	99.451503 
3035.000000	99.450925 
3034.000000	99.450182 
3033.000000	99.449603 
3032.000000	99.449281 
3031.000000	99.449054 
3030.000000	99.448793 
3029.000000	99.448623 
3028.000000	99.448808 
3027.000000	99.449480 
3026.000000	99.450525 
3025.000000	99.451653 
3024.000000	99.452513 
3023.000000	99.452818 
3022.000000	99.452519 
3021.000000	99.451799 
3020.000000	99.450780 
3019.000000	99.449312 
3018.000000	99.447332 
3017.000000	99.445376 
3016.000000	99.444304 
3015.000000	99.444357 
3014.000000	99.444809 
3013.000000	99.444907 
3012.000000	99.444987 
3011.000000	99.446009 
3010.000000	99.448142 
3009.000000	99.450370 
3008.000000	99.451642 
3007.000000	99.451933 
3006.000000	99.451903 
3005.000000	99.451947 
3004.000000	99.451940 
3003.000000	99.451788 
3002.000000	99.451722 
3001.000000	99.451936 
3000.000000	99.452205 
2999.000000	99.452096 
2998.000000	99.451501 
2997.000000	99.450777 
2996.000000	99.450367 
2995.000000	99.450367 
2994.000000	99.450489 
2993.000000	99.450398 
2992.000000	99.449997 
2991.000000	99.449365 
2990.000000	99.448576 
2989.000000	99.447731 
2988.000000	99.447105 
2987.000000	99.447027 
2986.000000	99.447556 
2985.000000	99.448381 
2984.000000	99.449070 
2983.000000	99.449365 
2982.000000	99.449227 
2981.000000	99.448783 
2980.000000	99.448332 
2979.000000	99.448248 
2978.000000	99.448684 
2977.000000	99.449408 
2976.000000	99.449957 
2975.000000	99.450027 
2974.000000	99.449646 
2973.000000	99.449040 
2972.000000	99.448452 
2971.000000	99.448029 
2970.000000	99.447794 
2969.000000	99.447649 
2968.000000	99.447450 
2967.000000	99.447136 
2966.000000	99.446798 
2965.000000	99.446584 
2964.000000	99.446564 
2963.000000	99.446693 
2962.000000	99.446873 
2961.000000	99.447017 
2960.000000	99.447056 
2959.000000	99.446911 
2958.000000	99.446490 
2957.000000	99.445769 
2956.000000	99.444886 
2955.000000	99.444133 
2954.000000	99.443788 
2953.000000	99.443976 
2952.000000	99.444651 
2951.000000	99.445619 
2950.000000	99.446552 
2949.000000	99.447100 
2948.000000	99.447125 
2947.000000	99.446759 
2946.000000	99.446209 
2945.000000	99.445591 
2944.000000	99.445035 
2943.000000	99.444725 
2942.000000	99.444583 
2941.000000	99.444096 
2940.000000	99.442819 
2939.000000	99.441074 
2938.000000	99.439873 
2937.000000	99.439984 
2936.000000	99.441301 
2935.000000	99.443026 
2934.000000	99.444344 
2933.000000	99.444856 
2932.000000	99.444534 
2931.000000	99.443531 
2930.000000	99.442068 
2929.000000	99.440499 
2928.000000	99.439319 
2927.000000	99.438864 
2926.000000	99.438931 
2925.000000	99.438940 
2924.000000	99.438665 
2923.000000	99.438527 
2922.000000	99.438891 
2921.000000	99.439344 
2920.000000	99.439091 
2919.000000	99.437942 
2918.000000	99.436540 
2917.000000	99.435670 
2916.000000	99.435697 
2915.000000	99.436633 
2914.000000	99.438268 
2913.000000	99.440180 
2912.000000	99.442024 
2911.000000	99.443883 
2910.000000	99.446046 
2909.000000	99.448385 
2908.000000	99.450257 
2907.000000	99.451155 
2906.000000	99.451235 
2905.000000	99.451093 
2904.000000	99.451139 
2903.000000	99.451284 
2902.000000	99.451191 
2901.000000	99.450917 
2900.000000	99.451129 
2899.000000	99.452562 
2898.000000	99.454957 
2897.000000	99.456883 
2896.000000	99.457134 
2895.000000	99.456127 
2894.000000	99.455493 
2893.000000	99.456137 
2892.000000	99.457364 
2891.000000	99.458122 
2890.000000	99.458482 
2889.000000	99.459287 
2888.000000	99.460812 
2887.000000	99.462530 
2886.000000	99.464030 
2885.000000	99.465397 
2884.000000	99.466652 
2883.000000	99.467526 
2882.000000	99.468069 
2881.000000	99.468947 
2880.000000	99.470626 
2879.000000	99.472534 
2878.000000	99.473572 
2877.000000	99.473486 
2876.000000	99.473325 
2875.000000	99.474337 
2874.000000	99.476555 
2873.000000	99.478773 
2872.000000	99.479818 
2871.000000	99.479481 
2870.000000	99.478207 
2869.000000	99.476455 
2868.000000	99.474744 
2867.000000	99.473917 
2866.000000	99.474559 
2865.000000	99.476084 
2864.000000	99.477021 
2863.000000	99.476519 
2862.000000	99.475103 
2861.000000	99.473721 
2860.000000	99.472589 
2859.000000	99.471466 
2858.000000	99.470526 
2857.000000	99.470139 
2856.000000	99.469945 
2855.000000	99.469009 
2854.000000	99.467173 
2853.000000	99.465668 
2852.000000	99.465956 
2851.000000	99.468367 
2850.000000	99.472135 
2849.000000	99.476328 
2848.000000	99.480354 
2847.000000	99.483691 
2846.000000	99.485741 
2845.000000	99.486234 
2844.000000	99.485529 
2843.000000	99.484342 
2842.000000	99.483311 
2841.000000	99.482994 
2840.000000	99.484015 
2839.000000	99.486749 
2838.000000	99.490729 
2837.000000	99.494621 
2836.000000	99.497180 
2835.000000	99.498181 
2834.000000	99.498352 
2833.000000	99.498482 
2832.000000	99.498683 
2831.000000	99.498516 
2830.000000	99.497632 
2829.000000	99.496200 
2828.000000	99.494851 
2827.000000	99.494292 
2826.000000	99.494920 
2825.000000	99.496617 
2824.000000	99.498753 
2823.000000	99.500460 
2822.000000	99.501192 
2821.000000	99.501136 
2820.000000	99.501017 
2819.000000	99.501354 
2818.000000	99.501953 
2817.000000	99.502318 
2816.000000	99.502382 
2815.000000	99.502543 
2814.000000	99.503002 
2813.000000	99.503460 
2812.000000	99.503597 
2811.000000	99.503564 
2810.000000	99.503767 
2809.000000	99.504358 
2808.000000	99.505135 
2807.000000	99.505798 
2806.000000	99.506150 
2805.000000	99.506100 
2804.000000	99.505687 
2803.000000	99.505181 
2802.000000	99.504993 
2801.000000	99.505332 
2800.000000	99.506029 
2799.000000	99.506747 
2798.000000	99.507280 
2797.000000	99.507560 
2796.000000	99.507472 
2795.000000	99.506896 
2794.000000	99.505958 
2793.000000	99.505113 
2792.000000	99.504798 
2791.000000	99.505049 
2790.000000	99.505554 
2789.000000	99.506037 
2788.000000	99.506528 
2787.000000	99.507184 
2786.000000	99.507932 
2785.000000	99.508457 
2784.000000	99.508538 
2783.000000	99.508242 
2782.000000	99.507757 
2781.000000	99.507191 
2780.000000	99.506655 
2779.000000	99.506400 
2778.000000	99.506648 
2777.000000	99.507306 
2776.000000	99.508005 
2775.000000	99.508449 
2774.000000	99.508643 
2773.000000	99.508807 
2772.000000	99.509188 
2771.000000	99.509946 
2770.000000	99.511068 
2769.000000	99.512299 
2768.000000	99.513268 
2767.000000	99.513745 
2766.000000	99.513745 
2765.000000	99.513383 
2764.000000	99.512684 
2763.000000	99.511608 
2762.000000	99.510240 
2761.000000	99.508907 
2760.000000	99.508085 
2759.000000	99.508105 
2758.000000	99.508925 
2757.000000	99.510159 
2756.000000	99.511343 
2755.000000	99.512179 
2754.000000	99.512530 
2753.000000	99.512378 
2752.000000	99.511915 
2751.000000	99.511568 
2750.000000	99.511707 
2749.000000	99.512298 
2748.000000	99.512925 
2747.000000	99.513207 
2746.000000	99.513145 
2745.000000	99.513036 
2744.000000	99.513107 
2743.000000	99.513302 
2742.000000	99.513442 
2741.000000	99.513496 
2740.000000	99.513604 
2739.000000	99.513843 
2738.000000	99.514104 
2737.000000	99.514270 
2736.000000	99.514395 
2735.000000	99.514593 
2734.000000	99.514835 
2733.000000	99.514977 
2732.000000	99.514976 
2731.000000	99.514941 
2730.000000	99.514970 
2729.000000	99.515046 
2728.000000	99.515139 
2727.000000	99.515286 
2726.000000	99.515508 
2725.000000	99.515751 
2724.000000	99.515969 
2723.000000	99.516173 
2722.000000	99.516387 
2721.000000	99.516609 
2720.000000	99.516828 
2719.000000	99.517030 
2718.000000	99.517215 
2717.000000	99.517384 
2716.000000	99.517540 
2715.000000	99.517687 
2714.000000	99.517827 
2713.000000	99.517963 
2712.000000	99.518098 
2711.000000	99.518231 
2710.000000	99.518363 
2709.000000	99.518494 
2708.000000	99.518621 
2707.000000	99.518741 
2706.000000	99.518849 
2705.000000	99.518946 
2704.000000	99.519032 
2703.000000	99.519112 
2702.000000	99.519184 
2701.000000	99.519246 
2700.000000	99.519296 
2699.000000	99.519335 
2698.000000	99.519371 
2697.000000	99.519409 
2696.000000	99.519450 
2695.000000	99.519482 
2694.000000	99.519490 
2693.000000	99.519474 
2692.000000	99.519446 
2691.000000	99.519421 
2690.000000	99.519382 
2689.000000	99.519300 
2688.000000	99.519170 
2687.000000	99.519025 
2686.000000	99.518903 
2685.000000	99.518815 
2684.000000	99.518746 
2683.000000	99.518673 
2682.000000	99.518569 
2681.000000	99.518413 
2680.000000	99.518192 
2679.000000	99.517924 
2678.000000	99.517657 
2677.000000	99.517441 
2676.000000	99.517295 
2675.000000	99.517202 
2674.000000	99.517128 
2673.000000	99.517032 
2672.000000	99.516883 
2671.000000	99.516678 
2670.000000	99.516445 
2669.000000	99.516213 
2668.000000	99.515979 
2667.000000	99.515732 
2666.000000	99.515482 
2665.000000	99.515236 
2664.000000	99.514979 
2663.000000	99.514684 
2662.000000	99.514361 
2661.000000	99.514066 
2660.000000	99.513851 
2659.000000	99.513707 
2658.000000	99.513573 
2657.000000	99.513397 
2656.000000	99.513186 
2655.000000	99.512983 
2654.000000	99.512812 
2653.000000	99.512649 
2652.000000	99.512476 
2651.000000	99.512331 
2650.000000	99.512266 
2649.000000	99.512273 
2648.000000	99.512280 
2647.000000	99.512240 
2646.000000	99.512198 
2645.000000	99.512251 
2644.000000	99.512443 
2643.000000	99.512688 
2642.000000	99.512817 
2641.000000	99.512739 
2640.000000	99.512491 
2639.000000	99.512220 
2638.000000	99.512074 
2637.000000	99.512140 
2636.000000	99.512394 
2635.000000	99.512694 
2634.000000	99.512886 
2633.000000	99.512959 
2632.000000	99.513072 
2631.000000	99.513402 
2630.000000	99.513928 
2629.000000	99.514384 
2628.000000	99.514464 
2627.000000	99.514141 
2626.000000	99.513772 
2625.000000	99.513785 
2624.000000	99.514267 
2623.000000	99.514952 
2622.000000	99.515565 
2621.000000	99.516054 
2620.000000	99.516439 
2619.000000	99.516623 
2618.000000	99.516536 
2617.000000	99.516358 
2616.000000	99.516404 
2615.000000	99.516764 
2614.000000	99.517241 
2613.000000	99.517704 
2612.000000	99.518353 
2611.000000	99.519494 
2610.000000	99.521061 
2609.000000	99.522550 
2608.000000	99.523515 
2607.000000	99.524062 
2606.000000	99.524734 
2605.000000	99.525884 
2604.000000	99.527256 
2603.000000	99.528257 
2602.000000	99.528501 
2601.000000	99.528098 
2600.000000	99.527519 
2599.000000	99.527216 
2598.000000	99.527246 
2597.000000	99.527123 
2596.000000	99.526197 
2595.000000	99.524402 
2594.000000	99.522633 
2593.000000	99.522090 
2592.000000	99.523188 
2591.000000	99.525209 
2590.000000	99.526992 
2589.000000	99.527958 
2588.000000	99.528268 
2587.000000	99.528113 
2586.000000	99.527248 
2585.000000	99.525506 
2584.000000	99.523490 
2583.000000	99.522236 
2582.000000	99.522051 
2581.000000	99.522099 
2580.000000	99.521437 
2579.000000	99.520257 
2578.000000	99.519649 
2577.000000	99.520230 
2576.000000	99.521491 
2575.000000	99.522533 
2574.000000	99.523051 
2573.000000	99.523359 
2572.000000	99.523783 
2571.000000	99.524396 
2570.000000	99.525162 
2569.000000	99.525953 
2568.000000	99.526428 
2567.000000	99.526255 
2566.000000	99.525521 
2565.000000	99.524732 
2564.000000	99.524235 
2563.000000	99.523872 
2562.000000	99.523353 
2561.000000	99.522691 
2560.000000	99.522003 
2559.000000	99.521061 
2558.000000	99.519518 
2557.000000	99.517688 
2556.000000	99.516662 
2555.000000	99.517300 
2554.000000	99.519407 
2553.000000	99.521925 
2552.000000	99.523913 
2551.000000	99.525092 
2550.000000	99.525419 
2549.000000	99.524756 
2548.000000	99.523165 
2547.000000	99.521168 
2546.000000	99.519443 
2545.000000	99.518383 
2544.000000	99.518086 
2543.000000	99.518472 
2542.000000	99.519120 
2541.000000	99.519350 
2540.000000	99.518895 
2539.000000	99.518293 
2538.000000	99.518229 
2537.000000	99.518579 
2536.000000	99.518569 
2535.000000	99.517863 
2534.000000	99.516936 
2533.000000	99.516263 
2532.000000	99.515624 
2531.000000	99.514644 
2530.000000	99.513686 
2529.000000	99.513572 
2528.000000	99.514442 
2527.000000	99.515413 
2526.000000	99.515571 
2525.000000	99.515093 
2524.000000	99.515045 
2523.000000	99.516145 
2522.000000	99.518061 
2521.000000	99.519917 
2520.000000	99.521154 
2519.000000	99.521638 
2518.000000	99.521263 
2517.000000	99.519991 
2516.000000	99.518280 
2515.000000	99.517001 
2514.000000	99.516670 
2513.000000	99.517125 
2512.000000	99.518036 
2511.000000	99.519356 
2510.000000	99.521047 
2509.000000	99.522742 
2508.000000	99.524140 
2507.000000	99.525444 
2506.000000	99.526917 
2505.000000	99.528161 
2504.000000	99.528358 
2503.000000	99.527218 
2502.000000	99.525350 
2501.000000	99.523778 
2500.000000	99.523250 
2499.000000	99.523995 
2498.000000	99.525658 
2497.000000	99.527360 
2496.000000	99.528268 
2495.000000	99.528247 
2494.000000	99.527789 
2493.000000	99.527367 
2492.000000	99.527145 
2491.000000	99.527261 
2490.000000	99.527952 
2489.000000	99.529301 
2488.000000	99.531228 
2487.000000	99.533737 
2486.000000	99.536642 
2485.000000	99.538927 
2484.000000	99.539241 
2483.000000	99.537267 
2482.000000	99.534227 
2481.000000	99.531778 
2480.000000	99.530489 
2479.000000	99.529920 
2478.000000	99.529599 
2477.000000	99.529399 
2476.000000	99.529267 
2475.000000	99.529160 
2474.000000	99.529231 
2473.000000	99.529682 
2472.000000	99.530371 
2471.000000	99.530845 
2470.000000	99.530791 
2469.000000	99.530319 
2468.000000	99.529791 
2467.000000	99.529519 
2466.000000	99.529561 
2465.000000	99.529718 
2464.000000	99.529722 
2463.000000	99.529505 
2462.000000	99.529248 
2461.000000	99.529122 
2460.000000	99.529052 
2459.000000	99.528819 
2458.000000	99.528352 
2457.000000	99.527824 
2456.000000	99.527449 
2455.000000	99.527294 
2454.000000	99.527315 
2453.000000	99.527449 
2452.000000	99.527620 
2451.000000	99.527694 
2450.000000	99.527507 
2449.000000	99.526994 
2448.000000	99.526311 
2447.000000	99.525808 
2446.000000	99.525734 
2445.000000	99.526026 
2444.000000	99.526377 
2443.000000	99.526520 
2442.000000	99.526416 
2441.000000	99.526151 
2440.000000	99.525854 
2439.000000	99.525679 
2438.000000	99.525782 
2437.000000	99.526165 
2436.000000	99.526582 
2435.000000	99.526750 
2434.000000	99.526655 
2433.000000	99.526587 
2432.000000	99.526825 
2431.000000	99.527383 
2430.000000	99.528025 
2429.000000	99.528440 
2428.000000	99.528391 
2427.000000	99.527831 
2426.000000	99.527001 
2425.000000	99.526307 
2424.000000	99.526026 
2423.000000	99.526199 
2422.000000	99.526813 
2421.000000	99.527847 
2420.000000	99.528992 
2419.000000	99.529538 
2418.000000	99.528915 
2417.000000	99.527287 
2416.000000	99.525500 
2415.000000	99.524264 
2414.000000	99.523548 
2413.000000	99.522909 
2412.000000	99.522162 
2411.000000	99.521553 
2410.000000	99.521368 
2409.000000	99.521639 
2408.000000	99.522216 
2407.000000	99.522916 
2406.000000	99.523548 
2405.000000	99.524026 
2404.000000	99.524482 
2403.000000	99.525070 
2402.000000	99.525612 
2401.000000	99.525678 
2400.000000	99.525097 
2399.000000	99.524214 
2398.000000	99.523518 
2397.000000	99.523201 
2396.000000	99.523242 
2395.000000	99.523604 
2394.000000	99.524112 
2393.000000	99.524365 
2392.000000	99.524077 
2391.000000	99.523428 
2390.000000	99.522864 
2389.000000	99.522630 
2388.000000	99.522705 
2387.000000	99.523105 
2386.000000	99.523867 
2385.000000	99.524741 
2384.000000	99.525277 
2383.000000	99.525312 
2382.000000	99.525138 
2381.000000	99.525124 
2380.000000	99.525304 
2379.000000	99.525506 
2378.000000	99.525730 
2377.000000	99.526163 
2376.000000	99.526857 
2375.000000	99.527580 
2374.000000	99.528048 
2373.000000	99.528185 
2372.000000	99.528101 
2371.000000	99.527976 
2370.000000	99.527953 
2369.000000	99.528113 
2368.000000	99.528449 
2367.000000	99.528900 
2366.000000	99.529448 
2365.000000	99.530093 
2364.000000	99.530697 
2363.000000	99.531003 
2362.000000	99.530865 
2361.000000	99.530390 
2360.000000	99.529837 
2359.000000	99.529404 
2358.000000	99.529242 
2357.000000	99.529496 
2356.000000	99.530179 
2355.000000	99.531103 
2354.000000	99.531991 
2353.000000	99.532634 
2352.000000	99.532922 
2351.000000	99.532867 
2350.000000	99.532629 
2349.000000	99.532403 
2348.000000	99.532299 
2347.000000	99.532361 
2346.000000	99.532578 
2345.000000	99.532832 
2344.000000	99.532952 
2343.000000	99.532894 
2342.000000	99.532749 
2341.000000	99.532616 
2340.000000	99.532573 
2339.000000	99.532688 
2338.000000	99.532980 
2337.000000	99.533343 
2336.000000	99.533605 
2335.000000	99.533712 
2334.000000	99.533786 
2333.000000	99.533980 
2332.000000	99.534299 
2331.000000	99.534607 
2330.000000	99.534775 
2329.000000	99.534801 
2328.000000	99.534767 
2327.000000	99.534749 
2326.000000	99.534748 
2325.000000	99.534730 
2324.000000	99.534692 
2323.000000	99.534697 
2322.000000	99.534791 
2321.000000	99.534955 
2320.000000	99.535121 
2319.000000	99.535244 
2318.000000	99.535336 
2317.000000	99.535427 
2316.000000	99.535542 
2315.000000	99.535677 
2314.000000	99.535818 
2313.000000	99.535977 
2312.000000	99.536167 
2311.000000	99.536387 
2310.000000	99.536618 
2309.000000	99.536851 
2308.000000	99.537093 
2307.000000	99.537358 
2306.000000	99.537665 
2305.000000	99.538025 
2304.000000	99.538438 
2303.000000	99.538884 
2302.000000	99.539322 
2301.000000	99.539708 
2300.000000	99.540027 
2299.000000	99.540340 
2298.000000	99.540743 
2297.000000	99.541251 
2296.000000	99.541734 
2295.000000	99.542031 
2294.000000	99.542140 
2293.000000	99.542267 
2292.000000	99.542633 
2291.000000	99.543269 
2290.000000	99.544007 
2289.000000	99.544627 
2288.000000	99.545021 
2287.000000	99.545237 
2286.000000	99.545403 
2285.000000	99.545542 
2284.000000	99.545517 
2283.000000	99.545324 
2282.000000	99.545390 
2281.000000	99.546217 
2280.000000	99.547638 
2279.000000	99.548813 
2278.000000	99.549193 
2277.000000	99.549205 
2276.000000	99.549614 
2275.000000	99.550541 
2274.000000	99.551593 
2273.000000	99.552661 
2272.000000	99.553985 
2271.000000	99.555605 
2270.000000	99.557235 
2269.000000	99.558685 
2268.000000	99.560019 
2267.000000	99.561277 
2266.000000	99.562318 
2265.000000	99.562931 
2264.000000	99.562981 
2263.000000	99.562479 
2262.000000	99.561710 
2261.000000	99.561222 
2260.000000	99.561480 
2259.000000	99.562522 
2258.000000	99.563919 
2257.000000	99.565234 
2256.000000	99.566349 
2255.000000	99.567336 
2254.000000	99.568229 
2253.000000	99.569021 
2252.000000	99.569769 
2251.000000	99.570539 
2250.000000	99.571292 
2249.000000	99.571921 
2248.000000	99.572406 
2247.000000	99.572853 
2246.000000	99.573352 
2245.000000	99.573913 
2244.000000	99.574521 
2243.000000	99.575168 
2242.000000	99.575841 
2241.000000	99.576524 
2240.000000	99.577208 
2239.000000	99.577889 
2238.000000	99.578545 
2237.000000	99.579147 
2236.000000	99.579691 
2235.000000	99.580195 
2234.000000	99.580672 
2233.000000	99.581131 
2232.000000	99.581578 
2231.000000	99.582013 
2230.000000	99.582434 
2229.000000	99.582839 
2228.000000	99.583232 
2227.000000	99.583625 
2226.000000	99.584032 
2225.000000	99.584469 
2224.000000	99.584942 
2223.000000	99.585450 
2222.000000	99.585985 
2221.000000	99.586536 
2220.000000	99.587096 
2219.000000	99.587665 
2218.000000	99.588254 
2217.000000	99.588875 
2216.000000	99.589528 
2215.000000	99.590200 
2214.000000	99.590867 
2213.000000	99.591518 
2212.000000	99.592158 
2211.000000	99.592805 
2210.000000	99.593472 
2209.000000	99.594168 
2208.000000	99.594889 
2207.000000	99.595626 
2206.000000	99.596367 
2205.000000	99.597111 
2204.000000	99.597875 
2203.000000	99.598684 
2202.000000	99.599549 
2201.000000	99.600474 
2200.000000	99.601451 
2199.000000	99.602445 
2198.000000	99.603434 
2197.000000	99.604428 
2196.000000	99.605390 
2195.000000	99.606227 
2194.000000	99.606934 
2193.000000	99.607665 
2192.000000	99.608578 
2191.000000	99.609664 
2190.000000	99.610868 
2189.000000	99.612279 
2188.000000	99.614024 
2187.000000	99.615903 
2186.000000	99.617346 
2185.000000	99.617955 
2184.000000	99.618033 
2183.000000	99.618367 
2182.000000	99.619343 
2181.000000	99.620679 
2180.000000	99.622107 
2179.000000	99.623909 
2178.000000	99.626409 
2177.000000	99.629253 
2176.000000	99.631596 
2175.000000	99.632902 
2174.000000	99.633175 
2173.000000	99.632784 
2172.000000	99.632480 
2171.000000	99.633322 
2170.000000	99.635915 
2169.000000	99.639521 
2168.000000	99.642378 
2167.000000	99.643387 
2166.000000	99.642990 
2165.000000	99.642435 
2164.000000	99.642569 
2163.000000	99.643707 
2162.000000	99.645998 
2161.000000	99.649038 
2160.000000	99.651441 
2159.000000	99.651802 
2158.000000	99.650051 
2157.000000	99.647242 
2156.000000	99.644395 
2155.000000	99.642112 
2154.000000	99.640928 
2153.000000	99.641110 
2152.000000	99.642075 
2151.000000	99.642653 
2150.000000	99.642273 
2149.000000	99.641653 
2148.000000	99.642059 
2147.000000	99.643852 
2146.000000	99.645821 
2145.000000	99.646103 
2144.000000	99.643881 
2143.000000	99.639976 
2142.000000	99.636067 
2141.000000	99.633181 
2140.000000	99.631205 
2139.000000	99.629727 
2138.000000	99.628768 
2137.000000	99.628541 
2136.000000	99.628723 
2135.000000	99.628435 
2134.000000	99.627146 
2133.000000	99.625377 
2132.000000	99.624158 
2131.000000	99.623714 
2130.000000	99.623021 
2129.000000	99.620966 
2128.000000	99.617779 
2127.000000	99.614891 
2126.000000	99.613252 
2125.000000	99.612453 
2124.000000	99.611728 
2123.000000	99.611242 
2122.000000	99.611682 
2121.000000	99.612886 
2120.000000	99.613718 
2119.000000	99.613356 
2118.000000	99.612061 
2117.000000	99.610612 
2116.000000	99.609478 
2115.000000	99.608694 
2114.000000	99.608159 
2113.000000	99.607693 
2112.000000	99.606978 
2111.000000	99.605862 
2110.000000	99.604727 
2109.000000	99.604188 
2108.000000	99.604301 
2107.000000	99.604296 
2106.000000	99.603269 
2105.000000	99.601137 
2104.000000	99.598933 
2103.000000	99.598015 
2102.000000	99.598852 
2101.000000	99.600521 
2100.000000	99.601567 
2099.000000	99.601451 
2098.000000	99.600944 
2097.000000	99.601146 
2096.000000	99.602325 
2095.000000	99.603900 
2094.000000	99.605225 
2093.000000	99.606094 
2092.000000	99.606603 
2091.000000	99.606945 
2090.000000	99.607444 
2089.000000	99.608390 
2088.000000	99.609592 
2087.000000	99.610279 
2086.000000	99.609815 
2085.000000	99.608634 
2084.000000	99.608222 
2083.000000	99.609833 
2082.000000	99.613324 
2081.000000	99.617303 
2080.000000	99.620361 
2079.000000	99.622204 
2078.000000	99.623505 
2077.000000	99.625041 
2076.000000	99.627038 
2075.000000	99.629083 
2074.000000	99.630377 
2073.000000	99.630296 
2072.000000	99.629017 
2071.000000	99.627588 
2070.000000	99.627176 
2069.000000	99.628084 
2068.000000	99.629649 
2067.000000	99.630915 
2066.000000	99.631406 
2065.000000	99.631549 
2064.000000	99.632480 
2063.000000	99.635052 
2062.000000	99.638882 
2061.000000	99.642498 
2060.000000	99.644781 
2059.000000	99.646027 
2058.000000	99.647380 
2057.000000	99.649508 
2056.000000	99.652050 
2055.000000	99.654291 
2054.000000	99.655996 
2053.000000	99.657465 
2052.000000	99.659044 
2051.000000	99.660783 
2050.000000	99.662517 
2049.000000	99.664096 
2048.000000	99.665539 
2047.000000	99.667031 
2046.000000	99.668709 
2045.000000	99.670432 
2044.000000	99.671861 
2043.000000	99.672864 
2042.000000	99.673707 
2041.000000	99.674779 
2040.000000	99.676141 
2039.000000	99.677514 
2038.000000	99.678585 
2037.000000	99.679298 
2036.000000	99.679870 
2035.000000	99.680556 
2034.000000	99.681373 
2033.000000	99.682174 
2032.000000	99.682989 
2031.000000	99.684074 
2030.000000	99.685525 
2029.000000	99.686929 
2028.000000	99.687695 
2027.000000	99.687670 
2026.000000	99.687288 
2025.000000	99.687118 
2024.000000	99.687405 
2023.000000	99.688217 
2022.000000	99.689557 
2021.000000	99.691065 
2020.000000	99.692026 
2019.000000	99.692119 
2018.000000	99.691824 
2017.000000	99.691837 
2016.000000	99.692224 
2015.000000	99.692620 
2014.000000	99.692885 
2013.000000	99.692971 
2012.000000	99.692508 
2011.000000	99.691225 
2010.000000	99.689655 
2009.000000	99.688869 
2008.000000	99.689383 
2007.000000	99.690590 
2006.000000	99.691274 
2005.000000	99.690704 
2004.000000	99.689201 
2003.000000	99.687783 
2002.000000	99.687112 
2001.000000	99.686698 
2000.000000	99.685259 
1999.000000	99.682101 
1998.000000	99.678107 
1997.000000	99.675115 
1996.000000	99.674303 
1995.000000	99.675594 
1994.000000	99.678130 
1993.000000	99.680747 
1992.000000	99.682236 
1991.000000	99.681910 
1990.000000	99.680108 
1989.000000	99.677893 
1988.000000	99.676367 
1987.000000	99.676424 
1986.000000	99.678670 
1985.000000	99.682813 
1984.000000	99.687131 
1983.000000	99.689306 
1982.000000	99.687984 
1981.000000	99.683609 
1980.000000	99.678278 
1979.000000	99.674839 
1978.000000	99.675305 
1977.000000	99.679125 
1976.000000	99.682916 
1975.000000	99.683383 
1974.000000	99.680537 
1973.000000	99.677434 
1972.000000	99.676888 
1971.000000	99.679141 
1970.000000	99.682826 
1969.000000	99.687000 
1968.000000	99.691518 
1967.000000	99.695926 
1966.000000	99.698910 
1965.000000	99.699161 
1964.000000	99.696385 
1963.000000	99.691459 
1962.000000	99.686214 
1961.000000	99.682713 
1960.000000	99.681881 
1959.000000	99.682666 
1958.000000	99.682868 
1957.000000	99.680998 
1956.000000	99.677205 
1955.000000	99.672307 
1954.000000	99.666405 
1953.000000	99.659235 
1952.000000	99.651790 
1951.000000	99.646630 
1950.000000	99.645722 
1949.000000	99.648214 
1948.000000	99.651058 
1947.000000	99.652138 
1946.000000	99.651751 
1945.000000	99.650706 
1944.000000	99.648400 
1943.000000	99.643896 
1942.000000	99.638204 
1941.000000	99.633777 
1940.000000	99.631764 
1939.000000	99.631330 
1938.000000	99.631375 
1937.000000	99.631783 
1936.000000	99.632814 
1935.000000	99.634016 
1934.000000	99.634356 
1933.000000	99.633249 
1932.000000	99.631130 
1931.000000	99.629203 
1930.000000	99.628591 
1929.000000	99.629377 
1928.000000	99.630363 
1927.000000	99.630119 
1926.000000	99.628327 
1925.000000	99.625815 
1924.000000	99.623602 
1923.000000	99.622092 
1922.000000	99.621091 
1921.000000	99.620269 
1920.000000	99.619412 
1919.000000	99.618437 
1918.000000	99.617372 
1917.000000	99.616310 
1916.000000	99.615305 
1915.000000	99.614352 
1914.000000	99.613441 
1913.000000	99.612570 
1912.000000	99.611722 
1911.000000	99.610879 
1910.000000	99.610024 
1909.000000	99.609149 
1908.000000	99.608247 
1907.000000	99.607321 
1906.000000	99.606371 
1905.000000	99.605396 
1904.000000	99.604389 
1903.000000	99.603348 
1902.000000	99.602278 
1901.000000	99.601200 
1900.000000	99.600135 
1899.000000	99.599099 
1898.000000	99.598091 
1897.000000	99.597101 
1896.000000	99.596119 
1895.000000	99.595145 
1894.000000	99.594185 
1893.000000	99.593246 
1892.000000	99.592325 
1891.000000	99.591432 
1890.000000	99.590544 
1889.000000	99.589608 
1888.000000	99.588624 
1887.000000	99.587682 
1886.000000	99.586883 
1885.000000	99.586248 
1884.000000	99.585691 
1883.000000	99.585064 
1882.000000	99.584233 
1881.000000	99.583161 
1880.000000	99.581991 
1879.000000	99.580959 
1878.000000	99.580108 
1877.000000	99.579209 
1876.000000	99.578198 
1875.000000	99.577602 
1874.000000	99.578123 
1873.000000	99.579702 
1872.000000	99.581225 
1871.000000	99.581390 
1870.000000	99.579707 
1869.000000	99.576763 
1868.000000	99.573562 
1867.000000	99.570606 
1866.000000	99.567967 
1865.000000	99.565790 
1864.000000	99.564576 
1863.000000	99.565103 
1862.000000	99.567753 
1861.000000	99.571716 
1860.000000	99.575272 
1859.000000	99.577491 
1858.000000	99.579132 
1857.000000	99.581199 
1856.000000	99.583389 
1855.000000	99.584784 
1854.000000	99.585333 
1853.000000	99.585571 
1852.000000	99.585386 
1851.000000	99.584043 
1850.000000	99.581591 
1849.000000	99.579398 
1848.000000	99.578858 
1847.000000	99.580106 
1846.000000	99.582249 
1845.000000	99.584076 
1844.000000	99.584532 
1843.000000	99.583552 
1842.000000	99.582408 
1841.000000	99.582503 
1840.000000	99.584199 
1839.000000	99.586688 
1838.000000	99.588651 
1837.000000	99.589374 
1836.000000	99.589231 
1835.000000	99.589125 
1834.000000	99.589675 
1833.000000	99.590907 
1832.000000	99.592462 
1831.000000	99.593739 
1830.000000	99.594169 
1829.000000	99.593713 
1828.000000	99.592973 
1827.000000	99.592547 
1826.000000	99.592517 
1825.000000	99.592723 
1824.000000	99.593062 
1823.000000	99.593425 
1822.000000	99.593579 
1821.000000	99.593267 
1820.000000	99.592473 
1819.000000	99.591538 
1818.000000	99.590933 
1817.000000	99.590879 
1816.000000	99.591144 
1815.000000	99.591300 
1814.000000	99.591235 
1813.000000	99.591337 
1812.000000	99.592148 
1811.000000	99.593784 
1810.000000	99.595779 
1809.000000	99.597512 
1808.000000	99.598581 
1807.000000	99.598774 
1806.000000	99.598040 
1805.000000	99.596624 
1804.000000	99.595095 
1803.000000	99.594026 
1802.000000	99.593724 
1801.000000	99.594185 
1800.000000	99.595027 
1799.000000	99.595699 
1798.000000	99.596003 
1797.000000	99.596216 
1796.000000	99.596712 
1795.000000	99.597570 
1794.000000	99.598497 
1793.000000	99.599089 
1792.000000	99.599320 
1791.000000	99.599520 
1790.000000	99.599846 
1789.000000	99.600224 
1788.000000	99.600654 
1787.000000	99.601259 
1786.000000	99.602000 
1785.000000	99.602516 
1784.000000	99.602530 
1783.000000	99.602333 
1782.000000	99.602482 
1781.000000	99.603061 
1780.000000	99.603507 
1779.000000	99.603349 
1778.000000	99.602883 
1777.000000	99.602839 
1776.000000	99.603549 
1775.000000	99.604815 
1774.000000	99.606222 
1773.000000	99.607432 
1772.000000	99.608291 
1771.000000	99.608831 
1770.000000	99.609100 
1769.000000	99.609041 
1768.000000	99.608714 
1767.000000	99.608412 
1766.000000	99.608393 
1765.000000	99.608618 
1764.000000	99.608840 
1763.000000	99.608908 
1762.000000	99.608925 
1761.000000	99.609069 
1760.000000	99.609349 
1759.000000	99.609634 
1758.000000	99.609808 
1757.000000	99.609866 
1756.000000	99.609895 
1755.000000	99.609987 
1754.000000	99.610143 
1753.000000	99.610272 
1752.000000	99.610370 
1751.000000	99.610646 
1750.000000	99.611224 
1749.000000	99.611793 
1748.000000	99.611928 
1747.000000	99.611512 
1746.000000	99.610695 
1745.000000	99.609661 
1744.000000	99.608636 
1743.000000	99.608014 
1742.000000	99.608061 
1741.000000	99.608528 
1740.000000	99.608801 
1739.000000	99.608602 
1738.000000	99.608291 
1737.000000	99.608190 
1736.000000	99.608046 
1735.000000	99.607254 
1734.000000	99.605549 
1733.000000	99.603776 
1732.000000	99.602969 
1731.000000	99.603148 
1730.000000	99.603594 
1729.000000	99.603558 
1728.000000	99.602713 
1727.000000	99.601287 
1726.000000	99.599714 
1725.000000	99.598202 
1724.000000	99.596769 
1723.000000	99.595703 
1722.000000	99.595568 
1721.000000	99.596566 
1720.000000	99.598020 
1719.000000	99.598590 
1718.000000	99.597195 
1717.000000	99.594294 
1716.000000	99.591358 
1715.000000	99.588895 
1714.000000	99.586620 
1713.000000	99.584351 
1712.000000	99.582047 
1711.000000	99.579715 
1710.000000	99.577500 
1709.000000	99.575651 
1708.000000	99.574259 
1707.000000	99.573173 
1706.000000	99.572409 
1705.000000	99.571882 
1704.000000	99.570696 
1703.000000	99.567708 
1702.000000	99.562746 
1701.000000	99.557499 
1700.000000	99.554433 
1699.000000	99.553181 
1698.000000	99.551832 
1697.000000	99.549929 
1696.000000	99.548032 
1695.000000	99.546300 
1694.000000	99.544373 
1693.000000	99.541880 
1692.000000	99.538173 
1691.000000	99.533228 
1690.000000	99.528170 
1689.000000	99.524178 
1688.000000	99.521051 
1687.000000	99.517579 
1686.000000	99.513196 
1685.000000	99.508748 
1684.000000	99.505591 
1683.000000	99.503230 
1682.000000	99.500255 
1681.000000	99.496623 
1680.000000	99.493137 
1679.000000	99.490492 
1678.000000	99.488529 
1677.000000	99.486525 
1676.000000	99.483844 
1675.000000	99.480372 
1674.000000	99.476529 
1673.000000	99.472984 
1672.000000	99.470018 
1671.000000	99.467518 
1670.000000	99.465234 
1669.000000	99.462675 
1668.000000	99.459514 
1667.000000	99.455831 
1666.000000	99.451351 
1665.000000	99.445778 
1664.000000	99.440144 
1663.000000	99.436885 
1662.000000	99.437142 
1661.000000	99.438863 
1660.000000	99.439286 
1659.000000	99.437692 
1658.000000	99.434965 
1657.000000	99.431510 
1656.000000	99.426406 
1655.000000	99.419416 
1654.000000	99.413725 
1653.000000	99.412276 
1652.000000	99.411492 
1651.000000	99.410637 
1650.000000	99.410146 
1649.000000	99.407486 
1648.000000	99.402058 
1647.000000	99.396419 
1646.000000	99.393454 
1645.000000	99.393600 
1644.000000	99.395966 
1643.000000	99.398985 
1642.000000	99.401086 
1641.000000	99.402001 
1640.000000	99.402386 
1639.000000	99.402715 
1638.000000	99.402991 
1637.000000	99.403055 
1636.000000	99.402509 
1635.000000	99.401020 
1634.000000	99.399913 
1633.000000	99.400600 
1632.000000	99.402392 
1631.000000	99.403936 
1630.000000	99.404812 
1629.000000	99.405327 
1628.000000	99.405865 
1627.000000	99.406800 
1626.000000	99.408770 
1625.000000	99.412611 
1624.000000	99.418427 
1623.000000	99.424700 
1622.000000	99.429260 
1621.000000	99.431503 
1620.000000	99.432052 
1619.000000	99.431673 
1618.000000	99.431935 
1617.000000	99.434990 
1616.000000	99.440971 
1615.000000	99.447532 
1614.000000	99.452409 
1613.000000	99.454817 
1612.000000	99.455713 
1611.000000	99.456826 
1610.000000	99.459030 
1609.000000	99.461918 
1608.000000	99.464827 
1607.000000	99.467571 
1606.000000	99.470126 
1605.000000	99.472589 
1604.000000	99.475430 
1603.000000	99.479212 
1602.000000	99.483797 
1601.000000	99.488315 
1600.000000	99.492236 
1599.000000	99.495846 
1598.000000	99.499547 
1597.000000	99.503421 
1596.000000	99.507597 
1595.000000	99.512226 
1594.000000	99.516737 
1593.000000	99.519902 
1592.000000	99.521346 
1591.000000	99.522375 
1590.000000	99.524771 
1589.000000	99.528921 
1588.000000	99.533766 
1587.000000	99.538176 
1586.000000	99.541478 
1585.000000	99.543137 
1584.000000	99.543084 
1583.000000	99.542175 
1582.000000	99.541865 
1581.000000	99.542872 
1580.000000	99.544690 
1579.000000	99.546578 
1578.000000	99.548530 
1577.000000	99.550799 
1576.000000	99.552872 
1575.000000	99.554677 
1574.000000	99.557116 
1573.000000	99.559725 
1572.000000	99.561262 
1571.000000	99.561818 
1570.000000	99.562886 
1569.000000	99.565158 
1568.000000	99.567385 
1567.000000	99.568446 
1566.000000	99.568403 
1565.000000	99.567975 
1564.000000	99.568035 
1563.000000	99.568866 
1562.000000	99.570219 
1561.000000	99.571821 
1560.000000	99.573143 
1559.000000	99.573923 
1558.000000	99.574472 
1557.000000	99.574909 
1556.000000	99.575826 
1555.000000	99.576652 
1554.000000	99.576873 
1553.000000	99.576720 
1552.000000	99.576907 
1551.000000	99.577964 
1550.000000	99.579835 
1549.000000	99.581694 
1548.000000	99.582672 
1547.000000	99.582760 
1546.000000	99.582508 
1545.000000	99.582538 
1544.000000	99.583080 
1543.000000	99.583844 
1542.000000	99.584509 
1541.000000	99.585138 
1540.000000	99.585924 
1539.000000	99.586777 
1538.000000	99.587691 
1537.000000	99.588760 
1536.000000	99.589819 
1535.000000	99.590750 
1534.000000	99.591666 
1533.000000	99.592622 
1532.000000	99.593427 
1531.000000	99.593962 
1530.000000	99.594351 
1529.000000	99.594776 
1528.000000	99.595353 
1527.000000	99.596209 
1526.000000	99.597396 
1525.000000	99.598710 
1524.000000	99.599798 
1523.000000	99.600568 
1522.000000	99.601477 
1521.000000	99.602980 
1520.000000	99.604558 
1519.000000	99.605489 
1518.000000	99.605698 
1517.000000	99.605628 
1516.000000	99.605786 
1515.000000	99.606192 
1514.000000	99.606622 
1513.000000	99.606930 
1512.000000	99.607119 
1511.000000	99.607375 
1510.000000	99.607901 
1509.000000	99.608892 
1508.000000	99.610744 
1507.000000	99.613543 
1506.000000	99.615346 
1505.000000	99.615022 
1504.000000	99.614248 
1503.000000	99.613967 
1502.000000	99.614138 
1501.000000	99.614798 
1500.000000	99.615746 
1499.000000	99.616418 
1498.000000	99.616680 
1497.000000	99.617388 
1496.000000	99.619008 
1495.000000	99.620353 
1494.000000	99.620217 
1493.000000	99.618672 
1492.000000	99.616600 
1491.000000	99.615016 
1490.000000	99.614326 
1489.000000	99.614055 
1488.000000	99.613501 
1487.000000	99.612641 
1486.000000	99.612102 
1485.000000	99.612207 
1484.000000	99.612638 
1483.000000	99.612889 
1482.000000	99.612580 
1481.000000	99.611496 
1480.000000	99.609677 
1479.000000	99.607508 
1478.000000	99.605578 
1477.000000	99.604222 
1476.000000	99.603148 
1475.000000	99.601745 
1474.000000	99.600180 
1473.000000	99.599445 
1472.000000	99.599465 
1471.000000	99.598585 
1470.000000	99.596200 
1469.000000	99.593334 
1468.000000	99.591175 
1467.000000	99.590126 
1466.000000	99.589743 
1465.000000	99.589270 
1464.000000	99.588227 
1463.000000	99.586830 
1462.000000	99.585623 
1461.000000	99.584638 
1460.000000	99.583110 
1459.000000	99.580247 
1458.000000	99.576587 
1457.000000	99.574215 
1456.000000	99.573680 
1455.000000	99.573473 
1454.000000	99.572851 
1453.000000	99.571709 
1452.000000	99.570156 
1451.000000	99.568287 
1450.000000	99.566242 
1449.000000	99.564524 
1448.000000	99.563539 
1447.000000	99.562810 
1446.000000	99.561712 
1445.000000	99.560660 
1444.000000	99.560243 
1443.000000	99.560088 
1442.000000	99.559265 
1441.000000	99.557441 
1440.000000	99.555124 
1439.000000	99.553058 
1438.000000	99.551735 
1437.000000	99.551303 
1436.000000	99.550828 
1435.000000	99.548775 
1434.000000	99.545403 
1433.000000	99.542654 
1432.000000	99.542246 
1431.000000	99.544487 
1430.000000	99.547948 
1429.000000	99.551007 
1428.000000	99.553214 
1427.000000	99.554630 
1426.000000	99.555242 
1425.000000	99.555335 
1424.000000	99.555701 
1423.000000	99.556515 
1422.000000	99.556737 
1421.000000	99.555902 
1420.000000	99.555320 
1419.000000	99.556746 
1418.000000	99.559305 
1417.000000	99.560951 
1416.000000	99.561849 
1415.000000	99.562849 
1414.000000	99.563671 
1413.000000	99.563461 
1412.000000	99.562342 
1411.000000	99.561581 
1410.000000	99.562064 
1409.000000	99.563804 
1408.000000	99.566547 
1407.000000	99.569702 
1406.000000	99.572435 
1405.000000	99.574807 
1404.000000	99.577972 
1403.000000	99.582142 
1402.000000	99.585722 
1401.000000	99.587431 
1400.000000	99.588174 
1399.000000	99.590261 
1398.000000	99.594184 
1397.000000	99.598077 
1396.000000	99.600673 
1395.000000	99.602710 
1394.000000	99.605426 
1393.000000	99.608953 
1392.000000	99.613103 
1391.000000	99.617720 
1390.000000	99.622161 
1389.000000	99.625389 
1388.000000	99.626758 
1387.000000	99.626759 
1386.000000	99.626610 
1385.000000	99.627234 
1384.000000	99.628826 
1383.000000	99.631044 
1382.000000	99.633375 
1381.000000	99.635601 
1380.000000	99.637840 
1379.000000	99.640132 
1378.000000	99.642096 
1377.000000	99.643217 
1376.000000	99.643593 
1375.000000	99.644253 
1374.000000	99.646227 
1373.000000	99.649124 
1372.000000	99.651634 
1371.000000	99.653308 
1370.000000	99.654843 
1369.000000	99.656910 
1368.000000	99.659552 
1367.000000	99.662473 
1366.000000	99.665317 
1365.000000	99.667529 
1364.000000	99.668452 
1363.000000	99.668160 
1362.000000	99.667843 
1361.000000	99.668486 
1360.000000	99.669817 
1359.000000	99.671179 
1358.000000	99.672558 
1357.000000	99.674295 
1356.000000	99.676236 
1355.000000	99.677771 
1354.000000	99.678673 
1353.000000	99.679261 
1352.000000	99.679634 
1351.000000	99.679418 
1350.000000	99.678588 
1349.000000	99.677684 
1348.000000	99.677360 
1347.000000	99.677992 
1346.000000	99.679694 
1345.000000	99.682152 
1344.000000	99.684515 
1343.000000	99.685961 
1342.000000	99.686433 
1341.000000	99.686493 
1340.000000	99.686494 
1339.000000	99.686299 
1338.000000	99.685960 
1337.000000	99.686072 
1336.000000	99.686999 
1335.000000	99.688335 
1334.000000	99.689641 
1333.000000	99.691151 
1332.000000	99.693083 
1331.000000	99.694638 
1330.000000	99.694631 
1329.000000	99.692994 
1328.000000	99.691059 
1327.000000	99.690211 
1326.000000	99.690700 
1325.000000	99.691766 
1324.000000	99.692713 
1323.000000	99.693407 
1322.000000	99.693825 
1321.000000	99.693647 
1320.000000	99.692610 
1319.000000	99.691154 
1318.000000	99.690251 
1317.000000	99.690346 
1316.000000	99.690684 
1315.000000	99.690094 
1314.000000	99.688496 
1313.000000	99.687307 
1312.000000	99.687988 
1311.000000	99.690374 
1310.000000	99.692937 
1309.000000	99.694455 
1308.000000	99.694848 
1307.000000	99.694446 
1306.000000	99.693320 
1305.000000	99.691603 
1304.000000	99.690134 
1303.000000	99.690022 
1302.000000	99.691578 
1301.000000	99.693989 
1300.000000	99.695950 
1299.000000	99.696430 
1298.000000	99.695097 
1297.000000	99.692602 
1296.000000	99.690418 
1295.000000	99.689966 
1294.000000	99.691578 
1293.000000	99.694316 
1292.000000	99.696679 
1291.000000	99.697414 
1290.000000	99.696106 
1289.000000	99.693537 
1288.000000	99.691289 
1287.000000	99.690445 
1286.000000	99.690662 
1285.000000	99.690897 
1284.000000	99.690833 
1283.000000	99.691013 
1282.000000	99.691760 
1281.000000	99.692708 
1280.000000	99.693423 
1279.000000	99.693746 
1278.000000	99.693372 
1277.000000	99.691868 
1276.000000	99.689401 
1275.000000	99.687034 
1274.000000	99.686028 
1273.000000	99.687154 
1272.000000	99.690448 
1271.000000	99.694753 
1270.000000	99.697678 
1269.000000	99.697371 
1268.000000	99.694665 
1267.000000	99.692333 
1266.000000	99.691716 
1265.000000	99.691453 
1264.000000	99.690091 
1263.000000	99.688196 
1262.000000	99.686732 
1261.000000	99.685012 
1260.000000	99.682148 
1259.000000	99.679555 
1258.000000	99.679847 
1257.000000	99.683627 
1256.000000	99.688965 
1255.000000	99.693777 
1254.000000	99.697258 
1253.000000	99.699200 
1252.000000	99.699393 
1251.000000	99.698046 
1250.000000	99.695702 
1249.000000	99.692576 
1248.000000	99.688933 
1247.000000	99.685946 
1246.000000	99.684768 
1245.000000	99.684551 
1244.000000	99.682707 
1243.000000	99.677731 
1242.000000	99.671065 
1241.000000	99.665753 
1240.000000	99.663688 
1239.000000	99.664135 
1238.000000	99.664254 
1237.000000	99.661079 
1236.000000	99.653701 
1235.000000	99.643838 
1234.000000	99.634086 
1233.000000	99.625731 
1232.000000	99.618426 
1231.000000	99.611071 
1230.000000	99.602058 
1229.000000	99.589587 
1228.000000	99.573428 
1227.000000	99.556281 
1226.000000	99.541790 
1225.000000	99.530476 
1224.000000	99.518595 
1223.000000	99.501499 
1222.000000	99.477549 
1221.000000	99.448801 
1220.000000	99.418844 
1219.000000	99.390151 
1218.000000	99.362550 
1217.000000	99.333632 
1216.000000	99.300947 
1215.000000	99.264098 
1214.000000	99.224916 
1213.000000	99.185862 
1212.000000	99.148136 
1211.000000	99.110631 
1210.000000	99.070760 
1209.000000	99.027293 
1208.000000	98.982311 
1207.000000	98.938980 
1206.000000	98.897390 
1205.000000	98.854755 
1204.000000	98.810067 
1203.000000	98.765711 
1202.000000	98.723298 
1201.000000	98.680639 
1200.000000	98.634969 
1199.000000	98.587014 
1198.000000	98.539521 
1197.000000	98.493478 
1196.000000	98.448205 
1195.000000	98.403587 
1194.000000	98.359546 
1193.000000	98.314303 
1192.000000	98.265770 
1191.000000	98.214408 
1190.000000	98.162906 
1189.000000	98.113441 
1188.000000	98.066516 
1187.000000	98.021413 
1186.000000	97.976048 
1185.000000	97.927342 
1184.000000	97.873534 
1183.000000	97.815713 
1182.000000	97.756175 
1181.000000	97.696421 
1180.000000	97.637702 
1179.000000	97.581409 
1178.000000	97.526863 
1177.000000	97.470419 
1176.000000	97.409174 
1175.000000	97.344408 
1174.000000	97.279305 
1173.000000	97.214561 
1172.000000	97.148721 
1171.000000	97.081713 
1170.000000	97.015275 
1169.000000	96.950344 
1168.000000	96.886467 
1167.000000	96.823984 
1166.000000	96.765647 
1165.000000	96.716797 
1164.000000	96.684810 
1163.000000	96.676324 
1162.000000	96.692226 
1161.000000	96.725092 
1160.000000	96.762330 
1159.000000	96.791762 
1158.000000	96.805034 
1157.000000	96.798455 
1156.000000	96.772661 
1155.000000	96.731120 
1154.000000	96.677884 
1153.000000	96.616773 
1152.000000	96.552325 
1151.000000	96.489377 
1150.000000	96.430291 
1149.000000	96.373770 
1148.000000	96.317244 
1147.000000	96.259055 
1146.000000	96.198098 
1145.000000	96.133854 
1144.000000	96.068054 
1143.000000	96.004199 
1142.000000	95.943833 
1141.000000	95.884728 
1140.000000	95.823607 
1139.000000	95.758822 
1138.000000	95.689978 
1137.000000	95.617572 
1136.000000	95.544077 
1135.000000	95.472747 
1134.000000	95.403865 
1133.000000	95.334361 
1132.000000	95.262031 
1131.000000	95.187608 
1130.000000	95.111888 
1129.000000	95.033894 
1128.000000	94.953206 
1127.000000	94.871237 
1126.000000	94.788888 
1125.000000	94.705669 
1124.000000	94.622084 
1123.000000	94.539659 
1122.000000	94.457551 
1121.000000	94.372669 
1120.000000	94.284549 
1119.000000	94.196621 
1118.000000	94.111371 
1117.000000	94.028124 
1116.000000	93.946822 
1115.000000	93.869707 
1114.000000	93.797594 
1113.000000	93.728579 
1112.000000	93.661898 
1111.000000	93.598920 
1110.000000	93.539055 
1109.000000	93.478967 
1108.000000	93.417193 
1107.000000	93.355472 
1106.000000	93.294559 
1105.000000	93.232840 
1104.000000	93.169665 
1103.000000	93.105890 
1102.000000	93.041031 
1101.000000	92.974423 
1100.000000	92.909086 
1099.000000	92.848735 
1098.000000	92.791840 
1097.000000	92.733908 
1096.000000	92.675258 
1095.000000	92.620133 
1094.000000	92.568761 
1093.000000	92.517471 
1092.000000	92.466301 
1091.000000	92.418560 
1090.000000	92.372637 
1089.000000	92.322632 
1088.000000	92.268240 
1087.000000	92.215993 
1086.000000	92.169420 
1085.000000	92.125767 
1084.000000	92.083423 
1083.000000	92.044113 
1082.000000	92.006271 
1081.000000	91.964809 
1080.000000	91.919464 
1079.000000	91.875300 
1078.000000	91.833171 
1077.000000	91.787894 
1076.000000	91.737327 
1075.000000	91.684190 
1074.000000	91.626898 
1073.000000	91.557680 
1072.000000	91.472439 
1071.000000	91.374102 
1070.000000	91.264211 
1069.000000	91.140212 
1068.000000	91.003905 
1067.000000	90.863355 
1066.000000	90.722504 
1065.000000	90.577476 
1064.000000	90.427218 
1063.000000	90.278813 
1062.000000	90.137691 
1061.000000	90.000990 
1060.000000	89.865320 
1059.000000	89.732922 
1058.000000	89.605401 
1057.000000	89.478630 
1056.000000	89.347889 
1055.000000	89.211324 
1054.000000	89.065890 
1053.000000	88.907937 
1052.000000	88.740630 
1051.000000	88.571784 
1050.000000	88.401277 
1049.000000	88.221316 
1048.000000	88.031970 
1047.000000	87.843580 
1046.000000	87.660420 
1045.000000	87.474766 
1044.000000	87.280959 
1043.000000	87.084082 
1042.000000	86.890826 
1041.000000	86.701908 
1040.000000	86.517620 
1039.000000	86.341267 
1038.000000	86.173348 
1037.000000	86.011849 
1036.000000	85.861161 
1035.000000	85.730411 
1034.000000	85.620233 
1033.000000	85.521698 
1032.000000	85.430611 
1031.000000	85.351840 
1030.000000	85.287568 
1029.000000	85.233374 
1028.000000	85.188251 
1027.000000	85.156056 
1026.000000	85.134150 
1025.000000	85.112686 
1024.000000	85.087893 
1023.000000	85.064226 
1022.000000	85.041523 
1021.000000	85.012919 
1020.000000	84.977818 
1019.000000	84.943753 
1018.000000	84.912508 
1017.000000	84.877287 
1016.000000	84.836633 
1015.000000	84.798205 
1014.000000	84.765366 
1013.000000	84.732545 
1012.000000	84.697158 
1011.000000	84.663775 
1010.000000	84.633728 
1009.000000	84.603534 
1008.000000	84.576727 
1007.000000	84.564009 
1006.000000	84.567845 
1005.000000	84.579263 
1004.000000	84.593165 
1003.000000	84.614317 
1002.000000	84.645016 
1001.000000	84.679934 
1000.000000	84.716874 
999.000000	 84.760012 
998.000000	 84.808739 
997.000000	 84.855818 
996.000000	 84.900750 
995.000000	 84.952961 
994.000000	 85.017368 
993.000000	 85.087758 
992.000000	 85.157992 
991.000000	 85.229131 
990.000000	 85.302603 
989.000000	 85.377314 
988.000000	 85.456391 
987.000000	 85.546228 
986.000000	 85.646686 
985.000000	 85.752796 
984.000000	 85.867233 
983.000000	 85.999117 
982.000000	 86.148955 
981.000000	 86.307117 
980.000000	 86.469335 
979.000000	 86.641341 
978.000000	 86.825722 
977.000000	 87.016842 
976.000000	 87.212005 
975.000000	 87.415708 
974.000000	 87.629121 
973.000000	 87.846250 
972.000000	 88.063887 
971.000000	 88.284986 
970.000000	 88.509186 
969.000000	 88.730240 
968.000000	 88.946059 
967.000000	 89.161638 
966.000000	 89.378792 
965.000000	 89.591927 
964.000000	 89.796918 
963.000000	 89.995651 
962.000000	 90.189015 
961.000000	 90.373721 
960.000000	 90.548988 
959.000000	 90.718690 
958.000000	 90.884160 
957.000000	 91.041996 
956.000000	 91.191405 
955.000000	 91.336652 
954.000000	 91.479707 
953.000000	 91.616935 
952.000000	 91.745164 
951.000000	 91.864913 
950.000000	 91.976222 
949.000000	 92.077562 
948.000000	 92.170425 
947.000000	 92.259025 
946.000000	 92.344216 
945.000000	 92.423420 
944.000000	 92.496880 
943.000000	 92.567351 
942.000000	 92.633254 
941.000000	 92.689537 
940.000000	 92.736654 
939.000000	 92.781826 
938.000000	 92.829978 
937.000000	 92.879937 
936.000000	 92.930640 
935.000000	 92.983865 
934.000000	 93.039351 
933.000000	 93.094195 
932.000000	 93.148747 
931.000000	 93.206618 
930.000000	 93.267727 
929.000000	 93.327957 
928.000000	 93.386379 
927.000000	 93.445782 
926.000000	 93.505293 
925.000000	 93.559726 
924.000000	 93.607008 
923.000000	 93.648830 
922.000000	 93.683546 
921.000000	 93.706975 
920.000000	 93.721896 
919.000000	 93.738265 
918.000000	 93.761339 
917.000000	 93.787106 
916.000000	 93.811786 
915.000000	 93.838171 
914.000000	 93.870352 
913.000000	 93.910351 
912.000000	 93.962784 
911.000000	 94.034390 
910.000000	 94.125061 
909.000000	 94.226846 
908.000000	 94.335488 
907.000000	 94.455597 
906.000000	 94.591115 
905.000000	 94.738349 
904.000000	 94.892255 
903.000000	 95.052538 
902.000000	 95.219368 
901.000000	 95.389038 
900.000000	 95.557779 
899.000000	 95.724735 
898.000000	 95.887886 
897.000000	 96.041981 
896.000000	 96.183983 
895.000000	 96.316863 
894.000000	 96.445332 
893.000000	 96.570832 
892.000000	 96.692387 
891.000000	 96.808944 
890.000000	 96.919270 
889.000000	 97.022762 
888.000000	 97.121413 
887.000000	 97.217723 
886.000000	 97.310170 
885.000000	 97.394911 
884.000000	 97.472847 
883.000000	 97.550468 
882.000000	 97.631934 
881.000000	 97.714254 
880.000000	 97.792281 
879.000000	 97.864893 
878.000000	 97.934549 
877.000000	 98.004126 
876.000000	 98.075621 
875.000000	 98.148841 
874.000000	 98.220746 
873.000000	 98.289803 
872.000000	 98.361149 
871.000000	 98.442298 
870.000000	 98.532140 
869.000000	 98.618987 
868.000000	 98.692118 
867.000000	 98.752195 
866.000000	 98.808844 
865.000000	 98.870609 
864.000000	 98.938947 
863.000000	 99.009504 
862.000000	 99.076705 
861.000000	 99.137688 
860.000000	 99.193253 
859.000000	 99.245879 
858.000000	 99.298003 
857.000000	 99.352225 
856.000000	 99.410063 
855.000000	 99.468042 
854.000000	 99.517909 
853.000000	 99.554649 
852.000000	 99.582502 
851.000000	 99.609150 
850.000000	 99.635667 
849.000000	 99.657244 
848.000000	 99.672489 
847.000000	 99.685541 
846.000000	 99.698449 
845.000000	 99.707878 
844.000000	 99.711502 
843.000000	 99.711620 
842.000000	 99.708784 
841.000000	 99.696983 
840.000000	 99.670420 
839.000000	 99.632696 
838.000000	 99.594443 
837.000000	 99.562104 
836.000000	 99.532602 
835.000000	 99.499599 
834.000000	 99.462581 
833.000000	 99.428255 
832.000000	 99.403075 
831.000000	 99.385789 
830.000000	 99.370159 
829.000000	 99.356255 
828.000000	 99.354575 
827.000000	 99.373516 
826.000000	 99.405583 
825.000000	 99.434324 
824.000000	 99.454414 
823.000000	 99.475266 
822.000000	 99.503486 
821.000000	 99.531984 
820.000000	 99.549773 
819.000000	 99.553989 
818.000000	 99.548612 
817.000000	 99.537095 
816.000000	 99.519241 
815.000000	 99.491039 
814.000000	 99.444703 
813.000000	 99.372174 
812.000000	 99.271047 
811.000000	 99.144527 
810.000000	 98.993836 
809.000000	 98.813801 
808.000000	 98.597933 
807.000000	 98.344618 
806.000000	 98.057004 
805.000000	 97.742515 
804.000000	 97.417181 
803.000000	 97.105794 
802.000000	 96.831186 
801.000000	 96.605103 
800.000000	 96.432019 
799.000000	 96.315698 
798.000000	 96.257233 
797.000000	 96.251591 
796.000000	 96.289987 
795.000000	 96.361634 
794.000000	 96.452407 
793.000000	 96.548132 
792.000000	 96.640527 
791.000000	 96.724441 
790.000000	 96.790066 
789.000000	 96.825988 
788.000000	 96.830853 
787.000000	 96.813697 
786.000000	 96.780108 
785.000000	 96.725525 
784.000000	 96.645790 
783.000000	 96.547554 
782.000000	 96.444319 
781.000000	 96.348841 
780.000000	 96.273609 
779.000000	 96.231124 
778.000000	 96.227090 
777.000000	 96.258237 
776.000000	 96.320919 
775.000000	 96.415478 
774.000000	 96.537638 
773.000000	 96.672420 
772.000000	 96.802734 
771.000000	 96.919861 
770.000000	 97.021404 
769.000000	 97.104119 
768.000000	 97.165092 
767.000000	 97.207573 
766.000000	 97.239602 
765.000000	 97.266507 
764.000000	 97.288190 
763.000000	 97.303566 
762.000000	 97.314932 
761.000000	 97.327867 
760.000000	 97.348144 
759.000000	 97.378070 
758.000000	 97.414904 
757.000000	 97.453826 
756.000000	 97.492748 
755.000000	 97.533121 
754.000000	 97.576754 
753.000000	 97.623791 
752.000000	 97.672967 
751.000000	 97.721233 
750.000000	 97.764018 
749.000000	 97.799161 
748.000000	 97.830791 
747.000000	 97.867136 
746.000000	 97.914487 
745.000000	 97.974142 
744.000000	 98.042631 
743.000000	 98.112500 
742.000000	 98.176565 
741.000000	 98.235728 
740.000000	 98.299783 
739.000000	 98.376211 
738.000000	 98.460820 
737.000000	 98.543748 
736.000000	 98.621274 
735.000000	 98.695960 
734.000000	 98.768408 
733.000000	 98.835676 
732.000000	 98.895477 
731.000000	 98.944879 
730.000000	 98.976881 
729.000000	 98.986090 
728.000000	 98.978130 
727.000000	 98.967054 
726.000000	 98.963042 
725.000000	 98.968938 
724.000000	 98.987384 
723.000000	 99.021784 
722.000000	 99.068423 
721.000000	 99.115725 
720.000000	 99.154906 
719.000000	 99.186488 
718.000000	 99.214836 
717.000000	 99.242536 
716.000000	 99.271742 
715.000000	 99.303862 
714.000000	 99.334921 
713.000000	 99.356853 
712.000000	 99.366521 
711.000000	 99.369401 
710.000000	 99.372533 
709.000000	 99.377475 
708.000000	 99.380980 
707.000000	 99.378391 
706.000000	 99.365205 
705.000000	 99.340191 
704.000000	 99.307390 
703.000000	 99.269268 
702.000000	 99.217863 
701.000000	 99.138842 
700.000000	 99.024524 
699.000000	 98.879142 
698.000000	 98.713833 
697.000000	 98.545624 
696.000000	 98.401240 
695.000000	 98.309374 
694.000000	 98.284116 
693.000000	 98.319900 
692.000000	 98.400567 
691.000000	 98.506451 
690.000000	 98.615231 
689.000000	 98.709688 
688.000000	 98.789247 
687.000000	 98.864439 
686.000000	 98.937693 
685.000000	 98.999233 
684.000000	 99.042584 
683.000000	 99.072947 
682.000000	 99.098756 
681.000000	 99.125943 
680.000000	 99.161531 
679.000000	 99.209991 
678.000000	 99.261857 
677.000000	 99.298077 
676.000000	 99.314575 
675.000000	 99.331518 
674.000000	 99.367787 
673.000000	 99.417601 
672.000000	 99.462903 
671.000000	 99.498716 
670.000000	 99.533968 
669.000000	 99.574898 
668.000000	 99.609722 
667.000000	 99.625109 
666.000000	 99.637068 
665.000000	 99.657801 
664.000000	 99.679374 
663.000000	 99.692667 
662.000000	 99.697589 
661.000000	 99.703104 
660.000000	 99.719222 
659.000000	 99.744545 
658.000000	 99.760226 
657.000000	 99.745372 
656.000000	 99.704015 
655.000000	 99.668265 
654.000000	 99.663704 
653.000000	 99.678917 
652.000000	 99.683828 
651.000000	 99.667662 
650.000000	 99.650171 

