4000.000000	98.786803 
3999.000000	98.786911 
3998.000000	98.786127 
3997.000000	98.785368 
3996.000000	98.784534 
3995.000000	98.783272 
3994.000000	98.781779 
3993.000000	98.780486 
3992.000000	98.779359 
3991.000000	98.778138 
3990.000000	98.777012 
3989.000000	98.776201 
3988.000000	98.775068 
3987.000000	98.772903 
3986.000000	98.770775 
3985.000000	98.771329 
3984.000000	98.775824 
3983.000000	98.782002 
3982.000000	98.785915 
3981.000000	98.785609 
3980.000000	98.782524 
3979.000000	98.779338 
3978.000000	98.777331 
3977.000000	98.776027 
3976.000000	98.774624 
3975.000000	98.773146 
3974.000000	98.772579 
3973.000000	98.773968 
3972.000000	98.776822 
3971.000000	98.778857 
3970.000000	98.777987 
3969.000000	98.774841 
3968.000000	98.772086 
3967.000000	98.771613 
3966.000000	98.772878 
3965.000000	98.773833 
3964.000000	98.772957 
3963.000000	98.770391 
3962.000000	98.767752 
3961.000000	98.767025 
3960.000000	98.768603 
3959.000000	98.770781 
3958.000000	98.771770 
3957.000000	98.772151 
3956.000000	98.773675 
3955.000000	98.776730 
3954.000000	98.780077 
3953.000000	98.782120 
3952.000000	98.781835 
3951.000000	98.778493 
3950.000000	98.772249 
3949.000000	98.764770 
3948.000000	98.759042 
3947.000000	98.758309 
3946.000000	98.763297 
3945.000000	98.769965 
3944.000000	98.772078 
3943.000000	98.767690 
3942.000000	98.761457 
3941.000000	98.759228 
3940.000000	98.761753 
3939.000000	98.765482 
3938.000000	98.767911 
3937.000000	98.770583 
3936.000000	98.774740 
3935.000000	98.777142 
3934.000000	98.774099 
3933.000000	98.767930 
3932.000000	98.765736 
3931.000000	98.769584 
3930.000000	98.773955 
3929.000000	98.773901 
3928.000000	98.770673 
3927.000000	98.767906 
3926.000000	98.765680 
3925.000000	98.763590 
3924.000000	98.764760 
3923.000000	98.770410 
3922.000000	98.775026 
3921.000000	98.772891 
3920.000000	98.766447 
3919.000000	98.763537 
3918.000000	98.766147 
3917.000000	98.769680 
3916.000000	98.771584 
3915.000000	98.773956 
3914.000000	98.776771 
3913.000000	98.777346 
3912.000000	98.775072 
3911.000000	98.774105 
3910.000000	98.777106 
3909.000000	98.783537 
3908.000000	98.790546 
3907.000000	98.794785 
3906.000000	98.792868 
3905.000000	98.783810 
3904.000000	98.774483 
3903.000000	98.774277 
3902.000000	98.783297 
3901.000000	98.790131 
3900.000000	98.784156 
3899.000000	98.768756 
3898.000000	98.756306 
3897.000000	98.753183 
3896.000000	98.756485 
3895.000000	98.763176 
3894.000000	98.772441 
3893.000000	98.782294 
3892.000000	98.784634 
3891.000000	98.776656 
3890.000000	98.768986 
3889.000000	98.773744 
3888.000000	98.785669 
3887.000000	98.785189 
3886.000000	98.767640 
3885.000000	98.754786 
3884.000000	98.763782 
3883.000000	98.784023 
3882.000000	98.792563 
3881.000000	98.782020 
3880.000000	98.766750 
3879.000000	98.762947 
3878.000000	98.772949 
3877.000000	98.787475 
3876.000000	98.793024 
3875.000000	98.783361 
3874.000000	98.769130 
3873.000000	98.767575 
3872.000000	98.778171 
3871.000000	98.779501 
3870.000000	98.762663 
3869.000000	98.750655 
3868.000000	98.762538 
3867.000000	98.783959 
3866.000000	98.786799 
3865.000000	98.771192 
3864.000000	98.764786 
3863.000000	98.778037 
3862.000000	98.791739 
3861.000000	98.792449 
3860.000000	98.783291 
3859.000000	98.772776 
3858.000000	98.765523 
3857.000000	98.765721 
3856.000000	98.771424 
3855.000000	98.764480 
3854.000000	98.739640 
3853.000000	98.724123 
3852.000000	98.733137 
3851.000000	98.753804 
3850.000000	98.767814 
3849.000000	98.770105 
3848.000000	98.770561 
3847.000000	98.778395 
3846.000000	98.789950 
3845.000000	98.797363 
3844.000000	98.797169 
3843.000000	98.791685 
3842.000000	98.785246 
3841.000000	98.780147 
3840.000000	98.774122 
3839.000000	98.769879 
3838.000000	98.772406 
3837.000000	98.779816 
3836.000000	98.785175 
3835.000000	98.785493 
3834.000000	98.783684 
3833.000000	98.782517 
3832.000000	98.782800 
3831.000000	98.786144 
3830.000000	98.792575 
3829.000000	98.798561 
3828.000000	98.798099 
3827.000000	98.788908 
3826.000000	98.779286 
3825.000000	98.784247 
3824.000000	98.805532 
3823.000000	98.823693 
3822.000000	98.818468 
3821.000000	98.798355 
3820.000000	98.788791 
3819.000000	98.797426 
3818.000000	98.807488 
3817.000000	98.796210 
3816.000000	98.769485 
3815.000000	98.758243 
3814.000000	98.772404 
3813.000000	98.790004 
3812.000000	98.792203 
3811.000000	98.785240 
3810.000000	98.785508 
3809.000000	98.793046 
3808.000000	98.790329 
3807.000000	98.771765 
3806.000000	98.755868 
3805.000000	98.758215 
3804.000000	98.769954 
3803.000000	98.768724 
3802.000000	98.748324 
3801.000000	98.734430 
3800.000000	98.747416 
3799.000000	98.774012 
3798.000000	98.789381 
3797.000000	98.784807 
3796.000000	98.773895 
3795.000000	98.771339 
3794.000000	98.775816 
3793.000000	98.777247 
3792.000000	98.774105 
3791.000000	98.773515 
3790.000000	98.778505 
3789.000000	98.784362 
3788.000000	98.787108 
3787.000000	98.787663 
3786.000000	98.787662 
3785.000000	98.786809 
3784.000000	98.786864 
3783.000000	98.792122 
3782.000000	98.801641 
3781.000000	98.808264 
3780.000000	98.807425 
3779.000000	98.803668 
3778.000000	98.803049 
3777.000000	98.805451 
3776.000000	98.804980 
3775.000000	98.799169 
3774.000000	98.794225 
3773.000000	98.797145 
3772.000000	98.803650 
3771.000000	98.803228 
3770.000000	98.796472 
3769.000000	98.795020 
3768.000000	98.802542 
3767.000000	98.808946 
3766.000000	98.803476 
3765.000000	98.789631 
3764.000000	98.782121 
3763.000000	98.786858 
3762.000000	98.792085 
3761.000000	98.785959 
3760.000000	98.774650 
3759.000000	98.771706 
3758.000000	98.774482 
3757.000000	98.775164 
3756.000000	98.777375 
3755.000000	98.786161 
3754.000000	98.794415 
3753.000000	98.790427 
3752.000000	98.779442 
3751.000000	98.774598 
3750.000000	98.770115 
3749.000000	98.760183 
3748.000000	98.760975 
3747.000000	98.784838 
3746.000000	98.808470 
3745.000000	98.797595 
3744.000000	98.769785 
3743.000000	98.763766 
3742.000000	98.774808 
3741.000000	98.776196 
3740.000000	98.762339 
3739.000000	98.753987 
3738.000000	98.761461 
3737.000000	98.769018 
3736.000000	98.767095 
3735.000000	98.768519 
3734.000000	98.780660 
3733.000000	98.788588 
3732.000000	98.783115 
3731.000000	98.776538 
3730.000000	98.781433 
3729.000000	98.791987 
3728.000000	98.791623 
3727.000000	98.775871 
3726.000000	98.760776 
3725.000000	98.759406 
3724.000000	98.765136 
3723.000000	98.766341 
3722.000000	98.763538 
3721.000000	98.764038 
3720.000000	98.768889 
3719.000000	98.772956 
3718.000000	98.769844 
3717.000000	98.760447 
3716.000000	98.751632 
3715.000000	98.744696 
3714.000000	98.733255 
3713.000000	98.714704 
3712.000000	98.698109 
3711.000000	98.690960 
3710.000000	98.687160 
3709.000000	98.678308 
3708.000000	98.663011 
3707.000000	98.645328 
3706.000000	98.630524 
3705.000000	98.619581 
3704.000000	98.608180 
3703.000000	98.591814 
3702.000000	98.571300 
3701.000000	98.551530 
3700.000000	98.536857 
3699.000000	98.527712 
3698.000000	98.518822 
3697.000000	98.505854 
3696.000000	98.493707 
3695.000000	98.488957 
3694.000000	98.488916 
3693.000000	98.487339 
3692.000000	98.485381 
3691.000000	98.489937 
3690.000000	98.500039 
3689.000000	98.505921 
3688.000000	98.505051 
3687.000000	98.506684 
3686.000000	98.515105 
3685.000000	98.521688 
3684.000000	98.519293 
3683.000000	98.513379 
3682.000000	98.511544 
3681.000000	98.508412 
3680.000000	98.495447 
3679.000000	98.477425 
3678.000000	98.464771 
3677.000000	98.450450 
3676.000000	98.425084 
3675.000000	98.401003 
3674.000000	98.390706 
3673.000000	98.389386 
3672.000000	98.380889 
3671.000000	98.357425 
3670.000000	98.336851 
3669.000000	98.334807 
3668.000000	98.337320 
3667.000000	98.326000 
3666.000000	98.300415 
3665.000000	98.270733 
3664.000000	98.245246 
3663.000000	98.225178 
3662.000000	98.205980 
3661.000000	98.183882 
3660.000000	98.161174 
3659.000000	98.141575 
3658.000000	98.124696 
3657.000000	98.105086 
3656.000000	98.082026 
3655.000000	98.061179 
3654.000000	98.045190 
3653.000000	98.028154 
3652.000000	98.001404 
3651.000000	97.970336 
3650.000000	97.956492 
3649.000000	97.962945 
3648.000000	97.963887 
3647.000000	97.944484 
3646.000000	97.914733 
3645.000000	97.887715 
3644.000000	97.866293 
3643.000000	97.848058 
3642.000000	97.832022 
3641.000000	97.818822 
3640.000000	97.805455 
3639.000000	97.786395 
3638.000000	97.761969 
3637.000000	97.738314 
3636.000000	97.718064 
3635.000000	97.695457 
3634.000000	97.667112 
3633.000000	97.639261 
3632.000000	97.618078 
3631.000000	97.597459 
3630.000000	97.569458 
3629.000000	97.547308 
3628.000000	97.545253 
3627.000000	97.551957 
3626.000000	97.548984 
3625.000000	97.531911 
3624.000000	97.510140 
3623.000000	97.495961 
3622.000000	97.492320 
3621.000000	97.493511 
3620.000000	97.497787 
3619.000000	97.509062 
3618.000000	97.525880 
3617.000000	97.543615 
3616.000000	97.562455 
3615.000000	97.583489 
3614.000000	97.605638 
3613.000000	97.627507 
3612.000000	97.648457 
3611.000000	97.668503 
3610.000000	97.688772 
3609.000000	97.711610 
3608.000000	97.737148 
3607.000000	97.759095 
3606.000000	97.769353 
3605.000000	97.768179 
3604.000000	97.764740 
3603.000000	97.768250 
3602.000000	97.780116 
3601.000000	97.794117 
3600.000000	97.805739 
3599.000000	97.815679 
3598.000000	97.826380 
3597.000000	97.839186 
3596.000000	97.853906 
3595.000000	97.866531 
3594.000000	97.872504 
3593.000000	97.871230 
3592.000000	97.867164 
3591.000000	97.866104 
3590.000000	97.869483 
3589.000000	97.875219 
3588.000000	97.883147 
3587.000000	97.893227 
3586.000000	97.901583 
3585.000000	97.904733 
3584.000000	97.902971 
3583.000000	97.898235 
3582.000000	97.892197 
3581.000000	97.885441 
3580.000000	97.878800 
3579.000000	97.874124 
3578.000000	97.873295 
3577.000000	97.876116 
3576.000000	97.879516 
3575.000000	97.879407 
3574.000000	97.873815 
3573.000000	97.865025 
3572.000000	97.856976 
3571.000000	97.851587 
3570.000000	97.846453 
3569.000000	97.837819 
3568.000000	97.828229 
3567.000000	97.825117 
3566.000000	97.828827 
3565.000000	97.832361 
3564.000000	97.831659 
3563.000000	97.828827 
3562.000000	97.827996 
3561.000000	97.830306 
3560.000000	97.832364 
3559.000000	97.830090 
3558.000000	97.822817 
3557.000000	97.813773 
3556.000000	97.806960 
3555.000000	97.804093 
3554.000000	97.803836 
3553.000000	97.804056 
3552.000000	97.803777 
3551.000000	97.802440 
3550.000000	97.798444 
3549.000000	97.789970 
3548.000000	97.778446 
3547.000000	97.769575 
3546.000000	97.768228 
3545.000000	97.773359 
3544.000000	97.779837 
3543.000000	97.783394 
3542.000000	97.782375 
3541.000000	97.777000 
3540.000000	97.768831 
3539.000000	97.760473 
3538.000000	97.754474 
3537.000000	97.752150 
3536.000000	97.752924 
3535.000000	97.753924 
3534.000000	97.751820 
3533.000000	97.745512 
3532.000000	97.737820 
3531.000000	97.733270 
3530.000000	97.733587 
3529.000000	97.735984 
3528.000000	97.736522 
3527.000000	97.734506 
3526.000000	97.732454 
3525.000000	97.732778 
3524.000000	97.735431 
3523.000000	97.738131 
3522.000000	97.738285 
3521.000000	97.735549 
3520.000000	97.732406 
3519.000000	97.731560 
3518.000000	97.732932 
3517.000000	97.733356 
3516.000000	97.729528 
3515.000000	97.720953 
3514.000000	97.710754 
3513.000000	97.703428 
3512.000000	97.701944 
3511.000000	97.706508 
3510.000000	97.714537 
3509.000000	97.721235 
3508.000000	97.721921 
3507.000000	97.715357 
3506.000000	97.704849 
3505.000000	97.696289 
3504.000000	97.694475 
3503.000000	97.699551 
3502.000000	97.706856 
3501.000000	97.710705 
3500.000000	97.708135 
3499.000000	97.699684 
3498.000000	97.688569 
3497.000000	97.679582 
3496.000000	97.676730 
3495.000000	97.680519 
3494.000000	97.687828 
3493.000000	97.694779 
3492.000000	97.699315 
3491.000000	97.701334 
3490.000000	97.701536 
3489.000000	97.700491 
3488.000000	97.698446 
3487.000000	97.695397 
3486.000000	97.691098 
3485.000000	97.685342 
3484.000000	97.678320 
3483.000000	97.670825 
3482.000000	97.664222 
3481.000000	97.659830 
3480.000000	97.657927 
3479.000000	97.657353 
3478.000000	97.656448 
3477.000000	97.654479 
3476.000000	97.651847 
3475.000000	97.649004 
3474.000000	97.645783 
3473.000000	97.642193 
3472.000000	97.638858 
3471.000000	97.636014 
3470.000000	97.632803 
3469.000000	97.628139 
3468.000000	97.622042 
3467.000000	97.615945 
3466.000000	97.611626 
3465.000000	97.609826 
3464.000000	97.609639 
3463.000000	97.608990 
3462.000000	97.605958 
3461.000000	97.600017 
3460.000000	97.592435 
3459.000000	97.585601 
3458.000000	97.581696 
3457.000000	97.581208 
3456.000000	97.582325 
3455.000000	97.582216 
3454.000000	97.579511 
3453.000000	97.575145 
3452.000000	97.571037 
3451.000000	97.567858 
3450.000000	97.564325 
3449.000000	97.558735 
3448.000000	97.550759 
3447.000000	97.541638 
3446.000000	97.533145 
3445.000000	97.527331 
3444.000000	97.526241 
3443.000000	97.529930 
3442.000000	97.534502 
3441.000000	97.533982 
3440.000000	97.525650 
3439.000000	97.512883 
3438.000000	97.501856 
3437.000000	97.495734 
3436.000000	97.493059 
3435.000000	97.491241 
3434.000000	97.489712 
3433.000000	97.489060 
3432.000000	97.488883 
3431.000000	97.487435 
3430.000000	97.483142 
3429.000000	97.476252 
3428.000000	97.468984 
3427.000000	97.463927 
3426.000000	97.461781 
3425.000000	97.460904 
3424.000000	97.459293 
3423.000000	97.456832 
3422.000000	97.455280 
3421.000000	97.456029 
3420.000000	97.458215 
3419.000000	97.459271 
3418.000000	97.457396 
3417.000000	97.453372 
3416.000000	97.449857 
3415.000000	97.448639 
3414.000000	97.448373 
3413.000000	97.445401 
3412.000000	97.437432 
3411.000000	97.426555 
3410.000000	97.418311 
3409.000000	97.417399 
3408.000000	97.423775 
3407.000000	97.432644 
3406.000000	97.438377 
3405.000000	97.438633 
3404.000000	97.434823 
3403.000000	97.429343 
3402.000000	97.423579 
3401.000000	97.418367 
3400.000000	97.414711 
3399.000000	97.412866 
3398.000000	97.411673 
3397.000000	97.409918 
3396.000000	97.408093 
3395.000000	97.408156 
3394.000000	97.411568 
3393.000000	97.417808 
3392.000000	97.424456 
3391.000000	97.428700 
3390.000000	97.429413 
3389.000000	97.428178 
3388.000000	97.427836 
3387.000000	97.429588 
3386.000000	97.431778 
3385.000000	97.431770 
3384.000000	97.428635 
3383.000000	97.423752 
3382.000000	97.419502 
3381.000000	97.417634 
3380.000000	97.418203 
3379.000000	97.419494 
3378.000000	97.419552 
3377.000000	97.418154 
3376.000000	97.416737 
3375.000000	97.416387 
3374.000000	97.416701 
3373.000000	97.416845 
3372.000000	97.416677 
3371.000000	97.416464 
3370.000000	97.416567 
3369.000000	97.418013 
3368.000000	97.422289 
3367.000000	97.429569 
3366.000000	97.437699 
3365.000000	97.443828 
3364.000000	97.446724 
3363.000000	97.446962 
3362.000000	97.445725 
3361.000000	97.444443 
3360.000000	97.444699 
3359.000000	97.446795 
3358.000000	97.448614 
3357.000000	97.447727 
3356.000000	97.445114 
3355.000000	97.445101 
3354.000000	97.450309 
3353.000000	97.457756 
3352.000000	97.461589 
3351.000000	97.459774 
3350.000000	97.456779 
3349.000000	97.458874 
3348.000000	97.467422 
3347.000000	97.477695 
3346.000000	97.483909 
3345.000000	97.484247 
3344.000000	97.480988 
3343.000000	97.477270 
3342.000000	97.475100 
3341.000000	97.475689 
3340.000000	97.479583 
3339.000000	97.485772 
3338.000000	97.491722 
3337.000000	97.495188 
3336.000000	97.495713 
3335.000000	97.494216 
3334.000000	97.491901 
3333.000000	97.490083 
3332.000000	97.490274 
3331.000000	97.493351 
3330.000000	97.498672 
3329.000000	97.504597 
3328.000000	97.509928 
3327.000000	97.514536 
3326.000000	97.518771 
3325.000000	97.522770 
3324.000000	97.526328 
3323.000000	97.529043 
3322.000000	97.530624 
3321.000000	97.531107 
3320.000000	97.530667 
3319.000000	97.529378 
3318.000000	97.527622 
3317.000000	97.526769 
3316.000000	97.528844 
3315.000000	97.534924 
3314.000000	97.543799 
3313.000000	97.552319 
3312.000000	97.557156 
3311.000000	97.556857 
3310.000000	97.552968 
3309.000000	97.549027 
3308.000000	97.547625 
3307.000000	97.548286 
3306.000000	97.548872 
3305.000000	97.549002 
3304.000000	97.550942 
3303.000000	97.556789 
3302.000000	97.565732 
3301.000000	97.574596 
3300.000000	97.580331 
3299.000000	97.581657 
3298.000000	97.579533 
3297.000000	97.576889 
3296.000000	97.576911 
3295.000000	97.580205 
3294.000000	97.584028 
3293.000000	97.585370 
3292.000000	97.584573 
3291.000000	97.585055 
3290.000000	97.589483 
3289.000000	97.597001 
3288.000000	97.604266 
3287.000000	97.608535 
3286.000000	97.609726 
3285.000000	97.610080 
3284.000000	97.611918 
3283.000000	97.615331 
3282.000000	97.618009 
3281.000000	97.617443 
3280.000000	97.613151 
3279.000000	97.607168 
3278.000000	97.603131 
3277.000000	97.604550 
3276.000000	97.612499 
3275.000000	97.624128 
3274.000000	97.634432 
3273.000000	97.640429 
3272.000000	97.643145 
3271.000000	97.645227 
3270.000000	97.647812 
3269.000000	97.650573 
3268.000000	97.653492 
3267.000000	97.656808 
3266.000000	97.659807 
3265.000000	97.661479 
3264.000000	97.662224 
3263.000000	97.663401 
3262.000000	97.665329 
3261.000000	97.667199 
3260.000000	97.668818 
3259.000000	97.671005 
3258.000000	97.673726 
3257.000000	97.675123 
3256.000000	97.673638 
3255.000000	97.670520 
3254.000000	97.669276 
3253.000000	97.672714 
3252.000000	97.680786 
3251.000000	97.690662 
3250.000000	97.698408 
3249.000000	97.701172 
3248.000000	97.699138 
3247.000000	97.695947 
3246.000000	97.696472 
3245.000000	97.702997 
3244.000000	97.712967 
3243.000000	97.720860 
3242.000000	97.722888 
3241.000000	97.720009 
3240.000000	97.716385 
3239.000000	97.715557 
3238.000000	97.718572 
3237.000000	97.725091 
3236.000000	97.734675 
3235.000000	97.746174 
3234.000000	97.756728 
3233.000000	97.762856 
3232.000000	97.763165 
3231.000000	97.759781 
3230.000000	97.757043 
3229.000000	97.758512 
3228.000000	97.764644 
3227.000000	97.773009 
3226.000000	97.780694 
3225.000000	97.786561 
3224.000000	97.791154 
3223.000000	97.794858 
3222.000000	97.797237 
3221.000000	97.798351 
3220.000000	97.799560 
3219.000000	97.802283 
3218.000000	97.806591 
3217.000000	97.811671 
3216.000000	97.817044 
3215.000000	97.822448 
3214.000000	97.826828 
3213.000000	97.828618 
3212.000000	97.827734 
3211.000000	97.826621 
3210.000000	97.828529 
3209.000000	97.834540 
3208.000000	97.842598 
3207.000000	97.849560 
3206.000000	97.853902 
3205.000000	97.856149 
3204.000000	97.857017 
3203.000000	97.856110 
3202.000000	97.853178 
3201.000000	97.850119 
3200.000000	97.850506 
3199.000000	97.856658 
3198.000000	97.867523 
3197.000000	97.879523 
3196.000000	97.888992 
3195.000000	97.893843 
3194.000000	97.894007 
3193.000000	97.891275 
3192.000000	97.888350 
3191.000000	97.886915 
3190.000000	97.886398 
3189.000000	97.885165 
3188.000000	97.883150 
3187.000000	97.882845 
3186.000000	97.887261 
3185.000000	97.896764 
3184.000000	97.907987 
3183.000000	97.916303 
3182.000000	97.919615 
3181.000000	97.919903 
3180.000000	97.921234 
3179.000000	97.926286 
3178.000000	97.934554 
3177.000000	97.943438 
3176.000000	97.950619 
3175.000000	97.955468 
3174.000000	97.958784 
3173.000000	97.961778 
3172.000000	97.965255 
3171.000000	97.969451 
3170.000000	97.974349 
3169.000000	97.979794 
3168.000000	97.985097 
3167.000000	97.988926 
3166.000000	97.990238 
3165.000000	97.989567 
3164.000000	97.989061 
3163.000000	97.991073 
3162.000000	97.996409 
3161.000000	98.003619 
3160.000000	98.009858 
3159.000000	98.012821 
3158.000000	98.012546 
3157.000000	98.011544 
3156.000000	98.012765 
3155.000000	98.017032 
3154.000000	98.022417 
3153.000000	98.026143 
3152.000000	98.026992 
3151.000000	98.026016 
3150.000000	98.025332 
3149.000000	98.026472 
3148.000000	98.029650 
3147.000000	98.034204 
3146.000000	98.039456 
3145.000000	98.044980 
3144.000000	98.050121 
3143.000000	98.053875 
3142.000000	98.055904 
3141.000000	98.057494 
3140.000000	98.060524 
3139.000000	98.065093 
3138.000000	98.068978 
3137.000000	98.069999 
3136.000000	98.068524 
3135.000000	98.067261 
3134.000000	98.068843 
3133.000000	98.073870 
3132.000000	98.080834 
3131.000000	98.087374 
3130.000000	98.091703 
3129.000000	98.093482 
3128.000000	98.093855 
3127.000000	98.094553 
3126.000000	98.096453 
3125.000000	98.098960 
3124.000000	98.101067 
3123.000000	98.102836 
3122.000000	98.105206 
3121.000000	98.108477 
3120.000000	98.111696 
3119.000000	98.113982 
3118.000000	98.116068 
3117.000000	98.119660 
3116.000000	98.125221 
3115.000000	98.131219 
3114.000000	98.135863 
3113.000000	98.138937 
3112.000000	98.141554 
3111.000000	98.144523 
3110.000000	98.147388 
3109.000000	98.148939 
3108.000000	98.148690 
3107.000000	98.148036 
3106.000000	98.149557 
3105.000000	98.154423 
3104.000000	98.160655 
3103.000000	98.164795 
3102.000000	98.165534 
3101.000000	98.165042 
3100.000000	98.166107 
3099.000000	98.168778 
3098.000000	98.170890 
3097.000000	98.171224 
3096.000000	98.170881 
3095.000000	98.171738 
3094.000000	98.174806 
3093.000000	98.180023 
3092.000000	98.186296 
3091.000000	98.191469 
3090.000000	98.193646 
3089.000000	98.193282 
3088.000000	98.193110 
3087.000000	98.195313 
3086.000000	98.199440 
3085.000000	98.203567 
3084.000000	98.206614 
3083.000000	98.208712 
3082.000000	98.210126 
3081.000000	98.211044 
3080.000000	98.212175 
3079.000000	98.214537 
3078.000000	98.218448 
3077.000000	98.223031 
3076.000000	98.226726 
3075.000000	98.228258 
3074.000000	98.227492 
3073.000000	98.225649 
3072.000000	98.224498 
3071.000000	98.224924 
3070.000000	98.226438 
3069.000000	98.228161 
3068.000000	98.229813 
3067.000000	98.231492 
3066.000000	98.233103 
3065.000000	98.234591 
3064.000000	98.236399 
3063.000000	98.239069 
3062.000000	98.242536 
3061.000000	98.246137 
3060.000000	98.249133 
3059.000000	98.251236 
3058.000000	98.253012 
3057.000000	98.255715 
3056.000000	98.259892 
3055.000000	98.264086 
3054.000000	98.266022 
3053.000000	98.265474 
3052.000000	98.265068 
3051.000000	98.267611 
3050.000000	98.273413 
3049.000000	98.280801 
3048.000000	98.288090 
3047.000000	98.294095 
3046.000000	98.297671 
3045.000000	98.298278 
3044.000000	98.296873 
3043.000000	98.295300 
3042.000000	98.294890 
3041.000000	98.295995 
3040.000000	98.298090 
3039.000000	98.299684 
3038.000000	98.298966 
3037.000000	98.295833 
3036.000000	98.292863 
3035.000000	98.292974 
3034.000000	98.296266 
3033.000000	98.300088 
3032.000000	98.302013 
3031.000000	98.301912 
3030.000000	98.301373 
3029.000000	98.302186 
3028.000000	98.305358 
3027.000000	98.310530 
3026.000000	98.315995 
3025.000000	98.319892 
3024.000000	98.321607 
3023.000000	98.321578 
3022.000000	98.319987 
3021.000000	98.316661 
3020.000000	98.312457 
3019.000000	98.309726 
3018.000000	98.310663 
3017.000000	98.315363 
3016.000000	98.321554 
3015.000000	98.326087 
3014.000000	98.327099 
3013.000000	98.325460 
3012.000000	98.323985 
3011.000000	98.324512 
3010.000000	98.325840 
3009.000000	98.325250 
3008.000000	98.321915 
3007.000000	98.318023 
3006.000000	98.316448 
3005.000000	98.317965 
3004.000000	98.320772 
3003.000000	98.322017 
3002.000000	98.319756 
3001.000000	98.314409 
3000.000000	98.308815 
2999.000000	98.306129 
2998.000000	98.307152 
2997.000000	98.309998 
2996.000000	98.312467 
2995.000000	98.314066 
2994.000000	98.315211 
2993.000000	98.315263 
2992.000000	98.312624 
2991.000000	98.306938 
2990.000000	98.300470 
2989.000000	98.296722 
2988.000000	98.297719 
2987.000000	98.302763 
2986.000000	98.309479 
2985.000000	98.315506 
2984.000000	98.319216 
2983.000000	98.319827 
2982.000000	98.317751 
2981.000000	98.314659 
2980.000000	98.312385 
2979.000000	98.311451 
2978.000000	98.311002 
2977.000000	98.310059 
2976.000000	98.308227 
2975.000000	98.305266 
2974.000000	98.301076 
2973.000000	98.296541 
2972.000000	98.293525 
2971.000000	98.293224 
2970.000000	98.295008 
2969.000000	98.297371 
2968.000000	98.299375 
2967.000000	98.300535 
2966.000000	98.300148 
2965.000000	98.297946 
2964.000000	98.295131 
2963.000000	98.293599 
2962.000000	98.293906 
2961.000000	98.294665 
2960.000000	98.294158 
2959.000000	98.292116 
2958.000000	98.290001 
2957.000000	98.289924 
2956.000000	98.293123 
2955.000000	98.298962 
2954.000000	98.305477 
2953.000000	98.311271 
2952.000000	98.316508 
2951.000000	98.321589 
2950.000000	98.325415 
2949.000000	98.326132 
2948.000000	98.323689 
2947.000000	98.320716 
2946.000000	98.320340 
2945.000000	98.323417 
2944.000000	98.327959 
2943.000000	98.330840 
2942.000000	98.330096 
2941.000000	98.326106 
2940.000000	98.320787 
2939.000000	98.315457 
2938.000000	98.309716 
2937.000000	98.302775 
2936.000000	98.295381 
2935.000000	98.289409 
2934.000000	98.285468 
2933.000000	98.281965 
2932.000000	98.276954 
2931.000000	98.270110 
2930.000000	98.262342 
2929.000000	98.254213 
2928.000000	98.245748 
2927.000000	98.237610 
2926.000000	98.231434 
2925.000000	98.228370 
2924.000000	98.227643 
2923.000000	98.227165 
2922.000000	98.225655 
2921.000000	98.223651 
2920.000000	98.222056 
2919.000000	98.220405 
2918.000000	98.217793 
2917.000000	98.215674 
2916.000000	98.218264 
2915.000000	98.228793 
2914.000000	98.245689 
2913.000000	98.263642 
2912.000000	98.278484 
2911.000000	98.290081 
2910.000000	98.300397 
2909.000000	98.310128 
2908.000000	98.318129 
2907.000000	98.323393 
2906.000000	98.326473 
2905.000000	98.328810 
2904.000000	98.331394 
2903.000000	98.334607 
2902.000000	98.338937 
2901.000000	98.345134 
2900.000000	98.353336 
2899.000000	98.362169 
2898.000000	98.369380 
2897.000000	98.373633 
2896.000000	98.375439 
2895.000000	98.376114 
2894.000000	98.376270 
2893.000000	98.375812 
2892.000000	98.375226 
2891.000000	98.376108 
2890.000000	98.380042 
2889.000000	98.387095 
2888.000000	98.395475 
2887.000000	98.402652 
2886.000000	98.406956 
2885.000000	98.408471 
2884.000000	98.408575 
2883.000000	98.408771 
2882.000000	98.410048 
2881.000000	98.412940 
2880.000000	98.417270 
2879.000000	98.421510 
2878.000000	98.423313 
2877.000000	98.421725 
2876.000000	98.418654 
2875.000000	98.417332 
2874.000000	98.419313 
2873.000000	98.423453 
2872.000000	98.427595 
2871.000000	98.430432 
2870.000000	98.431754 
2869.000000	98.431920 
2868.000000	98.431632 
2867.000000	98.431694 
2866.000000	98.432506 
2865.000000	98.433874 
2864.000000	98.435351 
2863.000000	98.436429 
2862.000000	98.436538 
2861.000000	98.435492 
2860.000000	98.433978 
2859.000000	98.432852 
2858.000000	98.431678 
2857.000000	98.428789 
2856.000000	98.423265 
2855.000000	98.416230 
2854.000000	98.409562 
2853.000000	98.403899 
2852.000000	98.398840 
2851.000000	98.394946 
2850.000000	98.394445 
2849.000000	98.399439 
2848.000000	98.409888 
2847.000000	98.423813 
2846.000000	98.439073 
2845.000000	98.454260 
2844.000000	98.468095 
2843.000000	98.479145 
2842.000000	98.486992 
2841.000000	98.493167 
2840.000000	98.499739 
2839.000000	98.506765 
2838.000000	98.512040 
2837.000000	98.513888 
2836.000000	98.513436 
2835.000000	98.513430 
2834.000000	98.515384 
2833.000000	98.518786 
2832.000000	98.522707 
2831.000000	98.526911 
2830.000000	98.531165 
2829.000000	98.534561 
2828.000000	98.536260 
2827.000000	98.536523 
2826.000000	98.536472 
2825.000000	98.537056 
2824.000000	98.538522 
2823.000000	98.540601 
2822.000000	98.542838 
2821.000000	98.544859 
2820.000000	98.546573 
2819.000000	98.548117 
2818.000000	98.549571 
2817.000000	98.550941 
2816.000000	98.552457 
2815.000000	98.554564 
2814.000000	98.557397 
2813.000000	98.560521 
2812.000000	98.563460 
2811.000000	98.566314 
2810.000000	98.569572 
2809.000000	98.573342 
2808.000000	98.576981 
2807.000000	98.579520 
2806.000000	98.580434 
2805.000000	98.579984 
2804.000000	98.578848 
2803.000000	98.577407 
2802.000000	98.575532 
2801.000000	98.573232 
2800.000000	98.571330 
2799.000000	98.571066 
2798.000000	98.572843 
2797.000000	98.575674 
2796.000000	98.578186 
2795.000000	98.580003 
2794.000000	98.581760 
2793.000000	98.583768 
2792.000000	98.585102 
2791.000000	98.584310 
2790.000000	98.580920 
2789.000000	98.576043 
2788.000000	98.571652 
2787.000000	98.569572 
2786.000000	98.570925 
2785.000000	98.575697 
2784.000000	98.582327 
2783.000000	98.588257 
2782.000000	98.591754 
2781.000000	98.593224 
2780.000000	98.594237 
2779.000000	98.595422 
2778.000000	98.596070 
2777.000000	98.595806 
2776.000000	98.595574 
2775.000000	98.596431 
2774.000000	98.598128 
2773.000000	98.599636 
2772.000000	98.600577 
2771.000000	98.601357 
2770.000000	98.602228 
2769.000000	98.603043 
2768.000000	98.603796 
2767.000000	98.604619 
2766.000000	98.605184 
2765.000000	98.604792 
2764.000000	98.603316 
2763.000000	98.601706 
2762.000000	98.601356 
2761.000000	98.603044 
2760.000000	98.606307 
2759.000000	98.609666 
2758.000000	98.611786 
2757.000000	98.612763 
2756.000000	98.613828 
2755.000000	98.615318 
2754.000000	98.615667 
2753.000000	98.613453 
2752.000000	98.610019 
2751.000000	98.608604 
2750.000000	98.610671 
2749.000000	98.614403 
2748.000000	98.617365 
2747.000000	98.619358 
2746.000000	98.621669 
2745.000000	98.624500 
2744.000000	98.626524 
2743.000000	98.626702 
2742.000000	98.625401 
2741.000000	98.623773 
2740.000000	98.623027 
2739.000000	98.624309 
2738.000000	98.628068 
2737.000000	98.632904 
2736.000000	98.635869 
2735.000000	98.634897 
2734.000000	98.630944 
2733.000000	98.627165 
2732.000000	98.625970 
2731.000000	98.627315 
2730.000000	98.629808 
2729.000000	98.632710 
2728.000000	98.636172 
2727.000000	98.639832 
2726.000000	98.642200 
2725.000000	98.642067 
2724.000000	98.640133 
2723.000000	98.638527 
2722.000000	98.638674 
2721.000000	98.640172 
2720.000000	98.641932 
2719.000000	98.643817 
2718.000000	98.646627 
2717.000000	98.650631 
2716.000000	98.654624 
2715.000000	98.656611 
2714.000000	98.655432 
2713.000000	98.651948 
2712.000000	98.648770 
2711.000000	98.648458 
2710.000000	98.651382 
2709.000000	98.655216 
2708.000000	98.656846 
2707.000000	98.654991 
2706.000000	98.650964 
2705.000000	98.647062 
2704.000000	98.644643 
2703.000000	98.643724 
2702.000000	98.643791 
2701.000000	98.644456 
2700.000000	98.645512 
2699.000000	98.646856 
2698.000000	98.648426 
2697.000000	98.649950 
2696.000000	98.650825 
2695.000000	98.650593 
2694.000000	98.649602 
2693.000000	98.648898 
2692.000000	98.649332 
2691.000000	98.650851 
2690.000000	98.652533 
2689.000000	98.653025 
2688.000000	98.651207 
2687.000000	98.647175 
2686.000000	98.642776 
2685.000000	98.640375 
2684.000000	98.640549 
2683.000000	98.641553 
2682.000000	98.641711 
2681.000000	98.641712 
2680.000000	98.643616 
2679.000000	98.648037 
2678.000000	98.653563 
2677.000000	98.658874 
2676.000000	98.663895 
2675.000000	98.668327 
2674.000000	98.670532 
2673.000000	98.669276 
2672.000000	98.665871 
2671.000000	98.663118 
2670.000000	98.662148 
2669.000000	98.661416 
2668.000000	98.659042 
2667.000000	98.655136 
2666.000000	98.651282 
2665.000000	98.648381 
2664.000000	98.645658 
2663.000000	98.641678 
2662.000000	98.636028 
2661.000000	98.630071 
2660.000000	98.626134 
2659.000000	98.625641 
2658.000000	98.627727 
2657.000000	98.629724 
2656.000000	98.629224 
2655.000000	98.625738 
2654.000000	98.620597 
2653.000000	98.615685 
2652.000000	98.612457 
2651.000000	98.611616 
2650.000000	98.612883 
2649.000000	98.614884 
2648.000000	98.615726 
2647.000000	98.614205 
2646.000000	98.610534 
2645.000000	98.605873 
2644.000000	98.601293 
2643.000000	98.597357 
2642.000000	98.594459 
2641.000000	98.593112 
2640.000000	98.593741 
2639.000000	98.596374 
2638.000000	98.600460 
2637.000000	98.604701 
2636.000000	98.607190 
2635.000000	98.606420 
2634.000000	98.602578 
2633.000000	98.597505 
2632.000000	98.593075 
2631.000000	98.590038 
2630.000000	98.588623 
2629.000000	98.589230 
2628.000000	98.591435 
2627.000000	98.593003 
2626.000000	98.591711 
2625.000000	98.588566 
2624.000000	98.587770 
2623.000000	98.592532 
2622.000000	98.601452 
2621.000000	98.609670 
2620.000000	98.613065 
2619.000000	98.611100 
2618.000000	98.606647 
2617.000000	98.603937 
2616.000000	98.605711 
2615.000000	98.610914 
2614.000000	98.615370 
2613.000000	98.615891 
2612.000000	98.613736 
2611.000000	98.612946 
2610.000000	98.615276 
2609.000000	98.618160 
2608.000000	98.618243 
2607.000000	98.615674 
2606.000000	98.613615 
2605.000000	98.614005 
2604.000000	98.615265 
2603.000000	98.614568 
2602.000000	98.611264 
2601.000000	98.607213 
2600.000000	98.604400 
2599.000000	98.603396 
2598.000000	98.604123 
2597.000000	98.606707 
2596.000000	98.610729 
2595.000000	98.614453 
2594.000000	98.616007 
2593.000000	98.615322 
2592.000000	98.614279 
2591.000000	98.615028 
2590.000000	98.618505 
2589.000000	98.623862 
2588.000000	98.628440 
2587.000000	98.629022 
2586.000000	98.624869 
2585.000000	98.619647 
2584.000000	98.618742 
2583.000000	98.623926 
2582.000000	98.631533 
2581.000000	98.636175 
2580.000000	98.635301 
2579.000000	98.630130 
2578.000000	98.623926 
2577.000000	98.620218 
2576.000000	98.621084 
2575.000000	98.625640 
2574.000000	98.630841 
2573.000000	98.634731 
2572.000000	98.638101 
2571.000000	98.642142 
2570.000000	98.645712 
2569.000000	98.646394 
2568.000000	98.643635 
2567.000000	98.639496 
2566.000000	98.636725 
2565.000000	98.637091 
2564.000000	98.640715 
2563.000000	98.645591 
2562.000000	98.648332 
2561.000000	98.647157 
2560.000000	98.644072 
2559.000000	98.642677 
2558.000000	98.643798 
2557.000000	98.644744 
2556.000000	98.643177 
2555.000000	98.640493 
2554.000000	98.640658 
2553.000000	98.646065 
2552.000000	98.654663 
2551.000000	98.660994 
2550.000000	98.660606 
2549.000000	98.654141 
2548.000000	98.646611 
2547.000000	98.642093 
2546.000000	98.640109 
2545.000000	98.638189 
2544.000000	98.636471 
2543.000000	98.637413 
2542.000000	98.641519 
2541.000000	98.646137 
2540.000000	98.649174 
2539.000000	98.651684 
2538.000000	98.655415 
2537.000000	98.659302 
2536.000000	98.660068 
2535.000000	98.655819 
2534.000000	98.648214 
2533.000000	98.641627 
2532.000000	98.640630 
2531.000000	98.647076 
2530.000000	98.658250 
2529.000000	98.668280 
2528.000000	98.672730 
2527.000000	98.672168 
2526.000000	98.670753 
2525.000000	98.671359 
2524.000000	98.672674 
2523.000000	98.671251 
2522.000000	98.665889 
2521.000000	98.659414 
2520.000000	98.656008 
2519.000000	98.657204 
2518.000000	98.660933 
2517.000000	98.664170 
2516.000000	98.665619 
2515.000000	98.665730 
2514.000000	98.665325 
2513.000000	98.665041 
2512.000000	98.665108 
2511.000000	98.664482 
2510.000000	98.661027 
2509.000000	98.654276 
2508.000000	98.647752 
2507.000000	98.646582 
2506.000000	98.652139 
2505.000000	98.660142 
2504.000000	98.664715 
2503.000000	98.663655 
2502.000000	98.659500 
2501.000000	98.656574 
2500.000000	98.657517 
2499.000000	98.661767 
2498.000000	98.666644 
2497.000000	98.670140 
2496.000000	98.672655 
2495.000000	98.675249 
2494.000000	98.676488 
2493.000000	98.672966 
2492.000000	98.663963 
2491.000000	98.654031 
2490.000000	98.649180 
2489.000000	98.650936 
2488.000000	98.655535 
2487.000000	98.658518 
2486.000000	98.658501 
2485.000000	98.656640 
2484.000000	98.654609 
2483.000000	98.654302 
2482.000000	98.657875 
2481.000000	98.665817 
2480.000000	98.674975 
2479.000000	98.680404 
2478.000000	98.680313 
2477.000000	98.678308 
2476.000000	98.679470 
2475.000000	98.684333 
2474.000000	98.687948 
2473.000000	98.685399 
2472.000000	98.677670 
2471.000000	98.671420 
2470.000000	98.672885 
2469.000000	98.681750 
2468.000000	98.690749 
2467.000000	98.691902 
2466.000000	98.684332 
2465.000000	98.675864 
2464.000000	98.675202 
2463.000000	98.681882 
2462.000000	98.685627 
2461.000000	98.677296 
2460.000000	98.659495 
2459.000000	98.644414 
2458.000000	98.641569 
2457.000000	98.649438 
2456.000000	98.658896 
2455.000000	98.662550 
2454.000000	98.660071 
2453.000000	98.656482 
2452.000000	98.656957 
2451.000000	98.662297 
2450.000000	98.667951 
2449.000000	98.667849 
2448.000000	98.660336 
2447.000000	98.650107 
2446.000000	98.643483 
2445.000000	98.642373 
2444.000000	98.643906 
2443.000000	98.645397 
2442.000000	98.647797 
2441.000000	98.653725 
2440.000000	98.663506 
2439.000000	98.674183 
2438.000000	98.681845 
2437.000000	98.684191 
2436.000000	98.681607 
2435.000000	98.677067 
2434.000000	98.674900 
2433.000000	98.678171 
2432.000000	98.686107 
2431.000000	98.694361 
2430.000000	98.698572 
2429.000000	98.697955 
2428.000000	98.695354 
2427.000000	98.694002 
2426.000000	98.694533 
2425.000000	98.694972 
2424.000000	98.693145 
2423.000000	98.689029 
2422.000000	98.685024 
2421.000000	98.684046 
2420.000000	98.687187 
2419.000000	98.693178 
2418.000000	98.699945 
2417.000000	98.706252 
2416.000000	98.711645 
2415.000000	98.715393 
2414.000000	98.716268 
2413.000000	98.713540 
2412.000000	98.708126 
2411.000000	98.703002 
2410.000000	98.702254 
2409.000000	98.708302 
2408.000000	98.718876 
2407.000000	98.727719 
2406.000000	98.730010 
2405.000000	98.727042 
2404.000000	98.724207 
2403.000000	98.724789 
2402.000000	98.727639 
2401.000000	98.730773 
2400.000000	98.734478 
2399.000000	98.739505 
2398.000000	98.744339 
2397.000000	98.746557 
2396.000000	98.746035 
2395.000000	98.744781 
2394.000000	98.743806 
2393.000000	98.741938 
2392.000000	98.738071 
2391.000000	98.733342 
2390.000000	98.730437 
2389.000000	98.731227 
2388.000000	98.735337 
2387.000000	98.740834 
2386.000000	98.746348 
2385.000000	98.752645 
2384.000000	98.761959 
2383.000000	98.775638 
2382.000000	98.792732 
2381.000000	98.810712 
2380.000000	98.826730 
2379.000000	98.838032 
2378.000000	98.842672 
2377.000000	98.841194 
2376.000000	98.836754 
2375.000000	98.832755 
2374.000000	98.830434 
2373.000000	98.829140 
2372.000000	98.828337 
2371.000000	98.828306 
2370.000000	98.829854 
2369.000000	98.834152 
2368.000000	98.841420 
2367.000000	98.848605 
2366.000000	98.850606 
2365.000000	98.846325 
2364.000000	98.840298 
2363.000000	98.836639 
2362.000000	98.836774 
2361.000000	98.839290 
2360.000000	98.841698 
2359.000000	98.844041 
2358.000000	98.846138 
2357.000000	98.849027 
2356.000000	98.852937 
2355.000000	98.856297 
2354.000000	98.859339 
2353.000000	98.863020 
2352.000000	98.870931 
2351.000000	98.879290 
2350.000000	98.878239 
2349.000000	98.864160 
2348.000000	98.843545 
2347.000000	98.830223 
2346.000000	98.827050 
2345.000000	98.826908 
2344.000000	98.822866 
2343.000000	98.814512 
2342.000000	98.808784 
2341.000000	98.805993 
2340.000000	98.804381 
2339.000000	98.802687 
2338.000000	98.803509 
2337.000000	98.807737 
2336.000000	98.812469 
2335.000000	98.814118 
2334.000000	98.812834 
2333.000000	98.810321 
2332.000000	98.808373 
2331.000000	98.806339 
2330.000000	98.800843 
2329.000000	98.789679 
2328.000000	98.766493 
2327.000000	98.732357 
2326.000000	98.690974 
2325.000000	98.654573 
2324.000000	98.633913 
2323.000000	98.632319 
2322.000000	98.643960 
2321.000000	98.656965 
2320.000000	98.666057 
2319.000000	98.671999 
2318.000000	98.678123 
2317.000000	98.684085 
2316.000000	98.688496 
2315.000000	98.693188 
2314.000000	98.700126 
2313.000000	98.708810 
2312.000000	98.713495 
2311.000000	98.711322 
2310.000000	98.703217 
2309.000000	98.695396 
2308.000000	98.691479 
2307.000000	98.691985 
2306.000000	98.692933 
2305.000000	98.691585 
2304.000000	98.687679 
2303.000000	98.683734 
2302.000000	98.680969 
2301.000000	98.678903 
2300.000000	98.675488 
2299.000000	98.669877 
2298.000000	98.661832 
2297.000000	98.653313 
2296.000000	98.646129 
2295.000000	98.641094 
2294.000000	98.635036 
2293.000000	98.624714 
2292.000000	98.610044 
2291.000000	98.595481 
2290.000000	98.584993 
2289.000000	98.579320 
2288.000000	98.577037 
2287.000000	98.577384 
2286.000000	98.580370 
2285.000000	98.585354 
2284.000000	98.590778 
2283.000000	98.594245 
2282.000000	98.593467 
2281.000000	98.588380 
2280.000000	98.583648 
2279.000000	98.586053 
2278.000000	98.598598 
2277.000000	98.617658 
2276.000000	98.637203 
2275.000000	98.653617 
2274.000000	98.665513 
2273.000000	98.671833 
2272.000000	98.672441 
2271.000000	98.669240 
2270.000000	98.663991 
2269.000000	98.656552 
2268.000000	98.647280 
2267.000000	98.639810 
2266.000000	98.638552 
2265.000000	98.643801 
2264.000000	98.651262 
2263.000000	98.656307 
2262.000000	98.656504 
2261.000000	98.651372 
2260.000000	98.642423 
2259.000000	98.633409 
2258.000000	98.628237 
2257.000000	98.627503 
2256.000000	98.629135 
2255.000000	98.632002 
2254.000000	98.637006 
2253.000000	98.643963 
2252.000000	98.650372 
2251.000000	98.654982 
2250.000000	98.660123 
2249.000000	98.667934 
2248.000000	98.675280 
2247.000000	98.675799 
2246.000000	98.667828 
2245.000000	98.657779 
2244.000000	98.653310 
2243.000000	98.654715 
2242.000000	98.655623 
2241.000000	98.651474 
2240.000000	98.644327 
2239.000000	98.639351 
2238.000000	98.640256 
2237.000000	98.649331 
2236.000000	98.667686 
2235.000000	98.691742 
2234.000000	98.711711 
2233.000000	98.717730 
2232.000000	98.707705 
2231.000000	98.687445 
2230.000000	98.665367 
2229.000000	98.649580 
2228.000000	98.646398 
2227.000000	98.655792 
2226.000000	98.669132 
2225.000000	98.676552 
2224.000000	98.676711 
2223.000000	98.674981 
2222.000000	98.673315 
2221.000000	98.668435 
2220.000000	98.660259 
2219.000000	98.654885 
2218.000000	98.656771 
2217.000000	98.663810 
2216.000000	98.672485 
2215.000000	98.681837 
2214.000000	98.689441 
2213.000000	98.690588 
2212.000000	98.686612 
2211.000000	98.687503 
2210.000000	98.698985 
2209.000000	98.711162 
2208.000000	98.708134 
2207.000000	98.687738 
2206.000000	98.664907 
2205.000000	98.655850 
2204.000000	98.664160 
2203.000000	98.682199 
2202.000000	98.699935 
2201.000000	98.710445 
2200.000000	98.711183 
2199.000000	98.703039 
2198.000000	98.688087 
2197.000000	98.668974 
2196.000000	98.651101 
2195.000000	98.642316 
2194.000000	98.646585 
2193.000000	98.658847 
2192.000000	98.669645 
2191.000000	98.674320 
2190.000000	98.674396 
2189.000000	98.671575 
2188.000000	98.665451 
2187.000000	98.657337 
2186.000000	98.651128 
2185.000000	98.648215 
2184.000000	98.645405 
2183.000000	98.641111 
2182.000000	98.641126 
2181.000000	98.654124 
2180.000000	98.680913 
2179.000000	98.710501 
2178.000000	98.727888 
2177.000000	98.725824 
2176.000000	98.709541 
2175.000000	98.690553 
2174.000000	98.677042 
2173.000000	98.670705 
2172.000000	98.669837 
2171.000000	98.671384 
2170.000000	98.670585 
2169.000000	98.663945 
2168.000000	98.655063 
2167.000000	98.653005 
2166.000000	98.660252 
2165.000000	98.664789 
2164.000000	98.650937 
2163.000000	98.620118 
2162.000000	98.597125 
2161.000000	98.612634 
2160.000000	98.677428 
2159.000000	98.771887 
2158.000000	98.860547 
2157.000000	98.917998 
2156.000000	98.940980 
2155.000000	98.938867 
2154.000000	98.920785 
2153.000000	98.894041 
2152.000000	98.867206 
2151.000000	98.847543 
2150.000000	98.836816 
2149.000000	98.834278 
2148.000000	98.842329 
2147.000000	98.863008 
2146.000000	98.888197 
2145.000000	98.900568 
2144.000000	98.889235 
2143.000000	98.860915 
2142.000000	98.832471 
2141.000000	98.815734 
2140.000000	98.811982 
2139.000000	98.817537 
2138.000000	98.829722 
2137.000000	98.847605 
2136.000000	98.870271 
2135.000000	98.894985 
2134.000000	98.916131 
2133.000000	98.927329 
2132.000000	98.926249 
2131.000000	98.916329 
2130.000000	98.902904 
2129.000000	98.888800 
2128.000000	98.874088 
2127.000000	98.858694 
2126.000000	98.844117 
2125.000000	98.832950 
2124.000000	98.826661 
2123.000000	98.823013 
2122.000000	98.816428 
2121.000000	98.803076 
2120.000000	98.785835 
2119.000000	98.772182 
2118.000000	98.767101 
2117.000000	98.769884 
2116.000000	98.776913 
2115.000000	98.783809 
2114.000000	98.784806 
2113.000000	98.775554 
2112.000000	98.759580 
2111.000000	98.747714 
2110.000000	98.747232 
2109.000000	98.754310 
2108.000000	98.760534 
2107.000000	98.763351 
2106.000000	98.765309 
2105.000000	98.766391 
2104.000000	98.764016 
2103.000000	98.759811 
2102.000000	98.759353 
2101.000000	98.763685 
2100.000000	98.767010 
2099.000000	98.765546 
2098.000000	98.764399 
2097.000000	98.771833 
2096.000000	98.788962 
2095.000000	98.808188 
2094.000000	98.820044 
2093.000000	98.819409 
2092.000000	98.807233 
2091.000000	98.789584 
2090.000000	98.774689 
2089.000000	98.767873 
2088.000000	98.768037 
2087.000000	98.769901 
2086.000000	98.769347 
2085.000000	98.765429 
2084.000000	98.758235 
2083.000000	98.747655 
2082.000000	98.735671 
2081.000000	98.727787 
2080.000000	98.729271 
2079.000000	98.739493 
2078.000000	98.751727 
2077.000000	98.759201 
2076.000000	98.760562 
2075.000000	98.759264 
2074.000000	98.759028 
2073.000000	98.761457 
2072.000000	98.765988 
2071.000000	98.769658 
2070.000000	98.767980 
2069.000000	98.758671 
2068.000000	98.744799 
2067.000000	98.732563 
2066.000000	98.726478 
2065.000000	98.727985 
2064.000000	98.736766 
2063.000000	98.750181 
2062.000000	98.762149 
2061.000000	98.766899 
2060.000000	98.765056 
2059.000000	98.762877 
2058.000000	98.764704 
2057.000000	98.769305 
2056.000000	98.773442 
2055.000000	98.773972 
2054.000000	98.765251 
2053.000000	98.741643 
2052.000000	98.707810 
2051.000000	98.682552 
2050.000000	98.686260 
2049.000000	98.722227 
2048.000000	98.772035 
2047.000000	98.811502 
2046.000000	98.828620 
2045.000000	98.826573 
2044.000000	98.815878 
2043.000000	98.806215 
2042.000000	98.802392 
2041.000000	98.803917 
2040.000000	98.806836 
2039.000000	98.806929 
2038.000000	98.803325 
2037.000000	98.801150 
2036.000000	98.809122 
2035.000000	98.830331 
2034.000000	98.855186 
2033.000000	98.868276 
2032.000000	98.864345 
2031.000000	98.852860 
2030.000000	98.845129 
2029.000000	98.842973 
2028.000000	98.841928 
2027.000000	98.839881 
2026.000000	98.837346 
2025.000000	98.833831 
2024.000000	98.829607 
2023.000000	98.828565 
2022.000000	98.834619 
2021.000000	98.845718 
2020.000000	98.855593 
2019.000000	98.861455 
2018.000000	98.866912 
2017.000000	98.877131 
2016.000000	98.892804 
2015.000000	98.908921 
2014.000000	98.918112 
2013.000000	98.915897 
2012.000000	98.904233 
2011.000000	98.889809 
2010.000000	98.879466 
2009.000000	98.878702 
2008.000000	98.891202 
2007.000000	98.913884 
2006.000000	98.932315 
2005.000000	98.929493 
2004.000000	98.903833 
2003.000000	98.872752 
2002.000000	98.856105 
2001.000000	98.858718 
2000.000000	98.871377 
1999.000000	98.883063 
1998.000000	98.887287 
1997.000000	98.881849 
1996.000000	98.868934 
1995.000000	98.854493 
1994.000000	98.843458 
1993.000000	98.835674 
1992.000000	98.828192 
1991.000000	98.820801 
1990.000000	98.816301 
1989.000000	98.815372 
1988.000000	98.813991 
1987.000000	98.807116 
1986.000000	98.794281 
1985.000000	98.780101 
1984.000000	98.768020 
1983.000000	98.754141 
1982.000000	98.732141 
1981.000000	98.706757 
1980.000000	98.698886 
1979.000000	98.728507 
1978.000000	98.791569 
1977.000000	98.861143 
1976.000000	98.913115 
1975.000000	98.942131 
1974.000000	98.951731 
1973.000000	98.943999 
1972.000000	98.923988 
1971.000000	98.902665 
1970.000000	98.888474 
1969.000000	98.881771 
1968.000000	98.880776 
1967.000000	98.886438 
1966.000000	98.897034 
1965.000000	98.904587 
1964.000000	98.902907 
1963.000000	98.895052 
1962.000000	98.889164 
1961.000000	98.890528 
1960.000000	98.899824 
1959.000000	98.914311 
1958.000000	98.927271 
1957.000000	98.930676 
1956.000000	98.922585 
1955.000000	98.909523 
1954.000000	98.898955 
1953.000000	98.893406 
1952.000000	98.892529 
1951.000000	98.896277 
1950.000000	98.901925 
1949.000000	98.901199 
1948.000000	98.888067 
1947.000000	98.867927 
1946.000000	98.853281 
1945.000000	98.850760 
1944.000000	98.855584 
1943.000000	98.858133 
1942.000000	98.853157 
1941.000000	98.843304 
1940.000000	98.835902 
1939.000000	98.836160 
1938.000000	98.842644 
1937.000000	98.849878 
1936.000000	98.855331 
1935.000000	98.860832 
1934.000000	98.865374 
1933.000000	98.862214 
1932.000000	98.846786 
1931.000000	98.826047 
1930.000000	98.814195 
1929.000000	98.817305 
1928.000000	98.829965 
1927.000000	98.843668 
1926.000000	98.854492 
1925.000000	98.860083 
1924.000000	98.855633 
1923.000000	98.840259 
1922.000000	98.821745 
1921.000000	98.809719 
1920.000000	98.806670 
1919.000000	98.807539 
1918.000000	98.806516 
1917.000000	98.801205 
1916.000000	98.793272 
1915.000000	98.787413 
1914.000000	98.787465 
1913.000000	98.793321 
1912.000000	98.800091 
1911.000000	98.801731 
1910.000000	98.796302 
1909.000000	98.787092 
1908.000000	98.780612 
1907.000000	98.780038 
1906.000000	98.783292 
1905.000000	98.785905 
1904.000000	98.784924 
1903.000000	98.781905 
1902.000000	98.779095 
1901.000000	98.775699 
1900.000000	98.771380 
1899.000000	98.767818 
1898.000000	98.765933 
1897.000000	98.764099 
1896.000000	98.760924 
1895.000000	98.758857 
1894.000000	98.759975 
1893.000000	98.760518 
1892.000000	98.754816 
1891.000000	98.742818 
1890.000000	98.730905 
1889.000000	98.725384 
1888.000000	98.727223 
1887.000000	98.734166 
1886.000000	98.742980 
1885.000000	98.749723 
1884.000000	98.751951 
1883.000000	98.751398 
1882.000000	98.751099 
1881.000000	98.751043 
1880.000000	98.750538 
1879.000000	98.750509 
1878.000000	98.750931 
1877.000000	98.749187 
1876.000000	98.742743 
1875.000000	98.733982 
1874.000000	98.729438 
1873.000000	98.732053 
1872.000000	98.737299 
1871.000000	98.737681 
1870.000000	98.729469 
1869.000000	98.716135 
1868.000000	98.705462 
1867.000000	98.703185 
1866.000000	98.708652 
1865.000000	98.716136 
1864.000000	98.721025 
1863.000000	98.723807 
1862.000000	98.727304 
1861.000000	98.731915 
1860.000000	98.736027 
1859.000000	98.738989 
1858.000000	98.740762 
1857.000000	98.740567 
1856.000000	98.739138 
1855.000000	98.738919 
1854.000000	98.740242 
1853.000000	98.738889 
1852.000000	98.735037 
1851.000000	98.735592 
1850.000000	98.744425 
1849.000000	98.757813 
1848.000000	98.769604 
1847.000000	98.777553 
1846.000000	98.779920 
1845.000000	98.773263 
1844.000000	98.759969 
1843.000000	98.750020 
1842.000000	98.749954 
1841.000000	98.755970 
1840.000000	98.761210 
1839.000000	98.763010 
1838.000000	98.763467 
1837.000000	98.763418 
1836.000000	98.761683 
1835.000000	98.760301 
1834.000000	98.762293 
1833.000000	98.765843 
1832.000000	98.766554 
1831.000000	98.761376 
1830.000000	98.752421 
1829.000000	98.745924 
1828.000000	98.744837 
1827.000000	98.746627 
1826.000000	98.746348 
1825.000000	98.743002 
1824.000000	98.740344 
1823.000000	98.741488 
1822.000000	98.745354 
1821.000000	98.748136 
1820.000000	98.748644 
1819.000000	98.750129 
1818.000000	98.757090 
1817.000000	98.767886 
1816.000000	98.774786 
1815.000000	98.775468 
1814.000000	98.774470 
1813.000000	98.775424 
1812.000000	98.775201 
1811.000000	98.769120 
1810.000000	98.760494 
1809.000000	98.755017 
1808.000000	98.752748 
1807.000000	98.751728 
1806.000000	98.751668 
1805.000000	98.751270 
1804.000000	98.746634 
1803.000000	98.738020 
1802.000000	98.730371 
1801.000000	98.728318 
1800.000000	98.729859 
1799.000000	98.730121 
1798.000000	98.729839 
1797.000000	98.731972 
1796.000000	98.736398 
1795.000000	98.740789 
1794.000000	98.740811 
1793.000000	98.733220 
1792.000000	98.719604 
1791.000000	98.707300 
1790.000000	98.704579 
1789.000000	98.711976 
1788.000000	98.722633 
1787.000000	98.729802 
1786.000000	98.731589 
1785.000000	98.729948 
1784.000000	98.727563 
1783.000000	98.728977 
1782.000000	98.733804 
1781.000000	98.738504 
1780.000000	98.742111 
1779.000000	98.746049 
1778.000000	98.752175 
1777.000000	98.758507 
1776.000000	98.763216 
1775.000000	98.766327 
1774.000000	98.766287 
1773.000000	98.763287 
1772.000000	98.761513 
1771.000000	98.760978 
1770.000000	98.760313 
1769.000000	98.759223 
1768.000000	98.755743 
1767.000000	98.750273 
1766.000000	98.745681 
1765.000000	98.745229 
1764.000000	98.748546 
1763.000000	98.751821 
1762.000000	98.750524 
1761.000000	98.744198 
1760.000000	98.735395 
1759.000000	98.728235 
1758.000000	98.725356 
1757.000000	98.726478 
1756.000000	98.732023 
1755.000000	98.738928 
1754.000000	98.742539 
1753.000000	98.740259 
1752.000000	98.734491 
1751.000000	98.729945 
1750.000000	98.728610 
1749.000000	98.729275 
1748.000000	98.731366 
1747.000000	98.735153 
1746.000000	98.736497 
1745.000000	98.733143 
1744.000000	98.727420 
1743.000000	98.722192 
1742.000000	98.718668 
1741.000000	98.716447 
1740.000000	98.713401 
1739.000000	98.709403 
1738.000000	98.706621 
1737.000000	98.705847 
1736.000000	98.701600 
1735.000000	98.690800 
1734.000000	98.686744 
1733.000000	98.693008 
1732.000000	98.698528 
1731.000000	98.698865 
1730.000000	98.695185 
1729.000000	98.691057 
1728.000000	98.692102 
1727.000000	98.699369 
1726.000000	98.705680 
1725.000000	98.704614 
1724.000000	98.694806 
1723.000000	98.681542 
1722.000000	98.674834 
1721.000000	98.678865 
1720.000000	98.688285 
1719.000000	98.692995 
1718.000000	98.690544 
1717.000000	98.683278 
1716.000000	98.668686 
1715.000000	98.651656 
1714.000000	98.642441 
1713.000000	98.641247 
1712.000000	98.640040 
1711.000000	98.636834 
1710.000000	98.636571 
1709.000000	98.640203 
1708.000000	98.642697 
1707.000000	98.638721 
1706.000000	98.629188 
1705.000000	98.618811 
1704.000000	98.608721 
1703.000000	98.599166 
1702.000000	98.585485 
1701.000000	98.566944 
1700.000000	98.555462 
1699.000000	98.551122 
1698.000000	98.553926 
1697.000000	98.556754 
1696.000000	98.546016 
1695.000000	98.525790 
1694.000000	98.509356 
1693.000000	98.502247 
1692.000000	98.500188 
1691.000000	98.497593 
1690.000000	98.494243 
1689.000000	98.491214 
1688.000000	98.490649 
1687.000000	98.491425 
1686.000000	98.487044 
1685.000000	98.474266 
1684.000000	98.457395 
1683.000000	98.438068 
1682.000000	98.419663 
1681.000000	98.404766 
1680.000000	98.394569 
1679.000000	98.389484 
1678.000000	98.385193 
1677.000000	98.374927 
1676.000000	98.358387 
1675.000000	98.344156 
1674.000000	98.333331 
1673.000000	98.324425 
1672.000000	98.318531 
1671.000000	98.314726 
1670.000000	98.310107 
1669.000000	98.300892 
1668.000000	98.288987 
1667.000000	98.279009 
1666.000000	98.270198 
1665.000000	98.260485 
1664.000000	98.250510 
1663.000000	98.245482 
1662.000000	98.243928 
1661.000000	98.237384 
1660.000000	98.226361 
1659.000000	98.214855 
1658.000000	98.203068 
1657.000000	98.191537 
1656.000000	98.184377 
1655.000000	98.178838 
1654.000000	98.172487 
1653.000000	98.177157 
1652.000000	98.173257 
1651.000000	98.155366 
1650.000000	98.141899 
1649.000000	98.138450 
1648.000000	98.139070 
1647.000000	98.140074 
1646.000000	98.139036 
1645.000000	98.133764 
1644.000000	98.126233 
1643.000000	98.120955 
1642.000000	98.118448 
1641.000000	98.115359 
1640.000000	98.112390 
1639.000000	98.111609 
1638.000000	98.113687 
1637.000000	98.114822 
1636.000000	98.114247 
1635.000000	98.112505 
1634.000000	98.108499 
1633.000000	98.105814 
1632.000000	98.105610 
1631.000000	98.107293 
1630.000000	98.110730 
1629.000000	98.115800 
1628.000000	98.121838 
1627.000000	98.128889 
1626.000000	98.135530 
1625.000000	98.140547 
1624.000000	98.145763 
1623.000000	98.153676 
1622.000000	98.161277 
1621.000000	98.165584 
1620.000000	98.171328 
1619.000000	98.181622 
1618.000000	98.192808 
1617.000000	98.201122 
1616.000000	98.208898 
1615.000000	98.219721 
1614.000000	98.233073 
1613.000000	98.244944 
1612.000000	98.253337 
1611.000000	98.261698 
1610.000000	98.271464 
1609.000000	98.280634 
1608.000000	98.291048 
1607.000000	98.307195 
1606.000000	98.325676 
1605.000000	98.339214 
1604.000000	98.348400 
1603.000000	98.357481 
1602.000000	98.366731 
1601.000000	98.374095 
1600.000000	98.380660 
1599.000000	98.389289 
1598.000000	98.399675 
1597.000000	98.409974 
1596.000000	98.419860 
1595.000000	98.429303 
1594.000000	98.435965 
1593.000000	98.437828 
1592.000000	98.437618 
1591.000000	98.440508 
1590.000000	98.447694 
1589.000000	98.455889 
1588.000000	98.463102 
1587.000000	98.469691 
1586.000000	98.475022 
1585.000000	98.475981 
1584.000000	98.474994 
1583.000000	98.477959 
1582.000000	98.484615 
1581.000000	98.491146 
1580.000000	98.498507 
1579.000000	98.509102 
1578.000000	98.518836 
1577.000000	98.522701 
1576.000000	98.522973 
1575.000000	98.522329 
1574.000000	98.519944 
1573.000000	98.517800 
1572.000000	98.517586 
1571.000000	98.518442 
1570.000000	98.519665 
1569.000000	98.518458 
1568.000000	98.517412 
1567.000000	98.519849 
1566.000000	98.522874 
1565.000000	98.521961 
1564.000000	98.520173 
1563.000000	98.519570 
1562.000000	98.517444 
1561.000000	98.503676 
1560.000000	98.489217 
1559.000000	98.495861 
1558.000000	98.501679 
1557.000000	98.492055 
1556.000000	98.484103 
1555.000000	98.483155 
1554.000000	98.483304 
1553.000000	98.481996 
1552.000000	98.481040 
1551.000000	98.477811 
1550.000000	98.470856 
1549.000000	98.463621 
1548.000000	98.460637 
1547.000000	98.462539 
1546.000000	98.465051 
1545.000000	98.464879 
1544.000000	98.463426 
1543.000000	98.460868 
1542.000000	98.456266 
1541.000000	98.450331 
1540.000000	98.445643 
1539.000000	98.443975 
1538.000000	98.442456 
1537.000000	98.441527 
1536.000000	98.443164 
1535.000000	98.446724 
1534.000000	98.448908 
1533.000000	98.448077 
1532.000000	98.446014 
1531.000000	98.447042 
1530.000000	98.453336 
1529.000000	98.460407 
1528.000000	98.460988 
1527.000000	98.454239 
1526.000000	98.445786 
1525.000000	98.440923 
1524.000000	98.441604 
1523.000000	98.446717 
1522.000000	98.454411 
1521.000000	98.460003 
1520.000000	98.457783 
1519.000000	98.451527 
1518.000000	98.447782 
1517.000000	98.447768 
1516.000000	98.448808 
1515.000000	98.449681 
1514.000000	98.450958 
1513.000000	98.452945 
1512.000000	98.453405 
1511.000000	98.450695 
1510.000000	98.447618 
1509.000000	98.446406 
1508.000000	98.444538 
1507.000000	98.441337 
1506.000000	98.443216 
1505.000000	98.445559 
1504.000000	98.444497 
1503.000000	98.441816 
1502.000000	98.438120 
1501.000000	98.433835 
1500.000000	98.430065 
1499.000000	98.425993 
1498.000000	98.421079 
1497.000000	98.420468 
1496.000000	98.425783 
1495.000000	98.433243 
1494.000000	98.441002 
1493.000000	98.448088 
1492.000000	98.451155 
1491.000000	98.449230 
1490.000000	98.446962 
1489.000000	98.447817 
1488.000000	98.447593 
1487.000000	98.443574 
1486.000000	98.440067 
1485.000000	98.436741 
1484.000000	98.432171 
1483.000000	98.427161 
1482.000000	98.422525 
1481.000000	98.418398 
1480.000000	98.413321 
1479.000000	98.407136 
1478.000000	98.400502 
1477.000000	98.393590 
1476.000000	98.384463 
1475.000000	98.373911 
1474.000000	98.364171 
1473.000000	98.355564 
1472.000000	98.346694 
1471.000000	98.336784 
1470.000000	98.328371 
1469.000000	98.322198 
1468.000000	98.315108 
1467.000000	98.305891 
1466.000000	98.296906 
1465.000000	98.289645 
1464.000000	98.283598 
1463.000000	98.276633 
1462.000000	98.270327 
1461.000000	98.267130 
1460.000000	98.266047 
1459.000000	98.260966 
1458.000000	98.247223 
1457.000000	98.233084 
1456.000000	98.225684 
1455.000000	98.220502 
1454.000000	98.215109 
1453.000000	98.212834 
1452.000000	98.215427 
1451.000000	98.219582 
1450.000000	98.220721 
1449.000000	98.219062 
1448.000000	98.216269 
1447.000000	98.213953 
1446.000000	98.211063 
1445.000000	98.207069 
1444.000000	98.203181 
1443.000000	98.197349 
1442.000000	98.189497 
1441.000000	98.183547 
1440.000000	98.181811 
1439.000000	98.178722 
1438.000000	98.168789 
1437.000000	98.158446 
1436.000000	98.157314 
1435.000000	98.161225 
1434.000000	98.162927 
1433.000000	98.162297 
1432.000000	98.160890 
1431.000000	98.158103 
1430.000000	98.152764 
1429.000000	98.147553 
1428.000000	98.144329 
1427.000000	98.142460 
1426.000000	98.139441 
1425.000000	98.135669 
1424.000000	98.135307 
1423.000000	98.135720 
1422.000000	98.131172 
1421.000000	98.122062 
1420.000000	98.116074 
1419.000000	98.116517 
1418.000000	98.116835 
1417.000000	98.115322 
1416.000000	98.116034 
1415.000000	98.118211 
1414.000000	98.118003 
1413.000000	98.115793 
1412.000000	98.115324 
1411.000000	98.116041 
1410.000000	98.114445 
1409.000000	98.111728 
1408.000000	98.110614 
1407.000000	98.111512 
1406.000000	98.113266 
1405.000000	98.117798 
1404.000000	98.129103 
1403.000000	98.143039 
1402.000000	98.151503 
1401.000000	98.153466 
1400.000000	98.155601 
1399.000000	98.162231 
1398.000000	98.169089 
1397.000000	98.171467 
1396.000000	98.170653 
1395.000000	98.171739 
1394.000000	98.176722 
1393.000000	98.184775 
1392.000000	98.195527 
1391.000000	98.206780 
1390.000000	98.215149 
1389.000000	98.219628 
1388.000000	98.221791 
1387.000000	98.223100 
1386.000000	98.224238 
1385.000000	98.227285 
1384.000000	98.234805 
1383.000000	98.244843 
1382.000000	98.252660 
1381.000000	98.256178 
1380.000000	98.257010 
1379.000000	98.257435 
1378.000000	98.257928 
1377.000000	98.258746 
1376.000000	98.261371 
1375.000000	98.266917 
1374.000000	98.273564 
1373.000000	98.279746 
1372.000000	98.286628 
1371.000000	98.295839 
1370.000000	98.305941 
1369.000000	98.314191 
1368.000000	98.320862 
1367.000000	98.327223 
1366.000000	98.333280 
1365.000000	98.339067 
1364.000000	98.345206 
1363.000000	98.351293 
1362.000000	98.356259 
1361.000000	98.361232 
1360.000000	98.369071 
1359.000000	98.380306 
1358.000000	98.391519 
1357.000000	98.399225 
1356.000000	98.403729 
1355.000000	98.407468 
1354.000000	98.411335 
1353.000000	98.415214 
1352.000000	98.418832 
1351.000000	98.423036 
1350.000000	98.428191 
1349.000000	98.433760 
1348.000000	98.440291 
1347.000000	98.447873 
1346.000000	98.454584 
1345.000000	98.458054 
1344.000000	98.458264 
1343.000000	98.457125 
1342.000000	98.455961 
1341.000000	98.454679 
1340.000000	98.453047 
1339.000000	98.451573 
1338.000000	98.451341 
1337.000000	98.454076 
1336.000000	98.461166 
1335.000000	98.471409 
1334.000000	98.480938 
1333.000000	98.486603 
1332.000000	98.488595 
1331.000000	98.489352 
1330.000000	98.490694 
1329.000000	98.493249 
1328.000000	98.497043 
1327.000000	98.501337 
1326.000000	98.504043 
1325.000000	98.503553 
1324.000000	98.501061 
1323.000000	98.498778 
1322.000000	98.497361 
1321.000000	98.496297 
1320.000000	98.495439 
1319.000000	98.494621 
1318.000000	98.493254 
1317.000000	98.491600 
1316.000000	98.490926 
1315.000000	98.491408 
1314.000000	98.491558 
1313.000000	98.490851 
1312.000000	98.490734 
1311.000000	98.491842 
1310.000000	98.492414 
1309.000000	98.491462 
1308.000000	98.490921 
1307.000000	98.492899 
1306.000000	98.495927 
1305.000000	98.496527 
1304.000000	98.493601 
1303.000000	98.488677 
1302.000000	98.483420 
1301.000000	98.478790 
1300.000000	98.475554 
1299.000000	98.473294 
1298.000000	98.469916 
1297.000000	98.464005 
1296.000000	98.457014 
1295.000000	98.451583 
1294.000000	98.448415 
1293.000000	98.446475 
1292.000000	98.444891 
1291.000000	98.442789 
1290.000000	98.438477 
1289.000000	98.430975 
1288.000000	98.421751 
1287.000000	98.413192 
1286.000000	98.405891 
1285.000000	98.398990 
1284.000000	98.392210 
1283.000000	98.385701 
1282.000000	98.378998 
1281.000000	98.371854 
1280.000000	98.365387 
1279.000000	98.360446 
1278.000000	98.355682 
1277.000000	98.349263 
1276.000000	98.341575 
1275.000000	98.334007 
1274.000000	98.325704 
1273.000000	98.314427 
1272.000000	98.300839 
1271.000000	98.289298 
1270.000000	98.283171 
1269.000000	98.280872 
1268.000000	98.277577 
1267.000000	98.269738 
1266.000000	98.257769 
1265.000000	98.245533 
1264.000000	98.237145 
1263.000000	98.233263 
1262.000000	98.230572 
1261.000000	98.225367 
1260.000000	98.217213 
1259.000000	98.208087 
1258.000000	98.198906 
1257.000000	98.188703 
1256.000000	98.176642 
1255.000000	98.163204 
1254.000000	98.149553 
1253.000000	98.136829 
1252.000000	98.125735 
1251.000000	98.115546 
1250.000000	98.103772 
1249.000000	98.088193 
1248.000000	98.069376 
1247.000000	98.050249 
1246.000000	98.033321 
1245.000000	98.018965 
1244.000000	98.005667 
1243.000000	97.991156 
1242.000000	97.974116 
1241.000000	97.955740 
1240.000000	97.938844 
1239.000000	97.924652 
1238.000000	97.911378 
1237.000000	97.896723 
1236.000000	97.880346 
1235.000000	97.862761 
1234.000000	97.843422 
1233.000000	97.821536 
1232.000000	97.797459 
1231.000000	97.771691 
1230.000000	97.743948 
1229.000000	97.714943 
1228.000000	97.687262 
1227.000000	97.662093 
1226.000000	97.636302 
1225.000000	97.605194 
1224.000000	97.567207 
1223.000000	97.523623 
1222.000000	97.475140 
1221.000000	97.421776 
1220.000000	97.365304 
1219.000000	97.308322 
1218.000000	97.250954 
1217.000000	97.191518 
1216.000000	97.130251 
1215.000000	97.069072 
1214.000000	97.007646 
1213.000000	96.943370 
1212.000000	96.875814 
1211.000000	96.807584 
1210.000000	96.739761 
1209.000000	96.669778 
1208.000000	96.595285 
1207.000000	96.517426 
1206.000000	96.439108 
1205.000000	96.362408 
1204.000000	96.288438 
1203.000000	96.217006 
1202.000000	96.145463 
1201.000000	96.070596 
1200.000000	95.992597 
1199.000000	95.914681 
1198.000000	95.838494 
1197.000000	95.762906 
1196.000000	95.687304 
1195.000000	95.612203 
1194.000000	95.535942 
1193.000000	95.454993 
1192.000000	95.369142 
1191.000000	95.282830 
1190.000000	95.199783 
1189.000000	95.119385 
1188.000000	95.039235 
1187.000000	94.957543 
1186.000000	94.872133 
1185.000000	94.781442 
1184.000000	94.688156 
1183.000000	94.597774 
1182.000000	94.511468 
1181.000000	94.423911 
1180.000000	94.330008 
1179.000000	94.230052 
1178.000000	94.126504 
1177.000000	94.019966 
1176.000000	93.910851 
1175.000000	93.801156 
1174.000000	93.691455 
1173.000000	93.578976 
1172.000000	93.461136 
1171.000000	93.338403 
1170.000000	93.212221 
1169.000000	93.083611 
1168.000000	92.955798 
1167.000000	92.835054 
1166.000000	92.727194 
1165.000000	92.636553 
1164.000000	92.569587 
1163.000000	92.535034 
1162.000000	92.537689 
1161.000000	92.573732 
1160.000000	92.631612 
1159.000000	92.693816 
1158.000000	92.739622 
1157.000000	92.753118 
1156.000000	92.731007 
1155.000000	92.680393 
1154.000000	92.609513 
1153.000000	92.523531 
1152.000000	92.427572 
1151.000000	92.328005 
1150.000000	92.229400 
1149.000000	92.133807 
1148.000000	92.042827 
1147.000000	91.956132 
1146.000000	91.868699 
1145.000000	91.774909 
1144.000000	91.675529 
1143.000000	91.575890 
1142.000000	91.477776 
1141.000000	91.378479 
1140.000000	91.277134 
1139.000000	91.175816 
1138.000000	91.074607 
1137.000000	90.971583 
1136.000000	90.867221 
1135.000000	90.762702 
1134.000000	90.654800 
1133.000000	90.539442 
1132.000000	90.419481 
1131.000000	90.301437 
1130.000000	90.185055 
1129.000000	90.064002 
1128.000000	89.936550 
1127.000000	89.807307 
1126.000000	89.678695 
1125.000000	89.549395 
1124.000000	89.420876 
1123.000000	89.295917 
1122.000000	89.170510 
1121.000000	89.037549 
1120.000000	88.899380 
1119.000000	88.766364 
1118.000000	88.641899 
1117.000000	88.519711 
1116.000000	88.397322 
1115.000000	88.280357 
1114.000000	88.170577 
1113.000000	88.061153 
1112.000000	87.947868 
1111.000000	87.834897 
1110.000000	87.725668 
1109.000000	87.617708 
1108.000000	87.509805 
1107.000000	87.404656 
1106.000000	87.301533 
1105.000000	87.195434 
1104.000000	87.085737 
1103.000000	86.976389 
1102.000000	86.866117 
1101.000000	86.749170 
1100.000000	86.626927 
1099.000000	86.507854 
1098.000000	86.394250 
1097.000000	86.279918 
1096.000000	86.162954 
1095.000000	86.048891 
1094.000000	85.939165 
1093.000000	85.828753 
1092.000000	85.717853 
1091.000000	85.613534 
1090.000000	85.516921 
1089.000000	85.421021 
1088.000000	85.324027 
1087.000000	85.232305 
1086.000000	85.147489 
1085.000000	85.063400 
1084.000000	84.978625 
1083.000000	84.898992 
1082.000000	84.824233 
1081.000000	84.745366 
1080.000000	84.659185 
1079.000000	84.572953 
1078.000000	84.491066 
1077.000000	84.409102 
1076.000000	84.323991 
1075.000000	84.237385 
1074.000000	84.146059 
1073.000000	84.041748 
1072.000000	83.923116 
1071.000000	83.795043 
1070.000000	83.654220 
1069.000000	83.489839 
1068.000000	83.301863 
1067.000000	83.104623 
1066.000000	82.908597 
1065.000000	82.712308 
1064.000000	82.515515 
1063.000000	82.324972 
1062.000000	82.141864 
1061.000000	81.958020 
1060.000000	81.770266 
1059.000000	81.585373 
1058.000000	81.406064 
1057.000000	81.225377 
1056.000000	81.039285 
1055.000000	80.851838 
1054.000000	80.663738 
1053.000000	80.468772 
1052.000000	80.265260 
1051.000000	80.057247 
1050.000000	79.841246 
1049.000000	79.608038 
1048.000000	79.360253 
1047.000000	79.110393 
1046.000000	78.860346 
1045.000000	78.601170 
1044.000000	78.333251 
1043.000000	78.067702 
1042.000000	77.806563 
1041.000000	77.540696 
1040.000000	77.270183 
1039.000000	77.007679 
1038.000000	76.757892 
1037.000000	76.513375 
1036.000000	76.274933 
1035.000000	76.055941 
1034.000000	75.860895 
1033.000000	75.679075 
1032.000000	75.504801 
1031.000000	75.344989 
1030.000000	75.202037 
1029.000000	75.068699 
1028.000000	74.944453 
1027.000000	74.837245 
1026.000000	74.744701 
1025.000000	74.653494 
1024.000000	74.561293 
1023.000000	74.478857 
1022.000000	74.406356 
1021.000000	74.328785 
1020.000000	74.239722 
1019.000000	74.148777 
1018.000000	74.060582 
1017.000000	73.967389 
1016.000000	73.867740 
1015.000000	73.771314 
1014.000000	73.679269 
1013.000000	73.580490 
1012.000000	73.473658 
1011.000000	73.372931 
1010.000000	73.285422 
1009.000000	73.202653 
1008.000000	73.120286 
1007.000000	73.046612 
1006.000000	72.985427 
1005.000000	72.929858 
1004.000000	72.878954 
1003.000000	72.841298 
1002.000000	72.816895 
1001.000000	72.794705 
1000.000000	72.773183 
999.000000	 72.763888 
998.000000	 72.769786 
997.000000	 72.779287 
996.000000	 72.786591 
995.000000	 72.798641 
994.000000	 72.817382 
993.000000	 72.834813 
992.000000	 72.850485 
991.000000	 72.874511 
990.000000	 72.908471 
989.000000	 72.942650 
988.000000	 72.976709 
987.000000	 73.023408 
986.000000	 73.087123 
985.000000	 73.158220 
984.000000	 73.233486 
983.000000	 73.322626 
982.000000	 73.429821 
981.000000	 73.548208 
980.000000	 73.677159 
979.000000	 73.825482 
978.000000	 73.992811 
977.000000	 74.167052 
976.000000	 74.344913 
975.000000	 74.536247 
974.000000	 74.744012 
973.000000	 74.958674 
972.000000	 75.176420 
971.000000	 75.403930 
970.000000	 75.640687 
969.000000	 75.875158 
968.000000	 76.103503 
967.000000	 76.334743 
966.000000	 76.572944 
965.000000	 76.810859 
964.000000	 77.044839 
963.000000	 77.279252 
962.000000	 77.512591 
961.000000	 77.735811 
960.000000	 77.948242 
959.000000	 78.159390 
958.000000	 78.371763 
957.000000	 78.577410 
956.000000	 78.774005 
955.000000	 78.968167 
954.000000	 79.159697 
953.000000	 79.338288 
952.000000	 79.499376 
951.000000	 79.648761 
950.000000	 79.789291 
949.000000	 79.917785 
948.000000	 80.036746 
947.000000	 80.153403 
946.000000	 80.265091 
945.000000	 80.361545 
944.000000	 80.443885 
943.000000	 80.525115 
942.000000	 80.609397 
941.000000	 80.687573 
940.000000	 80.756320 
939.000000	 80.824607 
938.000000	 80.896714 
937.000000	 80.965301 
936.000000	 81.026674 
935.000000	 81.087902 
934.000000	 81.153952 
933.000000	 81.222058 
932.000000	 81.292770 
931.000000	 81.371619 
930.000000	 81.455630 
929.000000	 81.533029 
928.000000	 81.600704 
927.000000	 81.667715 
926.000000	 81.737708 
925.000000	 81.802561 
924.000000	 81.857815 
923.000000	 81.909987 
922.000000	 81.963618 
921.000000	 82.014000 
920.000000	 82.056809 
919.000000	 82.092657 
918.000000	 82.119601 
917.000000	 82.134395 
916.000000	 82.143646 
915.000000	 82.160678 
914.000000	 82.189841 
913.000000	 82.227727 
912.000000	 82.280160 
911.000000	 82.361123 
910.000000	 82.472698 
909.000000	 82.603276 
908.000000	 82.748485 
907.000000	 82.916534 
906.000000	 83.109844 
905.000000	 83.319007 
904.000000	 83.538423 
903.000000	 83.771014 
902.000000	 84.014478 
901.000000	 84.259892 
900.000000	 84.506861 
899.000000	 84.762864 
898.000000	 85.024199 
897.000000	 85.274785 
896.000000	 85.507985 
895.000000	 85.733138 
894.000000	 85.955870 
893.000000	 86.168026 
892.000000	 86.363099 
891.000000	 86.547097 
890.000000	 86.727322 
889.000000	 86.902258 
888.000000	 87.068085 
887.000000	 87.224395 
886.000000	 87.369363 
885.000000	 87.500218 
884.000000	 87.622115 
883.000000	 87.745779 
882.000000	 87.873198 
881.000000	 87.996445 
880.000000	 88.112704 
879.000000	 88.228115 
878.000000	 88.344521 
877.000000	 88.456205 
876.000000	 88.563567 
875.000000	 88.676959 
874.000000	 88.803160 
873.000000	 88.940212 
872.000000	 89.087634 
871.000000	 89.247940 
870.000000	 89.415611 
869.000000	 89.578855 
868.000000	 89.736062 
867.000000	 89.897897 
866.000000	 90.069198 
865.000000	 90.239926 
864.000000	 90.397839 
863.000000	 90.540454 
862.000000	 90.671786 
861.000000	 90.796903 
860.000000	 90.922487 
859.000000	 91.053112 
858.000000	 91.183092 
857.000000	 91.299885 
856.000000	 91.398253 
855.000000	 91.484145 
854.000000	 91.564147 
853.000000	 91.639742 
852.000000	 91.712765 
851.000000	 91.786779 
850.000000	 91.860521 
849.000000	 91.928132 
848.000000	 91.987207 
847.000000	 92.038263 
846.000000	 92.076163 
845.000000	 92.092809 
844.000000	 92.090455 
843.000000	 92.082010 
842.000000	 92.074372 
841.000000	 92.059755 
840.000000	 92.026396 
839.000000	 91.969728 
838.000000	 91.891390 
837.000000	 91.797243 
836.000000	 91.699871 
835.000000	 91.613487 
834.000000	 91.541281 
833.000000	 91.475296 
832.000000	 91.412046 
831.000000	 91.359637 
830.000000	 91.326433 
829.000000	 91.312835 
828.000000	 91.318709 
827.000000	 91.348032 
826.000000	 91.399885 
825.000000	 91.463977 
824.000000	 91.529841 
823.000000	 91.591559 
822.000000	 91.642243 
821.000000	 91.676280 
820.000000	 91.698478 
819.000000	 91.718363 
818.000000	 91.733452 
817.000000	 91.729179 
816.000000	 91.697059 
815.000000	 91.641971 
814.000000	 91.568190 
813.000000	 91.468154 
812.000000	 91.328876 
811.000000	 91.140055 
810.000000	 90.891978 
809.000000	 90.575531 
808.000000	 90.190893 
807.000000	 89.749778 
806.000000	 89.265384 
805.000000	 88.748639 
804.000000	 88.218283 
803.000000	 87.703395 
802.000000	 87.229064 
801.000000	 86.809402 
800.000000	 86.458672 
799.000000	 86.194607 
798.000000	 86.023776 
797.000000	 85.937442 
796.000000	 85.926804 
795.000000	 85.986849 
794.000000	 86.101088 
793.000000	 86.239826 
792.000000	 86.379307 
791.000000	 86.508359 
790.000000	 86.614419 
789.000000	 86.680697 
788.000000	 86.701769 
787.000000	 86.685670 
786.000000	 86.634743 
785.000000	 86.538887 
784.000000	 86.393575 
783.000000	 86.211080 
782.000000	 86.009562 
781.000000	 85.806263 
780.000000	 85.626451 
779.000000	 85.501215 
778.000000	 85.446392 
777.000000	 85.456426 
776.000000	 85.523541 
775.000000	 85.645615 
774.000000	 85.809649 
773.000000	 85.987365 
772.000000	 86.157489 
771.000000	 86.318275 
770.000000	 86.471134 
769.000000	 86.606721 
768.000000	 86.715065 
767.000000	 86.796407 
766.000000	 86.855119 
765.000000	 86.895315 
764.000000	 86.928238 
763.000000	 86.970058 
762.000000	 87.023864 
761.000000	 87.075159 
760.000000	 87.112505 
759.000000	 87.142084 
758.000000	 87.176215 
757.000000	 87.219092 
756.000000	 87.269910 
755.000000	 87.328927 
754.000000	 87.394308 
753.000000	 87.462358 
752.000000	 87.534139 
751.000000	 87.611107 
750.000000	 87.683131 
749.000000	 87.735756 
748.000000	 87.773501 
747.000000	 87.821502 
746.000000	 87.897934 
745.000000	 87.997059 
744.000000	 88.104419 
743.000000	 88.215380 
742.000000	 88.332613 
741.000000	 88.457830 
740.000000	 88.592760 
739.000000	 88.737520 
738.000000	 88.882451 
737.000000	 89.011929 
736.000000	 89.121126 
735.000000	 89.219813 
734.000000	 89.316213 
733.000000	 89.407167 
732.000000	 89.487356 
731.000000	 89.556785 
730.000000	 89.614717 
729.000000	 89.657007 
728.000000	 89.684887 
727.000000	 89.706040 
726.000000	 89.722951 
725.000000	 89.732039 
724.000000	 89.738324 
723.000000	 89.758884 
722.000000	 89.806447 
721.000000	 89.879040 
720.000000	 89.967930 
719.000000	 90.063179 
718.000000	 90.148848 
717.000000	 90.208947 
716.000000	 90.245320 
715.000000	 90.277744 
714.000000	 90.319641 
713.000000	 90.363832 
712.000000	 90.397759 
711.000000	 90.420393 
710.000000	 90.436223 
709.000000	 90.442797 
708.000000	 90.433436 
707.000000	 90.405401 
706.000000	 90.358857 
705.000000	 90.295074 
704.000000	 90.217730 
703.000000	 90.124856 
702.000000	 89.998104 
701.000000	 89.812961 
700.000000	 89.563959 
699.000000	 89.270441 
698.000000	 88.957257 
697.000000	 88.648153 
696.000000	 88.381450 
695.000000	 88.207119 
694.000000	 88.153822 
693.000000	 88.210201 
692.000000	 88.345468 
691.000000	 88.533283 
690.000000	 88.746741 
689.000000	 88.949748 
688.000000	 89.112471 
687.000000	 89.230564 
686.000000	 89.320287 
685.000000	 89.400912 
684.000000	 89.487497 
683.000000	 89.587432 
682.000000	 89.691391 
681.000000	 89.776622 
680.000000	 89.830273 
679.000000	 89.865056 
678.000000	 89.902403 
677.000000	 89.948244 
676.000000	 89.999440 
675.000000	 90.062064 
674.000000	 90.145940 
673.000000	 90.244078 
672.000000	 90.333093 
671.000000	 90.396816 
670.000000	 90.443030 
669.000000	 90.486418 
668.000000	 90.526860 
667.000000	 90.571805 
666.000000	 90.616562 
665.000000	 90.636194 
664.000000	 90.637191 
663.000000	 90.640273 
662.000000	 90.656038 
661.000000	 90.681598 
660.000000	 90.717539 
659.000000	 90.762455 
658.000000	 90.792659 
657.000000	 90.777305 
656.000000	 90.720790 
655.000000	 90.659825 
654.000000	 90.613507 
653.000000	 90.569694 
652.000000	 90.527305 
651.000000	 90.511489 
650.000000	 90.532704 

