4000.000000	99.493935 
3999.000000	99.494353 
3998.000000	99.494736 
3997.000000	99.494706 
3996.000000	99.494282 
3995.000000	99.493786 
3994.000000	99.493515 
3993.000000	99.493536 
3992.000000	99.493726 
3991.000000	99.493918 
3990.000000	99.494015 
3989.000000	99.494042 
3988.000000	99.494149 
3987.000000	99.494512 
3986.000000	99.495141 
3985.000000	99.495741 
3984.000000	99.495833 
3983.000000	99.495116 
3982.000000	99.493748 
3981.000000	99.492255 
3980.000000	99.491079 
3979.000000	99.490221 
3978.000000	99.489389 
3977.000000	99.488479 
3976.000000	99.487860 
3975.000000	99.488097 
3974.000000	99.489457 
3973.000000	99.491586 
3972.000000	99.493613 
3971.000000	99.494720 
3970.000000	99.494622 
3969.000000	99.493603 
3968.000000	99.492237 
3967.000000	99.490997 
3966.000000	99.490094 
3965.000000	99.489595 
3964.000000	99.489485 
3963.000000	99.489562 
3962.000000	99.489436 
3961.000000	99.488793 
3960.000000	99.487695 
3959.000000	99.486575 
3958.000000	99.485864 
3957.000000	99.485624 
3956.000000	99.485596 
3955.000000	99.485525 
3954.000000	99.485376 
3953.000000	99.485206 
3952.000000	99.484957 
3951.000000	99.484536 
3950.000000	99.484054 
3949.000000	99.483856 
3948.000000	99.484175 
3947.000000	99.484806 
3946.000000	99.485272 
3945.000000	99.485295 
3944.000000	99.485013 
3943.000000	99.484740 
3942.000000	99.484598 
3941.000000	99.484423 
3940.000000	99.483958 
3939.000000	99.483061 
3938.000000	99.481824 
3937.000000	99.480626 
3936.000000	99.480034 
3935.000000	99.480510 
3934.000000	99.482148 
3933.000000	99.484566 
3932.000000	99.486986 
3931.000000	99.488575 
3930.000000	99.488859 
3929.000000	99.487939 
3928.000000	99.486385 
3927.000000	99.484932 
3926.000000	99.484170 
3925.000000	99.484278 
3924.000000	99.484911 
3923.000000	99.485459 
3922.000000	99.485526 
3921.000000	99.485208 
3920.000000	99.484956 
3919.000000	99.485262 
3918.000000	99.486373 
3917.000000	99.488053 
3916.000000	99.489642 
3915.000000	99.490532 
3914.000000	99.490700 
3913.000000	99.490663 
3912.000000	99.490944 
3911.000000	99.491686 
3910.000000	99.492731 
3909.000000	99.493913 
3908.000000	99.495132 
3907.000000	99.496048 
3906.000000	99.496019 
3905.000000	99.494526 
3904.000000	99.491681 
3903.000000	99.488347 
3902.000000	99.485665 
3901.000000	99.484417 
3900.000000	99.484736 
3899.000000	99.486072 
3898.000000	99.487549 
3897.000000	99.488539 
3896.000000	99.488823 
3895.000000	99.488375 
3894.000000	99.487236 
3893.000000	99.485640 
3892.000000	99.484188 
3891.000000	99.483475 
3890.000000	99.483589 
3889.000000	99.484170 
3888.000000	99.484770 
3887.000000	99.485061 
3886.000000	99.484993 
3885.000000	99.484721 
3884.000000	99.484337 
3883.000000	99.483896 
3882.000000	99.483609 
3881.000000	99.483794 
3880.000000	99.484530 
3879.000000	99.485432 
3878.000000	99.486145 
3877.000000	99.486725 
3876.000000	99.487351 
3875.000000	99.487935 
3874.000000	99.488150 
3873.000000	99.487802 
3872.000000	99.487134 
3871.000000	99.486684 
3870.000000	99.486763 
3869.000000	99.487207 
3868.000000	99.487667 
3867.000000	99.488000 
3866.000000	99.488262 
3865.000000	99.488484 
3864.000000	99.488630 
3863.000000	99.488701 
3862.000000	99.488771 
3861.000000	99.488936 
3860.000000	99.489237 
3859.000000	99.489621 
3858.000000	99.489981 
3857.000000	99.490236 
3856.000000	99.490378 
3855.000000	99.490459 
3854.000000	99.490573 
3853.000000	99.490770 
3852.000000	99.491000 
3851.000000	99.491216 
3850.000000	99.491422 
3849.000000	99.491632 
3848.000000	99.491837 
3847.000000	99.492023 
3846.000000	99.492181 
3845.000000	99.492316 
3844.000000	99.492453 
3843.000000	99.492612 
3842.000000	99.492795 
3841.000000	99.492980 
3840.000000	99.493146 
3839.000000	99.493286 
3838.000000	99.493403 
3837.000000	99.493497 
3836.000000	99.493574 
3835.000000	99.493653 
3834.000000	99.493768 
3833.000000	99.493945 
3832.000000	99.494175 
3831.000000	99.494401 
3830.000000	99.494544 
3829.000000	99.494561 
3828.000000	99.494472 
3827.000000	99.494358 
3826.000000	99.494296 
3825.000000	99.494316 
3824.000000	99.494389 
3823.000000	99.494451 
3822.000000	99.494440 
3821.000000	99.494340 
3820.000000	99.494174 
3819.000000	99.493988 
3818.000000	99.493849 
3817.000000	99.493790 
3816.000000	99.493738 
3815.000000	99.493540 
3814.000000	99.493127 
3813.000000	99.492628 
3812.000000	99.492276 
3811.000000	99.492208 
3810.000000	99.492402 
3809.000000	99.492713 
3808.000000	99.492976 
3807.000000	99.493050 
3806.000000	99.492822 
3805.000000	99.492278 
3804.000000	99.491584 
3803.000000	99.491029 
3802.000000	99.490810 
3801.000000	99.490783 
3800.000000	99.490566 
3799.000000	99.490010 
3798.000000	99.489294 
3797.000000	99.488654 
3796.000000	99.488139 
3795.000000	99.487628 
3794.000000	99.487039 
3793.000000	99.486424 
3792.000000	99.485877 
3791.000000	99.485455 
3790.000000	99.485211 
3789.000000	99.485215 
3788.000000	99.485435 
3787.000000	99.485626 
3786.000000	99.485486 
3785.000000	99.484999 
3784.000000	99.484522 
3783.000000	99.484433 
3782.000000	99.484806 
3781.000000	99.485464 
3780.000000	99.486182 
3779.000000	99.486693 
3778.000000	99.486612 
3777.000000	99.485636 
3776.000000	99.483871 
3775.000000	99.481862 
3774.000000	99.480316 
3773.000000	99.479771 
3772.000000	99.480421 
3771.000000	99.481857 
3770.000000	99.482950 
3769.000000	99.482579 
3768.000000	99.480839 
3767.000000	99.479096 
3766.000000	99.478676 
3765.000000	99.479666 
3764.000000	99.481016 
3763.000000	99.481692 
3762.000000	99.481471 
3761.000000	99.480654 
3760.000000	99.479626 
3759.000000	99.478922 
3758.000000	99.479208 
3757.000000	99.480771 
3756.000000	99.483141 
3755.000000	99.485478 
3754.000000	99.487312 
3753.000000	99.489005 
3752.000000	99.491349 
3751.000000	99.494348 
3750.000000	99.496671 
3749.000000	99.497184 
3748.000000	99.496269 
3747.000000	99.495053 
3746.000000	99.494350 
3745.000000	99.494107 
3744.000000	99.493401 
3743.000000	99.491273 
3742.000000	99.487933 
3741.000000	99.484383 
3740.000000	99.481284 
3739.000000	99.478763 
3738.000000	99.476962 
3737.000000	99.476034 
3736.000000	99.475453 
3735.000000	99.474006 
3734.000000	99.471184 
3733.000000	99.468251 
3732.000000	99.466851 
3731.000000	99.467119 
3730.000000	99.468076 
3729.000000	99.469063 
3728.000000	99.470085 
3727.000000	99.470904 
3726.000000	99.470487 
3725.000000	99.467957 
3724.000000	99.463905 
3723.000000	99.460168 
3722.000000	99.458253 
3721.000000	99.458205 
3720.000000	99.458725 
3719.000000	99.458256 
3718.000000	99.456125 
3717.000000	99.452710 
3716.000000	99.448810 
3715.000000	99.445075 
3714.000000	99.441879 
3713.000000	99.439583 
3712.000000	99.438577 
3711.000000	99.438718 
3710.000000	99.438615 
3709.000000	99.436128 
3708.000000	99.430067 
3707.000000	99.421163 
3706.000000	99.411640 
3705.000000	99.403816 
3704.000000	99.398755 
3703.000000	99.395895 
3702.000000	99.393622 
3701.000000	99.390419 
3700.000000	99.385770 
3699.000000	99.380143 
3698.000000	99.374500 
3697.000000	99.369802 
3696.000000	99.366708 
3695.000000	99.365639 
3694.000000	99.366662 
3693.000000	99.368868 
3692.000000	99.370004 
3691.000000	99.367755 
3690.000000	99.362343 
3689.000000	99.357140 
3688.000000	99.355103 
3687.000000	99.355624 
3686.000000	99.356287 
3685.000000	99.355920 
3684.000000	99.354978 
3683.000000	99.353995 
3682.000000	99.352381 
3681.000000	99.348914 
3680.000000	99.343086 
3679.000000	99.335544 
3678.000000	99.327748 
3677.000000	99.321709 
3676.000000	99.318887 
3675.000000	99.317520 
3674.000000	99.313429 
3673.000000	99.305004 
3672.000000	99.294485 
3671.000000	99.285493 
3670.000000	99.279655 
3669.000000	99.274932 
3668.000000	99.268614 
3667.000000	99.260832 
3666.000000	99.253631 
3665.000000	99.248133 
3664.000000	99.243491 
3663.000000	99.237974 
3662.000000	99.230359 
3661.000000	99.220202 
3660.000000	99.207618 
3659.000000	99.193494 
3658.000000	99.179919 
3657.000000	99.169341 
3656.000000	99.162224 
3655.000000	99.156387 
3654.000000	99.149539 
3653.000000	99.141073 
3652.000000	99.130920 
3651.000000	99.118495 
3650.000000	99.104091 
3649.000000	99.090453 
3648.000000	99.080374 
3647.000000	99.073377 
3646.000000	99.067044 
3645.000000	99.060235 
3644.000000	99.053807 
3643.000000	99.049017 
3642.000000	99.046023 
3641.000000	99.043683 
3640.000000	99.040476 
3639.000000	99.035243 
3638.000000	99.027458 
3637.000000	99.017617 
3636.000000	99.007221 
3635.000000	98.997600 
3634.000000	98.988392 
3633.000000	98.978109 
3632.000000	98.966743 
3631.000000	98.956927 
3630.000000	98.951641 
3629.000000	98.949594 
3628.000000	98.944524 
3627.000000	98.933185 
3626.000000	98.919706 
3625.000000	98.909781 
3624.000000	98.905088 
3623.000000	98.903453 
3622.000000	98.902593 
3621.000000	98.903393 
3620.000000	98.908908 
3619.000000	98.919817 
3618.000000	98.932353 
3617.000000	98.942433 
3616.000000	98.949947 
3615.000000	98.957533 
3614.000000	98.966523 
3613.000000	98.975262 
3612.000000	98.981635 
3611.000000	98.986348 
3610.000000	98.992257 
3609.000000	99.000463 
3608.000000	99.008610 
3607.000000	99.014168 
3606.000000	99.018051 
3605.000000	99.023478 
3604.000000	99.032180 
3603.000000	99.042848 
3602.000000	99.052897 
3601.000000	99.060841 
3600.000000	99.066439 
3599.000000	99.069507 
3598.000000	99.069945 
3597.000000	99.068606 
3596.000000	99.067706 
3595.000000	99.069833 
3594.000000	99.075906 
3593.000000	99.084404 
3592.000000	99.092596 
3591.000000	99.098041 
3590.000000	99.099612 
3589.000000	99.098034 
3588.000000	99.095840 
3587.000000	99.095194 
3586.000000	99.095925 
3585.000000	99.096951 
3584.000000	99.098316 
3583.000000	99.100420 
3582.000000	99.102642 
3581.000000	99.103560 
3580.000000	99.102471 
3579.000000	99.100158 
3578.000000	99.098079 
3577.000000	99.097190 
3576.000000	99.097528 
3575.000000	99.098609 
3574.000000	99.099765 
3573.000000	99.100452 
3572.000000	99.100710 
3571.000000	99.101081 
3570.000000	99.101695 
3569.000000	99.101792 
3568.000000	99.100678 
3567.000000	99.098877 
3566.000000	99.097337 
3565.000000	99.096052 
3564.000000	99.094522 
3563.000000	99.092897 
3562.000000	99.091935 
3561.000000	99.091971 
3560.000000	99.092264 
3559.000000	99.091664 
3558.000000	99.089971 
3557.000000	99.088274 
3556.000000	99.087722 
3555.000000	99.088151 
3554.000000	99.088088 
3553.000000	99.086025 
3552.000000	99.081769 
3551.000000	99.076620 
3550.000000	99.072157 
3549.000000	99.069028 
3548.000000	99.066879 
3547.000000	99.065132 
3546.000000	99.063601 
3545.000000	99.062224 
3544.000000	99.060820 
3543.000000	99.059598 
3542.000000	99.059441 
3541.000000	99.061071 
3540.000000	99.064031 
3539.000000	99.066661 
3538.000000	99.067639 
3537.000000	99.067258 
3536.000000	99.066809 
3535.000000	99.066918 
3534.000000	99.066985 
3533.000000	99.066318 
3532.000000	99.065249 
3531.000000	99.064795 
3530.000000	99.065376 
3529.000000	99.066230 
3528.000000	99.066254 
3527.000000	99.065147 
3526.000000	99.063490 
3525.000000	99.061961 
3524.000000	99.060787 
3523.000000	99.059904 
3522.000000	99.059297 
3521.000000	99.058990 
3520.000000	99.058908 
3519.000000	99.058925 
3518.000000	99.058976 
3517.000000	99.058979 
3516.000000	99.058720 
3515.000000	99.057988 
3514.000000	99.056828 
3513.000000	99.055569 
3512.000000	99.054528 
3511.000000	99.053758 
3510.000000	99.053130 
3509.000000	99.052555 
3508.000000	99.052071 
3507.000000	99.051749 
3506.000000	99.051572 
3505.000000	99.051416 
3504.000000	99.051131 
3503.000000	99.050664 
3502.000000	99.050120 
3501.000000	99.049682 
3500.000000	99.049454 
3499.000000	99.049395 
3498.000000	99.049296 
3497.000000	99.048915 
3496.000000	99.048168 
3495.000000	99.047177 
3494.000000	99.046201 
3493.000000	99.045408 
3492.000000	99.044819 
3491.000000	99.044369 
3490.000000	99.043961 
3489.000000	99.043517 
3488.000000	99.042993 
3487.000000	99.042369 
3486.000000	99.041646 
3485.000000	99.040852 
3484.000000	99.040041 
3483.000000	99.039252 
3482.000000	99.038477 
3481.000000	99.037681 
3480.000000	99.036849 
3479.000000	99.035975 
3478.000000	99.034999 
3477.000000	99.033863 
3476.000000	99.032686 
3475.000000	99.031822 
3474.000000	99.031568 
3473.000000	99.031815 
3472.000000	99.031974 
3471.000000	99.031509 
3470.000000	99.030450 
3469.000000	99.029347 
3468.000000	99.028661 
3467.000000	99.028257 
3466.000000	99.027633 
3465.000000	99.026538 
3464.000000	99.025185 
3463.000000	99.023909 
3462.000000	99.022797 
3461.000000	99.021787 
3460.000000	99.020961 
3459.000000	99.020509 
3458.000000	99.020355 
3457.000000	99.020001 
3456.000000	99.018939 
3455.000000	99.017111 
3454.000000	99.014947 
3453.000000	99.013006 
3452.000000	99.011488 
3451.000000	99.010154 
3450.000000	99.008669 
3449.000000	99.006964 
3448.000000	99.005249 
3447.000000	99.003683 
3446.000000	99.002170 
3445.000000	99.000577 
3444.000000	98.999053 
3443.000000	98.997898 
3442.000000	98.997090 
3441.000000	98.996130 
3440.000000	98.994559 
3439.000000	98.992454 
3438.000000	98.990231 
3437.000000	98.988038 
3436.000000	98.985701 
3435.000000	98.983333 
3434.000000	98.981659 
3433.000000	98.981420 
3432.000000	98.982489 
3431.000000	98.983722 
3430.000000	98.983915 
3429.000000	98.982848 
3428.000000	98.981274 
3427.000000	98.980012 
3426.000000	98.979114 
3425.000000	98.978030 
3424.000000	98.976412 
3423.000000	98.974520 
3422.000000	98.972794 
3421.000000	98.971345 
3420.000000	98.970103 
3419.000000	98.969243 
3418.000000	98.969070 
3417.000000	98.969462 
3416.000000	98.969755 
3415.000000	98.969363 
3414.000000	98.968322 
3413.000000	98.967109 
3412.000000	98.966100 
3411.000000	98.965379 
3410.000000	98.964909 
3409.000000	98.964557 
3408.000000	98.963913 
3407.000000	98.962420 
3406.000000	98.959939 
3405.000000	98.957174 
3404.000000	98.955278 
3403.000000	98.954922 
3402.000000	98.955816 
3401.000000	98.957117 
3400.000000	98.958249 
3399.000000	98.959218 
3398.000000	98.960235 
3397.000000	98.961245 
3396.000000	98.961889 
3395.000000	98.961762 
3394.000000	98.960654 
3393.000000	98.958711 
3392.000000	98.956575 
3391.000000	98.955201 
3390.000000	98.955278 
3389.000000	98.956758 
3388.000000	98.958971 
3387.000000	98.961210 
3386.000000	98.963219 
3385.000000	98.965112 
3384.000000	98.966918 
3383.000000	98.968278 
3382.000000	98.968641 
3381.000000	98.967793 
3380.000000	98.966233 
3379.000000	98.965018 
3378.000000	98.964978 
3377.000000	98.966079 
3376.000000	98.967560 
3375.000000	98.968638 
3374.000000	98.969105 
3373.000000	98.969261 
3372.000000	98.969471 
3371.000000	98.969866 
3370.000000	98.970369 
3369.000000	98.970848 
3368.000000	98.971264 
3367.000000	98.971718 
3366.000000	98.972349 
3365.000000	98.973149 
3364.000000	98.973919 
3363.000000	98.974484 
3362.000000	98.974900 
3361.000000	98.975356 
3360.000000	98.975933 
3359.000000	98.976535 
3358.000000	98.977056 
3357.000000	98.977522 
3356.000000	98.978053 
3355.000000	98.978702 
3354.000000	98.979383 
3353.000000	98.979987 
3352.000000	98.980515 
3351.000000	98.981070 
3350.000000	98.981731 
3349.000000	98.982470 
3348.000000	98.983216 
3347.000000	98.983923 
3346.000000	98.984592 
3345.000000	98.985237 
3344.000000	98.985871 
3343.000000	98.986505 
3342.000000	98.987147 
3341.000000	98.987797 
3340.000000	98.988447 
3339.000000	98.989096 
3338.000000	98.989755 
3337.000000	98.990438 
3336.000000	98.991151 
3335.000000	98.991875 
3334.000000	98.992585 
3333.000000	98.993278 
3332.000000	98.993971 
3331.000000	98.994680 
3330.000000	98.995400 
3329.000000	98.996112 
3328.000000	98.996801 
3327.000000	98.997469 
3326.000000	98.998135 
3325.000000	98.998808 
3324.000000	98.999484 
3323.000000	99.000151 
3322.000000	99.000808 
3321.000000	99.001470 
3320.000000	99.002158 
3319.000000	99.002880 
3318.000000	99.003622 
3317.000000	99.004363 
3316.000000	99.005089 
3315.000000	99.005795 
3314.000000	99.006483 
3313.000000	99.007160 
3312.000000	99.007833 
3311.000000	99.008501 
3310.000000	99.009159 
3309.000000	99.009795 
3308.000000	99.010406 
3307.000000	99.010993 
3306.000000	99.011564 
3305.000000	99.012127 
3304.000000	99.012695 
3303.000000	99.013276 
3302.000000	99.013862 
3301.000000	99.014432 
3300.000000	99.014967 
3299.000000	99.015461 
3298.000000	99.015938 
3297.000000	99.016436 
3296.000000	99.016985 
3295.000000	99.017577 
3294.000000	99.018172 
3293.000000	99.018737 
3292.000000	99.019297 
3291.000000	99.019903 
3290.000000	99.020547 
3289.000000	99.021140 
3288.000000	99.021609 
3287.000000	99.021980 
3286.000000	99.022361 
3285.000000	99.022823 
3284.000000	99.023339 
3283.000000	99.023841 
3282.000000	99.024310 
3281.000000	99.024809 
3280.000000	99.025435 
3279.000000	99.026214 
3278.000000	99.027049 
3277.000000	99.027764 
3276.000000	99.028218 
3275.000000	99.028402 
3274.000000	99.028468 
3273.000000	99.028654 
3272.000000	99.029133 
3271.000000	99.029903 
3270.000000	99.030803 
3269.000000	99.031628 
3268.000000	99.032272 
3267.000000	99.032752 
3266.000000	99.033129 
3265.000000	99.033469 
3264.000000	99.033951 
3263.000000	99.034885 
3262.000000	99.036468 
3261.000000	99.038485 
3260.000000	99.040359 
3259.000000	99.041597 
3258.000000	99.042145 
3257.000000	99.042367 
3256.000000	99.042694 
3255.000000	99.043244 
3254.000000	99.043837 
3253.000000	99.044357 
3252.000000	99.045040 
3251.000000	99.046264 
3250.000000	99.048041 
3249.000000	99.049887 
3248.000000	99.051315 
3247.000000	99.052305 
3246.000000	99.053111 
3245.000000	99.053753 
3244.000000	99.053981 
3243.000000	99.053772 
3242.000000	99.053597 
3241.000000	99.054029 
3240.000000	99.055251 
3239.000000	99.057103 
3238.000000	99.059450 
3237.000000	99.062307 
3236.000000	99.065518 
3235.000000	99.068474 
3234.000000	99.070366 
3233.000000	99.070843 
3232.000000	99.070342 
3231.000000	99.069799 
3230.000000	99.069889 
3229.000000	99.070609 
3228.000000	99.071542 
3227.000000	99.072314 
3226.000000	99.072800 
3225.000000	99.073089 
3224.000000	99.073404 
3223.000000	99.074008 
3222.000000	99.075005 
3221.000000	99.076231 
3220.000000	99.077371 
3219.000000	99.078225 
3218.000000	99.078851 
3217.000000	99.079510 
3216.000000	99.080534 
3215.000000	99.082129 
3214.000000	99.084185 
3213.000000	99.086230 
3212.000000	99.087722 
3211.000000	99.088433 
3210.000000	99.088535 
3209.000000	99.088436 
3208.000000	99.088545 
3207.000000	99.089120 
3206.000000	99.090207 
3205.000000	99.091649 
3204.000000	99.093198 
3203.000000	99.094677 
3202.000000	99.095998 
3201.000000	99.097096 
3200.000000	99.097953 
3199.000000	99.098677 
3198.000000	99.099450 
3197.000000	99.100383 
3196.000000	99.101468 
3195.000000	99.102670 
3194.000000	99.103928 
3193.000000	99.105085 
3192.000000	99.105958 
3191.000000	99.106526 
3190.000000	99.107014 
3189.000000	99.107676 
3188.000000	99.108525 
3187.000000	99.109385 
3186.000000	99.110180 
3185.000000	99.111037 
3184.000000	99.112057 
3183.000000	99.113137 
3182.000000	99.114081 
3181.000000	99.114821 
3180.000000	99.115538 
3179.000000	99.116590 
3178.000000	99.118220 
3177.000000	99.120275 
3176.000000	99.122307 
3175.000000	99.124067 
3174.000000	99.125692 
3173.000000	99.127194 
3172.000000	99.128026 
3171.000000	99.127623 
3170.000000	99.126325 
3169.000000	99.125429 
3168.000000	99.125992 
3167.000000	99.127845 
3166.000000	99.129898 
3165.000000	99.131221 
3164.000000	99.131729 
3163.000000	99.131919 
3162.000000	99.132266 
3161.000000	99.132930 
3160.000000	99.133836 
3159.000000	99.134798 
3158.000000	99.135544 
3157.000000	99.135799 
3156.000000	99.135473 
3155.000000	99.134739 
3154.000000	99.133869 
3153.000000	99.133028 
3152.000000	99.132325 
3151.000000	99.132011 
3150.000000	99.132433 
3149.000000	99.133701 
3148.000000	99.135531 
3147.000000	99.137445 
3146.000000	99.139083 
3145.000000	99.140335 
3144.000000	99.141293 
3143.000000	99.142163 
3142.000000	99.143112 
3141.000000	99.144118 
3140.000000	99.145010 
3139.000000	99.145680 
3138.000000	99.146217 
3137.000000	99.146833 
3136.000000	99.147713 
3135.000000	99.148908 
3134.000000	99.150274 
3133.000000	99.151475 
3132.000000	99.152191 
3131.000000	99.152396 
3130.000000	99.152394 
3129.000000	99.152605 
3128.000000	99.153310 
3127.000000	99.154582 
3126.000000	99.156317 
3125.000000	99.158177 
3124.000000	99.159656 
3123.000000	99.160406 
3122.000000	99.160475 
3121.000000	99.160254 
3120.000000	99.160175 
3119.000000	99.160423 
3118.000000	99.160996 
3117.000000	99.161878 
3116.000000	99.163061 
3115.000000	99.164457 
3114.000000	99.165872 
3113.000000	99.167080 
3112.000000	99.167944 
3111.000000	99.168484 
3110.000000	99.168848 
3109.000000	99.169215 
3108.000000	99.169697 
3107.000000	99.170299 
3106.000000	99.170958 
3105.000000	99.171616 
3104.000000	99.172281 
3103.000000	99.173022 
3102.000000	99.173906 
3101.000000	99.174928 
3100.000000	99.176002 
3099.000000	99.177031 
3098.000000	99.177977 
3097.000000	99.178854 
3096.000000	99.179660 
3095.000000	99.180353 
3094.000000	99.180879 
3093.000000	99.181231 
3092.000000	99.181471 
3091.000000	99.181746 
3090.000000	99.182215 
3089.000000	99.182929 
3088.000000	99.183777 
3087.000000	99.184569 
3086.000000	99.185201 
3085.000000	99.185717 
3084.000000	99.186216 
3083.000000	99.186724 
3082.000000	99.187191 
3081.000000	99.187609 
3080.000000	99.188066 
3079.000000	99.188686 
3078.000000	99.189530 
3077.000000	99.190553 
3076.000000	99.191618 
3075.000000	99.192540 
3074.000000	99.193200 
3073.000000	99.193616 
3072.000000	99.193929 
3071.000000	99.194272 
3070.000000	99.194657 
3069.000000	99.195025 
3068.000000	99.195355 
3067.000000	99.195709 
3066.000000	99.196164 
3065.000000	99.196730 
3064.000000	99.197351 
3063.000000	99.197935 
3062.000000	99.198410 
3061.000000	99.198756 
3060.000000	99.199008 
3059.000000	99.199238 
3058.000000	99.199511 
3057.000000	99.199858 
3056.000000	99.200285 
3055.000000	99.200772 
3054.000000	99.201267 
3053.000000	99.201694 
3052.000000	99.201996 
3051.000000	99.202173 
3050.000000	99.202292 
3049.000000	99.202435 
3048.000000	99.202648 
3047.000000	99.202930 
3046.000000	99.203219 
3045.000000	99.203417 
3044.000000	99.203471 
3043.000000	99.203442 
3042.000000	99.203486 
3041.000000	99.203710 
3040.000000	99.204089 
3039.000000	99.204489 
3038.000000	99.204780 
3037.000000	99.204899 
3036.000000	99.204835 
3035.000000	99.204619 
3034.000000	99.204345 
3033.000000	99.204120 
3032.000000	99.203975 
3031.000000	99.203849 
3030.000000	99.203680 
3029.000000	99.203505 
3028.000000	99.203483 
3027.000000	99.203800 
3026.000000	99.204535 
3025.000000	99.205532 
3024.000000	99.206410 
3023.000000	99.206816 
3022.000000	99.206704 
3021.000000	99.206326 
3020.000000	99.205887 
3019.000000	99.205321 
3018.000000	99.204535 
3017.000000	99.203750 
3016.000000	99.203372 
3015.000000	99.203525 
3014.000000	99.203891 
3013.000000	99.204164 
3012.000000	99.204504 
3011.000000	99.205250 
3010.000000	99.206303 
3009.000000	99.207089 
3008.000000	99.207238 
3007.000000	99.207052 
3006.000000	99.207131 
3005.000000	99.207614 
3004.000000	99.207994 
3003.000000	99.207737 
3002.000000	99.206964 
3001.000000	99.206425 
3000.000000	99.206783 
2999.000000	99.208053 
2998.000000	99.209682 
2997.000000	99.211175 
2996.000000	99.212507 
2995.000000	99.213788 
2994.000000	99.214796 
2993.000000	99.215125 
2992.000000	99.214724 
2991.000000	99.214057 
2990.000000	99.213633 
2989.000000	99.213592 
2988.000000	99.213879 
2987.000000	99.214553 
2986.000000	99.215683 
2985.000000	99.217102 
2984.000000	99.218516 
2983.000000	99.219766 
2982.000000	99.220826 
2981.000000	99.221677 
2980.000000	99.222392 
2979.000000	99.223232 
2978.000000	99.224403 
2977.000000	99.225792 
2976.000000	99.227110 
2975.000000	99.228189 
2974.000000	99.229047 
2973.000000	99.229756 
2972.000000	99.230470 
2971.000000	99.231530 
2970.000000	99.233272 
2969.000000	99.235588 
2968.000000	99.237857 
2967.000000	99.239527 
2966.000000	99.240606 
2965.000000	99.241432 
2964.000000	99.242164 
2963.000000	99.242780 
2962.000000	99.243461 
2961.000000	99.244622 
2960.000000	99.246528 
2959.000000	99.248980 
2958.000000	99.251358 
2957.000000	99.252896 
2956.000000	99.253111 
2955.000000	99.252206 
2954.000000	99.251126 
2953.000000	99.251044 
2952.000000	99.252571 
2951.000000	99.255209 
2950.000000	99.257596 
2949.000000	99.258593 
2948.000000	99.258297 
2947.000000	99.257863 
2946.000000	99.258314 
2945.000000	99.259867 
2944.000000	99.262382 
2943.000000	99.265710 
2942.000000	99.269071 
2941.000000	99.270840 
2940.000000	99.270024 
2939.000000	99.267959 
2938.000000	99.267662 
2937.000000	99.271226 
2936.000000	99.278267 
2935.000000	99.286694 
2934.000000	99.294324 
2933.000000	99.299727 
2932.000000	99.302385 
2931.000000	99.302682 
2930.000000	99.301644 
2929.000000	99.300529 
2928.000000	99.300580 
2927.000000	99.302551 
2926.000000	99.305747 
2925.000000	99.307981 
2924.000000	99.307541 
2923.000000	99.305103 
2922.000000	99.302719 
2921.000000	99.300895 
2920.000000	99.297961 
2919.000000	99.292618 
2918.000000	99.285833 
2917.000000	99.279644 
2916.000000	99.275034 
2915.000000	99.271775 
2914.000000	99.269573 
2913.000000	99.268363 
2912.000000	99.267857 
2911.000000	99.267625 
2910.000000	99.267455 
2909.000000	99.267118 
2908.000000	99.266023 
2907.000000	99.263783 
2906.000000	99.260972 
2905.000000	99.258707 
2904.000000	99.257424 
2903.000000	99.256387 
2902.000000	99.254765 
2901.000000	99.252715 
2900.000000	99.251501 
2899.000000	99.252378 
2898.000000	99.255130 
2897.000000	99.257835 
2896.000000	99.258380 
2895.000000	99.256410 
2894.000000	99.253461 
2893.000000	99.251254 
2892.000000	99.250332 
2891.000000	99.250370 
2890.000000	99.250969 
2889.000000	99.251724 
2888.000000	99.252117 
2887.000000	99.251965 
2886.000000	99.251686 
2885.000000	99.251645 
2884.000000	99.251567 
2883.000000	99.251119 
2882.000000	99.250837 
2881.000000	99.251764 
2880.000000	99.254146 
2879.000000	99.256975 
2878.000000	99.258939 
2877.000000	99.259636 
2876.000000	99.259762 
2875.000000	99.260363 
2874.000000	99.262009 
2873.000000	99.264427 
2872.000000	99.266732 
2871.000000	99.268046 
2870.000000	99.268100 
2869.000000	99.267394 
2868.000000	99.266889 
2867.000000	99.267403 
2866.000000	99.269057 
2865.000000	99.271147 
2864.000000	99.272652 
2863.000000	99.272972 
2862.000000	99.272196 
2861.000000	99.270827 
2860.000000	99.269510 
2859.000000	99.269008 
2858.000000	99.269965 
2857.000000	99.272276 
2856.000000	99.274771 
2855.000000	99.275990 
2854.000000	99.275388 
2853.000000	99.273667 
2852.000000	99.272044 
2851.000000	99.271205 
2850.000000	99.271021 
2849.000000	99.271045 
2848.000000	99.271004 
2847.000000	99.270851 
2846.000000	99.270546 
2845.000000	99.269942 
2844.000000	99.268888 
2843.000000	99.267390 
2842.000000	99.265666 
2841.000000	99.264126 
2840.000000	99.263241 
2839.000000	99.263290 
2838.000000	99.264083 
2837.000000	99.264967 
2836.000000	99.265289 
2835.000000	99.264921 
2834.000000	99.264275 
2833.000000	99.263828 
2832.000000	99.263685 
2831.000000	99.263572 
2830.000000	99.263141 
2829.000000	99.262308 
2828.000000	99.261406 
2827.000000	99.260994 
2826.000000	99.261395 
2825.000000	99.262390 
2824.000000	99.263364 
2823.000000	99.263797 
2822.000000	99.263629 
2821.000000	99.263169 
2820.000000	99.262785 
2819.000000	99.262632 
2818.000000	99.262562 
2817.000000	99.262281 
2816.000000	99.261673 
2815.000000	99.260960 
2814.000000	99.260477 
2813.000000	99.260319 
2812.000000	99.260342 
2811.000000	99.260437 
2810.000000	99.260679 
2809.000000	99.261159 
2808.000000	99.261760 
2807.000000	99.262195 
2806.000000	99.262266 
2805.000000	99.262005 
2804.000000	99.261615 
2803.000000	99.261317 
2802.000000	99.261221 
2801.000000	99.261305 
2800.000000	99.261466 
2799.000000	99.261591 
2798.000000	99.261607 
2797.000000	99.261482 
2796.000000	99.261210 
2795.000000	99.260854 
2794.000000	99.260576 
2793.000000	99.260549 
2792.000000	99.260794 
2791.000000	99.261122 
2790.000000	99.261327 
2789.000000	99.261402 
2788.000000	99.261514 
2787.000000	99.261780 
2786.000000	99.262108 
2785.000000	99.262300 
2784.000000	99.262266 
2783.000000	99.262089 
2782.000000	99.261933 
2781.000000	99.261893 
2780.000000	99.261967 
2779.000000	99.262119 
2778.000000	99.262310 
2777.000000	99.262489 
2776.000000	99.262624 
2775.000000	99.262742 
2774.000000	99.262904 
2773.000000	99.263126 
2772.000000	99.263348 
2771.000000	99.263504 
2770.000000	99.263584 
2769.000000	99.263607 
2768.000000	99.263592 
2767.000000	99.263550 
2766.000000	99.263516 
2765.000000	99.263517 
2764.000000	99.263538 
2763.000000	99.263533 
2762.000000	99.263475 
2761.000000	99.263389 
2760.000000	99.263333 
2759.000000	99.263349 
2758.000000	99.263440 
2757.000000	99.263591 
2756.000000	99.263779 
2755.000000	99.263967 
2754.000000	99.264102 
2753.000000	99.264161 
2752.000000	99.264159 
2751.000000	99.264147 
2750.000000	99.264176 
2749.000000	99.264254 
2748.000000	99.264361 
2747.000000	99.264458 
2746.000000	99.264520 
2745.000000	99.264548 
2744.000000	99.264556 
2743.000000	99.264559 
2742.000000	99.264566 
2741.000000	99.264592 
2740.000000	99.264653 
2739.000000	99.264748 
2738.000000	99.264857 
2737.000000	99.264959 
2736.000000	99.265054 
2735.000000	99.265165 
2734.000000	99.265291 
2733.000000	99.265389 
2732.000000	99.265419 
2731.000000	99.265391 
2730.000000	99.265360 
2729.000000	99.265368 
2728.000000	99.265421 
2727.000000	99.265510 
2726.000000	99.265626 
2725.000000	99.265742 
2724.000000	99.265836 
2723.000000	99.265942 
2722.000000	99.266138 
2721.000000	99.266454 
2720.000000	99.266816 
2719.000000	99.267104 
2718.000000	99.267270 
2717.000000	99.267349 
2716.000000	99.267389 
2715.000000	99.267421 
2714.000000	99.267479 
2713.000000	99.267606 
2712.000000	99.267818 
2711.000000	99.268079 
2710.000000	99.268335 
2709.000000	99.268579 
2708.000000	99.268831 
2707.000000	99.269078 
2706.000000	99.269244 
2705.000000	99.269279 
2704.000000	99.269234 
2703.000000	99.269241 
2702.000000	99.269370 
2701.000000	99.269565 
2700.000000	99.269721 
2699.000000	99.269833 
2698.000000	99.270004 
2697.000000	99.270291 
2696.000000	99.270601 
2695.000000	99.270772 
2694.000000	99.270756 
2693.000000	99.270652 
2692.000000	99.270595 
2691.000000	99.270607 
2690.000000	99.270599 
2689.000000	99.270491 
2688.000000	99.270300 
2687.000000	99.270120 
2686.000000	99.270034 
2685.000000	99.270049 
2684.000000	99.270111 
2683.000000	99.270144 
2682.000000	99.270088 
2681.000000	99.269909 
2680.000000	99.269619 
2679.000000	99.269276 
2678.000000	99.268962 
2677.000000	99.268736 
2676.000000	99.268621 
2675.000000	99.268601 
2674.000000	99.268603 
2673.000000	99.268515 
2672.000000	99.268276 
2671.000000	99.267922 
2670.000000	99.267561 
2669.000000	99.267255 
2668.000000	99.266974 
2667.000000	99.266676 
2666.000000	99.266367 
2665.000000	99.266077 
2664.000000	99.265805 
2663.000000	99.265522 
2662.000000	99.265213 
2661.000000	99.264899 
2660.000000	99.264620 
2659.000000	99.264398 
2658.000000	99.264217 
2657.000000	99.264039 
2656.000000	99.263846 
2655.000000	99.263647 
2654.000000	99.263456 
2653.000000	99.263276 
2652.000000	99.263108 
2651.000000	99.262971 
2650.000000	99.262873 
2649.000000	99.262801 
2648.000000	99.262732 
2647.000000	99.262665 
2646.000000	99.262612 
2645.000000	99.262586 
2644.000000	99.262586 
2643.000000	99.262607 
2642.000000	99.262639 
2641.000000	99.262677 
2640.000000	99.262713 
2639.000000	99.262749 
2638.000000	99.262800 
2637.000000	99.262889 
2636.000000	99.263014 
2635.000000	99.263147 
2634.000000	99.263278 
2633.000000	99.263427 
2632.000000	99.263615 
2631.000000	99.263846 
2630.000000	99.264122 
2629.000000	99.264427 
2628.000000	99.264684 
2627.000000	99.264834 
2626.000000	99.264956 
2625.000000	99.265227 
2624.000000	99.265687 
2623.000000	99.266148 
2622.000000	99.266413 
2621.000000	99.266514 
2620.000000	99.266625 
2619.000000	99.266798 
2618.000000	99.266949 
2617.000000	99.267092 
2616.000000	99.267408 
2615.000000	99.268015 
2614.000000	99.268822 
2613.000000	99.269606 
2612.000000	99.270167 
2611.000000	99.270368 
2610.000000	99.270167 
2609.000000	99.269714 
2608.000000	99.269353 
2607.000000	99.269406 
2606.000000	99.269996 
2605.000000	99.271062 
2604.000000	99.272396 
2603.000000	99.273627 
2602.000000	99.274337 
2601.000000	99.274397 
2600.000000	99.274160 
2599.000000	99.274134 
2598.000000	99.274436 
2597.000000	99.274670 
2596.000000	99.274342 
2595.000000	99.273292 
2594.000000	99.271814 
2593.000000	99.270473 
2592.000000	99.269720 
2591.000000	99.269662 
2590.000000	99.270164 
2589.000000	99.271032 
2588.000000	99.272023 
2587.000000	99.272723 
2586.000000	99.272717 
2585.000000	99.272007 
2584.000000	99.271137 
2583.000000	99.270695 
2582.000000	99.270712 
2581.000000	99.270773 
2580.000000	99.270597 
2579.000000	99.270280 
2578.000000	99.270002 
2577.000000	99.269760 
2576.000000	99.269436 
2575.000000	99.268948 
2574.000000	99.268285 
2573.000000	99.267524 
2572.000000	99.266867 
2571.000000	99.266513 
2570.000000	99.266449 
2569.000000	99.266457 
2568.000000	99.266367 
2567.000000	99.266199 
2566.000000	99.266046 
2565.000000	99.265936 
2564.000000	99.265874 
2563.000000	99.265880 
2562.000000	99.265911 
2561.000000	99.265850 
2560.000000	99.265606 
2559.000000	99.265177 
2558.000000	99.264602 
2557.000000	99.263945 
2556.000000	99.263372 
2555.000000	99.263107 
2554.000000	99.263254 
2553.000000	99.263656 
2552.000000	99.263959 
2551.000000	99.263941 
2550.000000	99.263640 
2549.000000	99.263186 
2548.000000	99.262643 
2547.000000	99.262067 
2546.000000	99.261604 
2545.000000	99.261421 
2544.000000	99.261581 
2543.000000	99.261956 
2542.000000	99.262194 
2541.000000	99.261910 
2540.000000	99.261020 
2539.000000	99.259940 
2538.000000	99.259236 
2537.000000	99.259016 
2536.000000	99.258919 
2535.000000	99.258696 
2534.000000	99.258559 
2533.000000	99.258712 
2532.000000	99.258847 
2531.000000	99.258438 
2530.000000	99.257492 
2529.000000	99.256655 
2528.000000	99.256477 
2527.000000	99.256816 
2526.000000	99.257105 
2525.000000	99.257171 
2524.000000	99.257504 
2523.000000	99.258599 
2522.000000	99.260278 
2521.000000	99.261765 
2520.000000	99.262399 
2519.000000	99.262066 
2518.000000	99.261015 
2517.000000	99.259575 
2516.000000	99.258153 
2515.000000	99.257212 
2514.000000	99.256989 
2513.000000	99.257331 
2512.000000	99.257993 
2511.000000	99.258935 
2510.000000	99.260114 
2509.000000	99.261221 
2508.000000	99.261957 
2507.000000	99.262431 
2506.000000	99.262954 
2505.000000	99.263497 
2504.000000	99.263692 
2503.000000	99.263370 
2502.000000	99.262800 
2501.000000	99.262397 
2500.000000	99.262391 
2499.000000	99.262808 
2498.000000	99.263512 
2497.000000	99.264182 
2496.000000	99.264473 
2495.000000	99.264281 
2494.000000	99.263794 
2493.000000	99.263258 
2492.000000	99.262818 
2491.000000	99.262578 
2490.000000	99.262653 
2489.000000	99.263104 
2488.000000	99.263876 
2487.000000	99.264795 
2486.000000	99.265526 
2485.000000	99.265658 
2484.000000	99.265054 
2483.000000	99.263999 
2482.000000	99.263036 
2481.000000	99.262495 
2480.000000	99.262313 
2479.000000	99.262270 
2478.000000	99.262198 
2477.000000	99.262039 
2476.000000	99.261800 
2475.000000	99.261543 
2474.000000	99.261347 
2473.000000	99.261226 
2472.000000	99.261107 
2471.000000	99.260915 
2470.000000	99.260652 
2469.000000	99.260371 
2468.000000	99.260120 
2467.000000	99.259914 
2466.000000	99.259733 
2465.000000	99.259556 
2464.000000	99.259369 
2463.000000	99.259174 
2462.000000	99.258975 
2461.000000	99.258771 
2460.000000	99.258563 
2459.000000	99.258356 
2458.000000	99.258165 
2457.000000	99.258007 
2456.000000	99.257888 
2455.000000	99.257804 
2454.000000	99.257740 
2453.000000	99.257673 
2452.000000	99.257591 
2451.000000	99.257494 
2450.000000	99.257386 
2449.000000	99.257276 
2448.000000	99.257181 
2447.000000	99.257123 
2446.000000	99.257104 
2445.000000	99.257100 
2444.000000	99.257083 
2443.000000	99.257047 
2442.000000	99.257001 
2441.000000	99.256948 
2440.000000	99.256903 
2439.000000	99.256886 
2438.000000	99.256917 
2437.000000	99.256991 
2436.000000	99.257064 
2435.000000	99.257097 
2434.000000	99.257083 
2433.000000	99.257053 
2432.000000	99.257052 
2431.000000	99.257116 
2430.000000	99.257241 
2429.000000	99.257338 
2428.000000	99.257288 
2427.000000	99.257072 
2426.000000	99.256820 
2425.000000	99.256672 
2424.000000	99.256637 
2423.000000	99.256647 
2422.000000	99.256689 
2421.000000	99.256799 
2420.000000	99.256912 
2419.000000	99.256838 
2418.000000	99.256473 
2417.000000	99.255929 
2416.000000	99.255458 
2415.000000	99.255209 
2414.000000	99.255122 
2413.000000	99.255012 
2412.000000	99.254748 
2411.000000	99.254356 
2410.000000	99.253966 
2409.000000	99.253703 
2408.000000	99.253626 
2407.000000	99.253716 
2406.000000	99.253869 
2405.000000	99.253946 
2404.000000	99.253914 
2403.000000	99.253893 
2402.000000	99.253984 
2401.000000	99.254075 
2400.000000	99.253960 
2399.000000	99.253628 
2398.000000	99.253286 
2397.000000	99.253117 
2396.000000	99.253160 
2395.000000	99.253390 
2394.000000	99.253731 
2393.000000	99.254031 
2392.000000	99.254161 
2391.000000	99.254166 
2390.000000	99.254205 
2389.000000	99.254346 
2388.000000	99.254557 
2387.000000	99.254848 
2386.000000	99.255256 
2385.000000	99.255723 
2384.000000	99.256103 
2383.000000	99.256344 
2382.000000	99.256535 
2381.000000	99.256769 
2380.000000	99.257031 
2379.000000	99.257287 
2378.000000	99.257584 
2377.000000	99.257994 
2376.000000	99.258508 
2375.000000	99.259047 
2374.000000	99.259535 
2373.000000	99.259953 
2372.000000	99.260319 
2371.000000	99.260673 
2370.000000	99.261069 
2369.000000	99.261543 
2368.000000	99.262085 
2367.000000	99.262655 
2366.000000	99.263221 
2365.000000	99.263765 
2364.000000	99.264268 
2363.000000	99.264716 
2362.000000	99.265116 
2361.000000	99.265490 
2360.000000	99.265865 
2359.000000	99.266250 
2358.000000	99.266645 
2357.000000	99.267046 
2356.000000	99.267449 
2355.000000	99.267853 
2354.000000	99.268247 
2353.000000	99.268620 
2352.000000	99.268967 
2351.000000	99.269290 
2350.000000	99.269594 
2349.000000	99.269883 
2348.000000	99.270155 
2347.000000	99.270406 
2346.000000	99.270636 
2345.000000	99.270847 
2344.000000	99.271039 
2343.000000	99.271209 
2342.000000	99.271360 
2341.000000	99.271496 
2340.000000	99.271628 
2339.000000	99.271764 
2338.000000	99.271905 
2337.000000	99.272044 
2336.000000	99.272171 
2335.000000	99.272278 
2334.000000	99.272368 
2333.000000	99.272452 
2332.000000	99.272540 
2331.000000	99.272634 
2330.000000	99.272729 
2329.000000	99.272824 
2328.000000	99.272914 
2327.000000	99.272998 
2326.000000	99.273070 
2325.000000	99.273124 
2324.000000	99.273161 
2323.000000	99.273191 
2322.000000	99.273227 
2321.000000	99.273274 
2320.000000	99.273331 
2319.000000	99.273393 
2318.000000	99.273460 
2317.000000	99.273539 
2316.000000	99.273638 
2315.000000	99.273754 
2314.000000	99.273877 
2313.000000	99.274002 
2312.000000	99.274126 
2311.000000	99.274256 
2310.000000	99.274388 
2309.000000	99.274503 
2308.000000	99.274596 
2307.000000	99.274706 
2306.000000	99.274890 
2305.000000	99.275160 
2304.000000	99.275472 
2303.000000	99.275776 
2302.000000	99.276075 
2301.000000	99.276407 
2300.000000	99.276807 
2299.000000	99.277287 
2298.000000	99.277829 
2297.000000	99.278356 
2296.000000	99.278752 
2295.000000	99.278953 
2294.000000	99.279054 
2293.000000	99.279261 
2292.000000	99.279723 
2291.000000	99.280429 
2290.000000	99.281232 
2289.000000	99.281969 
2288.000000	99.282538 
2287.000000	99.282918 
2286.000000	99.283143 
2285.000000	99.283229 
2284.000000	99.283164 
2283.000000	99.283085 
2282.000000	99.283382 
2281.000000	99.284351 
2280.000000	99.285735 
2279.000000	99.286911 
2278.000000	99.287631 
2277.000000	99.288286 
2276.000000	99.289234 
2275.000000	99.290229 
2274.000000	99.290787 
2273.000000	99.290793 
2272.000000	99.290519 
2271.000000	99.290366 
2270.000000	99.290734 
2269.000000	99.291898 
2268.000000	99.293733 
2267.000000	99.295618 
2266.000000	99.296928 
2265.000000	99.297597 
2264.000000	99.297990 
2263.000000	99.298331 
2262.000000	99.298525 
2261.000000	99.298548 
2260.000000	99.298732 
2259.000000	99.299431 
2258.000000	99.300599 
2257.000000	99.301982 
2256.000000	99.303452 
2255.000000	99.305000 
2254.000000	99.306505 
2253.000000	99.307759 
2252.000000	99.308736 
2251.000000	99.309641 
2250.000000	99.310622 
2249.000000	99.311566 
2248.000000	99.312298 
2247.000000	99.312830 
2246.000000	99.313293 
2245.000000	99.313789 
2244.000000	99.314364 
2243.000000	99.315040 
2242.000000	99.315813 
2241.000000	99.316655 
2240.000000	99.317556 
2239.000000	99.318523 
2238.000000	99.319518 
2237.000000	99.320448 
2236.000000	99.321256 
2235.000000	99.321996 
2234.000000	99.322749 
2233.000000	99.323568 
2232.000000	99.324452 
2231.000000	99.325384 
2230.000000	99.326350 
2229.000000	99.327343 
2228.000000	99.328361 
2227.000000	99.329396 
2226.000000	99.330442 
2225.000000	99.331492 
2224.000000	99.332545 
2223.000000	99.333602 
2222.000000	99.334661 
2221.000000	99.335717 
2220.000000	99.336770 
2219.000000	99.337830 
2218.000000	99.338917 
2217.000000	99.340046 
2216.000000	99.341213 
2215.000000	99.342399 
2214.000000	99.343580 
2213.000000	99.344747 
2212.000000	99.345906 
2211.000000	99.347077 
2210.000000	99.348273 
2209.000000	99.349499 
2208.000000	99.350754 
2207.000000	99.352029 
2206.000000	99.353320 
2205.000000	99.354635 
2204.000000	99.355998 
2203.000000	99.357434 
2202.000000	99.358950 
2201.000000	99.360522 
2200.000000	99.362110 
2199.000000	99.363693 
2198.000000	99.365236 
2197.000000	99.366680 
2196.000000	99.368087 
2195.000000	99.369565 
2194.000000	99.371175 
2193.000000	99.372902 
2192.000000	99.374631 
2191.000000	99.376163 
2190.000000	99.377413 
2189.000000	99.378672 
2188.000000	99.380360 
2187.000000	99.382287 
2186.000000	99.383455 
2185.000000	99.383102 
2184.000000	99.381874 
2183.000000	99.381435 
2182.000000	99.382551 
2181.000000	99.384340 
2180.000000	99.385661 
2179.000000	99.386720 
2178.000000	99.388517 
2177.000000	99.391264 
2176.000000	99.394088 
2175.000000	99.395972 
2174.000000	99.396440 
2173.000000	99.395737 
2172.000000	99.395035 
2171.000000	99.395986 
2170.000000	99.399191 
2169.000000	99.403261 
2168.000000	99.406118 
2167.000000	99.407134 
2166.000000	99.407206 
2165.000000	99.407266 
2164.000000	99.407897 
2163.000000	99.410139 
2162.000000	99.414720 
2161.000000	99.419784 
2160.000000	99.421283 
2159.000000	99.417020 
2158.000000	99.408864 
2157.000000	99.400611 
2156.000000	99.394387 
2155.000000	99.390396 
2154.000000	99.388780 
2153.000000	99.389820 
2152.000000	99.392744 
2151.000000	99.395534 
2150.000000	99.396441 
2149.000000	99.395564 
2148.000000	99.394751 
2147.000000	99.395633 
2146.000000	99.397612 
2145.000000	99.398127 
2144.000000	99.395306 
2143.000000	99.389886 
2142.000000	99.384441 
2141.000000	99.380842 
2140.000000	99.378986 
2139.000000	99.377835 
2138.000000	99.376849 
2137.000000	99.376180 
2136.000000	99.375908 
2135.000000	99.375537 
2134.000000	99.374373 
2133.000000	99.372435 
2132.000000	99.370713 
2131.000000	99.370030 
2130.000000	99.369655 
2129.000000	99.367759 
2128.000000	99.363602 
2127.000000	99.358655 
2126.000000	99.354989 
2125.000000	99.353195 
2124.000000	99.352598 
2123.000000	99.352927 
2122.000000	99.354486 
2121.000000	99.356743 
2120.000000	99.358256 
2119.000000	99.358319 
2118.000000	99.357682 
2117.000000	99.357342 
2116.000000	99.357341 
2115.000000	99.357085 
2114.000000	99.356352 
2113.000000	99.355506 
2112.000000	99.354968 
2111.000000	99.354847 
2110.000000	99.354962 
2109.000000	99.354951 
2108.000000	99.354437 
2107.000000	99.353183 
2106.000000	99.351030 
2105.000000	99.348018 
2104.000000	99.345001 
2103.000000	99.343696 
2102.000000	99.345220 
2101.000000	99.348609 
2100.000000	99.351457 
2099.000000	99.352340 
2098.000000	99.351878 
2097.000000	99.351561 
2096.000000	99.352377 
2095.000000	99.354615 
2094.000000	99.358005 
2093.000000	99.361602 
2092.000000	99.364236 
2091.000000	99.365550 
2090.000000	99.366292 
2089.000000	99.367371 
2088.000000	99.368840 
2087.000000	99.369910 
2086.000000	99.369777 
2085.000000	99.368514 
2084.000000	99.367523 
2083.000000	99.368820 
2082.000000	99.373331 
2081.000000	99.379856 
2080.000000	99.385819 
2079.000000	99.389616 
2078.000000	99.391710 
2077.000000	99.393537 
2076.000000	99.395859 
2075.000000	99.398263 
2074.000000	99.399806 
2073.000000	99.399871 
2072.000000	99.398837 
2071.000000	99.398006 
2070.000000	99.398578 
2069.000000	99.400466 
2068.000000	99.402531 
2067.000000	99.404067 
2066.000000	99.405539 
2065.000000	99.407804 
2064.000000	99.411216 
2063.000000	99.415596 
2062.000000	99.420309 
2061.000000	99.424248 
2060.000000	99.426565 
2059.000000	99.427620 
2058.000000	99.428814 
2057.000000	99.431185 
2056.000000	99.434483 
2055.000000	99.437798 
2054.000000	99.440643 
2053.000000	99.443133 
2052.000000	99.445505 
2051.000000	99.447895 
2050.000000	99.450404 
2049.000000	99.453035 
2048.000000	99.455661 
2047.000000	99.458243 
2046.000000	99.460886 
2045.000000	99.463491 
2044.000000	99.465602 
2043.000000	99.466885 
2042.000000	99.467619 
2041.000000	99.468501 
2040.000000	99.470000 
2039.000000	99.472045 
2038.000000	99.474207 
2037.000000	99.476060 
2036.000000	99.477478 
2035.000000	99.478621 
2034.000000	99.479557 
2033.000000	99.480162 
2032.000000	99.480733 
2031.000000	99.482322 
2030.000000	99.485771 
2029.000000	99.490198 
2028.000000	99.493215 
2027.000000	99.493356 
2026.000000	99.491186 
2025.000000	99.488427 
2024.000000	99.486445 
2023.000000	99.485989 
2022.000000	99.487402 
2021.000000	99.489997 
2020.000000	99.492051 
2019.000000	99.492523 
2018.000000	99.492097 
2017.000000	99.491900 
2016.000000	99.491890 
2015.000000	99.491494 
2014.000000	99.490895 
2013.000000	99.490448 
2012.000000	99.489722 
2011.000000	99.488382 
2010.000000	99.487437 
2009.000000	99.488366 
2008.000000	99.491253 
2007.000000	99.494755 
2006.000000	99.497603 
2005.000000	99.499216 
2004.000000	99.499281 
2003.000000	99.497801 
2002.000000	99.495304 
2001.000000	99.492163 
2000.000000	99.487933 
1999.000000	99.482075 
1998.000000	99.475164 
1997.000000	99.468894 
1996.000000	99.465136 
1995.000000	99.465317 
1994.000000	99.469809 
1993.000000	99.476751 
1992.000000	99.482156 
1991.000000	99.482992 
1990.000000	99.479745 
1989.000000	99.475337 
1988.000000	99.472566 
1987.000000	99.473111 
1986.000000	99.477659 
1985.000000	99.485373 
1984.000000	99.493429 
1983.000000	99.498545 
1982.000000	99.499155 
1981.000000	99.496057 
1980.000000	99.492042 
1979.000000	99.490747 
1978.000000	99.493943 
1977.000000	99.498790 
1976.000000	99.499683 
1975.000000	99.494562 
1974.000000	99.487588 
1973.000000	99.484384 
1972.000000	99.485877 
1971.000000	99.488897 
1970.000000	99.491350 
1969.000000	99.494065 
1968.000000	99.497664 
1967.000000	99.500182 
1966.000000	99.499256 
1965.000000	99.495287 
1964.000000	99.491074 
1963.000000	99.488952 
1962.000000	99.489077 
1961.000000	99.490030 
1960.000000	99.490301 
1959.000000	99.488865 
1958.000000	99.484835 
1957.000000	99.477729 
1956.000000	99.468488 
1955.000000	99.459170 
1954.000000	99.450842 
1953.000000	99.442706 
1952.000000	99.434423 
1951.000000	99.428365 
1950.000000	99.427589 
1949.000000	99.431777 
1948.000000	99.436833 
1947.000000	99.439115 
1946.000000	99.438297 
1945.000000	99.435410 
1944.000000	99.430548 
1943.000000	99.423822 
1942.000000	99.416907 
1941.000000	99.411588 
1940.000000	99.407869 
1939.000000	99.405021 
1938.000000	99.403245 
1937.000000	99.403126 
1936.000000	99.404212 
1935.000000	99.405095 
1934.000000	99.404654 
1933.000000	99.402640 
1932.000000	99.399586 
1931.000000	99.396721 
1930.000000	99.395320 
1929.000000	99.395434 
1928.000000	99.395656 
1927.000000	99.394524 
1926.000000	99.391802 
1925.000000	99.388169 
1924.000000	99.384435 
1923.000000	99.381276 
1922.000000	99.379098 
1921.000000	99.377769 
1920.000000	99.376733 
1919.000000	99.375445 
1918.000000	99.373769 
1917.000000	99.371907 
1916.000000	99.370078 
1915.000000	99.368377 
1914.000000	99.366799 
1913.000000	99.365294 
1912.000000	99.363802 
1911.000000	99.362285 
1910.000000	99.360747 
1909.000000	99.359194 
1908.000000	99.357618 
1907.000000	99.356016 
1906.000000	99.354395 
1905.000000	99.352760 
1904.000000	99.351118 
1903.000000	99.349474 
1902.000000	99.347842 
1901.000000	99.346239 
1900.000000	99.344683 
1899.000000	99.343182 
1898.000000	99.341734 
1897.000000	99.340326 
1896.000000	99.338942 
1895.000000	99.337573 
1894.000000	99.336221 
1893.000000	99.334916 
1892.000000	99.333690 
1891.000000	99.332525 
1890.000000	99.331351 
1889.000000	99.330121 
1888.000000	99.328869 
1887.000000	99.327671 
1886.000000	99.326583 
1885.000000	99.325595 
1884.000000	99.324595 
1883.000000	99.323444 
1882.000000	99.322133 
1881.000000	99.320849 
1880.000000	99.319814 
1879.000000	99.319050 
1878.000000	99.318277 
1877.000000	99.317091 
1876.000000	99.315396 
1875.000000	99.313759 
1874.000000	99.313106 
1873.000000	99.313800 
1872.000000	99.315093 
1871.000000	99.315632 
1870.000000	99.314681 
1869.000000	99.312674 
1868.000000	99.310430 
1867.000000	99.308043 
1866.000000	99.305267 
1865.000000	99.302577 
1864.000000	99.301208 
1863.000000	99.302127 
1862.000000	99.305032 
1861.000000	99.308329 
1860.000000	99.310389 
1859.000000	99.311090 
1858.000000	99.311681 
1857.000000	99.313091 
1856.000000	99.314920 
1855.000000	99.316337 
1854.000000	99.317172 
1853.000000	99.317643 
1852.000000	99.317712 
1851.000000	99.317169 
1850.000000	99.316195 
1849.000000	99.315387 
1848.000000	99.315181 
1847.000000	99.315568 
1846.000000	99.316236 
1845.000000	99.316572 
1844.000000	99.315926 
1843.000000	99.314637 
1842.000000	99.314046 
1841.000000	99.314999 
1840.000000	99.317167 
1839.000000	99.319541 
1838.000000	99.321244 
1837.000000	99.322032 
1836.000000	99.322222 
1835.000000	99.322386 
1834.000000	99.322938 
1833.000000	99.323774 
1832.000000	99.324329 
1831.000000	99.324083 
1830.000000	99.323319 
1829.000000	99.322979 
1828.000000	99.323448 
1827.000000	99.324147 
1826.000000	99.324376 
1825.000000	99.324137 
1824.000000	99.323995 
1823.000000	99.324248 
1822.000000	99.324573 
1821.000000	99.324407 
1820.000000	99.323492 
1819.000000	99.322217 
1818.000000	99.321456 
1817.000000	99.321754 
1816.000000	99.322703 
1815.000000	99.323404 
1814.000000	99.323493 
1813.000000	99.323404 
1812.000000	99.323795 
1811.000000	99.324913 
1810.000000	99.326526 
1809.000000	99.328170 
1808.000000	99.329334 
1807.000000	99.329676 
1806.000000	99.329280 
1805.000000	99.328637 
1804.000000	99.328228 
1803.000000	99.328161 
1802.000000	99.328299 
1801.000000	99.328544 
1800.000000	99.328730 
1799.000000	99.328590 
1798.000000	99.328106 
1797.000000	99.327621 
1796.000000	99.327550 
1795.000000	99.328084 
1794.000000	99.329042 
1793.000000	99.329925 
1792.000000	99.330402 
1791.000000	99.330730 
1790.000000	99.331380 
1789.000000	99.332478 
1788.000000	99.333819 
1787.000000	99.335095 
1786.000000	99.336032 
1785.000000	99.336439 
1784.000000	99.336336 
1783.000000	99.336126 
1782.000000	99.336379 
1781.000000	99.337317 
1780.000000	99.338486 
1779.000000	99.339196 
1778.000000	99.339404 
1777.000000	99.339706 
1776.000000	99.340634 
1775.000000	99.342327 
1774.000000	99.344582 
1773.000000	99.346830 
1772.000000	99.348298 
1771.000000	99.348774 
1770.000000	99.348795 
1769.000000	99.348869 
1768.000000	99.349159 
1767.000000	99.349661 
1766.000000	99.350336 
1765.000000	99.351079 
1764.000000	99.351652 
1763.000000	99.351946 
1762.000000	99.352316 
1761.000000	99.353298 
1760.000000	99.354851 
1759.000000	99.356388 
1758.000000	99.357451 
1757.000000	99.358065 
1756.000000	99.358552 
1755.000000	99.359073 
1754.000000	99.359551 
1753.000000	99.359950 
1752.000000	99.360567 
1751.000000	99.361989 
1750.000000	99.364322 
1749.000000	99.366630 
1748.000000	99.367740 
1747.000000	99.367275 
1746.000000	99.365769 
1745.000000	99.364069 
1744.000000	99.362780 
1743.000000	99.362196 
1742.000000	99.362403 
1741.000000	99.363229 
1740.000000	99.364075 
1739.000000	99.364386 
1738.000000	99.364259 
1737.000000	99.363871 
1736.000000	99.362794 
1735.000000	99.360279 
1734.000000	99.356641 
1733.000000	99.354032 
1732.000000	99.353771 
1731.000000	99.354757 
1730.000000	99.355444 
1729.000000	99.355380 
1728.000000	99.355077 
1727.000000	99.355010 
1726.000000	99.355037 
1725.000000	99.354607 
1724.000000	99.353480 
1723.000000	99.352437 
1722.000000	99.352704 
1721.000000	99.354441 
1720.000000	99.356275 
1719.000000	99.356273 
1718.000000	99.353555 
1717.000000	99.349300 
1716.000000	99.345163 
1715.000000	99.341664 
1714.000000	99.339011 
1713.000000	99.337272 
1712.000000	99.335792 
1711.000000	99.333836 
1710.000000	99.331485 
1709.000000	99.329414 
1708.000000	99.327788 
1707.000000	99.326087 
1706.000000	99.324406 
1705.000000	99.323500 
1704.000000	99.322769 
1703.000000	99.320388 
1702.000000	99.315473 
1701.000000	99.309524 
1700.000000	99.305206 
1699.000000	99.302908 
1698.000000	99.301163 
1697.000000	99.299121 
1696.000000	99.296942 
1695.000000	99.294736 
1694.000000	99.292503 
1693.000000	99.290089 
1692.000000	99.286920 
1691.000000	99.283083 
1690.000000	99.279310 
1689.000000	99.275950 
1688.000000	99.272405 
1687.000000	99.267835 
1686.000000	99.262386 
1685.000000	99.257414 
1684.000000	99.254252 
1683.000000	99.252354 
1682.000000	99.250099 
1681.000000	99.246929 
1680.000000	99.243725 
1679.000000	99.241514 
1678.000000	99.240218 
1677.000000	99.238819 
1676.000000	99.236427 
1675.000000	99.233028 
1674.000000	99.229559 
1673.000000	99.227051 
1672.000000	99.225646 
1671.000000	99.224895 
1670.000000	99.223914 
1669.000000	99.221599 
1668.000000	99.218054 
1667.000000	99.214272 
1666.000000	99.210410 
1665.000000	99.206053 
1664.000000	99.201582 
1663.000000	99.198479 
1662.000000	99.197664 
1661.000000	99.198188 
1660.000000	99.198483 
1659.000000	99.197752 
1658.000000	99.196031 
1657.000000	99.192710 
1656.000000	99.186761 
1655.000000	99.178169 
1654.000000	99.171073 
1653.000000	99.168702 
1652.000000	99.167939 
1651.000000	99.167844 
1650.000000	99.167378 
1649.000000	99.163495 
1648.000000	99.156682 
1647.000000	99.150498 
1646.000000	99.147891 
1645.000000	99.148868 
1644.000000	99.152168 
1643.000000	99.156014 
1642.000000	99.158643 
1641.000000	99.159552 
1640.000000	99.158954 
1639.000000	99.156968 
1638.000000	99.153848 
1637.000000	99.150903 
1636.000000	99.149958 
1635.000000	99.151216 
1634.000000	99.153961 
1633.000000	99.157435 
1632.000000	99.160135 
1631.000000	99.161154 
1630.000000	99.161077 
1629.000000	99.161135 
1628.000000	99.162275 
1627.000000	99.164572 
1626.000000	99.167593 
1625.000000	99.171252 
1624.000000	99.175787 
1623.000000	99.180870 
1622.000000	99.185498 
1621.000000	99.189072 
1620.000000	99.191469 
1619.000000	99.192852 
1618.000000	99.194427 
1617.000000	99.197461 
1616.000000	99.201655 
1615.000000	99.205988 
1614.000000	99.209499 
1613.000000	99.211554 
1612.000000	99.212752 
1611.000000	99.214041 
1610.000000	99.215569 
1609.000000	99.217428 
1608.000000	99.220305 
1607.000000	99.224283 
1606.000000	99.228222 
1605.000000	99.231693 
1604.000000	99.235962 
1603.000000	99.241978 
1602.000000	99.248469 
1601.000000	99.253231 
1600.000000	99.255923 
1599.000000	99.258260 
1598.000000	99.261807 
1597.000000	99.266690 
1596.000000	99.272275 
1595.000000	99.278092 
1594.000000	99.283663 
1593.000000	99.288290 
1592.000000	99.291730 
1591.000000	99.294690 
1590.000000	99.298136 
1589.000000	99.302263 
1588.000000	99.306502 
1587.000000	99.310329 
1586.000000	99.313456 
1585.000000	99.315721 
1584.000000	99.317286 
1583.000000	99.318586 
1582.000000	99.320284 
1581.000000	99.323011 
1580.000000	99.326769 
1579.000000	99.330718 
1578.000000	99.333980 
1577.000000	99.336356 
1576.000000	99.338467 
1575.000000	99.341827 
1574.000000	99.346897 
1573.000000	99.351575 
1572.000000	99.353812 
1571.000000	99.354004 
1570.000000	99.354536 
1569.000000	99.357138 
1568.000000	99.360972 
1567.000000	99.364146 
1566.000000	99.365800 
1565.000000	99.366461 
1564.000000	99.367314 
1563.000000	99.368514 
1562.000000	99.369455 
1561.000000	99.369911 
1560.000000	99.370180 
1559.000000	99.370892 
1558.000000	99.372139 
1557.000000	99.374328 
1556.000000	99.377536 
1555.000000	99.380250 
1554.000000	99.381328 
1553.000000	99.381305 
1552.000000	99.381329 
1551.000000	99.382199 
1550.000000	99.384133 
1549.000000	99.386579 
1548.000000	99.388399 
1547.000000	99.388841 
1546.000000	99.387698 
1545.000000	99.385508 
1544.000000	99.383502 
1543.000000	99.382607 
1542.000000	99.383016 
1541.000000	99.384246 
1540.000000	99.384610 
1539.000000	99.383448 
1538.000000	99.382884 
1537.000000	99.383955 
1536.000000	99.385339 
1535.000000	99.386010 
1534.000000	99.386129 
1533.000000	99.386165 
1532.000000	99.386072 
1531.000000	99.385765 
1530.000000	99.385638 
1529.000000	99.385925 
1528.000000	99.386276 
1527.000000	99.386350 
1526.000000	99.386396 
1525.000000	99.386798 
1524.000000	99.387428 
1523.000000	99.387966 
1522.000000	99.388580 
1521.000000	99.389495 
1520.000000	99.390275 
1519.000000	99.390420 
1518.000000	99.389941 
1517.000000	99.389310 
1516.000000	99.389011 
1515.000000	99.389072 
1514.000000	99.389356 
1513.000000	99.389815 
1512.000000	99.390365 
1511.000000	99.390826 
1510.000000	99.391068 
1509.000000	99.391138 
1508.000000	99.391337 
1507.000000	99.391965 
1506.000000	99.392503 
1505.000000	99.392551 
1504.000000	99.392583 
1503.000000	99.392748 
1502.000000	99.392869 
1501.000000	99.393011 
1500.000000	99.393242 
1499.000000	99.393416 
1498.000000	99.393346 
1497.000000	99.393348 
1496.000000	99.393893 
1495.000000	99.394873 
1494.000000	99.395725 
1493.000000	99.396037 
1492.000000	99.395694 
1491.000000	99.394873 
1490.000000	99.393985 
1489.000000	99.393294 
1488.000000	99.392570 
1487.000000	99.391693 
1486.000000	99.391068 
1485.000000	99.391013 
1484.000000	99.391411 
1483.000000	99.391859 
1482.000000	99.391952 
1481.000000	99.391575 
1480.000000	99.390910 
1479.000000	99.390207 
1478.000000	99.389575 
1477.000000	99.388966 
1476.000000	99.388296 
1475.000000	99.387556 
1474.000000	99.386936 
1473.000000	99.386739 
1472.000000	99.386765 
1471.000000	99.386284 
1470.000000	99.385090 
1469.000000	99.383630 
1468.000000	99.382400 
1467.000000	99.381702 
1466.000000	99.381634 
1465.000000	99.381967 
1464.000000	99.382084 
1463.000000	99.381647 
1462.000000	99.381059 
1461.000000	99.380773 
1460.000000	99.380515 
1459.000000	99.379439 
1458.000000	99.376972 
1457.000000	99.373928 
1456.000000	99.371747 
1455.000000	99.370688 
1454.000000	99.370103 
1453.000000	99.369436 
1452.000000	99.368543 
1451.000000	99.367440 
1450.000000	99.366179 
1449.000000	99.365123 
1448.000000	99.364536 
1447.000000	99.364065 
1446.000000	99.363235 
1445.000000	99.362289 
1444.000000	99.361585 
1443.000000	99.360838 
1442.000000	99.359771 
1441.000000	99.358768 
1440.000000	99.358438 
1439.000000	99.358844 
1438.000000	99.359284 
1437.000000	99.358638 
1436.000000	99.356115 
1435.000000	99.351967 
1434.000000	99.347582 
1433.000000	99.344600 
1432.000000	99.344057 
1431.000000	99.346034 
1430.000000	99.349454 
1429.000000	99.352820 
1428.000000	99.355037 
1427.000000	99.355784 
1426.000000	99.355629 
1425.000000	99.355765 
1424.000000	99.357156 
1423.000000	99.358977 
1422.000000	99.359323 
1421.000000	99.357814 
1420.000000	99.356061 
1419.000000	99.355797 
1418.000000	99.356729 
1417.000000	99.357621 
1416.000000	99.358454 
1415.000000	99.359548 
1414.000000	99.360488 
1413.000000	99.360772 
1412.000000	99.360672 
1411.000000	99.360909 
1410.000000	99.361772 
1409.000000	99.363405 
1408.000000	99.365960 
1407.000000	99.368972 
1406.000000	99.371706 
1405.000000	99.374729 
1404.000000	99.379486 
1403.000000	99.385351 
1402.000000	99.389745 
1401.000000	99.391429 
1400.000000	99.392002 
1399.000000	99.394123 
1398.000000	99.398128 
1397.000000	99.401990 
1396.000000	99.404336 
1395.000000	99.405669 
1394.000000	99.407120 
1393.000000	99.409562 
1392.000000	99.413837 
1391.000000	99.420012 
1390.000000	99.426906 
1389.000000	99.432907 
1388.000000	99.436981 
1387.000000	99.439018 
1386.000000	99.439498 
1385.000000	99.439451 
1384.000000	99.440235 
1383.000000	99.442576 
1382.000000	99.446040 
1381.000000	99.449741 
1380.000000	99.453155 
1379.000000	99.456077 
1378.000000	99.458117 
1377.000000	99.458796 
1376.000000	99.458367 
1375.000000	99.458187 
1374.000000	99.459524 
1373.000000	99.461900 
1372.000000	99.463871 
1371.000000	99.465290 
1370.000000	99.467285 
1369.000000	99.470350 
1368.000000	99.473804 
1367.000000	99.476757 
1366.000000	99.478917 
1365.000000	99.480233 
1364.000000	99.480395 
1363.000000	99.479606 
1362.000000	99.479115 
1361.000000	99.479748 
1360.000000	99.480928 
1359.000000	99.481962 
1358.000000	99.483229 
1357.000000	99.485470 
1356.000000	99.488439 
1355.000000	99.490954 
1354.000000	99.492235 
1353.000000	99.492396 
1352.000000	99.491442 
1351.000000	99.489149 
1350.000000	99.486218 
1349.000000	99.484147 
1348.000000	99.483939 
1347.000000	99.485431 
1346.000000	99.487930 
1345.000000	99.490788 
1344.000000	99.493365 
1343.000000	99.495144 
1342.000000	99.496080 
1341.000000	99.496405 
1340.000000	99.496114 
1339.000000	99.495088 
1338.000000	99.493666 
1337.000000	99.492603 
1336.000000	99.492297 
1335.000000	99.492496 
1334.000000	99.493033 
1333.000000	99.494160 
1332.000000	99.495778 
1331.000000	99.497025 
1330.000000	99.497161 
1329.000000	99.496372 
1328.000000	99.495366 
1327.000000	99.494629 
1326.000000	99.494302 
1325.000000	99.494279 
1324.000000	99.494453 
1323.000000	99.494777 
1322.000000	99.495175 
1321.000000	99.495401 
1320.000000	99.495114 
1319.000000	99.494322 
1318.000000	99.493655 
1317.000000	99.493760 
1316.000000	99.494320 
1315.000000	99.494236 
1314.000000	99.493045 
1313.000000	99.491761 
1312.000000	99.491784 
1311.000000	99.493313 
1310.000000	99.495416 
1309.000000	99.497242 
1308.000000	99.498371 
1307.000000	99.498283 
1306.000000	99.496535 
1305.000000	99.493653 
1304.000000	99.491343 
1303.000000	99.491077 
1302.000000	99.492769 
1301.000000	99.495055 
1300.000000	99.496567 
1299.000000	99.496724 
1298.000000	99.495695 
1297.000000	99.494157 
1296.000000	99.493025 
1295.000000	99.493120 
1294.000000	99.494737 
1293.000000	99.497349 
1292.000000	99.499628 
1291.000000	99.500103 
1290.000000	99.498403 
1289.000000	99.495882 
1288.000000	99.494366 
1287.000000	99.494041 
1286.000000	99.493341 
1285.000000	99.491265 
1284.000000	99.488955 
1283.000000	99.488205 
1282.000000	99.489075 
1281.000000	99.489988 
1280.000000	99.489872 
1279.000000	99.489063 
1278.000000	99.488088 
1277.000000	99.486780 
1276.000000	99.485096 
1275.000000	99.484130 
1274.000000	99.485509 
1273.000000	99.489802 
1272.000000	99.495657 
1271.000000	99.500352 
1270.000000	99.501490 
1269.000000	99.498806 
1268.000000	99.494495 
1267.000000	99.491313 
1266.000000	99.490106 
1265.000000	99.489735 
1264.000000	99.489258 
1263.000000	99.489120 
1262.000000	99.489927 
1261.000000	99.491164 
1260.000000	99.491995 
1259.000000	99.492702 
1258.000000	99.494247 
1257.000000	99.496681 
1256.000000	99.498788 
1255.000000	99.499477 
1254.000000	99.499113 
1253.000000	99.499144 
1252.000000	99.500323 
1251.000000	99.501480 
1250.000000	99.500446 
1249.000000	99.496465 
1248.000000	99.491473 
1247.000000	99.488384 
1246.000000	99.488111 
1245.000000	99.488860 
1244.000000	99.488263 
1243.000000	99.485402 
1242.000000	99.480881 
1241.000000	99.476078 
1240.000000	99.472624 
1239.000000	99.471365 
1238.000000	99.471024 
1237.000000	99.468775 
1236.000000	99.462922 
1235.000000	99.454436 
1234.000000	99.445339 
1233.000000	99.436502 
1232.000000	99.427784 
1231.000000	99.419165 
1230.000000	99.410195 
1229.000000	99.398986 
1228.000000	99.383533 
1227.000000	99.364337 
1226.000000	99.344447 
1225.000000	99.326034 
1224.000000	99.307464 
1223.000000	99.284507 
1222.000000	99.254447 
1221.000000	99.218660 
1220.000000	99.181075 
1219.000000	99.144177 
1218.000000	99.106875 
1217.000000	99.066536 
1216.000000	99.022270 
1215.000000	98.975201 
1214.000000	98.926291 
1213.000000	98.875732 
1212.000000	98.824219 
1211.000000	98.772546 
1210.000000	98.719709 
1209.000000	98.663946 
1208.000000	98.606304 
1207.000000	98.550497 
1206.000000	98.498026 
1205.000000	98.446135 
1204.000000	98.392065 
1203.000000	98.336532 
1202.000000	98.281214 
1201.000000	98.225600 
1200.000000	98.168815 
1199.000000	98.112470 
1198.000000	98.058879 
1197.000000	98.007747 
1196.000000	97.956739 
1195.000000	97.904124 
1194.000000	97.849280 
1193.000000	97.792054 
1192.000000	97.733308 
1191.000000	97.674741 
1190.000000	97.616752 
1189.000000	97.558030 
1188.000000	97.498453 
1187.000000	97.440181 
1186.000000	97.384081 
1185.000000	97.327084 
1184.000000	97.265186 
1183.000000	97.197579 
1182.000000	97.126331 
1181.000000	97.053914 
1180.000000	96.982602 
1179.000000	96.913896 
1178.000000	96.846111 
1177.000000	96.774435 
1176.000000	96.695860 
1175.000000	96.612685 
1174.000000	96.529319 
1173.000000	96.447397 
1172.000000	96.366122 
1171.000000	96.285247 
1170.000000	96.205033 
1169.000000	96.124971 
1168.000000	96.045258 
1167.000000	95.968759 
1166.000000	95.900137 
1165.000000	95.844745 
1164.000000	95.809386 
1163.000000	95.800832 
1162.000000	95.820320 
1161.000000	95.860244 
1160.000000	95.907296 
1159.000000	95.947737 
1158.000000	95.970170 
1157.000000	95.967255 
1156.000000	95.937666 
1155.000000	95.885805 
1154.000000	95.818493 
1153.000000	95.742297 
1152.000000	95.663289 
1151.000000	95.586107 
1150.000000	95.511799 
1149.000000	95.438901 
1148.000000	95.367243 
1147.000000	95.297686 
1146.000000	95.227933 
1145.000000	95.153328 
1144.000000	95.073689 
1143.000000	94.995084 
1142.000000	94.922215 
1141.000000	94.852652 
1140.000000	94.781134 
1139.000000	94.705799 
1138.000000	94.627523 
1137.000000	94.546876 
1136.000000	94.464888 
1135.000000	94.383721 
1134.000000	94.303553 
1133.000000	94.221518 
1132.000000	94.136033 
1131.000000	94.049176 
1130.000000	93.962760 
1129.000000	93.875535 
1128.000000	93.786457 
1127.000000	93.696865 
1126.000000	93.606999 
1125.000000	93.514368 
1124.000000	93.418267 
1123.000000	93.322015 
1122.000000	93.227848 
1121.000000	93.133501 
1120.000000	93.036770 
1119.000000	92.939603 
1118.000000	92.844803 
1117.000000	92.752654 
1116.000000	92.663406 
1115.000000	92.578690 
1114.000000	92.497737 
1113.000000	92.416761 
1112.000000	92.334910 
1111.000000	92.256169 
1110.000000	92.182880 
1109.000000	92.112159 
1108.000000	92.040911 
1107.000000	91.969277 
1106.000000	91.896930 
1105.000000	91.821310 
1104.000000	91.742083 
1103.000000	91.662692 
1102.000000	91.585368 
1101.000000	91.509487 
1100.000000	91.435732 
1099.000000	91.365942 
1098.000000	91.298453 
1097.000000	91.229596 
1096.000000	91.161025 
1095.000000	91.098268 
1094.000000	91.041188 
1093.000000	90.983877 
1092.000000	90.925314 
1091.000000	90.871013 
1090.000000	90.821542 
1089.000000	90.768884 
1088.000000	90.708493 
1087.000000	90.646884 
1086.000000	90.592688 
1085.000000	90.546992 
1084.000000	90.506226 
1083.000000	90.467603 
1082.000000	90.427892 
1081.000000	90.383459 
1080.000000	90.335112 
1079.000000	90.287233 
1078.000000	90.239931 
1077.000000	90.188366 
1076.000000	90.131113 
1075.000000	90.071235 
1074.000000	90.007173 
1073.000000	89.930793 
1072.000000	89.836880 
1071.000000	89.726771 
1070.000000	89.600954 
1069.000000	89.456888 
1068.000000	89.296951 
1067.000000	89.129884 
1066.000000	88.960793 
1065.000000	88.787999 
1064.000000	88.612887 
1063.000000	88.443321 
1062.000000	88.283047 
1061.000000	88.126889 
1060.000000	87.970754 
1059.000000	87.817386 
1058.000000	87.668218 
1057.000000	87.518543 
1056.000000	87.364771 
1055.000000	87.207595 
1054.000000	87.044606 
1053.000000	86.869637 
1052.000000	86.683712 
1051.000000	86.496201 
1050.000000	86.310031 
1049.000000	86.117335 
1048.000000	85.914637 
1047.000000	85.709011 
1046.000000	85.504345 
1045.000000	85.294929 
1044.000000	85.077773 
1043.000000	84.859419 
1042.000000	84.645687 
1041.000000	84.435546 
1040.000000	84.229745 
1039.000000	84.034406 
1038.000000	83.851264 
1037.000000	83.675507 
1036.000000	83.507942 
1035.000000	83.357955 
1034.000000	83.229770 
1033.000000	83.116991 
1032.000000	83.014576 
1031.000000	82.924686 
1030.000000	82.847229 
1029.000000	82.777137 
1028.000000	82.714874 
1027.000000	82.667028 
1026.000000	82.632487 
1025.000000	82.600380 
1024.000000	82.565236 
1023.000000	82.531447 
1022.000000	82.499628 
1021.000000	82.462548 
1020.000000	82.418869 
1019.000000	82.377187 
1018.000000	82.341309 
1017.000000	82.304272 
1016.000000	82.261793 
1015.000000	82.219381 
1014.000000	82.181263 
1013.000000	82.144113 
1012.000000	82.106112 
1011.000000	82.070779 
1010.000000	82.038393 
1009.000000	82.005610 
1008.000000	81.976716 
1007.000000	81.962521 
1006.000000	81.964551 
1005.000000	81.972874 
1004.000000	81.982893 
1003.000000	82.001361 
1002.000000	82.032288 
1001.000000	82.070269 
1000.000000	82.111790 
999.000000	 82.160100 
998.000000	 82.214497 
997.000000	 82.267625 
996.000000	 82.318247 
995.000000	 82.374927 
994.000000	 82.442431 
993.000000	 82.515458 
992.000000	 82.589513 
991.000000	 82.667051 
990.000000	 82.749606 
989.000000	 82.835006 
988.000000	 82.925530 
987.000000	 83.027955 
986.000000	 83.142850 
985.000000	 83.264597 
984.000000	 83.393852 
983.000000	 83.538303 
982.000000	 83.699206 
981.000000	 83.869156 
980.000000	 84.045377 
979.000000	 84.233017 
978.000000	 84.432893 
977.000000	 84.638558 
976.000000	 84.848702 
975.000000	 85.070221 
974.000000	 85.304953 
973.000000	 85.544458 
972.000000	 85.781926 
971.000000	 86.019130 
970.000000	 86.258048 
969.000000	 86.495686 
968.000000	 86.731150 
967.000000	 86.968500 
966.000000	 87.208029 
965.000000	 87.442369 
964.000000	 87.665100 
963.000000	 87.876853 
962.000000	 88.080512 
961.000000	 88.277003 
960.000000	 88.468075 
959.000000	 88.656665 
958.000000	 88.841881 
957.000000	 89.019089 
956.000000	 89.186833 
955.000000	 89.348674 
954.000000	 89.507186 
953.000000	 89.661031 
952.000000	 89.808301 
951.000000	 89.947533 
950.000000	 90.075441 
949.000000	 90.189110 
948.000000	 90.290930 
947.000000	 90.386872 
946.000000	 90.480204 
945.000000	 90.571042 
944.000000	 90.660051 
943.000000	 90.746688 
942.000000	 90.825580 
941.000000	 90.891498 
940.000000	 90.947219 
939.000000	 91.000651 
938.000000	 91.055577 
937.000000	 91.111602 
936.000000	 91.170994 
935.000000	 91.237140 
934.000000	 91.306847 
933.000000	 91.372582 
932.000000	 91.432824 
931.000000	 91.493108 
930.000000	 91.557153 
929.000000	 91.624268 
928.000000	 91.694871 
927.000000	 91.770050 
926.000000	 91.845043 
925.000000	 91.911217 
924.000000	 91.965847 
923.000000	 92.013119 
922.000000	 92.055125 
921.000000	 92.089307 
920.000000	 92.115912 
919.000000	 92.140654 
918.000000	 92.167901 
917.000000	 92.197104 
916.000000	 92.227391 
915.000000	 92.260457 
914.000000	 92.298698 
913.000000	 92.346064 
912.000000	 92.410263 
911.000000	 92.497380 
910.000000	 92.604254 
909.000000	 92.722602 
908.000000	 92.850196 
907.000000	 92.991089 
906.000000	 93.146065 
905.000000	 93.310972 
904.000000	 93.484103 
903.000000	 93.667355 
902.000000	 93.859864 
901.000000	 94.057159 
900.000000	 94.256060 
899.000000	 94.453849 
898.000000	 94.643913 
897.000000	 94.819600 
896.000000	 94.982018 
895.000000	 95.138004 
894.000000	 95.291310 
893.000000	 95.441396 
892.000000	 95.588829 
891.000000	 95.734637 
890.000000	 95.875316 
889.000000	 96.005698 
888.000000	 96.126519 
887.000000	 96.242586 
886.000000	 96.353907 
885.000000	 96.455809 
884.000000	 96.548721 
883.000000	 96.641027 
882.000000	 96.739676 
881.000000	 96.842695 
880.000000	 96.943220 
879.000000	 97.037408 
878.000000	 97.127126 
877.000000	 97.217393 
876.000000	 97.311252 
875.000000	 97.405529 
874.000000	 97.493826 
873.000000	 97.576138 
872.000000	 97.661906 
871.000000	 97.759298 
870.000000	 97.864464 
869.000000	 97.966213 
868.000000	 98.058467 
867.000000	 98.143762 
866.000000	 98.227942 
865.000000	 98.315975 
864.000000	 98.409928 
863.000000	 98.505922 
862.000000	 98.595342 
861.000000	 98.673533 
860.000000	 98.744939 
859.000000	 98.816307 
858.000000	 98.888713 
857.000000	 98.960502 
856.000000	 99.032680 
855.000000	 99.104557 
854.000000	 99.168558 
853.000000	 99.217727 
852.000000	 99.255887 
851.000000	 99.292517 
850.000000	 99.329400 
849.000000	 99.360527 
848.000000	 99.383987 
847.000000	 99.404994 
846.000000	 99.426587 
845.000000	 99.445560 
844.000000	 99.459097 
843.000000	 99.467556 
842.000000	 99.468398 
841.000000	 99.454894 
840.000000	 99.424964 
839.000000	 99.386219 
838.000000	 99.348107 
837.000000	 99.312075 
836.000000	 99.272672 
835.000000	 99.226352 
834.000000	 99.177244 
833.000000	 99.135044 
832.000000	 99.106576 
831.000000	 99.087890 
830.000000	 99.068115 
829.000000	 99.046021 
828.000000	 99.038371 
827.000000	 99.062357 
826.000000	 99.111352 
825.000000	 99.160038 
824.000000	 99.194213 
823.000000	 99.221860 
822.000000	 99.252706 
821.000000	 99.282233 
820.000000	 99.301277 
819.000000	 99.308249 
818.000000	 99.305386 
817.000000	 99.291776 
816.000000	 99.265397 
815.000000	 99.225487 
814.000000	 99.168091 
813.000000	 99.084578 
812.000000	 98.968640 
811.000000	 98.819459 
810.000000	 98.633919 
809.000000	 98.401737 
808.000000	 98.114276 
807.000000	 97.774345 
806.000000	 97.393152 
805.000000	 96.983750 
804.000000	 96.564348 
803.000000	 96.161903 
802.000000	 95.802738 
801.000000	 95.502316 
800.000000	 95.269153 
799.000000	 95.111224 
798.000000	 95.031330 
797.000000	 95.022637 
796.000000	 95.074120 
795.000000	 95.173473 
794.000000	 95.301821 
793.000000	 95.435857 
792.000000	 95.560181 
791.000000	 95.669212 
790.000000	 95.754323 
789.000000	 95.800743 
788.000000	 95.803221 
787.000000	 95.773738 
786.000000	 95.724378 
785.000000	 95.650616 
784.000000	 95.542161 
783.000000	 95.404674 
782.000000	 95.260196 
781.000000	 95.129875 
780.000000	 95.026024 
779.000000	 94.957417 
778.000000	 94.931630 
777.000000	 94.952642 
776.000000	 95.021907 
775.000000	 95.138253 
774.000000	 95.290864 
773.000000	 95.457077 
772.000000	 95.614747 
771.000000	 95.755243 
770.000000	 95.879905 
769.000000	 95.987525 
768.000000	 96.072372 
767.000000	 96.133434 
766.000000	 96.178694 
765.000000	 96.218370 
764.000000	 96.257243 
763.000000	 96.293944 
762.000000	 96.325021 
761.000000	 96.350048 
760.000000	 96.374972 
759.000000	 96.409093 
758.000000	 96.456374 
757.000000	 96.511767 
756.000000	 96.568648 
755.000000	 96.626849 
754.000000	 96.689575 
753.000000	 96.755262 
752.000000	 96.817959 
751.000000	 96.874892 
750.000000	 96.928608 
749.000000	 96.980933 
748.000000	 97.029696 
747.000000	 97.074337 
746.000000	 97.121828 
745.000000	 97.183022 
744.000000	 97.262920 
743.000000	 97.356463 
742.000000	 97.454292 
741.000000	 97.551032 
740.000000	 97.646731 
739.000000	 97.742304 
738.000000	 97.836958 
737.000000	 97.929861 
736.000000	 98.020750 
735.000000	 98.107764 
734.000000	 98.188021 
733.000000	 98.261818 
732.000000	 98.332408 
731.000000	 98.398481 
730.000000	 98.450677 
729.000000	 98.481052 
728.000000	 98.493830 
727.000000	 98.502151 
726.000000	 98.515587 
725.000000	 98.535180 
724.000000	 98.560445 
723.000000	 98.595258 
722.000000	 98.643681 
721.000000	 98.702936 
720.000000	 98.763555 
719.000000	 98.816584 
718.000000	 98.860171 
717.000000	 98.899649 
716.000000	 98.941997 
715.000000	 98.989192 
714.000000	 99.035785 
713.000000	 99.073586 
712.000000	 99.098496 
711.000000	 99.112026 
710.000000	 99.117085 
709.000000	 99.114540 
708.000000	 99.103929 
707.000000	 99.085520 
706.000000	 99.061377 
705.000000	 99.034082 
704.000000	 99.003274 
703.000000	 98.962575 
702.000000	 98.899474 
701.000000	 98.800192 
700.000000	 98.656917 
699.000000	 98.471360 
698.000000	 98.255696 
697.000000	 98.033262 
696.000000	 97.836908 
695.000000	 97.701201 
694.000000	 97.649114 
693.000000	 97.683472 
692.000000	 97.787104 
691.000000	 97.927827 
690.000000	 98.070857 
689.000000	 98.194859 
688.000000	 98.298543 
687.000000	 98.390888 
686.000000	 98.475251 
685.000000	 98.547019 
684.000000	 98.603830 
683.000000	 98.650289 
682.000000	 98.693648 
681.000000	 98.740252 
680.000000	 98.794733 
679.000000	 98.855115 
678.000000	 98.908951 
677.000000	 98.944498 
676.000000	 98.965397 
675.000000	 98.985949 
674.000000	 99.014285 
673.000000	 99.044886 
672.000000	 99.066148 
671.000000	 99.072217 
670.000000	 99.066641 
669.000000	 99.065461 
668.000000	 99.096008 
667.000000	 99.161157 
666.000000	 99.239484 
665.000000	 99.325543 
664.000000	 99.406694 
663.000000	 99.460607 
662.000000	 99.479309 
661.000000	 99.486773 
660.000000	 99.511467 
659.000000	 99.547456 
658.000000	 99.562080 
657.000000	 99.540838 
656.000000	 99.504139 
655.000000	 99.480545 
654.000000	 99.479839 
653.000000	 99.490050 
652.000000	 99.491035 
651.000000	 99.474431 
650.000000	 99.458874 

