4000.000000	99.690341 
3999.000000	99.690398 
3998.000000	99.690375 
3997.000000	99.690019 
3996.000000	99.689235 
3995.000000	99.688238 
3994.000000	99.687463 
3993.000000	99.687216 
3992.000000	99.687445 
3991.000000	99.687745 
3990.000000	99.687708 
3989.000000	99.687330 
3988.000000	99.687038 
3987.000000	99.687259 
3986.000000	99.687968 
3985.000000	99.688654 
3984.000000	99.688759 
3983.000000	99.688138 
3982.000000	99.687095 
3981.000000	99.686059 
3980.000000	99.685177 
3979.000000	99.684315 
3978.000000	99.683392 
3977.000000	99.682630 
3976.000000	99.682430 
3975.000000	99.683012 
3974.000000	99.684167 
3973.000000	99.685312 
3972.000000	99.685879 
3971.000000	99.685648 
3970.000000	99.684777 
3969.000000	99.683638 
3968.000000	99.682577 
3967.000000	99.681779 
3966.000000	99.681236 
3965.000000	99.680831 
3964.000000	99.680438 
3963.000000	99.679967 
3962.000000	99.679364 
3961.000000	99.678598 
3960.000000	99.677682 
3959.000000	99.676693 
3958.000000	99.675716 
3957.000000	99.674801 
3956.000000	99.674021 
3955.000000	99.673530 
3954.000000	99.673440 
3953.000000	99.673615 
3952.000000	99.673695 
3951.000000	99.673453 
3950.000000	99.673112 
3949.000000	99.673181 
3948.000000	99.673873 
3947.000000	99.674733 
3946.000000	99.674987 
3945.000000	99.674311 
3944.000000	99.673188 
3943.000000	99.672434 
3942.000000	99.672318 
3941.000000	99.672337 
3940.000000	99.671844 
3939.000000	99.670639 
3938.000000	99.669028 
3937.000000	99.667578 
3936.000000	99.666862 
3935.000000	99.667291 
3934.000000	99.668878 
3933.000000	99.671082 
3932.000000	99.673000 
3931.000000	99.673947 
3930.000000	99.673769 
3929.000000	99.672631 
3928.000000	99.670801 
3927.000000	99.668788 
3926.000000	99.667474 
3925.000000	99.667497 
3924.000000	99.668494 
3923.000000	99.669480 
3922.000000	99.670001 
3921.000000	99.670456 
3920.000000	99.671335 
3919.000000	99.672629 
3918.000000	99.674041 
3917.000000	99.675320 
3916.000000	99.676219 
3915.000000	99.676483 
3914.000000	99.676209 
3913.000000	99.675894 
3912.000000	99.676047 
3911.000000	99.676780 
3910.000000	99.677922 
3909.000000	99.679252 
3908.000000	99.680521 
3907.000000	99.681366 
3906.000000	99.681439 
3905.000000	99.680712 
3904.000000	99.679295 
3903.000000	99.677242 
3902.000000	99.674868 
3901.000000	99.673030 
3900.000000	99.672590 
3899.000000	99.673529 
3898.000000	99.674969 
3897.000000	99.676070 
3896.000000	99.676586 
3895.000000	99.676511 
3894.000000	99.675802 
3893.000000	99.674609 
3892.000000	99.673591 
3891.000000	99.673358 
3890.000000	99.673797 
3889.000000	99.674323 
3888.000000	99.674551 
3887.000000	99.674676 
3886.000000	99.675112 
3885.000000	99.675675 
3884.000000	99.675669 
3883.000000	99.674827 
3882.000000	99.673700 
3881.000000	99.673169 
3880.000000	99.673495 
3879.000000	99.674021 
3878.000000	99.674035 
3877.000000	99.673561 
3876.000000	99.673302 
3875.000000	99.673995 
3874.000000	99.675499 
3873.000000	99.676726 
3872.000000	99.676956 
3871.000000	99.676855 
3870.000000	99.677528 
3869.000000	99.678767 
3868.000000	99.679481 
3867.000000	99.679320 
3866.000000	99.678848 
3865.000000	99.678533 
3864.000000	99.678198 
3863.000000	99.677645 
3862.000000	99.677263 
3861.000000	99.677482 
3860.000000	99.678288 
3859.000000	99.679361 
3858.000000	99.680456 
3857.000000	99.681382 
3856.000000	99.681913 
3855.000000	99.682307 
3854.000000	99.683601 
3853.000000	99.685459 
3852.000000	99.686106 
3851.000000	99.685199 
3850.000000	99.683717 
3849.000000	99.682388 
3848.000000	99.681256 
3847.000000	99.680169 
3846.000000	99.679238 
3845.000000	99.678740 
3844.000000	99.678848 
3843.000000	99.679422 
3842.000000	99.680035 
3841.000000	99.680326 
3840.000000	99.680344 
3839.000000	99.680342 
3838.000000	99.680397 
3837.000000	99.680348 
3836.000000	99.680049 
3835.000000	99.679551 
3834.000000	99.679052 
3833.000000	99.678736 
3832.000000	99.678625 
3831.000000	99.678537 
3830.000000	99.678249 
3829.000000	99.677697 
3828.000000	99.677029 
3827.000000	99.676485 
3826.000000	99.676170 
3825.000000	99.675973 
3824.000000	99.675698 
3823.000000	99.675270 
3822.000000	99.674832 
3821.000000	99.674530 
3820.000000	99.674270 
3819.000000	99.673929 
3818.000000	99.673541 
3817.000000	99.673201 
3816.000000	99.672839 
3815.000000	99.672249 
3814.000000	99.671393 
3813.000000	99.670474 
3812.000000	99.669747 
3811.000000	99.669285 
3810.000000	99.668994 
3809.000000	99.668721 
3808.000000	99.668429 
3807.000000	99.668177 
3806.000000	99.667920 
3805.000000	99.667511 
3804.000000	99.666905 
3803.000000	99.666306 
3802.000000	99.666050 
3801.000000	99.666018 
3800.000000	99.665581 
3799.000000	99.664478 
3798.000000	99.663100 
3797.000000	99.661997 
3796.000000	99.661223 
3795.000000	99.660366 
3794.000000	99.659172 
3793.000000	99.657882 
3792.000000	99.656868 
3791.000000	99.656269 
3790.000000	99.656043 
3789.000000	99.656067 
3788.000000	99.656036 
3787.000000	99.655573 
3786.000000	99.654760 
3785.000000	99.654308 
3784.000000	99.654700 
3783.000000	99.655370 
3782.000000	99.655401 
3781.000000	99.654903 
3780.000000	99.655153 
3779.000000	99.656655 
3778.000000	99.657936 
3777.000000	99.657235 
3776.000000	99.654786 
3775.000000	99.652522 
3774.000000	99.651976 
3773.000000	99.653031 
3772.000000	99.654878 
3771.000000	99.657232 
3770.000000	99.659685 
3769.000000	99.660763 
3768.000000	99.659368 
3767.000000	99.656415 
3766.000000	99.653926 
3765.000000	99.652700 
3764.000000	99.651580 
3763.000000	99.649441 
3762.000000	99.647013 
3761.000000	99.645872 
3760.000000	99.646392 
3759.000000	99.647590 
3758.000000	99.649337 
3757.000000	99.652607 
3756.000000	99.657585 
3755.000000	99.663283 
3754.000000	99.668876 
3753.000000	99.674653 
3752.000000	99.681162 
3751.000000	99.687876 
3750.000000	99.693326 
3749.000000	99.696651 
3748.000000	99.697523 
3747.000000	99.695539 
3746.000000	99.691678 
3745.000000	99.689100 
3744.000000	99.687407 
3743.000000	99.682647 
3742.000000	99.675187 
3741.000000	99.669108 
3740.000000	99.666227 
3739.000000	99.664396 
3738.000000	99.661126 
3737.000000	99.657226 
3736.000000	99.655116 
3735.000000	99.654772 
3734.000000	99.654276 
3733.000000	99.653557 
3732.000000	99.653626 
3731.000000	99.653946 
3730.000000	99.653268 
3729.000000	99.651659 
3728.000000	99.650447 
3727.000000	99.650354 
3726.000000	99.650016 
3725.000000	99.647642 
3724.000000	99.643682 
3723.000000	99.640324 
3722.000000	99.638805 
3721.000000	99.638230 
3720.000000	99.636950 
3719.000000	99.634176 
3718.000000	99.630567 
3717.000000	99.627121 
3716.000000	99.623932 
3715.000000	99.620544 
3714.000000	99.616891 
3713.000000	99.613920 
3712.000000	99.613053 
3711.000000	99.614067 
3710.000000	99.614482 
3709.000000	99.611707 
3708.000000	99.605213 
3707.000000	99.596570 
3706.000000	99.587975 
3705.000000	99.580900 
3704.000000	99.575718 
3703.000000	99.572092 
3702.000000	99.569252 
3701.000000	99.565941 
3700.000000	99.561006 
3699.000000	99.554437 
3698.000000	99.547633 
3697.000000	99.542440 
3696.000000	99.539708 
3695.000000	99.539330 
3694.000000	99.541114 
3693.000000	99.544458 
3692.000000	99.547547 
3691.000000	99.548137 
3690.000000	99.546061 
3689.000000	99.543380 
3688.000000	99.541428 
3687.000000	99.539361 
3686.000000	99.536005 
3685.000000	99.531778 
3684.000000	99.528055 
3683.000000	99.525293 
3682.000000	99.522589 
3681.000000	99.519286 
3680.000000	99.515529 
3679.000000	99.511013 
3678.000000	99.504886 
3677.000000	99.498799 
3676.000000	99.497283 
3675.000000	99.499785 
3674.000000	99.499488 
3673.000000	99.492279 
3672.000000	99.479794 
3671.000000	99.467136 
3670.000000	99.458895 
3669.000000	99.454476 
3668.000000	99.450402 
3667.000000	99.445259 
3666.000000	99.439425 
3665.000000	99.432897 
3664.000000	99.424877 
3663.000000	99.414888 
3662.000000	99.403845 
3661.000000	99.393378 
3660.000000	99.384033 
3659.000000	99.375129 
3658.000000	99.366332 
3657.000000	99.358979 
3656.000000	99.353912 
3655.000000	99.349460 
3654.000000	99.343412 
3653.000000	99.334835 
3652.000000	99.323601 
3651.000000	99.310017 
3650.000000	99.295330 
3649.000000	99.281471 
3648.000000	99.270160 
3647.000000	99.261703 
3646.000000	99.254701 
3645.000000	99.247527 
3644.000000	99.239811 
3643.000000	99.232333 
3642.000000	99.226002 
3641.000000	99.221009 
3640.000000	99.217085 
3639.000000	99.214007 
3638.000000	99.210977 
3637.000000	99.206351 
3636.000000	99.199056 
3635.000000	99.190161 
3634.000000	99.181650 
3633.000000	99.173777 
3632.000000	99.164835 
3631.000000	99.153869 
3630.000000	99.143497 
3629.000000	99.136670 
3628.000000	99.130286 
3627.000000	99.120763 
3626.000000	99.111048 
3625.000000	99.105782 
3624.000000	99.105444 
3623.000000	99.106536 
3622.000000	99.105933 
3621.000000	99.104839 
3620.000000	99.107729 
3619.000000	99.116768 
3618.000000	99.128982 
3617.000000	99.140456 
3616.000000	99.150571 
3615.000000	99.161112 
3614.000000	99.172897 
3613.000000	99.184022 
3612.000000	99.191757 
3611.000000	99.195825 
3610.000000	99.198519 
3609.000000	99.201881 
3608.000000	99.205815 
3607.000000	99.209303 
3606.000000	99.212703 
3605.000000	99.217322 
3604.000000	99.223431 
3603.000000	99.230210 
3602.000000	99.237326 
3601.000000	99.245403 
3600.000000	99.254063 
3599.000000	99.260982 
3598.000000	99.263795 
3597.000000	99.262481 
3596.000000	99.259817 
3595.000000	99.259928 
3594.000000	99.265273 
3593.000000	99.274905 
3592.000000	99.285336 
3591.000000	99.292481 
3590.000000	99.293728 
3589.000000	99.289765 
3588.000000	99.284550 
3587.000000	99.281412 
3586.000000	99.280193 
3585.000000	99.279631 
3584.000000	99.279762 
3583.000000	99.281091 
3582.000000	99.283065 
3581.000000	99.284269 
3580.000000	99.283596 
3579.000000	99.281032 
3578.000000	99.277502 
3577.000000	99.274320 
3576.000000	99.272588 
3575.000000	99.272622 
3574.000000	99.273834 
3573.000000	99.275362 
3572.000000	99.276888 
3571.000000	99.278317 
3570.000000	99.278831 
3569.000000	99.277084 
3568.000000	99.272880 
3567.000000	99.267969 
3566.000000	99.264499 
3565.000000	99.263354 
3564.000000	99.264258 
3563.000000	99.266372 
3562.000000	99.268563 
3561.000000	99.269664 
3560.000000	99.269107 
3559.000000	99.267367 
3558.000000	99.265584 
3557.000000	99.264500 
3556.000000	99.263827 
3555.000000	99.262695 
3554.000000	99.260703 
3553.000000	99.258341 
3552.000000	99.256448 
3551.000000	99.255444 
3550.000000	99.255051 
3549.000000	99.254634 
3548.000000	99.253752 
3547.000000	99.252518 
3546.000000	99.251367 
3545.000000	99.250454 
3544.000000	99.249519 
3543.000000	99.248377 
3542.000000	99.247308 
3541.000000	99.246724 
3540.000000	99.246621 
3539.000000	99.246533 
3538.000000	99.246005 
3537.000000	99.245026 
3536.000000	99.243970 
3535.000000	99.243221 
3534.000000	99.242810 
3533.000000	99.242479 
3532.000000	99.242005 
3531.000000	99.241392 
3530.000000	99.240757 
3529.000000	99.240122 
3528.000000	99.239374 
3527.000000	99.238401 
3526.000000	99.237214 
3525.000000	99.235939 
3524.000000	99.234731 
3523.000000	99.233699 
3522.000000	99.232887 
3521.000000	99.232298 
3520.000000	99.231936 
3519.000000	99.231825 
3518.000000	99.231923 
3517.000000	99.232042 
3516.000000	99.231884 
3515.000000	99.231244 
3514.000000	99.230129 
3513.000000	99.228733 
3512.000000	99.227321 
3511.000000	99.226131 
3510.000000	99.225303 
3509.000000	99.224828 
3508.000000	99.224562 
3507.000000	99.224357 
3506.000000	99.224152 
3505.000000	99.223893 
3504.000000	99.223434 
3503.000000	99.222667 
3502.000000	99.221745 
3501.000000	99.221039 
3500.000000	99.220783 
3499.000000	99.220801 
3498.000000	99.220618 
3497.000000	99.219887 
3496.000000	99.218619 
3495.000000	99.217091 
3494.000000	99.215621 
3493.000000	99.214394 
3492.000000	99.213461 
3491.000000	99.212760 
3490.000000	99.212147 
3489.000000	99.211525 
3488.000000	99.210922 
3487.000000	99.210387 
3486.000000	99.209852 
3485.000000	99.209146 
3484.000000	99.208171 
3483.000000	99.206997 
3482.000000	99.205797 
3481.000000	99.204686 
3480.000000	99.203675 
3479.000000	99.202704 
3478.000000	99.201672 
3477.000000	99.200474 
3476.000000	99.199101 
3475.000000	99.197731 
3474.000000	99.196631 
3473.000000	99.195876 
3472.000000	99.195183 
3471.000000	99.194157 
3470.000000	99.192745 
3469.000000	99.191291 
3468.000000	99.190104 
3467.000000	99.189052 
3466.000000	99.187748 
3465.000000	99.186088 
3464.000000	99.184398 
3463.000000	99.183041 
3462.000000	99.182039 
3461.000000	99.181160 
3460.000000	99.180265 
3459.000000	99.179397 
3458.000000	99.178514 
3457.000000	99.177352 
3456.000000	99.175653 
3455.000000	99.173453 
3454.000000	99.171133 
3453.000000	99.169180 
3452.000000	99.167792 
3451.000000	99.166710 
3450.000000	99.165432 
3449.000000	99.163696 
3448.000000	99.161668 
3447.000000	99.159646 
3446.000000	99.157713 
3445.000000	99.155826 
3444.000000	99.154110 
3443.000000	99.152792 
3442.000000	99.151822 
3441.000000	99.150767 
3440.000000	99.149217 
3439.000000	99.147151 
3438.000000	99.144812 
3437.000000	99.142340 
3436.000000	99.139753 
3435.000000	99.137271 
3434.000000	99.135410 
3433.000000	99.134559 
3432.000000	99.134523 
3431.000000	99.134523 
3430.000000	99.133807 
3429.000000	99.132319 
3428.000000	99.130691 
3427.000000	99.129556 
3426.000000	99.128825 
3425.000000	99.127747 
3424.000000	99.125709 
3423.000000	99.122905 
3422.000000	99.120224 
3421.000000	99.118468 
3420.000000	99.117814 
3419.000000	99.117926 
3418.000000	99.118361 
3417.000000	99.118737 
3416.000000	99.118730 
3415.000000	99.118150 
3414.000000	99.117044 
3413.000000	99.115629 
3412.000000	99.114139 
3411.000000	99.112791 
3410.000000	99.111784 
3409.000000	99.111127 
3408.000000	99.110446 
3407.000000	99.109200 
3406.000000	99.107247 
3405.000000	99.105102 
3404.000000	99.103521 
3403.000000	99.102841 
3402.000000	99.102831 
3401.000000	99.103121 
3400.000000	99.103631 
3399.000000	99.104515 
3398.000000	99.105741 
3397.000000	99.106841 
3396.000000	99.107141 
3395.000000	99.106239 
3394.000000	99.104272 
3393.000000	99.101826 
3392.000000	99.099646 
3391.000000	99.098347 
3390.000000	99.098271 
3389.000000	99.099413 
3388.000000	99.101386 
3387.000000	99.103553 
3386.000000	99.105370 
3385.000000	99.106681 
3384.000000	99.107597 
3383.000000	99.108100 
3382.000000	99.107868 
3381.000000	99.106610 
3380.000000	99.104601 
3379.000000	99.102736 
3378.000000	99.101903 
3377.000000	99.102226 
3376.000000	99.103029 
3375.000000	99.103503 
3374.000000	99.103434 
3373.000000	99.103247 
3372.000000	99.103455 
3371.000000	99.104194 
3370.000000	99.105212 
3369.000000	99.106121 
3368.000000	99.106643 
3367.000000	99.106790 
3366.000000	99.106877 
3365.000000	99.107266 
3364.000000	99.108020 
3363.000000	99.108883 
3362.000000	99.109612 
3361.000000	99.110198 
3360.000000	99.110696 
3359.000000	99.111003 
3358.000000	99.110993 
3357.000000	99.110821 
3356.000000	99.110898 
3355.000000	99.111454 
3354.000000	99.112251 
3353.000000	99.112839 
3352.000000	99.113070 
3351.000000	99.113232 
3350.000000	99.113691 
3349.000000	99.114529 
3348.000000	99.115549 
3347.000000	99.116487 
3346.000000	99.117188 
3345.000000	99.117661 
3344.000000	99.118043 
3343.000000	99.118511 
3342.000000	99.119140 
3341.000000	99.119831 
3340.000000	99.120390 
3339.000000	99.120726 
3338.000000	99.120967 
3337.000000	99.121387 
3336.000000	99.122180 
3335.000000	99.123327 
3334.000000	99.124667 
3333.000000	99.126064 
3332.000000	99.127434 
3331.000000	99.128647 
3330.000000	99.129533 
3329.000000	99.130028 
3328.000000	99.130269 
3327.000000	99.130525 
3326.000000	99.130979 
3325.000000	99.131606 
3324.000000	99.132265 
3323.000000	99.132895 
3322.000000	99.133605 
3321.000000	99.134541 
3320.000000	99.135707 
3319.000000	99.136956 
3318.000000	99.138125 
3317.000000	99.139146 
3316.000000	99.140029 
3315.000000	99.140791 
3314.000000	99.141466 
3313.000000	99.142132 
3312.000000	99.142872 
3311.000000	99.143688 
3310.000000	99.144501 
3309.000000	99.145242 
3308.000000	99.145919 
3307.000000	99.146583 
3306.000000	99.147272 
3305.000000	99.147992 
3304.000000	99.148732 
3303.000000	99.149474 
3302.000000	99.150204 
3301.000000	99.150916 
3300.000000	99.151616 
3299.000000	99.152313 
3298.000000	99.153012 
3297.000000	99.153713 
3296.000000	99.154414 
3295.000000	99.155111 
3294.000000	99.155795 
3293.000000	99.156465 
3292.000000	99.157124 
3291.000000	99.157781 
3290.000000	99.158438 
3289.000000	99.159098 
3288.000000	99.159759 
3287.000000	99.160421 
3286.000000	99.161086 
3285.000000	99.161754 
3284.000000	99.162423 
3283.000000	99.163089 
3282.000000	99.163750 
3281.000000	99.164407 
3280.000000	99.165070 
3279.000000	99.165753 
3278.000000	99.166462 
3277.000000	99.167181 
3276.000000	99.167873 
3275.000000	99.168505 
3274.000000	99.169067 
3273.000000	99.169586 
3272.000000	99.170134 
3271.000000	99.170799 
3270.000000	99.171617 
3269.000000	99.172513 
3268.000000	99.173349 
3267.000000	99.174051 
3266.000000	99.174659 
3265.000000	99.175257 
3264.000000	99.175904 
3263.000000	99.176664 
3262.000000	99.177666 
3261.000000	99.179011 
3260.000000	99.180618 
3259.000000	99.182162 
3258.000000	99.183270 
3257.000000	99.183823 
3256.000000	99.184045 
3255.000000	99.184270 
3254.000000	99.184628 
3253.000000	99.185068 
3252.000000	99.185653 
3251.000000	99.186667 
3250.000000	99.188291 
3249.000000	99.190290 
3248.000000	99.192144 
3247.000000	99.193444 
3246.000000	99.194089 
3245.000000	99.194210 
3244.000000	99.194109 
3243.000000	99.194213 
3242.000000	99.194874 
3241.000000	99.196117 
3240.000000	99.197671 
3239.000000	99.199311 
3238.000000	99.201120 
3237.000000	99.203339 
3236.000000	99.205998 
3235.000000	99.208712 
3234.000000	99.210844 
3233.000000	99.211959 
3232.000000	99.212188 
3231.000000	99.212156 
3230.000000	99.212456 
3229.000000	99.213209 
3228.000000	99.214156 
3227.000000	99.215024 
3226.000000	99.215682 
3225.000000	99.216114 
3224.000000	99.216460 
3223.000000	99.217062 
3222.000000	99.218234 
3221.000000	99.219907 
3220.000000	99.221619 
3219.000000	99.222967 
3218.000000	99.223978 
3217.000000	99.225021 
3216.000000	99.226463 
3215.000000	99.228427 
3214.000000	99.230699 
3213.000000	99.232791 
3212.000000	99.234213 
3211.000000	99.234817 
3210.000000	99.234898 
3209.000000	99.234978 
3208.000000	99.235440 
3207.000000	99.236365 
3206.000000	99.237611 
3205.000000	99.238940 
3204.000000	99.240156 
3203.000000	99.241203 
3202.000000	99.242168 
3201.000000	99.243157 
3200.000000	99.244214 
3199.000000	99.245339 
3198.000000	99.246551 
3197.000000	99.247886 
3196.000000	99.249342 
3195.000000	99.250854 
3194.000000	99.252313 
3193.000000	99.253611 
3192.000000	99.254678 
3191.000000	99.255495 
3190.000000	99.256104 
3189.000000	99.256622 
3188.000000	99.257237 
3187.000000	99.258142 
3186.000000	99.259405 
3185.000000	99.260902 
3184.000000	99.262382 
3183.000000	99.263645 
3182.000000	99.264643 
3181.000000	99.265467 
3180.000000	99.266312 
3179.000000	99.267404 
3178.000000	99.268832 
3177.000000	99.270377 
3176.000000	99.271634 
3175.000000	99.272436 
3174.000000	99.273065 
3173.000000	99.273898 
3172.000000	99.274875 
3171.000000	99.275580 
3170.000000	99.275859 
3169.000000	99.276137 
3168.000000	99.276967 
3167.000000	99.278435 
3166.000000	99.280167 
3165.000000	99.281773 
3164.000000	99.283164 
3163.000000	99.284409 
3162.000000	99.285513 
3161.000000	99.286466 
3160.000000	99.287382 
3159.000000	99.288433 
3158.000000	99.289615 
3157.000000	99.290670 
3156.000000	99.291280 
3155.000000	99.291299 
3154.000000	99.290837 
3153.000000	99.290187 
3152.000000	99.289730 
3151.000000	99.289859 
3150.000000	99.290846 
3149.000000	99.292672 
3148.000000	99.294962 
3147.000000	99.297201 
3146.000000	99.299065 
3145.000000	99.300516 
3144.000000	99.301633 
3143.000000	99.302475 
3142.000000	99.303101 
3141.000000	99.303629 
3140.000000	99.304181 
3139.000000	99.304832 
3138.000000	99.305667 
3137.000000	99.306858 
3136.000000	99.308568 
3135.000000	99.310741 
3134.000000	99.313024 
3133.000000	99.314917 
3132.000000	99.316059 
3131.000000	99.316433 
3130.000000	99.316390 
3129.000000	99.316518 
3128.000000	99.317332 
3127.000000	99.318971 
3126.000000	99.321110 
3125.000000	99.323154 
3124.000000	99.324611 
3123.000000	99.325352 
3122.000000	99.325563 
3121.000000	99.325569 
3120.000000	99.325653 
3119.000000	99.325977 
3118.000000	99.326611 
3117.000000	99.327567 
3116.000000	99.328779 
3115.000000	99.330104 
3114.000000	99.331348 
3113.000000	99.332316 
3112.000000	99.332870 
3111.000000	99.333054 
3110.000000	99.333169 
3109.000000	99.333607 
3108.000000	99.334483 
3107.000000	99.335448 
3106.000000	99.336029 
3105.000000	99.336185 
3104.000000	99.336426 
3103.000000	99.337305 
3102.000000	99.338929 
3101.000000	99.340959 
3100.000000	99.342932 
3099.000000	99.344548 
3098.000000	99.345778 
3097.000000	99.346778 
3096.000000	99.347690 
3095.000000	99.348454 
3094.000000	99.348865 
3093.000000	99.348840 
3092.000000	99.348568 
3091.000000	99.348429 
3090.000000	99.348764 
3089.000000	99.349697 
3088.000000	99.351059 
3087.000000	99.352418 
3086.000000	99.353320 
3085.000000	99.353608 
3084.000000	99.353490 
3083.000000	99.353282 
3082.000000	99.353119 
3081.000000	99.353010 
3080.000000	99.353072 
3079.000000	99.353558 
3078.000000	99.354658 
3077.000000	99.356323 
3076.000000	99.358261 
3075.000000	99.360069 
3074.000000	99.361416 
3073.000000	99.362197 
3072.000000	99.362547 
3071.000000	99.362706 
3070.000000	99.362823 
3069.000000	99.362931 
3068.000000	99.363068 
3067.000000	99.363367 
3066.000000	99.363996 
3065.000000	99.365015 
3064.000000	99.366296 
3063.000000	99.367548 
3062.000000	99.368461 
3061.000000	99.368890 
3060.000000	99.368917 
3059.000000	99.368797 
3058.000000	99.368822 
3057.000000	99.369182 
3056.000000	99.369930 
3055.000000	99.370975 
3054.000000	99.372094 
3053.000000	99.373013 
3052.000000	99.373544 
3051.000000	99.373683 
3050.000000	99.373621 
3049.000000	99.373653 
3048.000000	99.373996 
3047.000000	99.374628 
3046.000000	99.375254 
3045.000000	99.375523 
3044.000000	99.375353 
3043.000000	99.375058 
3042.000000	99.375094 
3041.000000	99.375662 
3040.000000	99.376553 
3039.000000	99.377349 
3038.000000	99.377751 
3037.000000	99.377719 
3036.000000	99.377348 
3035.000000	99.376719 
3034.000000	99.375901 
3033.000000	99.375060 
3032.000000	99.374453 
3031.000000	99.374227 
3030.000000	99.374308 
3029.000000	99.374566 
3028.000000	99.375078 
3027.000000	99.376071 
3026.000000	99.377518 
3025.000000	99.378855 
3024.000000	99.379273 
3023.000000	99.378389 
3022.000000	99.376638 
3021.000000	99.374982 
3020.000000	99.374016 
3019.000000	99.373418 
3018.000000	99.372413 
3017.000000	99.370751 
3016.000000	99.369002 
3015.000000	99.367804 
3014.000000	99.367160 
3013.000000	99.366751 
3012.000000	99.366701 
3011.000000	99.367487 
3010.000000	99.369104 
3009.000000	99.370786 
3008.000000	99.371745 
3007.000000	99.371847 
3006.000000	99.371405 
3005.000000	99.370632 
3004.000000	99.369539 
3003.000000	99.368242 
3002.000000	99.367133 
3001.000000	99.366648 
3000.000000	99.366938 
2999.000000	99.367770 
2998.000000	99.368723 
2997.000000	99.369488 
2996.000000	99.369949 
2995.000000	99.370018 
2994.000000	99.369572 
2993.000000	99.368633 
2992.000000	99.367456 
2991.000000	99.366249 
2990.000000	99.364969 
2989.000000	99.363641 
2988.000000	99.362744 
2987.000000	99.362864 
2986.000000	99.363991 
2985.000000	99.365425 
2984.000000	99.366484 
2983.000000	99.367035 
2982.000000	99.367250 
2981.000000	99.367249 
2980.000000	99.367193 
2979.000000	99.367398 
2978.000000	99.368030 
2977.000000	99.368820 
2976.000000	99.369312 
2975.000000	99.369309 
2974.000000	99.368969 
2973.000000	99.368595 
2972.000000	99.368475 
2971.000000	99.368774 
2970.000000	99.369410 
2969.000000	99.370034 
2968.000000	99.370304 
2967.000000	99.370213 
2966.000000	99.370074 
2965.000000	99.370158 
2964.000000	99.370459 
2963.000000	99.370830 
2962.000000	99.371245 
2961.000000	99.371823 
2960.000000	99.372610 
2959.000000	99.373397 
2958.000000	99.373816 
2957.000000	99.373686 
2956.000000	99.373244 
2955.000000	99.372977 
2954.000000	99.373221 
2953.000000	99.373971 
2952.000000	99.375026 
2951.000000	99.376169 
2950.000000	99.377218 
2949.000000	99.378089 
2948.000000	99.378856 
2947.000000	99.379626 
2946.000000	99.380362 
2945.000000	99.381004 
2944.000000	99.381732 
2943.000000	99.382785 
2942.000000	99.383914 
2941.000000	99.384361 
2940.000000	99.383675 
2939.000000	99.382389 
2938.000000	99.381673 
2937.000000	99.382268 
2936.000000	99.384069 
2935.000000	99.386455 
2934.000000	99.388709 
2933.000000	99.390214 
2932.000000	99.390628 
2931.000000	99.390074 
2930.000000	99.389051 
2929.000000	99.388106 
2928.000000	99.387628 
2927.000000	99.387762 
2926.000000	99.388229 
2925.000000	99.388443 
2924.000000	99.388181 
2923.000000	99.387992 
2922.000000	99.388496 
2921.000000	99.389334 
2920.000000	99.389401 
2919.000000	99.388198 
2918.000000	99.386481 
2917.000000	99.385375 
2916.000000	99.385157 
2915.000000	99.385259 
2914.000000	99.385163 
2913.000000	99.384968 
2912.000000	99.385170 
2911.000000	99.386136 
2910.000000	99.387769 
2909.000000	99.389482 
2908.000000	99.390527 
2907.000000	99.390544 
2906.000000	99.389840 
2905.000000	99.389078 
2904.000000	99.388669 
2903.000000	99.388447 
2902.000000	99.387944 
2901.000000	99.387057 
2900.000000	99.386463 
2899.000000	99.387147 
2898.000000	99.389333 
2897.000000	99.391962 
2896.000000	99.393636 
2895.000000	99.394161 
2894.000000	99.394632 
2893.000000	99.395993 
2892.000000	99.398005 
2891.000000	99.399763 
2890.000000	99.400767 
2889.000000	99.401185 
2888.000000	99.401363 
2887.000000	99.401536 
2886.000000	99.401909 
2885.000000	99.402654 
2884.000000	99.403766 
2883.000000	99.405123 
2882.000000	99.406700 
2881.000000	99.408553 
2880.000000	99.410553 
2879.000000	99.412314 
2878.000000	99.413527 
2877.000000	99.414306 
2876.000000	99.415134 
2875.000000	99.416403 
2874.000000	99.417951 
2873.000000	99.419169 
2872.000000	99.419594 
2871.000000	99.419340 
2870.000000	99.418883 
2869.000000	99.418573 
2868.000000	99.418537 
2867.000000	99.418941 
2866.000000	99.419974 
2865.000000	99.421451 
2864.000000	99.422697 
2863.000000	99.423098 
2862.000000	99.422671 
2861.000000	99.421989 
2860.000000	99.421656 
2859.000000	99.421951 
2858.000000	99.422873 
2857.000000	99.424223 
2856.000000	99.425641 
2855.000000	99.426776 
2854.000000	99.427563 
2853.000000	99.428253 
2852.000000	99.429099 
2851.000000	99.430094 
2850.000000	99.431094 
2849.000000	99.432072 
2848.000000	99.433159 
2847.000000	99.434407 
2846.000000	99.435653 
2845.000000	99.436646 
2844.000000	99.437274 
2843.000000	99.437640 
2842.000000	99.437977 
2841.000000	99.438522 
2840.000000	99.439388 
2839.000000	99.440498 
2838.000000	99.441605 
2837.000000	99.442460 
2836.000000	99.442999 
2835.000000	99.443359 
2834.000000	99.443741 
2833.000000	99.444253 
2832.000000	99.444862 
2831.000000	99.445463 
2830.000000	99.445974 
2829.000000	99.446395 
2828.000000	99.446797 
2827.000000	99.447254 
2826.000000	99.447788 
2825.000000	99.448364 
2824.000000	99.448928 
2823.000000	99.449439 
2822.000000	99.449898 
2821.000000	99.450330 
2820.000000	99.450765 
2819.000000	99.451212 
2818.000000	99.451661 
2817.000000	99.452099 
2816.000000	99.452522 
2815.000000	99.452928 
2814.000000	99.453318 
2813.000000	99.453693 
2812.000000	99.454059 
2811.000000	99.454420 
2810.000000	99.454776 
2809.000000	99.455128 
2808.000000	99.455470 
2807.000000	99.455800 
2806.000000	99.456118 
2805.000000	99.456426 
2804.000000	99.456724 
2803.000000	99.457015 
2802.000000	99.457303 
2801.000000	99.457586 
2800.000000	99.457867 
2799.000000	99.458151 
2798.000000	99.458434 
2797.000000	99.458689 
2796.000000	99.458888 
2795.000000	99.459033 
2794.000000	99.459162 
2793.000000	99.459312 
2792.000000	99.459507 
2791.000000	99.459742 
2790.000000	99.459994 
2789.000000	99.460253 
2788.000000	99.460545 
2787.000000	99.460917 
2786.000000	99.461359 
2785.000000	99.461777 
2784.000000	99.462062 
2783.000000	99.462185 
2782.000000	99.462222 
2781.000000	99.462298 
2780.000000	99.462507 
2779.000000	99.462870 
2778.000000	99.463311 
2777.000000	99.463715 
2776.000000	99.464036 
2775.000000	99.464307 
2774.000000	99.464550 
2773.000000	99.464726 
2772.000000	99.464834 
2771.000000	99.464983 
2770.000000	99.465274 
2769.000000	99.465644 
2768.000000	99.465921 
2767.000000	99.466036 
2766.000000	99.466098 
2765.000000	99.466224 
2764.000000	99.466357 
2763.000000	99.466329 
2762.000000	99.466056 
2761.000000	99.465635 
2760.000000	99.465286 
2759.000000	99.465188 
2758.000000	99.465374 
2757.000000	99.465764 
2756.000000	99.466245 
2755.000000	99.466704 
2754.000000	99.467024 
2753.000000	99.467132 
2752.000000	99.467071 
2751.000000	99.467006 
2750.000000	99.467098 
2749.000000	99.467363 
2748.000000	99.467686 
2747.000000	99.467929 
2746.000000	99.468041 
2745.000000	99.468061 
2744.000000	99.468057 
2743.000000	99.468070 
2742.000000	99.468116 
2741.000000	99.468214 
2740.000000	99.468377 
2739.000000	99.468584 
2738.000000	99.468783 
2737.000000	99.468937 
2736.000000	99.469071 
2735.000000	99.469235 
2734.000000	99.469427 
2733.000000	99.469579 
2732.000000	99.469640 
2731.000000	99.469636 
2730.000000	99.469638 
2729.000000	99.469689 
2728.000000	99.469793 
2727.000000	99.469947 
2726.000000	99.470152 
2725.000000	99.470390 
2724.000000	99.470643 
2723.000000	99.470925 
2722.000000	99.471274 
2721.000000	99.471691 
2720.000000	99.472093 
2719.000000	99.472363 
2718.000000	99.472460 
2717.000000	99.472445 
2716.000000	99.472431 
2715.000000	99.472487 
2714.000000	99.472613 
2713.000000	99.472767 
2712.000000	99.472906 
2711.000000	99.473027 
2710.000000	99.473160 
2709.000000	99.473350 
2708.000000	99.473635 
2707.000000	99.473990 
2706.000000	99.474261 
2705.000000	99.474279 
2704.000000	99.474097 
2703.000000	99.474020 
2702.000000	99.474254 
2701.000000	99.474614 
2700.000000	99.474737 
2699.000000	99.474574 
2698.000000	99.474512 
2697.000000	99.474927 
2696.000000	99.475743 
2695.000000	99.476459 
2694.000000	99.476626 
2693.000000	99.476235 
2692.000000	99.475736 
2691.000000	99.475576 
2690.000000	99.475742 
2689.000000	99.475873 
2688.000000	99.475791 
2687.000000	99.475679 
2686.000000	99.475694 
2685.000000	99.475677 
2684.000000	99.475424 
2683.000000	99.475025 
2682.000000	99.474628 
2681.000000	99.474131 
2680.000000	99.473377 
2679.000000	99.472513 
2678.000000	99.471919 
2677.000000	99.471841 
2676.000000	99.472238 
2675.000000	99.472902 
2674.000000	99.473536 
2673.000000	99.473811 
2672.000000	99.473588 
2671.000000	99.473077 
2670.000000	99.472581 
2669.000000	99.472113 
2668.000000	99.471436 
2667.000000	99.470455 
2666.000000	99.469355 
2665.000000	99.468367 
2664.000000	99.467565 
2663.000000	99.466886 
2662.000000	99.466237 
2661.000000	99.465574 
2660.000000	99.464957 
2659.000000	99.464480 
2658.000000	99.464116 
2657.000000	99.463721 
2656.000000	99.463226 
2655.000000	99.462711 
2654.000000	99.462197 
2653.000000	99.461561 
2652.000000	99.460815 
2651.000000	99.460310 
2650.000000	99.460343 
2649.000000	99.460691 
2648.000000	99.460754 
2647.000000	99.460250 
2646.000000	99.459519 
2645.000000	99.459134 
2644.000000	99.459277 
2643.000000	99.459628 
2642.000000	99.459681 
2641.000000	99.459203 
2640.000000	99.458384 
2639.000000	99.457708 
2638.000000	99.457541 
2637.000000	99.457814 
2636.000000	99.458169 
2635.000000	99.458378 
2634.000000	99.458501 
2633.000000	99.458654 
2632.000000	99.458861 
2631.000000	99.459150 
2630.000000	99.459591 
2629.000000	99.460131 
2628.000000	99.460558 
2627.000000	99.460747 
2626.000000	99.460830 
2625.000000	99.461032 
2624.000000	99.461380 
2623.000000	99.461711 
2622.000000	99.461936 
2621.000000	99.462156 
2620.000000	99.462502 
2619.000000	99.462975 
2618.000000	99.463486 
2617.000000	99.463975 
2616.000000	99.464450 
2615.000000	99.464940 
2614.000000	99.465454 
2613.000000	99.465980 
2612.000000	99.466507 
2611.000000	99.467020 
2610.000000	99.467486 
2609.000000	99.467852 
2608.000000	99.468130 
2607.000000	99.468455 
2606.000000	99.469004 
2605.000000	99.469833 
2604.000000	99.470797 
2603.000000	99.471647 
2602.000000	99.472172 
2601.000000	99.472358 
2600.000000	99.472474 
2599.000000	99.472881 
2598.000000	99.473606 
2597.000000	99.474181 
2596.000000	99.474148 
2595.000000	99.473536 
2594.000000	99.472830 
2593.000000	99.472522 
2592.000000	99.472740 
2591.000000	99.473352 
2590.000000	99.474176 
2589.000000	99.475098 
2588.000000	99.476003 
2587.000000	99.476722 
2586.000000	99.477107 
2585.000000	99.477158 
2584.000000	99.477054 
2583.000000	99.477050 
2582.000000	99.477258 
2581.000000	99.477566 
2580.000000	99.477789 
2579.000000	99.477872 
2578.000000	99.477885 
2577.000000	99.477862 
2576.000000	99.477777 
2575.000000	99.477660 
2574.000000	99.477653 
2573.000000	99.477877 
2572.000000	99.478340 
2571.000000	99.478948 
2570.000000	99.479545 
2569.000000	99.479969 
2568.000000	99.480173 
2567.000000	99.480272 
2566.000000	99.480397 
2565.000000	99.480513 
2564.000000	99.480513 
2563.000000	99.480443 
2562.000000	99.480486 
2561.000000	99.480694 
2560.000000	99.480878 
2559.000000	99.480813 
2558.000000	99.480467 
2557.000000	99.480024 
2556.000000	99.479786 
2555.000000	99.480019 
2554.000000	99.480775 
2553.000000	99.481690 
2552.000000	99.482183 
2551.000000	99.482024 
2550.000000	99.481468 
2549.000000	99.480866 
2548.000000	99.480263 
2547.000000	99.479577 
2546.000000	99.478906 
2545.000000	99.478462 
2544.000000	99.478338 
2543.000000	99.478473 
2542.000000	99.478671 
2541.000000	99.478608 
2540.000000	99.478036 
2539.000000	99.477126 
2538.000000	99.476464 
2537.000000	99.476437 
2536.000000	99.476825 
2535.000000	99.477163 
2534.000000	99.477323 
2533.000000	99.477471 
2532.000000	99.477599 
2531.000000	99.477473 
2530.000000	99.477057 
2529.000000	99.476650 
2528.000000	99.476487 
2527.000000	99.476422 
2526.000000	99.476157 
2525.000000	99.475709 
2524.000000	99.475473 
2523.000000	99.475787 
2522.000000	99.476581 
2521.000000	99.477474 
2520.000000	99.478100 
2519.000000	99.478273 
2518.000000	99.477953 
2517.000000	99.477225 
2516.000000	99.476364 
2515.000000	99.475753 
2514.000000	99.475630 
2513.000000	99.475991 
2512.000000	99.476795 
2511.000000	99.478081 
2510.000000	99.479729 
2509.000000	99.481264 
2508.000000	99.482238 
2507.000000	99.482735 
2506.000000	99.483174 
2505.000000	99.483614 
2504.000000	99.483614 
2503.000000	99.482929 
2502.000000	99.482002 
2501.000000	99.481579 
2500.000000	99.482014 
2499.000000	99.483196 
2498.000000	99.484821 
2497.000000	99.486436 
2496.000000	99.487472 
2495.000000	99.487600 
2494.000000	99.487067 
2493.000000	99.486508 
2492.000000	99.486345 
2491.000000	99.486599 
2490.000000	99.487237 
2489.000000	99.488380 
2488.000000	99.490072 
2487.000000	99.492013 
2486.000000	99.493581 
2485.000000	99.494112 
2484.000000	99.493290 
2483.000000	99.491437 
2482.000000	99.489484 
2481.000000	99.488328 
2480.000000	99.488155 
2479.000000	99.488511 
2478.000000	99.488882 
2477.000000	99.489084 
2476.000000	99.489163 
2475.000000	99.489243 
2474.000000	99.489551 
2473.000000	99.490244 
2472.000000	99.491063 
2471.000000	99.491397 
2470.000000	99.490911 
2469.000000	99.489906 
2468.000000	99.488930 
2467.000000	99.488194 
2466.000000	99.487561 
2465.000000	99.486930 
2464.000000	99.486372 
2463.000000	99.485999 
2462.000000	99.485875 
2461.000000	99.485967 
2460.000000	99.486021 
2459.000000	99.485594 
2458.000000	99.484433 
2457.000000	99.482853 
2456.000000	99.481536 
2455.000000	99.480881 
2454.000000	99.480740 
2453.000000	99.480752 
2452.000000	99.480726 
2451.000000	99.480600 
2450.000000	99.480246 
2449.000000	99.479561 
2448.000000	99.478761 
2447.000000	99.478365 
2446.000000	99.478769 
2445.000000	99.479832 
2444.000000	99.480877 
2443.000000	99.481112 
2442.000000	99.480161 
2441.000000	99.478359 
2440.000000	99.476682 
2439.000000	99.476084 
2438.000000	99.476799 
2437.000000	99.478213 
2436.000000	99.479429 
2435.000000	99.480012 
2434.000000	99.480114 
2433.000000	99.480155 
2432.000000	99.480552 
2431.000000	99.481554 
2430.000000	99.483039 
2429.000000	99.484359 
2428.000000	99.484707 
2427.000000	99.483817 
2426.000000	99.482295 
2425.000000	99.481188 
2424.000000	99.481161 
2423.000000	99.482233 
2422.000000	99.484075 
2421.000000	99.486257 
2420.000000	99.488168 
2419.000000	99.489058 
2418.000000	99.488522 
2417.000000	99.486946 
2416.000000	99.485244 
2415.000000	99.484007 
2414.000000	99.483076 
2413.000000	99.482069 
2412.000000	99.481050 
2411.000000	99.480435 
2410.000000	99.480416 
2409.000000	99.480819 
2408.000000	99.481484 
2407.000000	99.482427 
2406.000000	99.483548 
2405.000000	99.484597 
2404.000000	99.485520 
2403.000000	99.486485 
2402.000000	99.487368 
2401.000000	99.487596 
2400.000000	99.486823 
2399.000000	99.485532 
2398.000000	99.484602 
2397.000000	99.484480 
2396.000000	99.485072 
2395.000000	99.486054 
2394.000000	99.487007 
2393.000000	99.487539 
2392.000000	99.487563 
2391.000000	99.487422 
2390.000000	99.487490 
2389.000000	99.487802 
2388.000000	99.488302 
2387.000000	99.489154 
2386.000000	99.490466 
2385.000000	99.491886 
2384.000000	99.492876 
2383.000000	99.493353 
2382.000000	99.493705 
2381.000000	99.494238 
2380.000000	99.494862 
2379.000000	99.495387 
2378.000000	99.495844 
2377.000000	99.496385 
2376.000000	99.497051 
2375.000000	99.497758 
2374.000000	99.498408 
2373.000000	99.498972 
2372.000000	99.499473 
2371.000000	99.499965 
2370.000000	99.500485 
2369.000000	99.501018 
2368.000000	99.501526 
2367.000000	99.501991 
2366.000000	99.502421 
2365.000000	99.502833 
2364.000000	99.503231 
2363.000000	99.503604 
2362.000000	99.503925 
2361.000000	99.504180 
2360.000000	99.504381 
2359.000000	99.504557 
2358.000000	99.504733 
2357.000000	99.504921 
2356.000000	99.505124 
2355.000000	99.505340 
2354.000000	99.505534 
2353.000000	99.505662 
2352.000000	99.505701 
2351.000000	99.505674 
2350.000000	99.505624 
2349.000000	99.505562 
2348.000000	99.505477 
2347.000000	99.505360 
2346.000000	99.505214 
2345.000000	99.505043 
2344.000000	99.504837 
2343.000000	99.504592 
2342.000000	99.504316 
2341.000000	99.504030 
2340.000000	99.503749 
2339.000000	99.503492 
2338.000000	99.503262 
2337.000000	99.503016 
2336.000000	99.502680 
2335.000000	99.502230 
2334.000000	99.501729 
2333.000000	99.501296 
2332.000000	99.500997 
2331.000000	99.500781 
2330.000000	99.500497 
2329.000000	99.500034 
2328.000000	99.499407 
2327.000000	99.498701 
2326.000000	99.497969 
2325.000000	99.497198 
2324.000000	99.496399 
2323.000000	99.495702 
2322.000000	99.495286 
2321.000000	99.495182 
2320.000000	99.495115 
2319.000000	99.494753 
2318.000000	99.494068 
2317.000000	99.493383 
2316.000000	99.492998 
2315.000000	99.492871 
2314.000000	99.492784 
2313.000000	99.492701 
2312.000000	99.492757 
2311.000000	99.492896 
2310.000000	99.492768 
2309.000000	99.492107 
2308.000000	99.491059 
2307.000000	99.490091 
2306.000000	99.489603 
2305.000000	99.489662 
2304.000000	99.490031 
2303.000000	99.490372 
2302.000000	99.490451 
2301.000000	99.490310 
2300.000000	99.490284 
2299.000000	99.490751 
2298.000000	99.491716 
2297.000000	99.492582 
2296.000000	99.492581 
2295.000000	99.491454 
2294.000000	99.489749 
2293.000000	99.488434 
2292.000000	99.488132 
2291.000000	99.488716 
2290.000000	99.489476 
2289.000000	99.489712 
2288.000000	99.489337 
2287.000000	99.488873 
2286.000000	99.488721 
2285.000000	99.488517 
2284.000000	99.487551 
2283.000000	99.485974 
2282.000000	99.485057 
2281.000000	99.485813 
2280.000000	99.487858 
2279.000000	99.490046 
2278.000000	99.491882 
2277.000000	99.493673 
2276.000000	99.495500 
2275.000000	99.496902 
2274.000000	99.497628 
2273.000000	99.497986 
2272.000000	99.498241 
2271.000000	99.498308 
2270.000000	99.498323 
2269.000000	99.498953 
2268.000000	99.500711 
2267.000000	99.503280 
2266.000000	99.505802 
2265.000000	99.507667 
2264.000000	99.508681 
2263.000000	99.508776 
2262.000000	99.508122 
2261.000000	99.507390 
2260.000000	99.507402 
2259.000000	99.508376 
2258.000000	99.509696 
2257.000000	99.510727 
2256.000000	99.511492 
2255.000000	99.512443 
2254.000000	99.513809 
2253.000000	99.515403 
2252.000000	99.516948 
2251.000000	99.518336 
2250.000000	99.519520 
2249.000000	99.520355 
2248.000000	99.520739 
2247.000000	99.520828 
2246.000000	99.520952 
2245.000000	99.521363 
2244.000000	99.522108 
2243.000000	99.523113 
2242.000000	99.524300 
2241.000000	99.525587 
2240.000000	99.526906 
2239.000000	99.528228 
2238.000000	99.529504 
2237.000000	99.530603 
2236.000000	99.531391 
2235.000000	99.531897 
2234.000000	99.532318 
2233.000000	99.532845 
2232.000000	99.533525 
2231.000000	99.534295 
2230.000000	99.535088 
2229.000000	99.535880 
2228.000000	99.536687 
2227.000000	99.537532 
2226.000000	99.538418 
2225.000000	99.539328 
2224.000000	99.540248 
2223.000000	99.541185 
2222.000000	99.542129 
2221.000000	99.543070 
2220.000000	99.544003 
2219.000000	99.544934 
2218.000000	99.545881 
2217.000000	99.546867 
2216.000000	99.547898 
2215.000000	99.548957 
2214.000000	99.550012 
2213.000000	99.551039 
2212.000000	99.552043 
2211.000000	99.553041 
2210.000000	99.554054 
2209.000000	99.555092 
2208.000000	99.556155 
2207.000000	99.557235 
2206.000000	99.558319 
2205.000000	99.559404 
2204.000000	99.560504 
2203.000000	99.561648 
2202.000000	99.562864 
2201.000000	99.564156 
2200.000000	99.565508 
2199.000000	99.566898 
2198.000000	99.568316 
2197.000000	99.569753 
2196.000000	99.571214 
2195.000000	99.572720 
2194.000000	99.574265 
2193.000000	99.575806 
2192.000000	99.577304 
2191.000000	99.578768 
2190.000000	99.580270 
2189.000000	99.581947 
2188.000000	99.583918 
2187.000000	99.586072 
2186.000000	99.587946 
2185.000000	99.589068 
2184.000000	99.589483 
2183.000000	99.589861 
2182.000000	99.590732 
2181.000000	99.592006 
2180.000000	99.593371 
2179.000000	99.594870 
2178.000000	99.596773 
2177.000000	99.599181 
2176.000000	99.602089 
2175.000000	99.605384 
2174.000000	99.608468 
2173.000000	99.610392 
2172.000000	99.610917 
2171.000000	99.611098 
2170.000000	99.612303 
2169.000000	99.614682 
2168.000000	99.617168 
2167.000000	99.618803 
2166.000000	99.619507 
2165.000000	99.619633 
2164.000000	99.619640 
2163.000000	99.620447 
2162.000000	99.623243 
2161.000000	99.628179 
2160.000000	99.633408 
2159.000000	99.636367 
2158.000000	99.636078 
2157.000000	99.633453 
2156.000000	99.630042 
2155.000000	99.627004 
2154.000000	99.625067 
2153.000000	99.624518 
2152.000000	99.624930 
2151.000000	99.625432 
2150.000000	99.625587 
2149.000000	99.625941 
2148.000000	99.627476 
2147.000000	99.630337 
2146.000000	99.633035 
2145.000000	99.633341 
2144.000000	99.630329 
2143.000000	99.625343 
2142.000000	99.621073 
2141.000000	99.619014 
2140.000000	99.618407 
2139.000000	99.617593 
2138.000000	99.616001 
2137.000000	99.614600 
2136.000000	99.614530 
2135.000000	99.615670 
2134.000000	99.616672 
2133.000000	99.616289 
2132.000000	99.614401 
2131.000000	99.611645 
2130.000000	99.608369 
2129.000000	99.604355 
2128.000000	99.599607 
2127.000000	99.594997 
2126.000000	99.591715 
2125.000000	99.590219 
2124.000000	99.590079 
2123.000000	99.590639 
2122.000000	99.591404 
2121.000000	99.591780 
2120.000000	99.591120 
2119.000000	99.589401 
2118.000000	99.587447 
2117.000000	99.586080 
2116.000000	99.585309 
2115.000000	99.584616 
2114.000000	99.583806 
2113.000000	99.583154 
2112.000000	99.582753 
2111.000000	99.582207 
2110.000000	99.581158 
2109.000000	99.579761 
2108.000000	99.578280 
2107.000000	99.576385 
2106.000000	99.573306 
2105.000000	99.569015 
2104.000000	99.565063 
2103.000000	99.563655 
2102.000000	99.565480 
2101.000000	99.568506 
2100.000000	99.569730 
2099.000000	99.568280 
2098.000000	99.566239 
2097.000000	99.566342 
2096.000000	99.569270 
2095.000000	99.573428 
2094.000000	99.576787 
2093.000000	99.578472 
2092.000000	99.578676 
2091.000000	99.577929 
2090.000000	99.576914 
2089.000000	99.576483 
2088.000000	99.577036 
2087.000000	99.577843 
2086.000000	99.577555 
2085.000000	99.575822 
2084.000000	99.574170 
2083.000000	99.574762 
2082.000000	99.578313 
2081.000000	99.583510 
2080.000000	99.588377 
2079.000000	99.592052 
2078.000000	99.595052 
2077.000000	99.598270 
2076.000000	99.601946 
2075.000000	99.605285 
2074.000000	99.606757 
2073.000000	99.605200 
2072.000000	99.601228 
2071.000000	99.597154 
2070.000000	99.595189 
2069.000000	99.595750 
2068.000000	99.597499 
2067.000000	99.598851 
2066.000000	99.599338 
2065.000000	99.599879 
2064.000000	99.602007 
2063.000000	99.606527 
2062.000000	99.612537 
2061.000000	99.617754 
2060.000000	99.620509 
2059.000000	99.621259 
2058.000000	99.621970 
2057.000000	99.624110 
2056.000000	99.627438 
2055.000000	99.630766 
2054.000000	99.633377 
2053.000000	99.635482 
2052.000000	99.637652 
2051.000000	99.640193 
2050.000000	99.642959 
2049.000000	99.645536 
2048.000000	99.647625 
2047.000000	99.649371 
2046.000000	99.651238 
2045.000000	99.653527 
2044.000000	99.656054 
2043.000000	99.658378 
2042.000000	99.660290 
2041.000000	99.661957 
2040.000000	99.663612 
2039.000000	99.665265 
2038.000000	99.666815 
2037.000000	99.668311 
2036.000000	99.669933 
2035.000000	99.671617 
2034.000000	99.672894 
2033.000000	99.673381 
2032.000000	99.673422 
2031.000000	99.674041 
2030.000000	99.676035 
2029.000000	99.679275 
2028.000000	99.682577 
2027.000000	99.684733 
2026.000000	99.685383 
2025.000000	99.684984 
2024.000000	99.684474 
2023.000000	99.684812 
2022.000000	99.686403 
2021.000000	99.688545 
2020.000000	99.689852 
2019.000000	99.689652 
2018.000000	99.688539 
2017.000000	99.687432 
2016.000000	99.686507 
2015.000000	99.685594 
2014.000000	99.684875 
2013.000000	99.684468 
2012.000000	99.683965 
2011.000000	99.683210 
2010.000000	99.683175 
2009.000000	99.685160 
2008.000000	99.689055 
2007.000000	99.692946 
2006.000000	99.694821 
2005.000000	99.694326 
2004.000000	99.692726 
2003.000000	99.691321 
2002.000000	99.690018 
2001.000000	99.687530 
2000.000000	99.682917 
1999.000000	99.676879 
1998.000000	99.671408 
1997.000000	99.668141 
1996.000000	99.667349 
1995.000000	99.668456 
1994.000000	99.670707 
1993.000000	99.672923 
1992.000000	99.673570 
1991.000000	99.672029 
1990.000000	99.669317 
1989.000000	99.667040 
1988.000000	99.666296 
1987.000000	99.667859 
1986.000000	99.672176 
1985.000000	99.678308 
1984.000000	99.683447 
1983.000000	99.684938 
1982.000000	99.682604 
1981.000000	99.678519 
1980.000000	99.675249 
1979.000000	99.674729 
1978.000000	99.677652 
1977.000000	99.682076 
1976.000000	99.683503 
1975.000000	99.679010 
1974.000000	99.671185 
1973.000000	99.666332 
1972.000000	99.667872 
1971.000000	99.673454 
1970.000000	99.678685 
1969.000000	99.682140 
1968.000000	99.685355 
1967.000000	99.689211 
1966.000000	99.692461 
1965.000000	99.693803 
1964.000000	99.693464 
1963.000000	99.692355 
1962.000000	99.691099 
1961.000000	99.690184 
1960.000000	99.690013 
1959.000000	99.690098 
1958.000000	99.688885 
1957.000000	99.685157 
1956.000000	99.679228 
1955.000000	99.672211 
1954.000000	99.664605 
1953.000000	99.656448 
1952.000000	99.648773 
1951.000000	99.643835 
1950.000000	99.643167 
1949.000000	99.645821 
1948.000000	99.649068 
1947.000000	99.650703 
1946.000000	99.649956 
1945.000000	99.646611 
1944.000000	99.640786 
1943.000000	99.634052 
1942.000000	99.629250 
1941.000000	99.627755 
1940.000000	99.628060 
1939.000000	99.627947 
1938.000000	99.627044 
1937.000000	99.626446 
1936.000000	99.626598 
1935.000000	99.626597 
1934.000000	99.625511 
1933.000000	99.623497 
1932.000000	99.621510 
1931.000000	99.620395 
1930.000000	99.620325 
1929.000000	99.620593 
1928.000000	99.620002 
1927.000000	99.617844 
1926.000000	99.614429 
1925.000000	99.610650 
1924.000000	99.607281 
1923.000000	99.604795 
1922.000000	99.603398 
1921.000000	99.602863 
1920.000000	99.602569 
1919.000000	99.601835 
1918.000000	99.600392 
1917.000000	99.598483 
1916.000000	99.596503 
1915.000000	99.594686 
1914.000000	99.593074 
1913.000000	99.591655 
1912.000000	99.590383 
1911.000000	99.589149 
1910.000000	99.587817 
1909.000000	99.586344 
1908.000000	99.584798 
1907.000000	99.583278 
1906.000000	99.581831 
1905.000000	99.580440 
1904.000000	99.579017 
1903.000000	99.577421 
1902.000000	99.575544 
1901.000000	99.573442 
1900.000000	99.571380 
1899.000000	99.569654 
1898.000000	99.568362 
1897.000000	99.567314 
1896.000000	99.566217 
1895.000000	99.564967 
1894.000000	99.563720 
1893.000000	99.562680 
1892.000000	99.561817 
1891.000000	99.560836 
1890.000000	99.559497 
1889.000000	99.557963 
1888.000000	99.556692 
1887.000000	99.555949 
1886.000000	99.555585 
1885.000000	99.555210 
1884.000000	99.554446 
1883.000000	99.553077 
1882.000000	99.551175 
1881.000000	99.549201 
1880.000000	99.547816 
1879.000000	99.547292 
1878.000000	99.547110 
1877.000000	99.546375 
1876.000000	99.544834 
1875.000000	99.543351 
1874.000000	99.543171 
1873.000000	99.544689 
1872.000000	99.546961 
1871.000000	99.548291 
1870.000000	99.547463 
1869.000000	99.544738 
1868.000000	99.541556 
1867.000000	99.538774 
1866.000000	99.536075 
1865.000000	99.533347 
1864.000000	99.531689 
1863.000000	99.532596 
1862.000000	99.536343 
1861.000000	99.541308 
1860.000000	99.545103 
1859.000000	99.546754 
1858.000000	99.547309 
1857.000000	99.548408 
1856.000000	99.550564 
1855.000000	99.552922 
1854.000000	99.554443 
1853.000000	99.554826 
1852.000000	99.554357 
1851.000000	99.553379 
1850.000000	99.552269 
1849.000000	99.551666 
1848.000000	99.552196 
1847.000000	99.553901 
1846.000000	99.556107 
1845.000000	99.557617 
1844.000000	99.557398 
1843.000000	99.555611 
1842.000000	99.553660 
1841.000000	99.552960 
1840.000000	99.553934 
1839.000000	99.555930 
1838.000000	99.557798 
1837.000000	99.558932 
1836.000000	99.559598 
1835.000000	99.560267 
1834.000000	99.561051 
1833.000000	99.561849 
1832.000000	99.562557 
1831.000000	99.562953 
1830.000000	99.562822 
1829.000000	99.562382 
1828.000000	99.562180 
1827.000000	99.562437 
1826.000000	99.562706 
1825.000000	99.562492 
1824.000000	99.562000 
1823.000000	99.561784 
1822.000000	99.561865 
1821.000000	99.561719 
1820.000000	99.561000 
1819.000000	99.560021 
1818.000000	99.559409 
1817.000000	99.559391 
1816.000000	99.559542 
1815.000000	99.559309 
1814.000000	99.558644 
1813.000000	99.558104 
1812.000000	99.558462 
1811.000000	99.560070 
1810.000000	99.562382 
1809.000000	99.564319 
1808.000000	99.565137 
1807.000000	99.564663 
1806.000000	99.563045 
1805.000000	99.560771 
1804.000000	99.558628 
1803.000000	99.557214 
1802.000000	99.556623 
1801.000000	99.556714 
1800.000000	99.557340 
1799.000000	99.558117 
1798.000000	99.558343 
1797.000000	99.557696 
1796.000000	99.556848 
1795.000000	99.556837 
1794.000000	99.557896 
1793.000000	99.559151 
1792.000000	99.559911 
1791.000000	99.560624 
1790.000000	99.561871 
1789.000000	99.563696 
1788.000000	99.566044 
1787.000000	99.568756 
1786.000000	99.571050 
1785.000000	99.571781 
1784.000000	99.570691 
1783.000000	99.568910 
1782.000000	99.567749 
1781.000000	99.567385 
1780.000000	99.567049 
1779.000000	99.566193 
1778.000000	99.565177 
1777.000000	99.564740 
1776.000000	99.565380 
1775.000000	99.567406 
1774.000000	99.570930 
1773.000000	99.575221 
1772.000000	99.578615 
1771.000000	99.580164 
1770.000000	99.580347 
1769.000000	99.579813 
1768.000000	99.578775 
1767.000000	99.577521 
1766.000000	99.576506 
1765.000000	99.575942 
1764.000000	99.575711 
1763.000000	99.575747 
1762.000000	99.576213 
1761.000000	99.577097 
1760.000000	99.578030 
1759.000000	99.578700 
1758.000000	99.579047 
1757.000000	99.579153 
1756.000000	99.579267 
1755.000000	99.579810 
1754.000000	99.581026 
1753.000000	99.582625 
1752.000000	99.584000 
1751.000000	99.585125 
1750.000000	99.586773 
1749.000000	99.588928 
1748.000000	99.590021 
1747.000000	99.588775 
1746.000000	99.585611 
1745.000000	99.581913 
1744.000000	99.578749 
1743.000000	99.576701 
1742.000000	99.576182 
1741.000000	99.577218 
1740.000000	99.578881 
1739.000000	99.579732 
1738.000000	99.579408 
1737.000000	99.578585 
1736.000000	99.577758 
1735.000000	99.576229 
1734.000000	99.573107 
1733.000000	99.569871 
1732.000000	99.568675 
1731.000000	99.569363 
1730.000000	99.570358 
1729.000000	99.570593 
1728.000000	99.569986 
1727.000000	99.568994 
1726.000000	99.567715 
1725.000000	99.565851 
1724.000000	99.563531 
1723.000000	99.561773 
1722.000000	99.561650 
1721.000000	99.563249 
1720.000000	99.565615 
1719.000000	99.567275 
1718.000000	99.566754 
1717.000000	99.563583 
1716.000000	99.559163 
1715.000000	99.555173 
1714.000000	99.551790 
1713.000000	99.548710 
1712.000000	99.545976 
1711.000000	99.543570 
1710.000000	99.541228 
1709.000000	99.538777 
1708.000000	99.536347 
1707.000000	99.534233 
1706.000000	99.532720 
1705.000000	99.531670 
1704.000000	99.530462 
1703.000000	99.528366 
1702.000000	99.525011 
1701.000000	99.519575 
1700.000000	99.512655 
1699.000000	99.507335 
1698.000000	99.504398 
1697.000000	99.502430 
1696.000000	99.500481 
1695.000000	99.498163 
1694.000000	99.495616 
1693.000000	99.492803 
1692.000000	99.489083 
1691.000000	99.484141 
1690.000000	99.478257 
1689.000000	99.472005 
1688.000000	99.466004 
1687.000000	99.460845 
1686.000000	99.457216 
1685.000000	99.454749 
1684.000000	99.452321 
1683.000000	99.449274 
1682.000000	99.445438 
1681.000000	99.441177 
1680.000000	99.436824 
1679.000000	99.433036 
1678.000000	99.430182 
1677.000000	99.428041 
1676.000000	99.425593 
1675.000000	99.421919 
1674.000000	99.417616 
1673.000000	99.414002 
1672.000000	99.411414 
1671.000000	99.409162 
1670.000000	99.406239 
1669.000000	99.402256 
1668.000000	99.397732 
1667.000000	99.393225 
1666.000000	99.388524 
1665.000000	99.383099 
1664.000000	99.377365 
1663.000000	99.373220 
1662.000000	99.372070 
1661.000000	99.372551 
1660.000000	99.372123 
1659.000000	99.369756 
1658.000000	99.365805 
1657.000000	99.360402 
1656.000000	99.353115 
1655.000000	99.344677 
1654.000000	99.338758 
1653.000000	99.338486 
1652.000000	99.339735 
1651.000000	99.339518 
1650.000000	99.338663 
1649.000000	99.335504 
1648.000000	99.330295 
1647.000000	99.324515 
1646.000000	99.319779 
1645.000000	99.317397 
1644.000000	99.318839 
1643.000000	99.323154 
1642.000000	99.327329 
1641.000000	99.328821 
1640.000000	99.327412 
1639.000000	99.324825 
1638.000000	99.322992 
1637.000000	99.322886 
1636.000000	99.323938 
1635.000000	99.324174 
1634.000000	99.323468 
1633.000000	99.323979 
1632.000000	99.326231 
1631.000000	99.329031 
1630.000000	99.330987 
1629.000000	99.331705 
1628.000000	99.332201 
1627.000000	99.333655 
1626.000000	99.336464 
1625.000000	99.340679 
1624.000000	99.346100 
1623.000000	99.351526 
1622.000000	99.355354 
1621.000000	99.357557 
1620.000000	99.359341 
1619.000000	99.361818 
1618.000000	99.365875 
1617.000000	99.371446 
1616.000000	99.376943 
1615.000000	99.380750 
1614.000000	99.382832 
1613.000000	99.384327 
1612.000000	99.386871 
1611.000000	99.391182 
1610.000000	99.396260 
1609.000000	99.400901 
1608.000000	99.404946 
1607.000000	99.408457 
1606.000000	99.411322 
1605.000000	99.414141 
1604.000000	99.418367 
1603.000000	99.424856 
1602.000000	99.432548 
1601.000000	99.439403 
1600.000000	99.444592 
1599.000000	99.448893 
1598.000000	99.453187 
1597.000000	99.457489 
1596.000000	99.461654 
1595.000000	99.466097 
1594.000000	99.471083 
1593.000000	99.475923 
1592.000000	99.479658 
1591.000000	99.482357 
1590.000000	99.485259 
1589.000000	99.489524 
1588.000000	99.494961 
1587.000000	99.500136 
1586.000000	99.503646 
1585.000000	99.505158 
1584.000000	99.505210 
1583.000000	99.504649 
1582.000000	99.504491 
1581.000000	99.505517 
1580.000000	99.507681 
1579.000000	99.510387 
1578.000000	99.513436 
1577.000000	99.516965 
1576.000000	99.520176 
1575.000000	99.522070 
1574.000000	99.523301 
1573.000000	99.524582 
1572.000000	99.525801 
1571.000000	99.527312 
1570.000000	99.530061 
1569.000000	99.534548 
1568.000000	99.539338 
1567.000000	99.542725 
1566.000000	99.544271 
1565.000000	99.544546 
1564.000000	99.544199 
1563.000000	99.543739 
1562.000000	99.543687 
1561.000000	99.545301 
1560.000000	99.547939 
1559.000000	99.549961 
1558.000000	99.550270 
1557.000000	99.549248 
1556.000000	99.549149 
1555.000000	99.549655 
1554.000000	99.550291 
1553.000000	99.550494 
1552.000000	99.550476 
1551.000000	99.550876 
1550.000000	99.552484 
1549.000000	99.555015 
1548.000000	99.556992 
1547.000000	99.557316 
1546.000000	99.555974 
1545.000000	99.553826 
1544.000000	99.552144 
1543.000000	99.551455 
1542.000000	99.551430 
1541.000000	99.552024 
1540.000000	99.553736 
1539.000000	99.555831 
1538.000000	99.557300 
1537.000000	99.558417 
1536.000000	99.559276 
1535.000000	99.559865 
1534.000000	99.560248 
1533.000000	99.560519 
1532.000000	99.560804 
1531.000000	99.561270 
1530.000000	99.561900 
1529.000000	99.562323 
1528.000000	99.562236 
1527.000000	99.561982 
1526.000000	99.562254 
1525.000000	99.563148 
1524.000000	99.564179 
1523.000000	99.565125 
1522.000000	99.566357 
1521.000000	99.568043 
1520.000000	99.569580 
1519.000000	99.570432 
1518.000000	99.570547 
1517.000000	99.570255 
1516.000000	99.570090 
1515.000000	99.570292 
1514.000000	99.570793 
1513.000000	99.571314 
1512.000000	99.571580 
1511.000000	99.571673 
1510.000000	99.571925 
1509.000000	99.572601 
1508.000000	99.574094 
1507.000000	99.577278 
1506.000000	99.580346 
1505.000000	99.580646 
1504.000000	99.579488 
1503.000000	99.578545 
1502.000000	99.578414 
1501.000000	99.579314 
1500.000000	99.580749 
1499.000000	99.581980 
1498.000000	99.583191 
1497.000000	99.585429 
1496.000000	99.588756 
1495.000000	99.591748 
1494.000000	99.593142 
1493.000000	99.592610 
1492.000000	99.590318 
1491.000000	99.586814 
1490.000000	99.583402 
1489.000000	99.581234 
1488.000000	99.580094 
1487.000000	99.579318 
1486.000000	99.578816 
1485.000000	99.578976 
1484.000000	99.579920 
1483.000000	99.581049 
1482.000000	99.581421 
1481.000000	99.580666 
1480.000000	99.579401 
1479.000000	99.578470 
1478.000000	99.577931 
1477.000000	99.577162 
1476.000000	99.575877 
1475.000000	99.574531 
1474.000000	99.573644 
1473.000000	99.573171 
1472.000000	99.572436 
1471.000000	99.570752 
1470.000000	99.568183 
1469.000000	99.565400 
1468.000000	99.563229 
1467.000000	99.562308 
1466.000000	99.562555 
1465.000000	99.562935 
1464.000000	99.562516 
1463.000000	99.561661 
1462.000000	99.561163 
1461.000000	99.560734 
1460.000000	99.559180 
1459.000000	99.555806 
1458.000000	99.551657 
1457.000000	99.548758 
1456.000000	99.547281 
1455.000000	99.546399 
1454.000000	99.545924 
1453.000000	99.545145 
1452.000000	99.543402 
1451.000000	99.540792 
1450.000000	99.538185 
1449.000000	99.536279 
1448.000000	99.534914 
1447.000000	99.533617 
1446.000000	99.532570 
1445.000000	99.532276 
1444.000000	99.532546 
1443.000000	99.532318 
1442.000000	99.530736 
1441.000000	99.528244 
1440.000000	99.526211 
1439.000000	99.525659 
1438.000000	99.526236 
1437.000000	99.526079 
1436.000000	99.523758 
1435.000000	99.520290 
1434.000000	99.517697 
1433.000000	99.516958 
1432.000000	99.518156 
1431.000000	99.520819 
1430.000000	99.523993 
1429.000000	99.526592 
1428.000000	99.527867 
1427.000000	99.527822 
1426.000000	99.527104 
1425.000000	99.526463 
1424.000000	99.526387 
1423.000000	99.526825 
1422.000000	99.527495 
1421.000000	99.528581 
1420.000000	99.530180 
1419.000000	99.531902 
1418.000000	99.533279 
1417.000000	99.533892 
1416.000000	99.534019 
1415.000000	99.534333 
1414.000000	99.534807 
1413.000000	99.534619 
1412.000000	99.533381 
1411.000000	99.532033 
1410.000000	99.532004 
1409.000000	99.533758 
1408.000000	99.536581 
1407.000000	99.539399 
1406.000000	99.541827 
1405.000000	99.544650 
1404.000000	99.548828 
1403.000000	99.554025 
1402.000000	99.558883 
1401.000000	99.562431 
1400.000000	99.564914 
1399.000000	99.567489 
1398.000000	99.570610 
1397.000000	99.573295 
1396.000000	99.574559 
1395.000000	99.574884 
1394.000000	99.575940 
1393.000000	99.578928 
1392.000000	99.583882 
1391.000000	99.590161 
1390.000000	99.596623 
1389.000000	99.601782 
1388.000000	99.604559 
1387.000000	99.605210 
1386.000000	99.605156 
1385.000000	99.605641 
1384.000000	99.607074 
1383.000000	99.609394 
1382.000000	99.612327 
1381.000000	99.615482 
1380.000000	99.618556 
1379.000000	99.621416 
1378.000000	99.623837 
1377.000000	99.625417 
1376.000000	99.626072 
1375.000000	99.626611 
1374.000000	99.628252 
1373.000000	99.631141 
1372.000000	99.634322 
1371.000000	99.637305 
1370.000000	99.640522 
1369.000000	99.644283 
1368.000000	99.648097 
1367.000000	99.651226 
1366.000000	99.653443 
1365.000000	99.654746 
1364.000000	99.654935 
1363.000000	99.654294 
1362.000000	99.654100 
1361.000000	99.655437 
1360.000000	99.658066 
1359.000000	99.661055 
1358.000000	99.663881 
1357.000000	99.666570 
1356.000000	99.669117 
1355.000000	99.671319 
1354.000000	99.673098 
1353.000000	99.674379 
1352.000000	99.674729 
1351.000000	99.673803 
1350.000000	99.672260 
1349.000000	99.671517 
1348.000000	99.672346 
1347.000000	99.674310 
1346.000000	99.676665 
1345.000000	99.679067 
1344.000000	99.681242 
1343.000000	99.682627 
1342.000000	99.682760 
1341.000000	99.681735 
1340.000000	99.680134 
1339.000000	99.678761 
1338.000000	99.678460 
1337.000000	99.679775 
1336.000000	99.682408 
1335.000000	99.685299 
1334.000000	99.687650 
1333.000000	99.689560 
1332.000000	99.691289 
1331.000000	99.692416 
1330.000000	99.692359 
1329.000000	99.691429 
1328.000000	99.690679 
1327.000000	99.690748 
1326.000000	99.691336 
1325.000000	99.691787 
1324.000000	99.691818 
1323.000000	99.691596 
1322.000000	99.691339 
1321.000000	99.690969 
1320.000000	99.690247 
1319.000000	99.689347 
1318.000000	99.689029 
1317.000000	99.689777 
1316.000000	99.690860 
1315.000000	99.690883 
1314.000000	99.689423 
1313.000000	99.687691 
1312.000000	99.687255 
1311.000000	99.688463 
1310.000000	99.690495 
1309.000000	99.692411 
1308.000000	99.693558 
1307.000000	99.693354 
1306.000000	99.691546 
1305.000000	99.688868 
1304.000000	99.686927 
1303.000000	99.687059 
1302.000000	99.689313 
1301.000000	99.692454 
1300.000000	99.694774 
1299.000000	99.695125 
1298.000000	99.693555 
1297.000000	99.691143 
1296.000000	99.689155 
1295.000000	99.688380 
1294.000000	99.689179 
1293.000000	99.691556 
1292.000000	99.694689 
1291.000000	99.696836 
1290.000000	99.696658 
1289.000000	99.694687 
1288.000000	99.692747 
1287.000000	99.691647 
1286.000000	99.690320 
1285.000000	99.687801 
1284.000000	99.685088 
1283.000000	99.684076 
1282.000000	99.685150 
1281.000000	99.687011 
1280.000000	99.688676 
1279.000000	99.690334 
1278.000000	99.692012 
1277.000000	99.692694 
1276.000000	99.691569 
1275.000000	99.689489 
1274.000000	99.688385 
1273.000000	99.689359 
1272.000000	99.691677 
1271.000000	99.693388 
1270.000000	99.692886 
1269.000000	99.690340 
1268.000000	99.687626 
1267.000000	99.686298 
1266.000000	99.685699 
1265.000000	99.683973 
1264.000000	99.680989 
1263.000000	99.678908 
1262.000000	99.679330 
1261.000000	99.681269 
1260.000000	99.682896 
1259.000000	99.683982 
1258.000000	99.685287 
1257.000000	99.686634 
1256.000000	99.687323 
1255.000000	99.687991 
1254.000000	99.690325 
1253.000000	99.694698 
1252.000000	99.699207 
1251.000000	99.701304 
1250.000000	99.699730 
1249.000000	99.695058 
1248.000000	99.689317 
1247.000000	99.684962 
1246.000000	99.683080 
1245.000000	99.682322 
1244.000000	99.680296 
1243.000000	99.676085 
1242.000000	99.670881 
1241.000000	99.666482 
1240.000000	99.663914 
1239.000000	99.663036 
1238.000000	99.662402 
1237.000000	99.659800 
1236.000000	99.654054 
1235.000000	99.646205 
1234.000000	99.638047 
1233.000000	99.629852 
1232.000000	99.620672 
1231.000000	99.610362 
1230.000000	99.599631 
1229.000000	99.588216 
1228.000000	99.574823 
1227.000000	99.559283 
1226.000000	99.543103 
1225.000000	99.527030 
1224.000000	99.509308 
1223.000000	99.487308 
1222.000000	99.460179 
1221.000000	99.429360 
1220.000000	99.397087 
1219.000000	99.364774 
1218.000000	99.332175 
1217.000000	99.297584 
1216.000000	99.259232 
1215.000000	99.216839 
1214.000000	99.171878 
1213.000000	99.126520 
1212.000000	99.082226 
1211.000000	99.038584 
1210.000000	98.993342 
1209.000000	98.944672 
1208.000000	98.893676 
1207.000000	98.843344 
1206.000000	98.794675 
1205.000000	98.745823 
1204.000000	98.695743 
1203.000000	98.646007 
1202.000000	98.597527 
1201.000000	98.548060 
1200.000000	98.495326 
1199.000000	98.440714 
1198.000000	98.387362 
1197.000000	98.335978 
1196.000000	98.284986 
1195.000000	98.233475 
1194.000000	98.181366 
1193.000000	98.127624 
1192.000000	98.070961 
1191.000000	98.012163 
1190.000000	97.953809 
1189.000000	97.897796 
1188.000000	97.844246 
1187.000000	97.791878 
1186.000000	97.738080 
1185.000000	97.679813 
1184.000000	97.616170 
1183.000000	97.549333 
1182.000000	97.481965 
1181.000000	97.414939 
1180.000000	97.348614 
1179.000000	97.283971 
1178.000000	97.220239 
1177.000000	97.153363 
1176.000000	97.079727 
1175.000000	97.000544 
1174.000000	96.920350 
1173.000000	96.841962 
1172.000000	96.764971 
1171.000000	96.688090 
1170.000000	96.610667 
1169.000000	96.532643 
1168.000000	96.455126 
1167.000000	96.380858 
1166.000000	96.313376 
1165.000000	96.257022 
1164.000000	96.218367 
1163.000000	96.204623 
1162.000000	96.217732 
1161.000000	96.250477 
1160.000000	96.289398 
1159.000000	96.320898 
1158.000000	96.335154 
1157.000000	96.327405 
1156.000000	96.297943 
1155.000000	96.250372 
1154.000000	96.188856 
1153.000000	96.117368 
1152.000000	96.041128 
1151.000000	95.966092 
1150.000000	95.895504 
1149.000000	95.828507 
1148.000000	95.762855 
1147.000000	95.696845 
1146.000000	95.628321 
1145.000000	95.555207 
1144.000000	95.478735 
1143.000000	95.403526 
1142.000000	95.332655 
1141.000000	95.264662 
1140.000000	95.196380 
1139.000000	95.125945 
1138.000000	95.052051 
1137.000000	94.973641 
1136.000000	94.892178 
1135.000000	94.811477 
1134.000000	94.733476 
1133.000000	94.656410 
1132.000000	94.578036 
1131.000000	94.497713 
1130.000000	94.414527 
1129.000000	94.326996 
1128.000000	94.235926 
1127.000000	94.144226 
1126.000000	94.052824 
1125.000000	93.960287 
1124.000000	93.867145 
1123.000000	93.776125 
1122.000000	93.686938 
1121.000000	93.595650 
1120.000000	93.500939 
1119.000000	93.406333 
1118.000000	93.314529 
1117.000000	93.224529 
1116.000000	93.136128 
1115.000000	93.051861 
1114.000000	92.972294 
1113.000000	92.894626 
1112.000000	92.818127 
1111.000000	92.745697 
1110.000000	92.678070 
1109.000000	92.611719 
1108.000000	92.544222 
1107.000000	92.476491 
1106.000000	92.408228 
1105.000000	92.336758 
1104.000000	92.261836 
1103.000000	92.186125 
1102.000000	92.109970 
1101.000000	92.031568 
1100.000000	91.952847 
1099.000000	91.878442 
1098.000000	91.808003 
1097.000000	91.736890 
1096.000000	91.665292 
1095.000000	91.598855 
1094.000000	91.539058 
1093.000000	91.481153 
1092.000000	91.422932 
1091.000000	91.366726 
1090.000000	91.310979 
1089.000000	91.249335 
1088.000000	91.181289 
1087.000000	91.115254 
1086.000000	91.057816 
1085.000000	91.007561 
1084.000000	90.961661 
1083.000000	90.919665 
1082.000000	90.878063 
1081.000000	90.830290 
1080.000000	90.775761 
1079.000000	90.720831 
1078.000000	90.667848 
1077.000000	90.611548 
1076.000000	90.548977 
1075.000000	90.483604 
1074.000000	90.415954 
1073.000000	90.338929 
1072.000000	90.246355 
1071.000000	90.138338 
1070.000000	90.015374 
1069.000000	89.875748 
1068.000000	89.722312 
1067.000000	89.563660 
1066.000000	89.404687 
1065.000000	89.243509 
1064.000000	89.080524 
1063.000000	88.921526 
1062.000000	88.768646 
1061.000000	88.617510 
1060.000000	88.466789 
1059.000000	88.321100 
1058.000000	88.180983 
1057.000000	88.039326 
1056.000000	87.890941 
1055.000000	87.736359 
1054.000000	87.573844 
1053.000000	87.398434 
1052.000000	87.212271 
1051.000000	87.024198 
1050.000000	86.834826 
1049.000000	86.635386 
1048.000000	86.425661 
1047.000000	86.217721 
1046.000000	86.017117 
1045.000000	85.815407 
1044.000000	85.606038 
1043.000000	85.393822 
1042.000000	85.183757 
1041.000000	84.973492 
1040.000000	84.762972 
1039.000000	84.559701 
1038.000000	84.368398 
1037.000000	84.186660 
1036.000000	84.015809 
1035.000000	83.863956 
1034.000000	83.733063 
1033.000000	83.614859 
1032.000000	83.504395 
1031.000000	83.405965 
1030.000000	83.321640 
1029.000000	83.246719 
1028.000000	83.180729 
1027.000000	83.129820 
1026.000000	83.093467 
1025.000000	83.061193 
1024.000000	83.026612 
1023.000000	82.992413 
1022.000000	82.958342 
1021.000000	82.917953 
1020.000000	82.871151 
1019.000000	82.826360 
1018.000000	82.785966 
1017.000000	82.742556 
1016.000000	82.693314 
1015.000000	82.644858 
1014.000000	82.600059 
1013.000000	82.553457 
1012.000000	82.503606 
1011.000000	82.456777 
1010.000000	82.415016 
1009.000000	82.374192 
1008.000000	82.337069 
1007.000000	82.313846 
1006.000000	82.305881 
1005.000000	82.303104 
1004.000000	82.301505 
1003.000000	82.308929 
1002.000000	82.329543 
1001.000000	82.357166 
1000.000000	82.388212 
999.000000	 82.426736 
998.000000	 82.472003 
997.000000	 82.515626 
996.000000	 82.556407 
995.000000	 82.604450 
994.000000	 82.665255 
993.000000	 82.732401 
992.000000	 82.800252 
991.000000	 82.871056 
990.000000	 82.945526 
989.000000	 83.019795 
988.000000	 83.096147 
987.000000	 83.183840 
986.000000	 83.285184 
985.000000	 83.393637 
984.000000	 83.509201 
983.000000	 83.641859 
982.000000	 83.795293 
981.000000	 83.960614 
980.000000	 84.131030 
979.000000	 84.310074 
978.000000	 84.500708 
977.000000	 84.699167 
976.000000	 84.904672 
975.000000	 85.122981 
974.000000	 85.354841 
973.000000	 85.591926 
972.000000	 85.828929 
971.000000	 86.069175 
970.000000	 86.314059 
969.000000	 86.557629 
968.000000	 86.796194 
967.000000	 87.033257 
966.000000	 87.270319 
965.000000	 87.501869 
964.000000	 87.723855 
963.000000	 87.938870 
962.000000	 88.149194 
961.000000	 88.352569 
960.000000	 88.548224 
959.000000	 88.739334 
958.000000	 88.926282 
957.000000	 89.104795 
956.000000	 89.273781 
955.000000	 89.437999 
954.000000	 89.600242 
953.000000	 89.757389 
952.000000	 89.906237 
951.000000	 90.046544 
950.000000	 90.176780 
949.000000	 90.294060 
948.000000	 90.400391 
947.000000	 90.502292 
946.000000	 90.602184 
945.000000	 90.696340 
944.000000	 90.782516 
943.000000	 90.862685 
942.000000	 90.937206 
941.000000	 91.003865 
940.000000	 91.064600 
939.000000	 91.126003 
938.000000	 91.191009 
937.000000	 91.256630 
936.000000	 91.321266 
935.000000	 91.387045 
934.000000	 91.453588 
933.000000	 91.517265 
932.000000	 91.578703 
931.000000	 91.643793 
930.000000	 91.715153 
929.000000	 91.789333 
928.000000	 91.863736 
927.000000	 91.938770 
926.000000	 92.011706 
925.000000	 92.076336 
924.000000	 92.131031 
923.000000	 92.179991 
922.000000	 92.224729 
921.000000	 92.261692 
920.000000	 92.290434 
919.000000	 92.316627 
918.000000	 92.344418 
917.000000	 92.372959 
916.000000	 92.402899 
915.000000	 92.439086 
914.000000	 92.484338 
913.000000	 92.537982 
912.000000	 92.603144 
911.000000	 92.687582 
910.000000	 92.793741 
909.000000	 92.915112 
908.000000	 93.045803 
907.000000	 93.187296 
906.000000	 93.342839 
905.000000	 93.511678 
904.000000	 93.691519 
903.000000	 93.880660 
902.000000	 94.075300 
901.000000	 94.270164 
900.000000	 94.463637 
899.000000	 94.657220 
898.000000	 94.848962 
897.000000	 95.032871 
896.000000	 95.205680 
895.000000	 95.369160 
894.000000	 95.525202 
893.000000	 95.673806 
892.000000	 95.816470 
891.000000	 95.956114 
890.000000	 96.092548 
889.000000	 96.222810 
888.000000	 96.346679 
887.000000	 96.466697 
886.000000	 96.581894 
885.000000	 96.687146 
884.000000	 96.781016 
883.000000	 96.869827 
882.000000	 96.961393 
881.000000	 97.057789 
880.000000	 97.156040 
879.000000	 97.252736 
878.000000	 97.346172 
877.000000	 97.436328 
876.000000	 97.524046 
875.000000	 97.609271 
874.000000	 97.691319 
873.000000	 97.772915 
872.000000	 97.861296 
871.000000	 97.960783 
870.000000	 98.065331 
869.000000	 98.163077 
868.000000	 98.248045 
867.000000	 98.324490 
866.000000	 98.401250 
865.000000	 98.484950 
864.000000	 98.576986 
863.000000	 98.672570 
862.000000	 98.762942 
861.000000	 98.841937 
860.000000	 98.910487 
859.000000	 98.973604 
858.000000	 99.035250 
857.000000	 99.097997 
856.000000	 99.163691 
855.000000	 99.229894 
854.000000	 99.288732 
853.000000	 99.334786 
852.000000	 99.372184 
851.000000	 99.408685 
850.000000	 99.444670 
849.000000	 99.474080 
848.000000	 99.495072 
847.000000	 99.512876 
846.000000	 99.531657 
845.000000	 99.549774 
844.000000	 99.564369 
843.000000	 99.574655 
842.000000	 99.578361 
841.000000	 99.570105 
840.000000	 99.546817 
839.000000	 99.512024 
838.000000	 99.472149 
837.000000	 99.430245 
836.000000	 99.385417 
835.000000	 99.337605 
834.000000	 99.291762 
833.000000	 99.256676 
832.000000	 99.237611 
831.000000	 99.229045 
830.000000	 99.218907 
829.000000	 99.204239 
828.000000	 99.198063 
827.000000	 99.213485 
826.000000	 99.244742 
825.000000	 99.274585 
824.000000	 99.298344 
823.000000	 99.326940 
822.000000	 99.364870 
821.000000	 99.399490 
820.000000	 99.416317 
819.000000	 99.414001 
818.000000	 99.400626 
817.000000	 99.382964 
816.000000	 99.361959 
815.000000	 99.332076 
814.000000	 99.281777 
813.000000	 99.199750 
812.000000	 99.083693 
811.000000	 98.939113 
810.000000	 98.767636 
809.000000	 98.561353 
808.000000	 98.311372 
807.000000	 98.017329 
806.000000	 97.686233 
805.000000	 97.328660 
804.000000	 96.961497 
803.000000	 96.608935 
802.000000	 96.293378 
801.000000	 96.027530 
800.000000	 95.818291 
799.000000	 95.672284 
798.000000	 95.593145 
797.000000	 95.578252 
796.000000	 95.620105 
795.000000	 95.705159 
794.000000	 95.811994 
793.000000	 95.919387 
792.000000	 96.016983 
791.000000	 96.101317 
790.000000	 96.164246 
789.000000	 96.195967 
788.000000	 96.198360 
787.000000	 96.182882 
786.000000	 96.152369 
785.000000	 96.095392 
784.000000	 96.002783 
783.000000	 95.881449 
782.000000	 95.748973 
781.000000	 95.623599 
780.000000	 95.522902 
779.000000	 95.461699 
778.000000	 95.444633 
777.000000	 95.467712 
776.000000	 95.529615 
775.000000	 95.631755 
774.000000	 95.764514 
773.000000	 95.905261 
772.000000	 96.036077 
771.000000	 96.154697 
770.000000	 96.263521 
769.000000	 96.357595 
768.000000	 96.430189 
767.000000	 96.483004 
766.000000	 96.523782 
765.000000	 96.558190 
764.000000	 96.588925 
763.000000	 96.618147 
762.000000	 96.646319 
761.000000	 96.672841 
760.000000	 96.701071 
759.000000	 96.737796 
758.000000	 96.784791 
757.000000	 96.836246 
756.000000	 96.887367 
755.000000	 96.939867 
754.000000	 96.996188 
753.000000	 97.054268 
752.000000	 97.111494 
751.000000	 97.168501 
750.000000	 97.225363 
749.000000	 97.278411 
748.000000	 97.324770 
747.000000	 97.367763 
746.000000	 97.415741 
745.000000	 97.476981 
744.000000	 97.554648 
743.000000	 97.642949 
742.000000	 97.729970 
741.000000	 97.809701 
740.000000	 97.889368 
739.000000	 97.978817 
738.000000	 98.075009 
737.000000	 98.164788 
736.000000	 98.241757 
735.000000	 98.311501 
734.000000	 98.380435 
733.000000	 98.447976 
732.000000	 98.509768 
731.000000	 98.560227 
730.000000	 98.591826 
729.000000	 98.601142 
728.000000	 98.596799 
727.000000	 98.594090 
726.000000	 98.601166 
725.000000	 98.617127 
724.000000	 98.642476 
723.000000	 98.681098 
722.000000	 98.730780 
721.000000	 98.782049 
720.000000	 98.829329 
719.000000	 98.874746 
718.000000	 98.918701 
717.000000	 98.956429 
716.000000	 98.987612 
715.000000	 99.019921 
714.000000	 99.058123 
713.000000	 99.097184 
712.000000	 99.130189 
711.000000	 99.155872 
710.000000	 99.174386 
709.000000	 99.183026 
708.000000	 99.180571 
707.000000	 99.170114 
706.000000	 99.154430 
705.000000	 99.132695 
704.000000	 99.103325 
703.000000	 99.064344 
702.000000	 99.008265 
701.000000	 98.922870 
700.000000	 98.800229 
699.000000	 98.641266 
698.000000	 98.455323 
697.000000	 98.264163 
696.000000	 98.104058 
695.000000	 98.010536 
694.000000	 97.995636 
693.000000	 98.046787 
692.000000	 98.145015 
691.000000	 98.272017 
690.000000	 98.403994 
689.000000	 98.518037 
688.000000	 98.610896 
687.000000	 98.696504 
686.000000	 98.778860 
685.000000	 98.845264 
684.000000	 98.891002 
683.000000	 98.929819 
682.000000	 98.973733 
681.000000	 99.020861 
680.000000	 99.070040 
679.000000	 99.127333 
678.000000	 99.187467 
677.000000	 99.230266 
676.000000	 99.248666 
675.000000	 99.262655 
674.000000	 99.293885 
673.000000	 99.338387 
672.000000	 99.376066 
671.000000	 99.396610 
670.000000	 99.402704 
669.000000	 99.402999 
668.000000	 99.415549 
667.000000	 99.454281 
666.000000	 99.512773 
665.000000	 99.576928 
664.000000	 99.627395 
663.000000	 99.655109 
662.000000	 99.667512 
661.000000	 99.682389 
660.000000	 99.711654 
659.000000	 99.749123 
658.000000	 99.770822 
657.000000	 99.756313 
656.000000	 99.713064 
655.000000	 99.674495 
654.000000	 99.667371 
653.000000	 99.681286 
652.000000	 99.684242 
651.000000	 99.665346 
650.000000	 99.647958 

