4000.000000	99.416635 
3999.000000	99.417832 
3998.000000	99.419028 
3997.000000	99.419003 
3996.000000	99.417159 
3995.000000	99.413871 
3994.000000	99.410350 
3993.000000	99.408060 
3992.000000	99.407767 
3991.000000	99.408823 
3990.000000	99.409671 
3989.000000	99.409482 
3988.000000	99.409207 
3987.000000	99.410669 
3986.000000	99.414557 
3985.000000	99.419476 
3984.000000	99.422836 
3983.000000	99.422596 
3982.000000	99.418516 
3981.000000	99.412204 
3980.000000	99.405881 
3979.000000	99.400955 
3978.000000	99.397835 
3977.000000	99.396787 
3976.000000	99.398394 
3975.000000	99.402831 
3974.000000	99.409025 
3973.000000	99.414944 
3972.000000	99.418769 
3971.000000	99.419857 
3970.000000	99.418695 
3969.000000	99.416173 
3968.000000	99.413054 
3967.000000	99.409814 
3966.000000	99.406824 
3965.000000	99.404613 
3964.000000	99.403509 
3963.000000	99.402925 
3962.000000	99.401489 
3961.000000	99.398408 
3960.000000	99.394557 
3959.000000	99.391971 
3958.000000	99.391948 
3957.000000	99.393731 
3956.000000	99.395474 
3955.000000	99.396115 
3954.000000	99.396097 
3953.000000	99.396263 
3952.000000	99.396550 
3951.000000	99.396368 
3950.000000	99.395754 
3949.000000	99.395757 
3948.000000	99.397280 
3947.000000	99.399660 
3946.000000	99.401171 
3945.000000	99.400807 
3944.000000	99.399201 
3943.000000	99.397438 
3942.000000	99.395896 
3941.000000	99.394433 
3940.000000	99.392885 
3939.000000	99.391038 
3938.000000	99.388686 
3937.000000	99.386100 
3936.000000	99.384623 
3935.000000	99.385996 
3934.000000	99.391001 
3933.000000	99.398489 
3932.000000	99.405689 
3931.000000	99.409578 
3930.000000	99.408515 
3929.000000	99.403474 
3928.000000	99.397628 
3927.000000	99.394214 
3926.000000	99.394594 
3925.000000	99.397336 
3924.000000	99.399274 
3923.000000	99.398449 
3922.000000	99.395537 
3921.000000	99.392886 
3920.000000	99.392426 
3919.000000	99.394421 
3918.000000	99.397801 
3917.000000	99.401084 
3916.000000	99.403209 
3915.000000	99.404030 
3914.000000	99.404422 
3913.000000	99.405445 
3912.000000	99.407210 
3911.000000	99.409135 
3910.000000	99.411108 
3909.000000	99.413839 
3908.000000	99.417923 
3907.000000	99.422182 
3906.000000	99.423531 
3905.000000	99.418932 
3904.000000	99.408074 
3903.000000	99.394915 
3902.000000	99.385465 
3901.000000	99.383525 
3900.000000	99.388750 
3899.000000	99.397414 
3898.000000	99.405385 
3897.000000	99.410631 
3896.000000	99.412885 
3895.000000	99.412332 
3894.000000	99.409195 
3893.000000	99.404055 
3892.000000	99.398352 
3891.000000	99.393826 
3890.000000	99.391365 
3889.000000	99.390441 
3888.000000	99.390185 
3887.000000	99.390505 
3886.000000	99.391235 
3885.000000	99.391066 
3884.000000	99.388706 
3883.000000	99.385123 
3882.000000	99.383420 
3881.000000	99.385784 
3880.000000	99.391018 
3879.000000	99.395433 
3878.000000	99.396734 
3877.000000	99.396070 
3876.000000	99.396720 
3875.000000	99.400136 
3874.000000	99.403549 
3873.000000	99.402814 
3872.000000	99.397668 
3871.000000	99.392315 
3870.000000	99.390475 
3869.000000	99.391514 
3868.000000	99.392498 
3867.000000	99.392573 
3866.000000	99.393934 
3865.000000	99.398088 
3864.000000	99.402308 
3863.000000	99.402835 
3862.000000	99.399775 
3861.000000	99.396838 
3860.000000	99.397504 
3859.000000	99.402191 
3858.000000	99.408252 
3857.000000	99.412193 
3856.000000	99.412153 
3855.000000	99.411035 
3854.000000	99.413502 
3853.000000	99.418634 
3852.000000	99.421812 
3851.000000	99.421312 
3850.000000	99.418326 
3849.000000	99.415112 
3848.000000	99.412750 
3847.000000	99.411005 
3846.000000	99.409245 
3845.000000	99.407037 
3844.000000	99.404787 
3843.000000	99.404063 
3842.000000	99.405930 
3841.000000	99.409694 
3840.000000	99.413681 
3839.000000	99.416240 
3838.000000	99.416385 
3837.000000	99.414046 
3836.000000	99.409961 
3835.000000	99.405928 
3834.000000	99.404291 
3833.000000	99.406696 
3832.000000	99.412576 
3831.000000	99.418652 
3830.000000	99.421172 
3829.000000	99.418842 
3828.000000	99.413651 
3827.000000	99.409147 
3826.000000	99.407334 
3825.000000	99.407244 
3824.000000	99.407041 
3823.000000	99.407238 
3822.000000	99.409808 
3821.000000	99.413976 
3820.000000	99.416729 
3819.000000	99.417214 
3818.000000	99.417103 
3817.000000	99.418735 
3816.000000	99.422055 
3815.000000	99.423426 
3814.000000	99.419995 
3813.000000	99.413917 
3812.000000	99.410167 
3811.000000	99.411167 
3810.000000	99.414704 
3809.000000	99.417048 
3808.000000	99.417356 
3807.000000	99.417766 
3806.000000	99.419049 
3805.000000	99.419030 
3804.000000	99.416247 
3803.000000	99.413098 
3802.000000	99.413729 
3801.000000	99.418534 
3800.000000	99.423275 
3799.000000	99.424129 
3798.000000	99.420975 
3797.000000	99.415994 
3796.000000	99.410821 
3795.000000	99.405730 
3794.000000	99.400657 
3793.000000	99.396288 
3792.000000	99.393911 
3791.000000	99.394410 
3790.000000	99.397687 
3789.000000	99.402725 
3788.000000	99.407824 
3787.000000	99.411148 
3786.000000	99.411985 
3785.000000	99.411460 
3784.000000	99.411440 
3783.000000	99.412464 
3782.000000	99.413499 
3781.000000	99.413632 
3780.000000	99.413048 
3779.000000	99.412350 
3778.000000	99.411646 
3777.000000	99.410516 
3776.000000	99.408752 
3775.000000	99.406937 
3774.000000	99.405608 
3773.000000	99.404511 
3772.000000	99.403339 
3771.000000	99.402538 
3770.000000	99.402437 
3769.000000	99.402525 
3768.000000	99.402532 
3767.000000	99.402974 
3766.000000	99.404273 
3765.000000	99.405679 
3764.000000	99.405410 
3763.000000	99.402382 
3762.000000	99.397787 
3761.000000	99.394352 
3760.000000	99.393626 
3759.000000	99.394914 
3758.000000	99.397389 
3757.000000	99.401418 
3756.000000	99.407176 
3755.000000	99.413882 
3754.000000	99.420577 
3753.000000	99.427150 
3752.000000	99.433398 
3751.000000	99.437434 
3750.000000	99.438221 
3749.000000	99.437551 
3748.000000	99.436893 
3747.000000	99.435543 
3746.000000	99.432406 
3745.000000	99.427934 
3744.000000	99.423655 
3743.000000	99.419832 
3742.000000	99.415696 
3741.000000	99.411353 
3740.000000	99.406925 
3739.000000	99.401266 
3738.000000	99.394434 
3737.000000	99.389605 
3736.000000	99.389464 
3735.000000	99.391851 
3734.000000	99.392094 
3733.000000	99.389470 
3732.000000	99.387325 
3731.000000	99.387597 
3730.000000	99.388724 
3729.000000	99.388653 
3728.000000	99.388083 
3727.000000	99.389340 
3726.000000	99.392571 
3725.000000	99.395088 
3724.000000	99.394911 
3723.000000	99.393153 
3722.000000	99.391985 
3721.000000	99.392211 
3720.000000	99.392668 
3719.000000	99.391752 
3718.000000	99.389282 
3717.000000	99.385920 
3716.000000	99.381392 
3715.000000	99.374669 
3714.000000	99.366352 
3713.000000	99.360411 
3712.000000	99.360980 
3711.000000	99.367542 
3710.000000	99.375112 
3709.000000	99.378599 
3708.000000	99.376341 
3707.000000	99.369984 
3706.000000	99.362625 
3705.000000	99.357020 
3704.000000	99.354266 
3703.000000	99.353244 
3702.000000	99.351234 
3701.000000	99.346440 
3700.000000	99.339500 
3699.000000	99.332065 
3698.000000	99.325345 
3697.000000	99.320084 
3696.000000	99.316410 
3695.000000	99.313988 
3694.000000	99.312616 
3693.000000	99.312303 
3692.000000	99.312435 
3691.000000	99.311604 
3690.000000	99.308698 
3689.000000	99.304343 
3688.000000	99.300132 
3687.000000	99.295937 
3686.000000	99.290793 
3685.000000	99.285838 
3684.000000	99.283503 
3683.000000	99.284725 
3682.000000	99.287822 
3681.000000	99.289602 
3680.000000	99.287056 
3679.000000	99.278357 
3678.000000	99.264594 
3677.000000	99.252438 
3676.000000	99.250168 
3675.000000	99.256801 
3674.000000	99.262737 
3673.000000	99.261584 
3672.000000	99.255382 
3671.000000	99.252294 
3670.000000	99.257424 
3669.000000	99.267016 
3668.000000	99.274935 
3667.000000	99.279392 
3666.000000	99.281717 
3665.000000	99.283130 
3664.000000	99.283768 
3663.000000	99.283661 
3662.000000	99.283185 
3661.000000	99.282083 
3660.000000	99.279416 
3659.000000	99.275445 
3658.000000	99.273132 
3657.000000	99.275926 
3656.000000	99.283141 
3655.000000	99.289904 
3654.000000	99.292489 
3653.000000	99.291609 
3652.000000	99.290342 
3651.000000	99.290457 
3650.000000	99.290605 
3649.000000	99.289789 
3648.000000	99.290612 
3647.000000	99.294891 
3646.000000	99.300587 
3645.000000	99.305181 
3644.000000	99.308733 
3643.000000	99.313301 
3642.000000	99.320853 
3641.000000	99.331075 
3640.000000	99.341478 
3639.000000	99.349127 
3638.000000	99.352402 
3637.000000	99.351943 
3636.000000	99.350046 
3635.000000	99.349059 
3634.000000	99.349416 
3633.000000	99.349612 
3632.000000	99.348411 
3631.000000	99.346772 
3630.000000	99.347151 
3629.000000	99.348934 
3628.000000	99.347918 
3627.000000	99.343162 
3626.000000	99.338357 
3625.000000	99.337464 
3624.000000	99.341357 
3623.000000	99.347681 
3622.000000	99.353485 
3621.000000	99.358139 
3620.000000	99.362423 
3619.000000	99.365525 
3618.000000	99.365664 
3617.000000	99.363243 
3616.000000	99.360951 
3615.000000	99.361378 
3614.000000	99.363769 
3613.000000	99.364049 
3612.000000	99.359483 
3611.000000	99.352365 
3610.000000	99.347891 
3609.000000	99.348804 
3608.000000	99.352538 
3607.000000	99.355032 
3606.000000	99.356142 
3605.000000	99.358775 
3604.000000	99.364495 
3603.000000	99.371867 
3602.000000	99.378371 
3601.000000	99.383112 
3600.000000	99.386163 
3599.000000	99.386625 
3598.000000	99.383276 
3597.000000	99.376809 
3596.000000	99.370563 
3595.000000	99.368819 
3594.000000	99.372991 
3593.000000	99.380361 
3592.000000	99.386526 
3591.000000	99.388280 
3590.000000	99.385680 
3589.000000	99.381793 
3588.000000	99.379631 
3587.000000	99.378501 
3586.000000	99.376015 
3585.000000	99.372241 
3584.000000	99.369973 
3583.000000	99.371194 
3582.000000	99.374944 
3581.000000	99.378227 
3580.000000	99.378769 
3579.000000	99.376492 
3578.000000	99.372463 
3577.000000	99.367840 
3576.000000	99.363716 
3575.000000	99.361230 
3574.000000	99.360726 
3573.000000	99.361083 
3572.000000	99.360955 
3571.000000	99.360210 
3570.000000	99.359523 
3569.000000	99.359343 
3568.000000	99.359480 
3567.000000	99.359319 
3566.000000	99.358842 
3565.000000	99.359095 
3564.000000	99.361483 
3563.000000	99.367071 
3562.000000	99.375640 
3561.000000	99.384888 
3560.000000	99.391649 
3559.000000	99.394391 
3558.000000	99.394373 
3557.000000	99.393912 
3556.000000	99.394007 
3555.000000	99.393793 
3554.000000	99.392061 
3553.000000	99.388334 
3552.000000	99.383034 
3551.000000	99.377324 
3550.000000	99.372647 
3549.000000	99.370084 
3548.000000	99.370095 
3547.000000	99.372125 
3546.000000	99.374576 
3545.000000	99.375146 
3544.000000	99.372464 
3543.000000	99.367939 
3542.000000	99.365548 
3541.000000	99.368566 
3540.000000	99.376421 
3539.000000	99.384695 
3538.000000	99.388837 
3537.000000	99.387829 
3536.000000	99.384371 
3535.000000	99.381731 
3534.000000	99.380787 
3533.000000	99.380482 
3532.000000	99.380142 
3531.000000	99.380611 
3530.000000	99.382626 
3529.000000	99.384794 
3528.000000	99.384366 
3527.000000	99.380399 
3526.000000	99.375152 
3525.000000	99.371741 
3524.000000	99.370994 
3523.000000	99.371182 
3522.000000	99.370613 
3521.000000	99.369236 
3520.000000	99.367999 
3519.000000	99.367592 
3518.000000	99.368292 
3517.000000	99.370071 
3516.000000	99.372133 
3515.000000	99.372966 
3514.000000	99.371401 
3513.000000	99.367835 
3512.000000	99.364087 
3511.000000	99.361961 
3510.000000	99.361812 
3509.000000	99.362533 
3508.000000	99.362838 
3507.000000	99.362597 
3506.000000	99.362972 
3505.000000	99.364950 
3504.000000	99.367811 
3503.000000	99.369737 
3502.000000	99.370493 
3501.000000	99.372476 
3500.000000	99.377939 
3499.000000	99.385555 
3498.000000	99.390582 
3497.000000	99.388878 
3496.000000	99.380600 
3495.000000	99.369937 
3494.000000	99.361684 
3493.000000	99.358123 
3492.000000	99.358528 
3491.000000	99.360700 
3490.000000	99.363003 
3489.000000	99.365452 
3488.000000	99.368902 
3487.000000	99.373132 
3486.000000	99.376241 
3485.000000	99.376358 
3484.000000	99.373544 
3483.000000	99.369565 
3482.000000	99.365925 
3481.000000	99.362878 
3480.000000	99.360443 
3479.000000	99.359264 
3478.000000	99.359685 
3477.000000	99.360656 
3476.000000	99.360748 
3475.000000	99.360319 
3474.000000	99.361510 
3473.000000	99.365354 
3472.000000	99.369888 
3471.000000	99.372222 
3470.000000	99.371998 
3469.000000	99.371468 
3468.000000	99.372229 
3467.000000	99.373220 
3466.000000	99.372662 
3465.000000	99.370802 
3464.000000	99.369551 
3463.000000	99.369950 
3462.000000	99.371144 
3461.000000	99.371924 
3460.000000	99.372227 
3459.000000	99.372844 
3458.000000	99.374277 
3457.000000	99.376116 
3456.000000	99.377256 
3455.000000	99.376608 
3454.000000	99.373940 
3453.000000	99.370347 
3452.000000	99.367448 
3451.000000	99.366151 
3450.000000	99.366209 
3449.000000	99.366818 
3448.000000	99.367091 
3447.000000	99.366190 
3446.000000	99.363892 
3445.000000	99.361364 
3444.000000	99.360608 
3443.000000	99.362420 
3442.000000	99.365195 
3441.000000	99.366370 
3440.000000	99.365079 
3439.000000	99.362679 
3438.000000	99.360628 
3437.000000	99.358620 
3436.000000	99.355468 
3435.000000	99.351405 
3434.000000	99.348668 
3433.000000	99.349690 
3432.000000	99.354730 
3431.000000	99.361467 
3430.000000	99.366750 
3429.000000	99.368924 
3428.000000	99.368742 
3427.000000	99.368014 
3426.000000	99.367464 
3425.000000	99.366187 
3424.000000	99.363299 
3423.000000	99.359512 
3422.000000	99.356385 
3421.000000	99.354385 
3420.000000	99.352760 
3419.000000	99.351384 
3418.000000	99.351507 
3417.000000	99.354023 
3416.000000	99.357766 
3415.000000	99.360356 
3414.000000	99.360453 
3413.000000	99.358637 
3412.000000	99.356409 
3411.000000	99.355094 
3410.000000	99.355455 
3409.000000	99.357288 
3408.000000	99.358999 
3407.000000	99.358369 
3406.000000	99.354600 
3405.000000	99.349368 
3404.000000	99.345432 
3403.000000	99.344250 
3402.000000	99.345209 
3401.000000	99.347029 
3400.000000	99.349226 
3399.000000	99.352013 
3398.000000	99.355207 
3397.000000	99.357775 
3396.000000	99.358468 
3395.000000	99.356720 
3394.000000	99.352904 
3393.000000	99.347957 
3392.000000	99.342905 
3391.000000	99.338678 
3390.000000	99.336243 
3389.000000	99.336585 
3388.000000	99.340174 
3387.000000	99.346337 
3386.000000	99.353466 
3385.000000	99.360114 
3384.000000	99.365701 
3383.000000	99.369844 
3382.000000	99.371334 
3381.000000	99.368710 
3380.000000	99.362273 
3379.000000	99.355084 
3378.000000	99.350980 
3377.000000	99.351255 
3376.000000	99.353639 
3375.000000	99.354834 
3374.000000	99.353823 
3373.000000	99.352445 
3372.000000	99.352985 
3371.000000	99.355630 
3370.000000	99.358347 
3369.000000	99.358803 
3368.000000	99.356370 
3367.000000	99.352632 
3366.000000	99.350208 
3365.000000	99.350702 
3364.000000	99.353424 
3363.000000	99.356151 
3362.000000	99.357191 
3361.000000	99.356342 
3360.000000	99.353820 
3359.000000	99.349205 
3358.000000	99.342529 
3357.000000	99.336139 
3356.000000	99.333910 
3355.000000	99.337583 
3354.000000	99.344399 
3353.000000	99.349359 
3352.000000	99.349757 
3351.000000	99.347069 
3350.000000	99.344643 
3349.000000	99.344392 
3348.000000	99.345966 
3347.000000	99.348121 
3346.000000	99.349918 
3345.000000	99.350844 
3344.000000	99.350772 
3343.000000	99.350294 
3342.000000	99.350420 
3341.000000	99.351379 
3340.000000	99.351988 
3339.000000	99.350883 
3338.000000	99.348426 
3337.000000	99.346783 
3336.000000	99.347831 
3335.000000	99.351345 
3334.000000	99.355518 
3333.000000	99.358786 
3332.000000	99.360760 
3331.000000	99.361763 
3330.000000	99.362130 
3329.000000	99.362070 
3328.000000	99.361740 
3327.000000	99.361189 
3326.000000	99.360271 
3325.000000	99.358615 
3324.000000	99.355672 
3323.000000	99.351212 
3322.000000	99.346002 
3321.000000	99.341656 
3320.000000	99.339353 
3319.000000	99.338915 
3318.000000	99.339519 
3317.000000	99.340805 
3316.000000	99.342545 
3315.000000	99.343770 
3314.000000	99.343617 
3313.000000	99.343119 
3312.000000	99.344624 
3311.000000	99.348683 
3310.000000	99.352581 
3309.000000	99.353014 
3308.000000	99.349550 
3307.000000	99.344508 
3306.000000	99.340192 
3305.000000	99.337562 
3304.000000	99.337158 
3303.000000	99.339429 
3302.000000	99.343476 
3301.000000	99.346601 
3300.000000	99.346266 
3299.000000	99.342559 
3298.000000	99.338390 
3297.000000	99.337194 
3296.000000	99.340106 
3295.000000	99.344996 
3294.000000	99.348332 
3293.000000	99.348410 
3292.000000	99.346786 
3291.000000	99.346109 
3290.000000	99.346756 
3289.000000	99.346442 
3288.000000	99.343159 
3287.000000	99.337625 
3286.000000	99.332454 
3285.000000	99.329582 
3284.000000	99.329040 
3283.000000	99.329697 
3282.000000	99.330577 
3281.000000	99.331572 
3280.000000	99.333366 
3279.000000	99.336551 
3278.000000	99.340539 
3277.000000	99.343471 
3276.000000	99.343514 
3275.000000	99.340315 
3274.000000	99.335203 
3273.000000	99.330234 
3272.000000	99.327073 
3271.000000	99.326263 
3270.000000	99.327057 
3269.000000	99.328002 
3268.000000	99.327951 
3267.000000	99.326531 
3266.000000	99.323800 
3265.000000	99.320038 
3264.000000	99.316162 
3263.000000	99.313918 
3262.000000	99.314992 
3261.000000	99.319593 
3260.000000	99.325936 
3259.000000	99.331187 
3258.000000	99.333340 
3257.000000	99.332695 
3256.000000	99.331357 
3255.000000	99.330703 
3254.000000	99.329594 
3253.000000	99.326177 
3252.000000	99.321573 
3251.000000	99.320314 
3250.000000	99.325904 
3249.000000	99.336602 
3248.000000	99.346655 
3247.000000	99.351418 
3246.000000	99.350461 
3245.000000	99.346271 
3244.000000	99.341451 
3243.000000	99.337462 
3242.000000	99.334749 
3241.000000	99.333102 
3240.000000	99.332402 
3239.000000	99.333525 
3238.000000	99.338046 
3237.000000	99.346469 
3236.000000	99.356932 
3235.000000	99.366035 
3234.000000	99.370861 
3233.000000	99.370319 
3232.000000	99.365313 
3231.000000	99.358262 
3230.000000	99.351958 
3229.000000	99.347847 
3228.000000	99.345050 
3227.000000	99.341435 
3226.000000	99.335955 
3225.000000	99.329819 
3224.000000	99.325270 
3223.000000	99.323382 
3222.000000	99.323190 
3221.000000	99.322834 
3220.000000	99.321316 
3219.000000	99.319126 
3218.000000	99.317560 
3217.000000	99.317895 
3216.000000	99.321077 
3215.000000	99.327314 
3214.000000	99.335266 
3213.000000	99.341913 
3212.000000	99.344137 
3211.000000	99.340949 
3210.000000	99.334161 
3209.000000	99.326945 
3208.000000	99.321914 
3207.000000	99.320285 
3206.000000	99.321978 
3205.000000	99.325844 
3204.000000	99.329996 
3203.000000	99.332648 
3202.000000	99.333164 
3201.000000	99.332548 
3200.000000	99.332877 
3199.000000	99.335811 
3198.000000	99.341081 
3197.000000	99.346411 
3196.000000	99.349478 
3195.000000	99.350175 
3194.000000	99.350557 
3193.000000	99.352272 
3192.000000	99.354411 
3191.000000	99.354333 
3190.000000	99.350446 
3189.000000	99.343841 
3188.000000	99.337372 
3187.000000	99.333594 
3186.000000	99.333436 
3185.000000	99.336018 
3184.000000	99.339202 
3183.000000	99.340634 
3182.000000	99.339131 
3181.000000	99.335715 
3180.000000	99.333298 
3179.000000	99.334666 
3178.000000	99.339989 
3177.000000	99.346225 
3176.000000	99.349585 
3175.000000	99.348896 
3174.000000	99.346216 
3173.000000	99.343900 
3172.000000	99.341734 
3171.000000	99.337846 
3170.000000	99.332181 
3169.000000	99.327744 
3168.000000	99.327590 
3167.000000	99.331288 
3166.000000	99.335341 
3165.000000	99.336896 
3164.000000	99.336175 
3163.000000	99.335252 
3162.000000	99.335549 
3161.000000	99.337191 
3160.000000	99.340006 
3159.000000	99.343839 
3158.000000	99.347678 
3157.000000	99.349507 
3156.000000	99.347828 
3155.000000	99.343037 
3154.000000	99.336797 
3153.000000	99.330349 
3152.000000	99.324173 
3151.000000	99.319144 
3150.000000	99.316926 
3149.000000	99.318542 
3148.000000	99.323073 
3147.000000	99.328481 
3146.000000	99.333517 
3145.000000	99.338176 
3144.000000	99.342437 
3143.000000	99.345504 
3142.000000	99.346716 
3141.000000	99.346569 
3140.000000	99.346109 
3139.000000	99.345497 
3138.000000	99.343819 
3137.000000	99.340540 
3136.000000	99.336785 
3135.000000	99.334823 
3134.000000	99.336144 
3133.000000	99.339948 
3132.000000	99.343464 
3131.000000	99.344034 
3130.000000	99.341252 
3129.000000	99.337272 
3128.000000	99.335008 
3127.000000	99.335854 
3126.000000	99.338854 
3125.000000	99.341637 
3124.000000	99.342066 
3123.000000	99.339498 
3122.000000	99.335210 
3121.000000	99.331628 
3120.000000	99.330594 
3119.000000	99.331934 
3118.000000	99.333824 
3117.000000	99.334700 
3116.000000	99.334728 
3115.000000	99.335201 
3114.000000	99.336740 
3113.000000	99.338496 
3112.000000	99.339199 
3111.000000	99.338734 
3110.000000	99.338271 
3109.000000	99.338770 
3108.000000	99.339599 
3107.000000	99.339054 
3106.000000	99.336310 
3105.000000	99.332562 
3104.000000	99.329984 
3103.000000	99.329736 
3102.000000	99.331340 
3101.000000	99.333789 
3100.000000	99.336731 
3099.000000	99.340281 
3098.000000	99.344086 
3097.000000	99.347109 
3096.000000	99.348434 
3095.000000	99.348008 
3094.000000	99.346466 
3093.000000	99.344327 
3092.000000	99.341558 
3091.000000	99.338113 
3090.000000	99.334795 
3089.000000	99.333111 
3088.000000	99.333777 
3087.000000	99.335519 
3086.000000	99.335993 
3085.000000	99.334047 
3084.000000	99.330491 
3083.000000	99.326510 
3082.000000	99.322238 
3081.000000	99.317646 
3080.000000	99.314156 
3079.000000	99.314082 
3078.000000	99.318262 
3077.000000	99.324999 
3076.000000	99.331520 
3075.000000	99.335936 
3074.000000	99.337683 
3073.000000	99.337021 
3072.000000	99.334674 
3071.000000	99.331558 
3070.000000	99.328256 
3069.000000	99.324830 
3068.000000	99.321482 
3067.000000	99.319318 
3066.000000	99.320106 
3065.000000	99.325002 
3064.000000	99.333143 
3063.000000	99.341239 
3062.000000	99.345007 
3061.000000	99.342031 
3060.000000	99.333916 
3059.000000	99.325392 
3058.000000	99.320940 
3057.000000	99.322094 
3056.000000	99.327379 
3055.000000	99.333915 
3054.000000	99.338795 
3053.000000	99.339951 
3052.000000	99.336862 
3051.000000	99.330779 
3050.000000	99.324089 
3049.000000	99.319278 
3048.000000	99.317864 
3047.000000	99.319299 
3046.000000	99.320667 
3045.000000	99.318549 
3044.000000	99.312244 
3043.000000	99.304896 
3042.000000	99.300725 
3041.000000	99.301197 
3040.000000	99.304168 
3039.000000	99.306228 
3038.000000	99.305171 
3037.000000	99.300654 
3036.000000	99.293652 
3035.000000	99.285661 
3034.000000	99.277794 
3033.000000	99.270145 
3032.000000	99.262126 
3031.000000	99.253402 
3030.000000	99.244348 
3029.000000	99.235796 
3028.000000	99.228754 
3027.000000	99.224139 
3026.000000	99.221962 
3025.000000	99.220485 
3024.000000	99.216828 
3023.000000	99.209159 
3022.000000	99.198297 
3021.000000	99.186747 
3020.000000	99.176123 
3019.000000	99.165822 
3018.000000	99.154419 
3017.000000	99.141855 
3016.000000	99.129510 
3015.000000	99.118043 
3014.000000	99.106241 
3013.000000	99.092827 
3012.000000	99.078765 
3011.000000	99.066445 
3010.000000	99.056576 
3009.000000	99.047235 
3008.000000	99.036321 
3007.000000	99.023819 
3006.000000	99.010988 
3005.000000	98.998428 
3004.000000	98.986053 
3003.000000	98.974249 
3002.000000	98.963681 
3001.000000	98.954026 
3000.000000	98.943852 
2999.000000	98.932040 
2998.000000	98.919060 
2997.000000	98.907017 
2996.000000	98.898487 
2995.000000	98.894148 
2994.000000	98.890483 
2993.000000	98.880819 
2992.000000	98.860657 
2991.000000	98.832594 
2990.000000	98.805144 
2989.000000	98.786492 
2988.000000	98.779742 
2987.000000	98.783310 
2986.000000	98.793547 
2985.000000	98.806134 
2984.000000	98.816679 
2983.000000	98.822249 
2982.000000	98.822663 
2981.000000	98.819833 
2980.000000	98.815919 
2979.000000	98.812388 
2978.000000	98.810034 
2977.000000	98.808789 
2976.000000	98.807470 
2975.000000	98.804550 
2974.000000	98.799647 
2973.000000	98.794170 
2972.000000	98.790442 
2971.000000	98.790121 
2970.000000	98.793151 
2969.000000	98.797969 
2968.000000	98.803003 
2967.000000	98.808353 
2966.000000	98.815794 
2965.000000	98.826655 
2964.000000	98.839741 
2963.000000	98.851817 
2962.000000	98.860280 
2961.000000	98.865074 
2960.000000	98.867887 
2959.000000	98.870076 
2958.000000	98.871897 
2957.000000	98.873502 
2956.000000	98.875846 
2955.000000	98.880247 
2954.000000	98.887410 
2953.000000	98.897181 
2952.000000	98.908761 
2951.000000	98.920624 
2950.000000	98.930586 
2949.000000	98.936906 
2948.000000	98.939535 
2947.000000	98.939836 
2946.000000	98.939083 
2945.000000	98.937859 
2944.000000	98.936792 
2943.000000	98.936640 
2942.000000	98.937009 
2941.000000	98.935980 
2940.000000	98.932088 
2939.000000	98.926389 
2938.000000	98.921724 
2937.000000	98.920125 
2936.000000	98.921491 
2935.000000	98.924323 
2934.000000	98.926798 
2933.000000	98.927218 
2932.000000	98.924423 
2931.000000	98.918217 
2930.000000	98.909393 
2929.000000	98.899581 
2928.000000	98.891025 
2927.000000	98.885419 
2926.000000	98.882135 
2925.000000	98.878392 
2924.000000	98.872430 
2923.000000	98.865943 
2922.000000	98.862127 
2921.000000	98.861693 
2920.000000	98.862340 
2919.000000	98.861960 
2918.000000	98.860768 
2917.000000	98.859963 
2916.000000	98.859828 
2915.000000	98.859814 
2914.000000	98.859530 
2913.000000	98.859014 
2912.000000	98.858787 
2911.000000	98.859921 
2910.000000	98.863113 
2909.000000	98.867354 
2908.000000	98.870388 
2907.000000	98.870925 
2906.000000	98.869265 
2905.000000	98.865324 
2904.000000	98.857661 
2903.000000	98.846167 
2902.000000	98.835069 
2901.000000	98.831765 
2900.000000	98.840682 
2899.000000	98.859644 
2898.000000	98.881121 
2897.000000	98.897350 
2896.000000	98.905040 
2895.000000	98.906531 
2894.000000	98.907055 
2893.000000	98.910472 
2892.000000	98.917184 
2891.000000	98.925340 
2890.000000	98.933138 
2889.000000	98.939626 
2888.000000	98.944220 
2887.000000	98.946694 
2886.000000	98.947736 
2885.000000	98.948904 
2884.000000	98.951748 
2883.000000	98.957157 
2882.000000	98.965349 
2881.000000	98.975957 
2880.000000	98.987960 
2879.000000	98.999849 
2878.000000	99.010170 
2877.000000	99.018086 
2876.000000	99.023661 
2875.000000	99.027737 
2874.000000	99.031394 
2873.000000	99.035236 
2872.000000	99.039122 
2871.000000	99.042535 
2870.000000	99.045190 
2869.000000	99.047540 
2868.000000	99.050938 
2867.000000	99.056990 
2866.000000	99.066029 
2865.000000	99.076159 
2864.000000	99.084443 
2863.000000	99.089299 
2862.000000	99.091280 
2861.000000	99.091615 
2860.000000	99.091021 
2859.000000	99.090442 
2858.000000	99.091704 
2857.000000	99.096141 
2856.000000	99.102851 
2855.000000	99.109460 
2854.000000	99.114708 
2853.000000	99.119644 
2852.000000	99.126237 
2851.000000	99.135508 
2850.000000	99.147142 
2849.000000	99.160139 
2848.000000	99.173283 
2847.000000	99.185268 
2846.000000	99.195049 
2845.000000	99.202369 
2844.000000	99.207935 
2843.000000	99.212988 
2842.000000	99.218648 
2841.000000	99.225555 
2840.000000	99.233836 
2839.000000	99.243055 
2838.000000	99.252091 
2837.000000	99.259475 
2836.000000	99.264362 
2835.000000	99.267209 
2834.000000	99.269171 
2833.000000	99.270848 
2832.000000	99.271938 
2831.000000	99.272023 
2830.000000	99.271164 
2829.000000	99.269683 
2828.000000	99.268048 
2827.000000	99.267254 
2826.000000	99.268655 
2825.000000	99.272624 
2824.000000	99.277588 
2823.000000	99.281008 
2822.000000	99.281489 
2821.000000	99.279787 
2820.000000	99.277912 
2819.000000	99.277522 
2818.000000	99.278993 
2817.000000	99.281563 
2816.000000	99.284139 
2815.000000	99.285971 
2814.000000	99.286632 
2813.000000	99.285782 
2812.000000	99.283611 
2811.000000	99.281652 
2810.000000	99.282250 
2809.000000	99.286388 
2808.000000	99.292175 
2807.000000	99.296213 
2806.000000	99.296605 
2805.000000	99.294361 
2804.000000	99.292040 
2803.000000	99.291532 
2802.000000	99.293122 
2801.000000	99.295970 
2800.000000	99.298988 
2799.000000	99.301403 
2798.000000	99.302808 
2797.000000	99.302924 
2796.000000	99.301626 
2795.000000	99.299498 
2794.000000	99.298074 
2793.000000	99.298832 
2792.000000	99.301633 
2791.000000	99.304545 
2790.000000	99.305634 
2789.000000	99.304878 
2788.000000	99.304061 
2787.000000	99.304786 
2786.000000	99.306762 
2785.000000	99.308016 
2784.000000	99.306719 
2783.000000	99.302905 
2782.000000	99.298608 
2781.000000	99.296287 
2780.000000	99.296914 
2779.000000	99.299407 
2778.000000	99.301915 
2777.000000	99.303625 
2776.000000	99.305233 
2775.000000	99.307640 
2774.000000	99.310452 
2773.000000	99.312144 
2772.000000	99.311814 
2771.000000	99.310432 
2770.000000	99.309947 
2769.000000	99.311244 
2768.000000	99.313400 
2767.000000	99.315034 
2766.000000	99.315801 
2765.000000	99.316043 
2764.000000	99.315390 
2763.000000	99.312676 
2762.000000	99.307666 
2761.000000	99.302224 
2760.000000	99.299072 
2759.000000	99.299424 
2758.000000	99.302263 
2757.000000	99.305758 
2756.000000	99.308668 
2755.000000	99.310278 
2754.000000	99.309954 
2753.000000	99.307780 
2752.000000	99.305379 
2751.000000	99.305092 
2750.000000	99.307864 
2749.000000	99.312319 
2748.000000	99.316207 
2747.000000	99.318462 
2746.000000	99.319539 
2745.000000	99.320064 
2744.000000	99.319707 
2743.000000	99.317641 
2742.000000	99.313967 
2741.000000	99.310424 
2740.000000	99.309232 
2739.000000	99.310983 
2738.000000	99.313970 
2737.000000	99.316039 
2736.000000	99.316906 
2735.000000	99.317791 
2734.000000	99.318858 
2733.000000	99.318292 
2732.000000	99.314740 
2731.000000	99.309776 
2730.000000	99.306669 
2729.000000	99.306901 
2728.000000	99.308955 
2727.000000	99.310537 
2726.000000	99.310817 
2725.000000	99.310228 
2724.000000	99.309300 
2723.000000	99.308658 
2722.000000	99.309474 
2721.000000	99.312612 
2720.000000	99.317147 
2719.000000	99.320601 
2718.000000	99.321130 
2717.000000	99.319211 
2716.000000	99.316879 
2715.000000	99.315560 
2714.000000	99.315066 
2713.000000	99.314509 
2712.000000	99.313618 
2711.000000	99.312923 
2710.000000	99.313030 
2709.000000	99.314114 
2708.000000	99.315832 
2707.000000	99.317214 
2706.000000	99.316937 
2705.000000	99.314519 
2704.000000	99.311430 
2703.000000	99.310157 
2702.000000	99.311642 
2701.000000	99.314111 
2700.000000	99.315102 
2699.000000	99.314265 
2698.000000	99.313492 
2697.000000	99.314447 
2696.000000	99.316748 
2695.000000	99.318701 
2694.000000	99.319264 
2693.000000	99.318936 
2692.000000	99.318934 
2691.000000	99.319714 
2690.000000	99.320333 
2689.000000	99.319364 
2688.000000	99.316563 
2687.000000	99.313430 
2686.000000	99.311972 
2685.000000	99.313012 
2684.000000	99.315713 
2683.000000	99.318257 
2682.000000	99.318743 
2681.000000	99.316079 
2680.000000	99.310872 
2679.000000	99.305456 
2678.000000	99.302453 
2677.000000	99.303092 
2676.000000	99.306796 
2675.000000	99.311840 
2674.000000	99.316027 
2673.000000	99.317524 
2672.000000	99.316212 
2671.000000	99.314163 
2670.000000	99.313798 
2669.000000	99.315350 
2668.000000	99.316823 
2667.000000	99.316571 
2666.000000	99.315138 
2665.000000	99.314368 
2664.000000	99.315389 
2663.000000	99.317857 
2662.000000	99.320555 
2661.000000	99.322309 
2660.000000	99.322717 
2659.000000	99.322434 
2658.000000	99.322660 
2657.000000	99.324149 
2656.000000	99.326703 
2655.000000	99.329306 
2654.000000	99.330401 
2653.000000	99.328687 
2652.000000	99.324858 
2651.000000	99.322428 
2650.000000	99.325116 
2649.000000	99.332409 
2648.000000	99.338840 
2647.000000	99.339095 
2646.000000	99.333581 
2645.000000	99.327804 
2644.000000	99.326276 
2643.000000	99.328119 
2642.000000	99.328925 
2641.000000	99.325967 
2640.000000	99.320774 
2639.000000	99.316945 
2638.000000	99.316407 
2637.000000	99.318214 
2636.000000	99.320385 
2635.000000	99.321938 
2634.000000	99.322935 
2633.000000	99.323571 
2632.000000	99.324277 
2631.000000	99.326223 
2630.000000	99.330228 
2629.000000	99.334830 
2628.000000	99.336740 
2627.000000	99.334210 
2626.000000	99.329257 
2625.000000	99.325565 
2624.000000	99.324604 
2623.000000	99.324773 
2622.000000	99.324103 
2621.000000	99.322592 
2620.000000	99.321529 
2619.000000	99.321533 
2618.000000	99.322146 
2617.000000	99.323059 
2616.000000	99.324865 
2615.000000	99.328211 
2614.000000	99.332581 
2613.000000	99.336384 
2612.000000	99.338270 
2611.000000	99.338045 
2610.000000	99.336180 
2609.000000	99.332926 
2608.000000	99.328492 
2607.000000	99.324034 
2606.000000	99.321782 
2605.000000	99.323539 
2604.000000	99.328852 
2603.000000	99.334885 
2602.000000	99.338563 
2601.000000	99.339197 
2600.000000	99.338826 
2599.000000	99.339479 
2598.000000	99.340214 
2597.000000	99.337731 
2596.000000	99.330258 
2595.000000	99.320088 
2594.000000	99.311698 
2593.000000	99.307955 
2592.000000	99.308702 
2591.000000	99.312223 
2590.000000	99.316906 
2589.000000	99.321683 
2588.000000	99.326000 
2587.000000	99.329656 
2586.000000	99.332311 
2585.000000	99.333375 
2584.000000	99.332757 
2583.000000	99.331126 
2582.000000	99.328826 
2581.000000	99.325301 
2580.000000	99.320544 
2579.000000	99.316233 
2578.000000	99.313989 
2577.000000	99.313020 
2576.000000	99.311274 
2575.000000	99.308771 
2574.000000	99.307969 
2573.000000	99.310399 
2572.000000	99.314455 
2571.000000	99.317073 
2570.000000	99.316517 
2569.000000	99.313351 
2568.000000	99.310058 
2567.000000	99.309961 
2566.000000	99.314820 
2565.000000	99.322617 
2564.000000	99.328965 
2563.000000	99.331516 
2562.000000	99.331939 
2561.000000	99.332892 
2560.000000	99.334310 
2559.000000	99.333784 
2558.000000	99.329827 
2557.000000	99.323857 
2556.000000	99.319493 
2555.000000	99.320261 
2554.000000	99.326909 
2553.000000	99.336091 
2552.000000	99.342475 
2551.000000	99.343090 
2550.000000	99.339261 
2549.000000	99.334088 
2548.000000	99.329115 
2547.000000	99.324173 
2546.000000	99.319412 
2545.000000	99.316269 
2544.000000	99.316487 
2543.000000	99.320407 
2542.000000	99.325639 
2541.000000	99.327635 
2540.000000	99.323328 
2539.000000	99.315026 
2538.000000	99.309136 
2537.000000	99.309775 
2536.000000	99.314797 
2535.000000	99.319280 
2534.000000	99.321287 
2533.000000	99.322148 
2532.000000	99.322492 
2531.000000	99.321298 
2530.000000	99.319091 
2529.000000	99.318916 
2528.000000	99.322190 
2527.000000	99.325434 
2526.000000	99.323616 
2525.000000	99.316592 
2524.000000	99.310330 
2523.000000	99.311132 
2522.000000	99.319670 
2521.000000	99.331210 
2520.000000	99.340385 
2519.000000	99.344398 
2518.000000	99.342511 
2517.000000	99.335112 
2516.000000	99.324494 
2515.000000	99.314917 
2514.000000	99.310002 
2513.000000	99.310288 
2512.000000	99.314169 
2511.000000	99.320258 
2510.000000	99.327438 
2509.000000	99.333668 
2508.000000	99.337189 
2507.000000	99.338769 
2506.000000	99.340391 
2505.000000	99.341331 
2504.000000	99.338003 
2503.000000	99.328956 
2502.000000	99.318185 
2501.000000	99.311967 
2500.000000	99.313491 
2499.000000	99.321414 
2498.000000	99.331952 
2497.000000	99.340736 
2496.000000	99.344048 
2495.000000	99.340787 
2494.000000	99.333546 
2493.000000	99.326657 
2492.000000	99.323056 
2491.000000	99.323457 
2490.000000	99.327677 
2489.000000	99.335446 
2488.000000	99.345947 
2487.000000	99.357211 
2486.000000	99.365880 
2485.000000	99.367836 
2484.000000	99.360686 
2483.000000	99.346807 
2482.000000	99.332953 
2481.000000	99.325391 
2480.000000	99.325359 
2479.000000	99.329515 
2478.000000	99.333553 
2477.000000	99.334658 
2476.000000	99.332308 
2475.000000	99.328870 
2474.000000	99.328563 
2473.000000	99.333475 
2472.000000	99.340583 
2471.000000	99.344554 
2470.000000	99.343507 
2469.000000	99.340325 
2468.000000	99.338270 
2467.000000	99.337470 
2466.000000	99.336403 
2465.000000	99.334817 
2464.000000	99.333691 
2463.000000	99.333450 
2462.000000	99.333658 
2461.000000	99.333918 
2460.000000	99.333928 
2459.000000	99.333063 
2458.000000	99.331052 
2457.000000	99.328967 
2456.000000	99.328548 
2455.000000	99.330355 
2454.000000	99.333260 
2453.000000	99.335781 
2452.000000	99.337070 
2451.000000	99.336273 
2450.000000	99.331999 
2449.000000	99.323821 
2448.000000	99.314378 
2447.000000	99.308665 
2446.000000	99.310132 
2445.000000	99.317454 
2444.000000	99.325524 
2443.000000	99.329485 
2442.000000	99.327625 
2441.000000	99.321413 
2440.000000	99.314195 
2439.000000	99.309844 
2438.000000	99.310903 
2437.000000	99.316676 
2436.000000	99.323427 
2435.000000	99.327373 
2434.000000	99.327743 
2433.000000	99.327021 
2432.000000	99.328644 
2431.000000	99.334265 
2430.000000	99.342114 
2429.000000	99.347470 
2428.000000	99.345910 
2427.000000	99.337398 
2426.000000	99.326947 
2425.000000	99.320418 
2424.000000	99.319941 
2423.000000	99.323993 
2422.000000	99.330761 
2421.000000	99.339275 
2420.000000	99.347151 
2419.000000	99.349779 
2418.000000	99.343974 
2417.000000	99.331931 
2416.000000	99.319883 
2415.000000	99.312463 
2414.000000	99.309385 
2413.000000	99.307646 
2412.000000	99.305504 
2411.000000	99.303383 
2410.000000	99.302029 
2409.000000	99.301446 
2408.000000	99.301579 
2407.000000	99.302659 
2406.000000	99.304512 
2405.000000	99.306508 
2404.000000	99.308557 
2403.000000	99.311128 
2402.000000	99.313746 
2401.000000	99.314492 
2400.000000	99.311828 
2399.000000	99.306323 
2398.000000	99.300066 
2397.000000	99.295142 
2396.000000	99.293046 
2395.000000	99.294120 
2394.000000	99.296429 
2393.000000	99.296553 
2392.000000	99.293200 
2391.000000	99.289155 
2390.000000	99.287899 
2389.000000	99.289332 
2388.000000	99.291066 
2387.000000	99.293038 
2386.000000	99.297524 
2385.000000	99.304241 
2384.000000	99.308878 
2383.000000	99.308234 
2382.000000	99.304291 
2381.000000	99.300986 
2380.000000	99.298972 
2379.000000	99.296513 
2378.000000	99.294538 
2377.000000	99.296984 
2376.000000	99.305240 
2375.000000	99.315156 
2374.000000	99.321052 
2373.000000	99.320511 
2372.000000	99.313851 
2371.000000	99.302024 
2370.000000	99.288169 
2369.000000	99.279167 
2368.000000	99.281068 
2367.000000	99.292616 
2366.000000	99.306416 
2365.000000	99.316737 
2364.000000	99.323130 
2363.000000	99.326753 
2362.000000	99.326659 
2361.000000	99.321200 
2360.000000	99.311287 
2359.000000	99.299211 
2358.000000	99.286922 
2357.000000	99.277337 
2356.000000	99.274212 
2355.000000	99.279399 
2354.000000	99.289906 
2353.000000	99.299771 
2352.000000	99.304838 
2351.000000	99.305193 
2350.000000	99.303734 
2349.000000	99.302384 
2348.000000	99.302078 
2347.000000	99.303939 
2346.000000	99.307365 
2345.000000	99.309198 
2344.000000	99.307086 
2343.000000	99.304670 
2342.000000	99.305921 
2341.000000	99.308922 
2340.000000	99.310013 
2339.000000	99.309903 
2338.000000	99.312260 
2337.000000	99.316009 
2336.000000	99.315616 
2335.000000	99.309043 
2334.000000	99.302353 
2333.000000	99.302280 
2332.000000	99.308499 
2331.000000	99.314142 
2330.000000	99.314873 
2329.000000	99.311669 
2328.000000	99.309211 
2327.000000	99.311764 
2326.000000	99.320128 
2325.000000	99.330565 
2324.000000	99.336884 
2323.000000	99.337511 
2322.000000	99.336657 
2321.000000	99.337962 
2320.000000	99.338669 
2319.000000	99.333592 
2318.000000	99.323358 
2317.000000	99.314158 
2316.000000	99.311428 
2315.000000	99.314914 
2314.000000	99.321422 
2313.000000	99.328117 
2312.000000	99.334201 
2311.000000	99.339270 
2310.000000	99.342649 
2309.000000	99.342831 
2308.000000	99.339132 
2307.000000	99.333015 
2306.000000	99.328010 
2305.000000	99.326879 
2304.000000	99.329905 
2303.000000	99.335348 
2302.000000	99.341105 
2301.000000	99.345374 
2300.000000	99.347917 
2299.000000	99.350720 
2298.000000	99.355880 
2297.000000	99.361584 
2296.000000	99.362425 
2295.000000	99.355549 
2294.000000	99.345226 
2293.000000	99.339249 
2292.000000	99.341244 
2291.000000	99.348223 
2290.000000	99.354657 
2289.000000	99.356960 
2288.000000	99.354606 
2287.000000	99.349234 
2286.000000	99.343078 
2285.000000	99.336961 
2284.000000	99.330032 
2283.000000	99.322549 
2282.000000	99.317787 
2281.000000	99.318743 
2280.000000	99.323332 
2279.000000	99.325628 
2278.000000	99.322392 
2277.000000	99.316232 
2276.000000	99.311818 
2275.000000	99.311106 
2274.000000	99.313173 
2273.000000	99.316528 
2272.000000	99.320065 
2271.000000	99.322897 
2270.000000	99.324529 
2269.000000	99.324885 
2268.000000	99.323949 
2267.000000	99.322050 
2266.000000	99.320348 
2265.000000	99.319742 
2264.000000	99.319360 
2263.000000	99.317592 
2262.000000	99.314773 
2261.000000	99.313277 
2260.000000	99.314319 
2259.000000	99.316195 
2258.000000	99.316465 
2257.000000	99.314990 
2256.000000	99.314012 
2255.000000	99.315874 
2254.000000	99.321309 
2253.000000	99.329256 
2252.000000	99.337520 
2251.000000	99.343569 
2250.000000	99.345415 
2249.000000	99.342642 
2248.000000	99.336732 
2247.000000	99.330523 
2246.000000	99.325714 
2245.000000	99.321661 
2244.000000	99.317262 
2243.000000	99.313658 
2242.000000	99.313420 
2241.000000	99.317345 
2240.000000	99.324340 
2239.000000	99.334349 
2238.000000	99.347663 
2237.000000	99.359927 
2236.000000	99.362212 
2235.000000	99.350117 
2234.000000	99.330710 
2233.000000	99.316371 
2232.000000	99.312477 
2231.000000	99.314308 
2230.000000	99.314853 
2229.000000	99.311644 
2228.000000	99.306388 
2227.000000	99.302123 
2226.000000	99.301808 
2225.000000	99.306752 
2224.000000	99.315375 
2223.000000	99.325031 
2222.000000	99.334168 
2221.000000	99.340502 
2220.000000	99.339503 
2219.000000	99.329884 
2218.000000	99.319979 
2217.000000	99.322223 
2216.000000	99.338691 
2215.000000	99.356930 
2214.000000	99.363106 
2213.000000	99.355685 
2212.000000	99.343519 
2211.000000	99.334718 
2210.000000	99.332044 
2209.000000	99.335798 
2208.000000	99.344403 
2207.000000	99.351785 
2206.000000	99.349686 
2205.000000	99.336012 
2204.000000	99.319583 
2203.000000	99.314261 
2202.000000	99.327351 
2201.000000	99.352502 
2200.000000	99.373542 
2199.000000	99.377141 
2198.000000	99.363640 
2197.000000	99.345656 
2196.000000	99.335590 
2195.000000	99.335622 
2194.000000	99.340210 
2193.000000	99.344799 
2192.000000	99.349008 
2191.000000	99.353737 
2190.000000	99.359938 
2189.000000	99.369694 
2188.000000	99.383159 
2187.000000	99.392916 
2186.000000	99.386489 
2185.000000	99.358954 
2184.000000	99.321166 
2183.000000	99.291862 
2182.000000	99.282585 
2181.000000	99.291735 
2180.000000	99.310063 
2179.000000	99.327814 
2178.000000	99.338010 
2177.000000	99.338781 
2176.000000	99.334694 
2175.000000	99.332562 
2174.000000	99.334948 
2173.000000	99.340667 
2172.000000	99.351289 
2171.000000	99.371524 
2170.000000	99.400593 
2169.000000	99.427937 
2168.000000	99.442320 
2167.000000	99.442946 
2166.000000	99.437767 
2165.000000	99.433688 
2164.000000	99.433296 
2163.000000	99.438606 
2162.000000	99.449846 
2161.000000	99.458497 
2160.000000	99.448727 
2159.000000	99.412383 
2158.000000	99.360508 
2157.000000	99.314715 
2156.000000	99.288628 
2155.000000	99.281992 
2154.000000	99.288675 
2153.000000	99.303717 
2152.000000	99.323065 
2151.000000	99.340683 
2150.000000	99.349416 
2149.000000	99.346946 
2148.000000	99.340459 
2147.000000	99.341511 
2146.000000	99.353469 
2145.000000	99.365997 
2144.000000	99.365665 
2143.000000	99.350974 
2142.000000	99.332907 
2141.000000	99.321312 
2140.000000	99.315424 
2139.000000	99.309305 
2138.000000	99.302056 
2137.000000	99.298474 
2136.000000	99.301238 
2135.000000	99.306601 
2134.000000	99.308991 
2133.000000	99.307749 
2132.000000	99.307338 
2131.000000	99.310820 
2130.000000	99.314880 
2129.000000	99.313078 
2128.000000	99.304054 
2127.000000	99.294175 
2126.000000	99.290684 
2125.000000	99.294377 
2124.000000	99.301364 
2123.000000	99.309936 
2122.000000	99.321354 
2121.000000	99.334422 
2120.000000	99.344286 
2119.000000	99.348189 
2118.000000	99.348515 
2117.000000	99.348231 
2116.000000	99.346815 
2115.000000	99.343330 
2114.000000	99.340326 
2113.000000	99.340859 
2112.000000	99.343510 
2111.000000	99.344538 
2110.000000	99.344223 
2109.000000	99.346781 
2108.000000	99.353175 
2107.000000	99.357569 
2106.000000	99.353189 
2105.000000	99.340409 
2104.000000	99.327498 
2103.000000	99.323512 
2102.000000	99.330558 
2101.000000	99.341881 
2100.000000	99.347272 
2099.000000	99.341536 
2098.000000	99.328673 
2097.000000	99.317928 
2096.000000	99.315596 
2095.000000	99.320806 
2094.000000	99.328502 
2093.000000	99.334764 
2092.000000	99.338899 
2091.000000	99.341955 
2090.000000	99.344801 
2089.000000	99.347357 
2088.000000	99.348244 
2087.000000	99.344755 
2086.000000	99.334687 
2085.000000	99.320063 
2084.000000	99.308649 
2083.000000	99.309233 
2082.000000	99.323781 
2081.000000	99.344891 
2080.000000	99.362250 
2079.000000	99.371219 
2078.000000	99.374382 
2077.000000	99.376312 
2076.000000	99.378499 
2075.000000	99.378495 
2074.000000	99.372293 
2073.000000	99.358395 
2072.000000	99.341131 
2071.000000	99.328510 
2070.000000	99.324741 
2069.000000	99.325837 
2068.000000	99.324484 
2067.000000	99.317996 
2066.000000	99.309394 
2065.000000	99.303176 
2064.000000	99.303510 
2063.000000	99.314136 
2062.000000	99.333931 
2061.000000	99.352709 
2060.000000	99.358378 
2059.000000	99.350559 
2058.000000	99.341992 
2057.000000	99.344171 
2056.000000	99.356178 
2055.000000	99.369973 
2054.000000	99.381415 
2053.000000	99.391770 
2052.000000	99.401911 
2051.000000	99.409712 
2050.000000	99.411994 
2049.000000	99.406680 
2048.000000	99.394737 
2047.000000	99.381836 
2046.000000	99.375713 
2045.000000	99.378977 
2044.000000	99.385950 
2043.000000	99.389077 
2042.000000	99.386806 
2041.000000	99.382909 
2040.000000	99.380015 
2039.000000	99.377034 
2038.000000	99.372174 
2037.000000	99.365908 
2036.000000	99.360799 
2035.000000	99.358595 
2034.000000	99.356652 
2033.000000	99.348804 
2032.000000	99.333814 
2031.000000	99.321838 
2030.000000	99.326074 
2029.000000	99.346201 
2028.000000	99.365699 
2027.000000	99.368659 
2026.000000	99.354170 
2025.000000	99.332703 
2024.000000	99.315357 
2023.000000	99.309963 
2022.000000	99.320021 
2021.000000	99.339852 
2020.000000	99.355211 
2019.000000	99.356233 
2018.000000	99.347466 
2017.000000	99.340194 
2016.000000	99.337898 
2015.000000	99.335759 
2014.000000	99.331009 
2013.000000	99.325474 
2012.000000	99.320224 
2011.000000	99.315311 
2010.000000	99.314007 
2009.000000	99.320127 
2008.000000	99.330679 
2007.000000	99.337980 
2006.000000	99.340017 
2005.000000	99.342429 
2004.000000	99.349017 
2003.000000	99.355777 
2002.000000	99.355818 
2001.000000	99.345744 
2000.000000	99.326473 
1999.000000	99.301864 
1998.000000	99.278126 
1997.000000	99.261912 
1996.000000	99.256804 
1995.000000	99.262334 
1994.000000	99.276190 
1993.000000	99.295462 
1992.000000	99.315753 
1991.000000	99.331610 
1990.000000	99.339191 
1989.000000	99.338074 
1988.000000	99.331939 
1987.000000	99.328531 
1986.000000	99.336297 
1985.000000	99.357668 
1984.000000	99.385628 
1983.000000	99.408456 
1982.000000	99.417513 
1981.000000	99.410672 
1980.000000	99.391748 
1979.000000	99.369228 
1978.000000	99.352500 
1977.000000	99.344403 
1976.000000	99.338335 
1975.000000	99.327105 
1974.000000	99.313490 
1973.000000	99.307620 
1972.000000	99.314088 
1971.000000	99.326323 
1970.000000	99.335390 
1969.000000	99.340793 
1968.000000	99.349188 
1967.000000	99.363382 
1966.000000	99.377162 
1965.000000	99.383051 
1964.000000	99.381499 
1963.000000	99.378964 
1962.000000	99.379252 
1961.000000	99.380186 
1960.000000	99.378241 
1959.000000	99.372800 
1958.000000	99.364853 
1957.000000	99.355239 
1956.000000	99.345880 
1955.000000	99.339258 
1954.000000	99.334010 
1953.000000	99.324302 
1952.000000	99.307549 
1951.000000	99.290750 
1950.000000	99.284792 
1949.000000	99.292569 
1948.000000	99.306405 
1947.000000	99.317434 
1946.000000	99.322838 
1945.000000	99.323279 
1944.000000	99.318778 
1943.000000	99.310460 
1942.000000	99.302654 
1941.000000	99.298580 
1940.000000	99.296427 
1939.000000	99.292683 
1938.000000	99.286930 
1937.000000	99.281949 
1936.000000	99.280573 
1935.000000	99.283247 
1934.000000	99.287575 
1933.000000	99.289958 
1932.000000	99.289485 
1931.000000	99.290959 
1930.000000	99.301525 
1929.000000	99.321246 
1928.000000	99.339323 
1927.000000	99.343509 
1926.000000	99.331793 
1925.000000	99.312542 
1924.000000	99.295471 
1923.000000	99.285663 
1922.000000	99.284734 
1921.000000	99.292459 
1920.000000	99.305703 
1919.000000	99.318103 
1918.000000	99.323069 
1917.000000	99.318734 
1916.000000	99.309636 
1915.000000	99.303210 
1914.000000	99.304443 
1913.000000	99.312284 
1912.000000	99.320465 
1911.000000	99.323334 
1910.000000	99.321035 
1909.000000	99.317834 
1908.000000	99.316877 
1907.000000	99.318753 
1906.000000	99.323140 
1905.000000	99.328377 
1904.000000	99.330009 
1903.000000	99.323294 
1902.000000	99.307962 
1901.000000	99.289307 
1900.000000	99.275320 
1899.000000	99.272496 
1898.000000	99.281569 
1897.000000	99.295512 
1896.000000	99.303777 
1895.000000	99.302007 
1894.000000	99.296471 
1893.000000	99.295948 
1892.000000	99.301696 
1891.000000	99.308241 
1890.000000	99.311062 
1889.000000	99.310615 
1888.000000	99.309536 
1887.000000	99.309435 
1886.000000	99.310338 
1885.000000	99.310660 
1884.000000	99.308069 
1883.000000	99.302140 
1882.000000	99.295571 
1881.000000	99.291301 
1880.000000	99.289836 
1879.000000	99.290078 
1878.000000	99.290581 
1877.000000	99.289357 
1876.000000	99.285278 
1875.000000	99.281294 
1874.000000	99.283387 
1873.000000	99.293298 
1872.000000	99.304358 
1871.000000	99.307646 
1870.000000	99.301164 
1869.000000	99.290812 
1868.000000	99.281210 
1867.000000	99.271014 
1866.000000	99.259320 
1865.000000	99.249131 
1864.000000	99.244865 
1863.000000	99.249652 
1862.000000	99.263395 
1861.000000	99.280871 
1860.000000	99.293421 
1859.000000	99.296381 
1858.000000	99.294014 
1857.000000	99.293988 
1856.000000	99.298642 
1855.000000	99.304835 
1854.000000	99.309374 
1853.000000	99.310679 
1852.000000	99.307341 
1851.000000	99.299084 
1850.000000	99.288908 
1849.000000	99.281838 
1848.000000	99.280634 
1847.000000	99.284284 
1846.000000	99.290161 
1845.000000	99.294243 
1844.000000	99.291366 
1843.000000	99.281311 
1842.000000	99.271664 
1841.000000	99.269521 
1840.000000	99.275615 
1839.000000	99.285950 
1838.000000	99.295946 
1837.000000	99.302870 
1836.000000	99.305539 
1835.000000	99.304508 
1834.000000	99.302334 
1833.000000	99.301804 
1832.000000	99.303632 
1831.000000	99.305502 
1830.000000	99.304436 
1829.000000	99.300957 
1828.000000	99.298648 
1827.000000	99.298884 
1826.000000	99.299554 
1825.000000	99.298924 
1824.000000	99.297731 
1823.000000	99.297399 
1822.000000	99.297876 
1821.000000	99.297007 
1820.000000	99.292202 
1819.000000	99.283248 
1818.000000	99.273944 
1817.000000	99.269402 
1816.000000	99.270299 
1815.000000	99.272720 
1814.000000	99.273955 
1813.000000	99.275613 
1812.000000	99.280848 
1811.000000	99.289330 
1810.000000	99.298228 
1809.000000	99.306178 
1808.000000	99.312078 
1807.000000	99.313662 
1806.000000	99.310442 
1805.000000	99.305212 
1804.000000	99.300708 
1803.000000	99.296962 
1802.000000	99.293653 
1801.000000	99.292628 
1800.000000	99.293966 
1799.000000	99.293690 
1798.000000	99.290140 
1797.000000	99.286915 
1796.000000	99.288029 
1795.000000	99.293589 
1794.000000	99.300055 
1793.000000	99.303065 
1792.000000	99.301635 
1791.000000	99.298714 
1790.000000	99.297657 
1789.000000	99.299434 
1788.000000	99.302699 
1787.000000	99.305424 
1786.000000	99.306561 
1785.000000	99.306006 
1784.000000	99.303298 
1783.000000	99.299159 
1782.000000	99.296289 
1781.000000	99.295997 
1780.000000	99.295283 
1779.000000	99.290232 
1778.000000	99.282688 
1777.000000	99.278182 
1776.000000	99.279060 
1775.000000	99.283629 
1774.000000	99.289754 
1773.000000	99.296171 
1772.000000	99.300599 
1771.000000	99.300261 
1770.000000	99.295419 
1769.000000	99.288871 
1768.000000	99.284277 
1767.000000	99.283248 
1766.000000	99.284591 
1765.000000	99.286950 
1764.000000	99.289549 
1763.000000	99.291662 
1762.000000	99.292833 
1761.000000	99.293559 
1760.000000	99.294540 
1759.000000	99.295054 
1758.000000	99.294004 
1757.000000	99.291364 
1756.000000	99.287877 
1755.000000	99.283357 
1754.000000	99.276281 
1753.000000	99.266368 
1752.000000	99.258379 
1751.000000	99.260578 
1750.000000	99.273556 
1749.000000	99.287208 
1748.000000	99.292893 
1747.000000	99.290666 
1746.000000	99.285417 
1745.000000	99.281257 
1744.000000	99.280055 
1743.000000	99.281194 
1742.000000	99.282282 
1741.000000	99.282081 
1740.000000	99.281459 
1739.000000	99.281534 
1738.000000	99.282344 
1737.000000	99.282903 
1736.000000	99.281318 
1735.000000	99.275107 
1734.000000	99.264908 
1733.000000	99.257077 
1732.000000	99.257851 
1731.000000	99.266632 
1730.000000	99.278442 
1729.000000	99.287677 
1728.000000	99.291788 
1727.000000	99.292071 
1726.000000	99.290258 
1725.000000	99.286797 
1724.000000	99.282647 
1723.000000	99.280464 
1722.000000	99.282791 
1721.000000	99.289632 
1720.000000	99.297983 
1719.000000	99.303051 
1718.000000	99.300916 
1717.000000	99.294300 
1716.000000	99.289057 
1715.000000	99.286566 
1714.000000	99.286635 
1713.000000	99.289163 
1712.000000	99.292015 
1711.000000	99.292840 
1710.000000	99.291383 
1709.000000	99.289093 
1708.000000	99.287344 
1707.000000	99.286814 
1706.000000	99.289221 
1705.000000	99.295453 
1704.000000	99.301014 
1703.000000	99.299066 
1702.000000	99.288398 
1701.000000	99.277803 
1700.000000	99.277973 
1699.000000	99.283844 
1698.000000	99.289113 
1697.000000	99.295163 
1696.000000	99.302818 
1695.000000	99.307161 
1694.000000	99.306372 
1693.000000	99.303063 
1692.000000	99.297406 
1691.000000	99.289804 
1690.000000	99.283603 
1689.000000	99.281797 
1688.000000	99.282498 
1687.000000	99.280865 
1686.000000	99.275470 
1685.000000	99.270482 
1684.000000	99.269351 
1683.000000	99.269025 
1682.000000	99.268812 
1681.000000	99.268713 
1680.000000	99.269410 
1679.000000	99.270893 
1678.000000	99.271637 
1677.000000	99.270199 
1676.000000	99.267225 
1675.000000	99.265396 
1674.000000	99.265436 
1673.000000	99.266273 
1672.000000	99.267230 
1671.000000	99.268845 
1670.000000	99.271390 
1669.000000	99.272751 
1668.000000	99.272158 
1667.000000	99.271127 
1666.000000	99.268685 
1665.000000	99.263327 
1664.000000	99.257185 
1663.000000	99.255365 
1662.000000	99.259449 
1661.000000	99.264598 
1660.000000	99.266036 
1659.000000	99.264141 
1658.000000	99.261651 
1657.000000	99.258559 
1656.000000	99.251286 
1655.000000	99.239983 
1654.000000	99.234270 
1653.000000	99.238519 
1652.000000	99.239146 
1651.000000	99.239374 
1650.000000	99.239815 
1649.000000	99.237998 
1648.000000	99.233966 
1647.000000	99.229211 
1646.000000	99.224277 
1645.000000	99.222413 
1644.000000	99.225880 
1643.000000	99.232463 
1642.000000	99.238991 
1641.000000	99.243774 
1640.000000	99.246233 
1639.000000	99.246363 
1638.000000	99.245329 
1637.000000	99.245547 
1636.000000	99.247123 
1635.000000	99.246659 
1634.000000	99.245472 
1633.000000	99.246714 
1632.000000	99.249345 
1631.000000	99.251892 
1630.000000	99.253960 
1629.000000	99.255193 
1628.000000	99.254992 
1627.000000	99.254026 
1626.000000	99.254083 
1625.000000	99.256432 
1624.000000	99.260941 
1623.000000	99.265977 
1622.000000	99.269590 
1621.000000	99.270848 
1620.000000	99.269297 
1619.000000	99.265506 
1618.000000	99.262299 
1617.000000	99.262213 
1616.000000	99.263585 
1615.000000	99.264120 
1614.000000	99.262597 
1613.000000	99.258152 
1612.000000	99.252380 
1611.000000	99.248119 
1610.000000	99.246169 
1609.000000	99.244555 
1608.000000	99.241795 
1607.000000	99.238858 
1606.000000	99.237009 
1605.000000	99.236532 
1604.000000	99.238000 
1603.000000	99.242021 
1602.000000	99.246965 
1601.000000	99.249534 
1600.000000	99.248932 
1599.000000	99.248075 
1598.000000	99.249414 
1597.000000	99.252107 
1596.000000	99.254299 
1595.000000	99.255982 
1594.000000	99.258005 
1593.000000	99.259608 
1592.000000	99.259751 
1591.000000	99.259667 
1590.000000	99.261499 
1589.000000	99.264771 
1588.000000	99.267105 
1587.000000	99.267709 
1586.000000	99.267216 
1585.000000	99.265014 
1584.000000	99.259918 
1583.000000	99.252915 
1582.000000	99.247140 
1581.000000	99.244548 
1580.000000	99.244556 
1579.000000	99.246088 
1578.000000	99.249091 
1577.000000	99.252582 
1576.000000	99.252968 
1575.000000	99.250634 
1574.000000	99.250455 
1573.000000	99.251608 
1572.000000	99.251268 
1571.000000	99.250989 
1570.000000	99.254675 
1569.000000	99.260811 
1568.000000	99.264369 
1567.000000	99.264007 
1566.000000	99.260761 
1565.000000	99.256364 
1564.000000	99.252876 
1563.000000	99.251726 
1562.000000	99.252500 
1561.000000	99.253212 
1560.000000	99.252533 
1559.000000	99.250019 
1558.000000	99.241904 
1557.000000	99.237516 
1556.000000	99.240677 
1555.000000	99.245643 
1554.000000	99.247276 
1553.000000	99.244658 
1552.000000	99.241606 
1551.000000	99.242460 
1550.000000	99.248761 
1549.000000	99.256940 
1548.000000	99.261439 
1547.000000	99.260133 
1546.000000	99.254144 
1545.000000	99.246964 
1544.000000	99.241974 
1543.000000	99.239484 
1542.000000	99.239591 
1541.000000	99.244271 
1540.000000	99.248563 
1539.000000	99.245663 
1538.000000	99.242586 
1537.000000	99.244016 
1536.000000	99.246444 
1535.000000	99.248007 
1534.000000	99.251499 
1533.000000	99.257917 
1532.000000	99.262425 
1531.000000	99.261336 
1530.000000	99.256955 
1529.000000	99.253852 
1528.000000	99.253618 
1527.000000	99.254893 
1526.000000	99.256000 
1525.000000	99.256481 
1524.000000	99.256419 
1523.000000	99.257146 
1522.000000	99.262488 
1521.000000	99.272523 
1520.000000	99.278324 
1519.000000	99.274601 
1518.000000	99.264994 
1517.000000	99.257099 
1516.000000	99.254762 
1515.000000	99.255243 
1514.000000	99.255173 
1513.000000	99.253560 
1512.000000	99.250866 
1511.000000	99.247679 
1510.000000	99.244303 
1509.000000	99.242311 
1508.000000	99.247526 
1507.000000	99.263352 
1506.000000	99.274826 
1505.000000	99.274568 
1504.000000	99.272155 
1503.000000	99.270748 
1502.000000	99.270187 
1501.000000	99.271379 
1500.000000	99.275007 
1499.000000	99.279670 
1498.000000	99.282569 
1497.000000	99.284043 
1496.000000	99.286272 
1495.000000	99.287640 
1494.000000	99.285168 
1493.000000	99.278146 
1492.000000	99.267310 
1491.000000	99.254815 
1490.000000	99.244527 
1489.000000	99.239636 
1488.000000	99.238501 
1487.000000	99.237657 
1486.000000	99.237784 
1485.000000	99.239894 
1484.000000	99.242260 
1483.000000	99.242813 
1482.000000	99.240247 
1481.000000	99.235038 
1480.000000	99.228828 
1479.000000	99.223284 
1478.000000	99.219380 
1477.000000	99.216919 
1476.000000	99.214024 
1475.000000	99.207817 
1474.000000	99.200119 
1473.000000	99.198431 
1472.000000	99.205145 
1471.000000	99.211505 
1470.000000	99.211903 
1469.000000	99.209082 
1468.000000	99.207212 
1467.000000	99.207385 
1466.000000	99.208967 
1465.000000	99.211495 
1464.000000	99.213969 
1463.000000	99.215299 
1462.000000	99.215759 
1461.000000	99.216736 
1460.000000	99.218355 
1459.000000	99.218723 
1458.000000	99.214128 
1457.000000	99.203441 
1456.000000	99.191154 
1455.000000	99.182370 
1454.000000	99.177936 
1453.000000	99.176704 
1452.000000	99.177184 
1451.000000	99.177945 
1450.000000	99.179368 
1449.000000	99.183672 
1448.000000	99.190673 
1447.000000	99.195815 
1446.000000	99.196565 
1445.000000	99.195882 
1444.000000	99.196982 
1443.000000	99.198804 
1442.000000	99.198698 
1441.000000	99.196727 
1440.000000	99.195506 
1439.000000	99.196659 
1438.000000	99.198548 
1437.000000	99.199068 
1436.000000	99.197773 
1435.000000	99.194287 
1434.000000	99.189421 
1433.000000	99.185927 
1432.000000	99.185765 
1431.000000	99.188897 
1430.000000	99.192622 
1429.000000	99.194130 
1428.000000	99.193027 
1427.000000	99.190273 
1426.000000	99.186630 
1425.000000	99.182267 
1424.000000	99.178702 
1423.000000	99.177000 
1422.000000	99.174773 
1421.000000	99.169178 
1420.000000	99.160255 
1419.000000	99.150577 
1418.000000	99.139426 
1417.000000	99.125426 
1416.000000	99.111442 
1415.000000	99.099571 
1414.000000	99.088041 
1413.000000	99.074355 
1412.000000	99.060013 
1411.000000	99.049033 
1410.000000	99.041849 
1409.000000	99.036173 
1408.000000	99.031737 
1407.000000	99.029572 
1406.000000	99.029718 
1405.000000	99.032503 
1404.000000	99.040007 
1403.000000	99.051294 
1402.000000	99.060814 
1401.000000	99.065347 
1400.000000	99.067709 
1399.000000	99.071900 
1398.000000	99.073673 
1397.000000	99.063661 
1396.000000	99.040079 
1395.000000	99.014588 
1394.000000	99.003567 
1393.000000	99.012800 
1392.000000	99.037216 
1391.000000	99.067318 
1390.000000	99.093151 
1389.000000	99.107569 
1388.000000	99.109198 
1387.000000	99.102420 
1386.000000	99.092581 
1385.000000	99.083036 
1384.000000	99.075916 
1383.000000	99.072328 
1382.000000	99.071845 
1381.000000	99.074027 
1380.000000	99.078915 
1379.000000	99.085949 
1378.000000	99.093016 
1377.000000	99.097803 
1376.000000	99.100636 
1375.000000	99.105076 
1374.000000	99.114169 
1373.000000	99.125901 
1372.000000	99.135986 
1371.000000	99.143826 
1370.000000	99.152470 
1369.000000	99.162938 
1368.000000	99.173477 
1367.000000	99.182272 
1366.000000	99.188888 
1365.000000	99.193426 
1364.000000	99.195404 
1363.000000	99.195317 
1362.000000	99.195704 
1361.000000	99.198168 
1360.000000	99.201633 
1359.000000	99.205060 
1358.000000	99.209646 
1357.000000	99.217021 
1356.000000	99.226464 
1355.000000	99.235026 
1354.000000	99.240457 
1353.000000	99.242801 
1352.000000	99.242438 
1351.000000	99.239214 
1350.000000	99.235143 
1349.000000	99.232558 
1348.000000	99.232291 
1347.000000	99.233949 
1346.000000	99.237743 
1345.000000	99.243555 
1344.000000	99.249191 
1343.000000	99.251580 
1342.000000	99.250058 
1341.000000	99.246788 
1340.000000	99.244187 
1339.000000	99.243044 
1338.000000	99.242974 
1337.000000	99.243876 
1336.000000	99.245788 
1335.000000	99.248034 
1334.000000	99.250190 
1333.000000	99.252963 
1332.000000	99.256692 
1331.000000	99.260054 
1330.000000	99.261454 
1329.000000	99.260799 
1328.000000	99.259358 
1327.000000	99.258203 
1326.000000	99.257585 
1325.000000	99.256707 
1324.000000	99.255472 
1323.000000	99.254698 
1322.000000	99.254492 
1321.000000	99.253561 
1320.000000	99.251114 
1319.000000	99.248488 
1318.000000	99.247630 
1317.000000	99.248546 
1316.000000	99.249228 
1315.000000	99.248128 
1314.000000	99.246021 
1313.000000	99.245420 
1312.000000	99.248016 
1311.000000	99.252837 
1310.000000	99.257294 
1309.000000	99.259732 
1308.000000	99.260479 
1307.000000	99.260301 
1306.000000	99.259171 
1305.000000	99.256657 
1304.000000	99.254036 
1303.000000	99.253882 
1302.000000	99.257440 
1301.000000	99.262942 
1300.000000	99.267015 
1299.000000	99.267300 
1298.000000	99.263844 
1297.000000	99.258781 
1296.000000	99.254749 
1295.000000	99.253544 
1294.000000	99.255470 
1293.000000	99.259580 
1292.000000	99.263970 
1291.000000	99.265975 
1290.000000	99.263644 
1289.000000	99.257872 
1288.000000	99.252000 
1287.000000	99.248253 
1286.000000	99.245375 
1285.000000	99.241181 
1284.000000	99.236386 
1283.000000	99.233783 
1282.000000	99.234183 
1281.000000	99.235460 
1280.000000	99.235614 
1279.000000	99.234665 
1278.000000	99.232887 
1277.000000	99.229451 
1276.000000	99.223847 
1275.000000	99.217430 
1274.000000	99.212079 
1273.000000	99.208214 
1272.000000	99.205051 
1271.000000	99.201786 
1270.000000	99.197559 
1269.000000	99.191420 
1268.000000	99.183642 
1267.000000	99.176170 
1266.000000	99.170378 
1265.000000	99.165405 
1264.000000	99.159620 
1263.000000	99.152563 
1262.000000	99.144497 
1261.000000	99.135416 
1260.000000	99.125877 
1259.000000	99.117808 
1258.000000	99.112583 
1257.000000	99.109403 
1256.000000	99.106816 
1255.000000	99.104854 
1254.000000	99.104120 
1253.000000	99.103756 
1252.000000	99.102144 
1251.000000	99.099470 
1250.000000	99.097847 
1249.000000	99.099025 
1248.000000	99.103395 
1247.000000	99.110564 
1246.000000	99.118474 
1245.000000	99.122370 
1244.000000	99.117738 
1243.000000	99.106010 
1242.000000	99.095637 
1241.000000	99.095220 
1240.000000	99.105626 
1239.000000	99.119651 
1238.000000	99.128895 
1237.000000	99.130113 
1236.000000	99.125400 
1235.000000	99.118244 
1234.000000	99.110592 
1233.000000	99.102938 
1232.000000	99.095631 
1231.000000	99.089090 
1230.000000	99.083114 
1229.000000	99.077001 
1228.000000	99.070859 
1227.000000	99.066403 
1226.000000	99.065894 
1225.000000	99.069954 
1224.000000	99.076444 
1223.000000	99.081723 
1222.000000	99.083447 
1221.000000	99.082404 
1220.000000	99.081426 
1219.000000	99.082453 
1218.000000	99.084794 
1217.000000	99.086338 
1216.000000	99.085815 
1215.000000	99.083405 
1214.000000	99.079948 
1213.000000	99.076574 
1212.000000	99.074529 
1211.000000	99.073770 
1210.000000	99.071923 
1209.000000	99.066267 
1208.000000	99.057106 
1207.000000	99.047826 
1206.000000	99.041271 
1205.000000	99.037365 
1204.000000	99.034600 
1203.000000	99.031955 
1202.000000	99.028179 
1201.000000	99.021014 
1200.000000	99.009417 
1199.000000	98.996010 
1198.000000	98.985137 
1197.000000	98.978413 
1196.000000	98.973651 
1195.000000	98.968067 
1194.000000	98.960922 
1193.000000	98.952569 
1192.000000	98.942648 
1191.000000	98.930632 
1190.000000	98.917679 
1189.000000	98.906837 
1188.000000	98.900991 
1187.000000	98.900403 
1186.000000	98.901967 
1185.000000	98.901033 
1184.000000	98.894394 
1183.000000	98.881915 
1182.000000	98.865900 
1181.000000	98.849449 
1180.000000	98.835297 
1179.000000	98.824916 
1178.000000	98.817418 
1177.000000	98.809740 
1176.000000	98.799261 
1175.000000	98.786395 
1174.000000	98.773865 
1173.000000	98.763401 
1172.000000	98.754376 
1171.000000	98.745704 
1170.000000	98.737452 
1169.000000	98.729763 
1168.000000	98.721439 
1167.000000	98.711079 
1166.000000	98.699317 
1165.000000	98.688855 
1164.000000	98.682283 
1163.000000	98.680465 
1162.000000	98.682765 
1161.000000	98.687710 
1160.000000	98.693191 
1159.000000	98.697141 
1158.000000	98.698842 
1157.000000	98.698961 
1156.000000	98.697621 
1155.000000	98.693064 
1154.000000	98.683277 
1153.000000	98.668795 
1152.000000	98.652941 
1151.000000	98.639222 
1150.000000	98.629070 
1149.000000	98.621811 
1148.000000	98.615516 
1147.000000	98.607380 
1146.000000	98.594710 
1145.000000	98.577175 
1144.000000	98.557951 
1143.000000	98.541651 
1142.000000	98.530602 
1141.000000	98.523235 
1140.000000	98.515813 
1139.000000	98.505277 
1138.000000	98.491100 
1137.000000	98.475435 
1136.000000	98.461417 
1135.000000	98.450497 
1134.000000	98.441331 
1133.000000	98.431639 
1132.000000	98.420607 
1131.000000	98.408650 
1130.000000	98.395515 
1129.000000	98.380185 
1128.000000	98.362720 
1127.000000	98.344792 
1126.000000	98.327996 
1125.000000	98.312599 
1124.000000	98.298093 
1123.000000	98.283808 
1122.000000	98.268640 
1121.000000	98.251542 
1120.000000	98.233002 
1119.000000	98.214971 
1118.000000	98.198546 
1117.000000	98.182583 
1116.000000	98.165303 
1115.000000	98.146337 
1114.000000	98.126328 
1113.000000	98.105375 
1112.000000	98.083277 
1111.000000	98.061198 
1110.000000	98.041739 
1109.000000	98.026507 
1108.000000	98.014088 
1107.000000	98.000819 
1106.000000	97.984244 
1105.000000	97.965467 
1104.000000	97.947272 
1103.000000	97.930353 
1102.000000	97.913181 
1101.000000	97.895740 
1100.000000	97.881588 
1099.000000	97.872908 
1098.000000	97.867350 
1097.000000	97.860840 
1096.000000	97.852357 
1095.000000	97.842758 
1094.000000	97.830285 
1093.000000	97.811386 
1092.000000	97.786108 
1091.000000	97.758801 
1090.000000	97.732240 
1089.000000	97.704215 
1088.000000	97.671717 
1087.000000	97.635947 
1086.000000	97.601240 
1085.000000	97.570831 
1084.000000	97.545274 
1083.000000	97.523167 
1082.000000	97.501684 
1081.000000	97.477821 
1080.000000	97.450766 
1079.000000	97.422424 
1078.000000	97.395231 
1077.000000	97.370818 
1076.000000	97.350981 
1075.000000	97.337658 
1074.000000	97.330885 
1073.000000	97.328141 
1072.000000	97.325370 
1071.000000	97.316207 
1070.000000	97.291442 
1069.000000	97.245080 
1068.000000	97.184064 
1067.000000	97.128436 
1066.000000	97.097025 
1065.000000	97.092674 
1064.000000	97.102551 
1063.000000	97.109890 
1062.000000	97.103096 
1061.000000	97.077692 
1060.000000	97.036413 
1059.000000	96.989199 
1058.000000	96.948755 
1057.000000	96.921934 
1056.000000	96.904964 
1055.000000	96.887624 
1054.000000	96.862236 
1053.000000	96.829300 
1052.000000	96.795303 
1051.000000	96.765509 
1050.000000	96.739448 
1049.000000	96.713948 
1048.000000	96.688924 
1047.000000	96.667541 
1046.000000	96.651067 
1045.000000	96.636436 
1044.000000	96.619806 
1043.000000	96.600882 
1042.000000	96.582745 
1041.000000	96.568230 
1040.000000	96.557418 
1039.000000	96.548677 
1038.000000	96.541799 
1037.000000	96.539684 
1036.000000	96.546091 
1035.000000	96.561530 
1034.000000	96.582193 
1033.000000	96.602708 
1032.000000	96.618037 
1031.000000	96.623137 
1030.000000	96.615480 
1029.000000	96.600886 
1028.000000	96.593453 
1027.000000	96.604709 
1026.000000	96.632734 
1025.000000	96.664727 
1024.000000	96.689210 
1023.000000	96.702827 
1022.000000	96.707587 
1021.000000	96.706981 
1020.000000	96.705486 
1019.000000	96.707317 
1018.000000	96.713176 
1017.000000	96.720167 
1016.000000	96.725982 
1015.000000	96.731378 
1014.000000	96.738121 
1013.000000	96.746498 
1012.000000	96.755466 
1011.000000	96.763616 
1010.000000	96.769957 
1009.000000	96.775388 
1008.000000	96.783110 
1007.000000	96.795622 
1006.000000	96.811726 
1005.000000	96.828536 
1004.000000	96.845619 
1003.000000	96.864422 
1002.000000	96.884346 
1001.000000	96.903003 
1000.000000	96.920490 
999.000000	 96.939691 
998.000000	 96.961236 
997.000000	 96.981431 
996.000000	 96.997132 
995.000000	 97.010477 
994.000000	 97.026792 
993.000000	 97.048803 
992.000000	 97.074070 
991.000000	 97.097324 
990.000000	 97.114855 
989.000000	 97.127520 
988.000000	 97.139685 
987.000000	 97.154627 
986.000000	 97.171690 
985.000000	 97.189257 
984.000000	 97.209106 
983.000000	 97.235016 
982.000000	 97.267389 
981.000000	 97.302219 
980.000000	 97.335607 
979.000000	 97.366580 
978.000000	 97.395272 
977.000000	 97.421724 
976.000000	 97.447761 
975.000000	 97.477158 
974.000000	 97.511820 
973.000000	 97.549453 
972.000000	 97.586481 
971.000000	 97.621503 
970.000000	 97.654470 
969.000000	 97.684567 
968.000000	 97.711266 
967.000000	 97.736422 
966.000000	 97.762784 
965.000000	 97.790433 
964.000000	 97.816491 
963.000000	 97.838544 
962.000000	 97.857030 
961.000000	 97.874124 
960.000000	 97.891618 
959.000000	 97.910338 
958.000000	 97.930390 
957.000000	 97.950992 
956.000000	 97.970688 
955.000000	 97.988693 
954.000000	 98.005935 
953.000000	 98.023911 
952.000000	 98.042256 
951.000000	 98.058146 
950.000000	 98.068827 
949.000000	 98.074631 
948.000000	 98.079037 
947.000000	 98.085851 
946.000000	 98.096545 
945.000000	 98.109892 
944.000000	 98.123283 
943.000000	 98.134198 
942.000000	 98.141338 
941.000000	 98.145113 
940.000000	 98.146970 
939.000000	 98.148250 
938.000000	 98.149982 
937.000000	 98.153255 
936.000000	 98.158396 
935.000000	 98.163456 
934.000000	 98.165146 
933.000000	 98.162662 
932.000000	 98.159637 
931.000000	 98.160754 
930.000000	 98.166821 
929.000000	 98.174718 
928.000000	 98.181880 
927.000000	 98.188848 
926.000000	 98.196871 
925.000000	 98.204767 
924.000000	 98.209471 
923.000000	 98.208974 
922.000000	 98.203765 
921.000000	 98.195969 
920.000000	 98.188231 
919.000000	 98.183272 
918.000000	 98.182972 
917.000000	 98.186861 
916.000000	 98.191797 
915.000000	 98.194016 
914.000000	 98.192145 
913.000000	 98.188399 
912.000000	 98.186676 
911.000000	 98.189295 
910.000000	 98.195309 
909.000000	 98.201840 
908.000000	 98.207025 
907.000000	 98.211648 
906.000000	 98.217917 
905.000000	 98.226811 
904.000000	 98.237296 
903.000000	 98.248657 
902.000000	 98.262787 
901.000000	 98.282484 
900.000000	 98.307336 
899.000000	 98.333136 
898.000000	 98.356098 
897.000000	 98.375553 
896.000000	 98.391046 
895.000000	 98.400003 
894.000000	 98.402097 
893.000000	 98.404073 
892.000000	 98.415014 
891.000000	 98.436081 
890.000000	 98.459202 
889.000000	 98.477561 
888.000000	 98.493249 
887.000000	 98.511597 
886.000000	 98.531367 
885.000000	 98.545190 
884.000000	 98.549040 
883.000000	 98.547553 
882.000000	 98.549211 
881.000000	 98.558392 
880.000000	 98.572982 
879.000000	 98.588075 
878.000000	 98.600565 
877.000000	 98.610229 
876.000000	 98.617194 
875.000000	 98.619791 
874.000000	 98.616367 
873.000000	 98.609116 
872.000000	 98.604401 
871.000000	 98.608080 
870.000000	 98.620461 
869.000000	 98.635857 
868.000000	 98.647080 
867.000000	 98.651349 
866.000000	 98.653140 
865.000000	 98.660553 
864.000000	 98.677406 
863.000000	 98.699364 
862.000000	 98.719058 
861.000000	 98.733579 
860.000000	 98.744712 
859.000000	 98.754013 
858.000000	 98.762241 
857.000000	 98.772842 
856.000000	 98.789855 
855.000000	 98.810349 
854.000000	 98.824195 
853.000000	 98.825021 
852.000000	 98.817851 
851.000000	 98.812496 
850.000000	 98.812619 
849.000000	 98.815293 
848.000000	 98.818352 
847.000000	 98.822713 
846.000000	 98.828382 
845.000000	 98.833407 
844.000000	 98.837535 
843.000000	 98.842825 
842.000000	 98.849173 
841.000000	 98.852361 
840.000000	 98.848750 
839.000000	 98.840406 
838.000000	 98.833559 
837.000000	 98.831987 
836.000000	 98.833107 
835.000000	 98.831486 
834.000000	 98.826022 
833.000000	 98.821640 
832.000000	 98.821684 
831.000000	 98.820477 
830.000000	 98.808898 
829.000000	 98.789027 
828.000000	 98.776904 
827.000000	 98.784758 
826.000000	 98.804078 
825.000000	 98.814566 
824.000000	 98.809013 
823.000000	 98.800231 
822.000000	 98.802165 
821.000000	 98.813393 
820.000000	 98.822680 
819.000000	 98.823151 
818.000000	 98.816774 
817.000000	 98.809259 
816.000000	 98.804037 
815.000000	 98.799408 
814.000000	 98.789676 
813.000000	 98.770708 
812.000000	 98.745392 
811.000000	 98.721604 
810.000000	 98.703476 
809.000000	 98.686457 
808.000000	 98.662047 
807.000000	 98.625145 
806.000000	 98.575700 
805.000000	 98.516164 
804.000000	 98.450850 
803.000000	 98.387066 
802.000000	 98.333242 
801.000000	 98.294453 
800.000000	 98.270347 
799.000000	 98.257468 
798.000000	 98.253377 
797.000000	 98.258757 
796.000000	 98.274992 
795.000000	 98.299298 
794.000000	 98.324260 
793.000000	 98.344052 
792.000000	 98.358844 
791.000000	 98.370036 
790.000000	 98.373646 
789.000000	 98.363971 
788.000000	 98.343697 
787.000000	 98.324384 
786.000000	 98.314290 
785.000000	 98.309623 
784.000000	 98.300867 
783.000000	 98.284557 
782.000000	 98.265729 
781.000000	 98.251498 
780.000000	 98.245571 
779.000000	 98.247090 
778.000000	 98.251655 
777.000000	 98.255026 
776.000000	 98.258417 
775.000000	 98.268444 
774.000000	 98.289203 
773.000000	 98.316222 
772.000000	 98.341084 
771.000000	 98.359812 
770.000000	 98.373064 
769.000000	 98.380256 
768.000000	 98.379376 
767.000000	 98.373288 
766.000000	 98.370356 
765.000000	 98.375274 
764.000000	 98.382656 
763.000000	 98.383363 
762.000000	 98.375583 
761.000000	 98.366437 
760.000000	 98.363516 
759.000000	 98.367890 
758.000000	 98.375088 
757.000000	 98.380178 
756.000000	 98.381438 
755.000000	 98.381600 
754.000000	 98.386520 
753.000000	 98.400413 
752.000000	 98.420990 
751.000000	 98.440133 
750.000000	 98.450405 
749.000000	 98.450449 
748.000000	 98.444242 
747.000000	 98.437637 
746.000000	 98.436530 
745.000000	 98.444651 
744.000000	 98.459153 
743.000000	 98.470046 
742.000000	 98.468776 
741.000000	 98.457908 
740.000000	 98.448975 
739.000000	 98.450481 
738.000000	 98.461040 
737.000000	 98.474364 
736.000000	 98.486642 
735.000000	 98.497635 
734.000000	 98.508851 
733.000000	 98.522980 
732.000000	 98.541391 
731.000000	 98.558955 
730.000000	 98.565173 
729.000000	 98.554900 
728.000000	 98.535962 
727.000000	 98.521854 
726.000000	 98.517838 
725.000000	 98.519181 
724.000000	 98.521856 
723.000000	 98.528473 
722.000000	 98.541905 
721.000000	 98.558006 
720.000000	 98.568118 
719.000000	 98.567232 
718.000000	 98.557659 
717.000000	 98.545952 
716.000000	 98.537737 
715.000000	 98.534134 
714.000000	 98.531639 
713.000000	 98.526384 
712.000000	 98.519315 
711.000000	 98.515932 
710.000000	 98.520454 
709.000000	 98.530847 
708.000000	 98.539588 
707.000000	 98.539168 
706.000000	 98.527489 
705.000000	 98.509898 
704.000000	 98.494925 
703.000000	 98.485516 
702.000000	 98.475844 
701.000000	 98.459278 
700.000000	 98.436519 
699.000000	 98.412477 
698.000000	 98.386682 
697.000000	 98.352876 
696.000000	 98.309844 
695.000000	 98.267276 
694.000000	 98.239401 
693.000000	 98.235146 
692.000000	 98.253616 
691.000000	 98.285089 
690.000000	 98.315442 
689.000000	 98.334741 
688.000000	 98.344231 
687.000000	 98.352069 
686.000000	 98.362276 
685.000000	 98.371652 
684.000000	 98.376269 
683.000000	 98.375683 
682.000000	 98.371394 
681.000000	 98.367601 
680.000000	 98.373383 
679.000000	 98.395959 
678.000000	 98.427676 
677.000000	 98.446688 
676.000000	 98.440922 
675.000000	 98.423335 
674.000000	 98.415018 
673.000000	 98.419933 
672.000000	 98.424103 
671.000000	 98.415784 
670.000000	 98.397573 
669.000000	 98.380546 
668.000000	 98.361301 
667.000000	 98.332671 
666.000000	 98.320097 
665.000000	 98.333531 
664.000000	 98.360022 
663.000000	 98.385862 
662.000000	 98.401668 
661.000000	 98.409497 
660.000000	 98.420145 
659.000000	 98.435574 
658.000000	 98.439326 
657.000000	 98.412986 
656.000000	 98.362930 
655.000000	 98.318735 
654.000000	 98.300403 
653.000000	 98.295959 
652.000000	 98.278973 
651.000000	 98.240682 
650.000000	 98.199144 

