4000.000000	99.851201 
3999.000000	99.851875 
3998.000000	99.852635 
3997.000000	99.853009 
3996.000000	99.852768 
3995.000000	99.852050 
3994.000000	99.851274 
3993.000000	99.850857 
3992.000000	99.850921 
3991.000000	99.851219 
3990.000000	99.851341 
3989.000000	99.851109 
3988.000000	99.850775 
3987.000000	99.850784 
3986.000000	99.851325 
3985.000000	99.852069 
3984.000000	99.852362 
3983.000000	99.851680 
3982.000000	99.849992 
3981.000000	99.847838 
3980.000000	99.845965 
3979.000000	99.844829 
3978.000000	99.844526 
3977.000000	99.845070 
3976.000000	99.846514 
3975.000000	99.848699 
3974.000000	99.851005 
3973.000000	99.852553 
3972.000000	99.852833 
3971.000000	99.852080 
3970.000000	99.851133 
3969.000000	99.850814 
3968.000000	99.851338 
3967.000000	99.852238 
3966.000000	99.852837 
3965.000000	99.852834 
3964.000000	99.852422 
3963.000000	99.851854 
3962.000000	99.851088 
3961.000000	99.849970 
3960.000000	99.848637 
3959.000000	99.847559 
3958.000000	99.847114 
3957.000000	99.847191 
3956.000000	99.847310 
3955.000000	99.847101 
3954.000000	99.846624 
3953.000000	99.846253 
3952.000000	99.846293 
3951.000000	99.846781 
3950.000000	99.847543 
3949.000000	99.848336 
3948.000000	99.848901 
3947.000000	99.848981 
3946.000000	99.848455 
3945.000000	99.847505 
3944.000000	99.846576 
3943.000000	99.846022 
3942.000000	99.845812 
3941.000000	99.845642 
3940.000000	99.845201 
3939.000000	99.844276 
3938.000000	99.842803 
3937.000000	99.841018 
3936.000000	99.839550 
3935.000000	99.839118 
3934.000000	99.840032 
3933.000000	99.841953 
3932.000000	99.844021 
3931.000000	99.845356 
3930.000000	99.845521 
3929.000000	99.844619 
3928.000000	99.843201 
3927.000000	99.842012 
3926.000000	99.841641 
3925.000000	99.842145 
3924.000000	99.842917 
3923.000000	99.843209 
3922.000000	99.842836 
3921.000000	99.842356 
3920.000000	99.842546 
3919.000000	99.843680 
3918.000000	99.845255 
3917.000000	99.846439 
3916.000000	99.846836 
3915.000000	99.846740 
3914.000000	99.846713 
3913.000000	99.847010 
3912.000000	99.847399 
3911.000000	99.847522 
3910.000000	99.847372 
3909.000000	99.847289 
3908.000000	99.847507 
3907.000000	99.847710 
3906.000000	99.847202 
3905.000000	99.845615 
3904.000000	99.843327 
3903.000000	99.841220 
3902.000000	99.840034 
3901.000000	99.840021 
3900.000000	99.841053 
3899.000000	99.842667 
3898.000000	99.844141 
3897.000000	99.844868 
3896.000000	99.844611 
3895.000000	99.843468 
3894.000000	99.841723 
3893.000000	99.839719 
3892.000000	99.837855 
3891.000000	99.836521 
3890.000000	99.836005 
3889.000000	99.836357 
3888.000000	99.837243 
3887.000000	99.838107 
3886.000000	99.838600 
3885.000000	99.838772 
3884.000000	99.838838 
3883.000000	99.838994 
3882.000000	99.839431 
3881.000000	99.840296 
3880.000000	99.841431 
3879.000000	99.842260 
3878.000000	99.842363 
3877.000000	99.841888 
3876.000000	99.841448 
3875.000000	99.841613 
3874.000000	99.842403 
3873.000000	99.843278 
3872.000000	99.843741 
3871.000000	99.843774 
3870.000000	99.843704 
3869.000000	99.843885 
3868.000000	99.844564 
3867.000000	99.845811 
3866.000000	99.847380 
3865.000000	99.848647 
3864.000000	99.848909 
3863.000000	99.848046 
3862.000000	99.846693 
3861.000000	99.845629 
3860.000000	99.845133 
3859.000000	99.844995 
3858.000000	99.844913 
3857.000000	99.844811 
3856.000000	99.844836 
3855.000000	99.845261 
3854.000000	99.846170 
3853.000000	99.847115 
3852.000000	99.847638 
3851.000000	99.847892 
3850.000000	99.848195 
3849.000000	99.848601 
3848.000000	99.848932 
3847.000000	99.848997 
3846.000000	99.848782 
3845.000000	99.848467 
3844.000000	99.848315 
3843.000000	99.848506 
3842.000000	99.848972 
3841.000000	99.849437 
3840.000000	99.849637 
3839.000000	99.849482 
3838.000000	99.849064 
3837.000000	99.848593 
3836.000000	99.848307 
3835.000000	99.848398 
3834.000000	99.848947 
3833.000000	99.849888 
3832.000000	99.851022 
3831.000000	99.852068 
3830.000000	99.852754 
3829.000000	99.852845 
3828.000000	99.852191 
3827.000000	99.850881 
3826.000000	99.849374 
3825.000000	99.848318 
3824.000000	99.848169 
3823.000000	99.848980 
3822.000000	99.850329 
3821.000000	99.851471 
3820.000000	99.852005 
3819.000000	99.852265 
3818.000000	99.852751 
3817.000000	99.853438 
3816.000000	99.853672 
3815.000000	99.852822 
3814.000000	99.850977 
3813.000000	99.848915 
3812.000000	99.847450 
3811.000000	99.846898 
3810.000000	99.847061 
3809.000000	99.847533 
3808.000000	99.848042 
3807.000000	99.848496 
3806.000000	99.848802 
3805.000000	99.848916 
3804.000000	99.848988 
3803.000000	99.849281 
3802.000000	99.849809 
3801.000000	99.850073 
3800.000000	99.849539 
3799.000000	99.848248 
3798.000000	99.846664 
3797.000000	99.845192 
3796.000000	99.843900 
3795.000000	99.842622 
3794.000000	99.841259 
3793.000000	99.839963 
3792.000000	99.839077 
3791.000000	99.838915 
3790.000000	99.839566 
3789.000000	99.840781 
3788.000000	99.842014 
3787.000000	99.842643 
3786.000000	99.842338 
3785.000000	99.841356 
3784.000000	99.840431 
3783.000000	99.840260 
3782.000000	99.841076 
3781.000000	99.842599 
3780.000000	99.844160 
3779.000000	99.844964 
3778.000000	99.844541 
3777.000000	99.843069 
3776.000000	99.841284 
3775.000000	99.840010 
3774.000000	99.839646 
3773.000000	99.840006 
3772.000000	99.840614 
3771.000000	99.841144 
3770.000000	99.841480 
3769.000000	99.841509 
3768.000000	99.841178 
3767.000000	99.840694 
3766.000000	99.840469 
3765.000000	99.840770 
3764.000000	99.841391 
3763.000000	99.841719 
3762.000000	99.841121 
3761.000000	99.839403 
3760.000000	99.837158 
3759.000000	99.835633 
3758.000000	99.835871 
3757.000000	99.837858 
3756.000000	99.840549 
3755.000000	99.842713 
3754.000000	99.843837 
3753.000000	99.844525 
3752.000000	99.845946 
3751.000000	99.848359 
3750.000000	99.850722 
3749.000000	99.852326 
3748.000000	99.853485 
3747.000000	99.854404 
3746.000000	99.854578 
3745.000000	99.853477 
3744.000000	99.851358 
3743.000000	99.849145 
3742.000000	99.847516 
3741.000000	99.846309 
3740.000000	99.844713 
3739.000000	99.841973 
3738.000000	99.838434 
3737.000000	99.835724 
3736.000000	99.835131 
3735.000000	99.835856 
3734.000000	99.835821 
3733.000000	99.834335 
3732.000000	99.832602 
3731.000000	99.831916 
3730.000000	99.832500 
3729.000000	99.833841 
3728.000000	99.835392 
3727.000000	99.836674 
3726.000000	99.837135 
3725.000000	99.836482 
3724.000000	99.835128 
3723.000000	99.834006 
3722.000000	99.833693 
3721.000000	99.833974 
3720.000000	99.834137 
3719.000000	99.833594 
3718.000000	99.832331 
3717.000000	99.830788 
3716.000000	99.829403 
3715.000000	99.828342 
3714.000000	99.827540 
3713.000000	99.826949 
3712.000000	99.826561 
3711.000000	99.826236 
3710.000000	99.825639 
3709.000000	99.824451 
3708.000000	99.822649 
3707.000000	99.820544 
3706.000000	99.818622 
3705.000000	99.817300 
3704.000000	99.816712 
3703.000000	99.816609 
3702.000000	99.816396 
3701.000000	99.815551 
3700.000000	99.814045 
3699.000000	99.812290 
3698.000000	99.810715 
3697.000000	99.809446 
3696.000000	99.808356 
3695.000000	99.807336 
3694.000000	99.806453 
3693.000000	99.805818 
3692.000000	99.805331 
3691.000000	99.804661 
3690.000000	99.803540 
3689.000000	99.802036 
3688.000000	99.800441 
3687.000000	99.798927 
3686.000000	99.797509 
3685.000000	99.796264 
3684.000000	99.795338 
3683.000000	99.794726 
3682.000000	99.794151 
3681.000000	99.793233 
3680.000000	99.791799 
3679.000000	99.790007 
3678.000000	99.788290 
3677.000000	99.787278 
3676.000000	99.787430 
3675.000000	99.788346 
3674.000000	99.788945 
3673.000000	99.788663 
3672.000000	99.787767 
3671.000000	99.787012 
3670.000000	99.786980 
3669.000000	99.787460 
3668.000000	99.787823 
3667.000000	99.787856 
3666.000000	99.787819 
3665.000000	99.787998 
3664.000000	99.788403 
3663.000000	99.788800 
3662.000000	99.788945 
3661.000000	99.788783 
3660.000000	99.788473 
3659.000000	99.788303 
3658.000000	99.788559 
3657.000000	99.789335 
3656.000000	99.790395 
3655.000000	99.791331 
3654.000000	99.791912 
3653.000000	99.792166 
3652.000000	99.792236 
3651.000000	99.792333 
3650.000000	99.792694 
3649.000000	99.793423 
3648.000000	99.794392 
3647.000000	99.795357 
3646.000000	99.796177 
3645.000000	99.796861 
3644.000000	99.797499 
3643.000000	99.798187 
3642.000000	99.798982 
3641.000000	99.799873 
3640.000000	99.800784 
3639.000000	99.801621 
3638.000000	99.802344 
3637.000000	99.803004 
3636.000000	99.803693 
3635.000000	99.804446 
3634.000000	99.805203 
3633.000000	99.805874 
3632.000000	99.806434 
3631.000000	99.806977 
3630.000000	99.807681 
3629.000000	99.808596 
3628.000000	99.809486 
3627.000000	99.810114 
3626.000000	99.810513 
3625.000000	99.810860 
3624.000000	99.811262 
3623.000000	99.811720 
3622.000000	99.812221 
3621.000000	99.812819 
3620.000000	99.813554 
3619.000000	99.814306 
3618.000000	99.814869 
3617.000000	99.815233 
3616.000000	99.815600 
3615.000000	99.816126 
3614.000000	99.816684 
3613.000000	99.816941 
3612.000000	99.816759 
3611.000000	99.816479 
3610.000000	99.816609 
3609.000000	99.817154 
3608.000000	99.817438 
3607.000000	99.816860 
3606.000000	99.815773 
3605.000000	99.815204 
3604.000000	99.815802 
3603.000000	99.817372 
3602.000000	99.819192 
3601.000000	99.820804 
3600.000000	99.822266 
3599.000000	99.823653 
3598.000000	99.824713 
3597.000000	99.825124 
3596.000000	99.824946 
3595.000000	99.824801 
3594.000000	99.825272 
3593.000000	99.826239 
3592.000000	99.827016 
3591.000000	99.827032 
3590.000000	99.826423 
3589.000000	99.826021 
3588.000000	99.826471 
3587.000000	99.827152 
3586.000000	99.826900 
3585.000000	99.825593 
3584.000000	99.824172 
3583.000000	99.823395 
3582.000000	99.823096 
3581.000000	99.822605 
3580.000000	99.821607 
3579.000000	99.820516 
3578.000000	99.820038 
3577.000000	99.820559 
3576.000000	99.821935 
3575.000000	99.823650 
3574.000000	99.825122 
3573.000000	99.825987 
3572.000000	99.826316 
3571.000000	99.826518 
3570.000000	99.826922 
3569.000000	99.827458 
3568.000000	99.827764 
3567.000000	99.827558 
3566.000000	99.826990 
3565.000000	99.826616 
3564.000000	99.826935 
3563.000000	99.827997 
3562.000000	99.829419 
3561.000000	99.830609 
3560.000000	99.831162 
3559.000000	99.831105 
3558.000000	99.830849 
3557.000000	99.830861 
3556.000000	99.831298 
3555.000000	99.831900 
3554.000000	99.832230 
3553.000000	99.832036 
3552.000000	99.831437 
3551.000000	99.830838 
3550.000000	99.830596 
3549.000000	99.830766 
3548.000000	99.831164 
3547.000000	99.831571 
3546.000000	99.831857 
3545.000000	99.831957 
3544.000000	99.831868 
3543.000000	99.831774 
3542.000000	99.832008 
3541.000000	99.832739 
3540.000000	99.833790 
3539.000000	99.834733 
3538.000000	99.835290 
3537.000000	99.835545 
3536.000000	99.835729 
3535.000000	99.835945 
3534.000000	99.836123 
3533.000000	99.836215 
3532.000000	99.836306 
3531.000000	99.836541 
3530.000000	99.836940 
3529.000000	99.837340 
3528.000000	99.837533 
3527.000000	99.837481 
3526.000000	99.837321 
3525.000000	99.837212 
3524.000000	99.837187 
3523.000000	99.837168 
3522.000000	99.837084 
3521.000000	99.836958 
3520.000000	99.836876 
3519.000000	99.836902 
3518.000000	99.837027 
3517.000000	99.837179 
3516.000000	99.837275 
3515.000000	99.837280 
3514.000000	99.837211 
3513.000000	99.837112 
3512.000000	99.837022 
3511.000000	99.836959 
3510.000000	99.836934 
3509.000000	99.836954 
3508.000000	99.837011 
3507.000000	99.837084 
3506.000000	99.837150 
3505.000000	99.837197 
3504.000000	99.837229 
3503.000000	99.837257 
3502.000000	99.837291 
3501.000000	99.837340 
3500.000000	99.837403 
3499.000000	99.837477 
3498.000000	99.837556 
3497.000000	99.837629 
3496.000000	99.837696 
3495.000000	99.837756 
3494.000000	99.837819 
3493.000000	99.837898 
3492.000000	99.838000 
3491.000000	99.838131 
3490.000000	99.838296 
3489.000000	99.838496 
3488.000000	99.838728 
3487.000000	99.838978 
3486.000000	99.839232 
3485.000000	99.839489 
3484.000000	99.839759 
3483.000000	99.840059 
3482.000000	99.840390 
3481.000000	99.840746 
3480.000000	99.841120 
3479.000000	99.841510 
3478.000000	99.841894 
3477.000000	99.842217 
3476.000000	99.842439 
3475.000000	99.842610 
3474.000000	99.842875 
3473.000000	99.843323 
3472.000000	99.843852 
3471.000000	99.844248 
3470.000000	99.844446 
3469.000000	99.844634 
3468.000000	99.845051 
3467.000000	99.845681 
3466.000000	99.846244 
3465.000000	99.846560 
3464.000000	99.846793 
3463.000000	99.847244 
3462.000000	99.847961 
3461.000000	99.848680 
3460.000000	99.849187 
3459.000000	99.849622 
3458.000000	99.850268 
3457.000000	99.851108 
3456.000000	99.851732 
3455.000000	99.851771 
3454.000000	99.851304 
3453.000000	99.850853 
3452.000000	99.850884 
3451.000000	99.851426 
3450.000000	99.852132 
3449.000000	99.852603 
3448.000000	99.852650 
3447.000000	99.852321 
3446.000000	99.851805 
3445.000000	99.851357 
3444.000000	99.851207 
3443.000000	99.851413 
3442.000000	99.851723 
3441.000000	99.851689 
3440.000000	99.851041 
3439.000000	99.849931 
3438.000000	99.848773 
3437.000000	99.847844 
3436.000000	99.847167 
3435.000000	99.846784 
3434.000000	99.846931 
3433.000000	99.847817 
3432.000000	99.849250 
3431.000000	99.850609 
3430.000000	99.851302 
3429.000000	99.851244 
3428.000000	99.850890 
3427.000000	99.850781 
3426.000000	99.850966 
3425.000000	99.850895 
3424.000000	99.849967 
3423.000000	99.848151 
3422.000000	99.846130 
3421.000000	99.844802 
3420.000000	99.844636 
3419.000000	99.845525 
3418.000000	99.846978 
3417.000000	99.848376 
3416.000000	99.849217 
3415.000000	99.849333 
3414.000000	99.848959 
3413.000000	99.848523 
3412.000000	99.848322 
3411.000000	99.848393 
3410.000000	99.848598 
3409.000000	99.848685 
3408.000000	99.848321 
3407.000000	99.847294 
3406.000000	99.845787 
3405.000000	99.844414 
3404.000000	99.843810 
3403.000000	99.844195 
3402.000000	99.845334 
3401.000000	99.846869 
3400.000000	99.848577 
3399.000000	99.850301 
3398.000000	99.851738 
3397.000000	99.852511 
3396.000000	99.852473 
3395.000000	99.851850 
3394.000000	99.850979 
3393.000000	99.849970 
3392.000000	99.848793 
3391.000000	99.847655 
3390.000000	99.847085 
3389.000000	99.847505 
3388.000000	99.848834 
3387.000000	99.850504 
3386.000000	99.851867 
3385.000000	99.852620 
3384.000000	99.852830 
3383.000000	99.852731 
3382.000000	99.852464 
3381.000000	99.851997 
3380.000000	99.851321 
3379.000000	99.850650 
3378.000000	99.850295 
3377.000000	99.850342 
3376.000000	99.850539 
3375.000000	99.850596 
3374.000000	99.850489 
3373.000000	99.850402 
3372.000000	99.850445 
3371.000000	99.850531 
3370.000000	99.850520 
3369.000000	99.850368 
3368.000000	99.850142 
3367.000000	99.849936 
3366.000000	99.849812 
3365.000000	99.849756 
3364.000000	99.849707 
3363.000000	99.849610 
3362.000000	99.849456 
3361.000000	99.849264 
3360.000000	99.849052 
3359.000000	99.848827 
3358.000000	99.848597 
3357.000000	99.848366 
3356.000000	99.848138 
3355.000000	99.847915 
3354.000000	99.847695 
3353.000000	99.847473 
3352.000000	99.847252 
3351.000000	99.847034 
3350.000000	99.846821 
3349.000000	99.846614 
3348.000000	99.846409 
3347.000000	99.846199 
3346.000000	99.845976 
3345.000000	99.845740 
3344.000000	99.845496 
3343.000000	99.845254 
3342.000000	99.845025 
3341.000000	99.844813 
3340.000000	99.844616 
3339.000000	99.844430 
3338.000000	99.844250 
3337.000000	99.844069 
3336.000000	99.843893 
3335.000000	99.843740 
3334.000000	99.843613 
3333.000000	99.843483 
3332.000000	99.843338 
3331.000000	99.843206 
3330.000000	99.843104 
3329.000000	99.842972 
3328.000000	99.842704 
3327.000000	99.842260 
3326.000000	99.841740 
3325.000000	99.841297 
3324.000000	99.841000 
3323.000000	99.840811 
3322.000000	99.840682 
3321.000000	99.840613 
3320.000000	99.840602 
3319.000000	99.840612 
3318.000000	99.840648 
3317.000000	99.840761 
3316.000000	99.840928 
3315.000000	99.840972 
3314.000000	99.840724 
3313.000000	99.840257 
3312.000000	99.839853 
3311.000000	99.839694 
3310.000000	99.839670 
3309.000000	99.839536 
3308.000000	99.839224 
3307.000000	99.838894 
3306.000000	99.838748 
3305.000000	99.838853 
3304.000000	99.839145 
3303.000000	99.839473 
3302.000000	99.839623 
3301.000000	99.839410 
3300.000000	99.838817 
3299.000000	99.838021 
3298.000000	99.837294 
3297.000000	99.836822 
3296.000000	99.836599 
3295.000000	99.836444 
3294.000000	99.836142 
3293.000000	99.835628 
3292.000000	99.835066 
3291.000000	99.834689 
3290.000000	99.834558 
3289.000000	99.834501 
3288.000000	99.834293 
3287.000000	99.833862 
3286.000000	99.833295 
3285.000000	99.832705 
3284.000000	99.832132 
3283.000000	99.831572 
3282.000000	99.831059 
3281.000000	99.830670 
3280.000000	99.830474 
3279.000000	99.830457 
3278.000000	99.830512 
3277.000000	99.830481 
3276.000000	99.830244 
3275.000000	99.829776 
3274.000000	99.829162 
3273.000000	99.828543 
3272.000000	99.828049 
3271.000000	99.827731 
3270.000000	99.827548 
3269.000000	99.827404 
3268.000000	99.827205 
3267.000000	99.826892 
3266.000000	99.826442 
3265.000000	99.825896 
3264.000000	99.825403 
3263.000000	99.825169 
3262.000000	99.825299 
3261.000000	99.825689 
3260.000000	99.826088 
3259.000000	99.826257 
3258.000000	99.826090 
3257.000000	99.825618 
3256.000000	99.824970 
3255.000000	99.824327 
3254.000000	99.823848 
3253.000000	99.823607 
3252.000000	99.823597 
3251.000000	99.823768 
3250.000000	99.824031 
3249.000000	99.824279 
3248.000000	99.824435 
3247.000000	99.824482 
3246.000000	99.824434 
3245.000000	99.824301 
3244.000000	99.824127 
3243.000000	99.824014 
3242.000000	99.824038 
3241.000000	99.824151 
3240.000000	99.824233 
3239.000000	99.824265 
3238.000000	99.824383 
3237.000000	99.824733 
3236.000000	99.825288 
3235.000000	99.825813 
3234.000000	99.826032 
3233.000000	99.825843 
3232.000000	99.825392 
3231.000000	99.824959 
3230.000000	99.824734 
3229.000000	99.824699 
3228.000000	99.824697 
3227.000000	99.824587 
3226.000000	99.824353 
3225.000000	99.824098 
3224.000000	99.823947 
3223.000000	99.823945 
3222.000000	99.824021 
3221.000000	99.824041 
3220.000000	99.823914 
3219.000000	99.823663 
3218.000000	99.823402 
3217.000000	99.823245 
3216.000000	99.823237 
3215.000000	99.823348 
3214.000000	99.823486 
3213.000000	99.823535 
3212.000000	99.823416 
3211.000000	99.823135 
3210.000000	99.822772 
3209.000000	99.822411 
3208.000000	99.822093 
3207.000000	99.821838 
3206.000000	99.821647 
3205.000000	99.821487 
3204.000000	99.821297 
3203.000000	99.821047 
3202.000000	99.820777 
3201.000000	99.820559 
3200.000000	99.820424 
3199.000000	99.820337 
3198.000000	99.820229 
3197.000000	99.820051 
3196.000000	99.819810 
3195.000000	99.819560 
3194.000000	99.819359 
3193.000000	99.819196 
3192.000000	99.818989 
3191.000000	99.818637 
3190.000000	99.818109 
3189.000000	99.817499 
3188.000000	99.816964 
3187.000000	99.816587 
3186.000000	99.816339 
3185.000000	99.816161 
3184.000000	99.816020 
3183.000000	99.815882 
3182.000000	99.815705 
3181.000000	99.815498 
3180.000000	99.815372 
3179.000000	99.815492 
3178.000000	99.815873 
3177.000000	99.816210 
3176.000000	99.816049 
3175.000000	99.815250 
3174.000000	99.814211 
3173.000000	99.813506 
3172.000000	99.813266 
3171.000000	99.813154 
3170.000000	99.812900 
3169.000000	99.812574 
3168.000000	99.812272 
3167.000000	99.811866 
3166.000000	99.811296 
3165.000000	99.810861 
3164.000000	99.810871 
3163.000000	99.811148 
3162.000000	99.811220 
3161.000000	99.811021 
3160.000000	99.811042 
3159.000000	99.811626 
3158.000000	99.812317 
3157.000000	99.812175 
3156.000000	99.810683 
3155.000000	99.808172 
3154.000000	99.805492 
3153.000000	99.803287 
3152.000000	99.801675 
3151.000000	99.800590 
3150.000000	99.800176 
3149.000000	99.800661 
3148.000000	99.801878 
3147.000000	99.803147 
3146.000000	99.803859 
3145.000000	99.804008 
3144.000000	99.804018 
3143.000000	99.804188 
3142.000000	99.804501 
3141.000000	99.804901 
3140.000000	99.805434 
3139.000000	99.806012 
3138.000000	99.806260 
3137.000000	99.805893 
3136.000000	99.805164 
3135.000000	99.804693 
3134.000000	99.804810 
3133.000000	99.805218 
3132.000000	99.805376 
3131.000000	99.805083 
3130.000000	99.804573 
3129.000000	99.804195 
3128.000000	99.804173 
3127.000000	99.804611 
3126.000000	99.805468 
3125.000000	99.806435 
3124.000000	99.807007 
3123.000000	99.806857 
3122.000000	99.806111 
3121.000000	99.805195 
3120.000000	99.804427 
3119.000000	99.803820 
3118.000000	99.803291 
3117.000000	99.802941 
3116.000000	99.803057 
3115.000000	99.803827 
3114.000000	99.805068 
3113.000000	99.806216 
3112.000000	99.806713 
3111.000000	99.806437 
3110.000000	99.805738 
3109.000000	99.805057 
3108.000000	99.804469 
3107.000000	99.803689 
3106.000000	99.802528 
3105.000000	99.801262 
3104.000000	99.800489 
3103.000000	99.800567 
3102.000000	99.801326 
3101.000000	99.802315 
3100.000000	99.803300 
3099.000000	99.804433 
3098.000000	99.805851 
3097.000000	99.807204 
3096.000000	99.807796 
3095.000000	99.807265 
3094.000000	99.805978 
3093.000000	99.804661 
3092.000000	99.803684 
3091.000000	99.802879 
3090.000000	99.802005 
3089.000000	99.801173 
3088.000000	99.800727 
3087.000000	99.800832 
3086.000000	99.801291 
3085.000000	99.801731 
3084.000000	99.801864 
3083.000000	99.801602 
3082.000000	99.801053 
3081.000000	99.800458 
3080.000000	99.800089 
3079.000000	99.800132 
3078.000000	99.800637 
3077.000000	99.801535 
3076.000000	99.802639 
3075.000000	99.803662 
3074.000000	99.804314 
3073.000000	99.804439 
3072.000000	99.804003 
3071.000000	99.802963 
3070.000000	99.801284 
3069.000000	99.799172 
3068.000000	99.797200 
3067.000000	99.796044 
3066.000000	99.796067 
3065.000000	99.797159 
3064.000000	99.798766 
3063.000000	99.800045 
3062.000000	99.800158 
3061.000000	99.798733 
3060.000000	99.796210 
3059.000000	99.793652 
3058.000000	99.791952 
3057.000000	99.791321 
3056.000000	99.791509 
3055.000000	99.792215 
3054.000000	99.793102 
3053.000000	99.793636 
3052.000000	99.793323 
3051.000000	99.792196 
3050.000000	99.790857 
3049.000000	99.789971 
3048.000000	99.789761 
3047.000000	99.789856 
3046.000000	99.789420 
3045.000000	99.787560 
3044.000000	99.784046 
3043.000000	99.779873 
3042.000000	99.776825 
3041.000000	99.776115 
3040.000000	99.777452 
3039.000000	99.779380 
3038.000000	99.780440 
3037.000000	99.779935 
3036.000000	99.777787 
3035.000000	99.774176 
3034.000000	99.769553 
3033.000000	99.764785 
3032.000000	99.760851 
3031.000000	99.758133 
3030.000000	99.756054 
3029.000000	99.753734 
3028.000000	99.751156 
3027.000000	99.749447 
3026.000000	99.749620 
3025.000000	99.750983 
3024.000000	99.751248 
3023.000000	99.748531 
3022.000000	99.742982 
3021.000000	99.736300 
3020.000000	99.729931 
3019.000000	99.724074 
3018.000000	99.718438 
3017.000000	99.713257 
3016.000000	99.709033 
3015.000000	99.705561 
3014.000000	99.701962 
3013.000000	99.697922 
3012.000000	99.694304 
3011.000000	99.691953 
3010.000000	99.690262 
3009.000000	99.687754 
3008.000000	99.683963 
3007.000000	99.679866 
3006.000000	99.676187 
3005.000000	99.672272 
3004.000000	99.667345 
3003.000000	99.662163 
3002.000000	99.658290 
3001.000000	99.655928 
3000.000000	99.653549 
2999.000000	99.649868 
2998.000000	99.645371 
2997.000000	99.641514 
2996.000000	99.638990 
2995.000000	99.637089 
2994.000000	99.634347 
2993.000000	99.629503 
2992.000000	99.622270 
2991.000000	99.613626 
2990.000000	99.605338 
2989.000000	99.599061 
2988.000000	99.595838 
2987.000000	99.596145 
2986.000000	99.599734 
2985.000000	99.605284 
2984.000000	99.610721 
2983.000000	99.614406 
2982.000000	99.615929 
2981.000000	99.615863 
2980.000000	99.615245 
2979.000000	99.615346 
2978.000000	99.617065 
2977.000000	99.619763 
2976.000000	99.621125 
2975.000000	99.619150 
2974.000000	99.614476 
2973.000000	99.610197 
2972.000000	99.609166 
2971.000000	99.611815 
2970.000000	99.616549 
2969.000000	99.621588 
2968.000000	99.626131 
2967.000000	99.630198 
2966.000000	99.634100 
2965.000000	99.638243 
2964.000000	99.642977 
2963.000000	99.648277 
2962.000000	99.653598 
2961.000000	99.658157 
2960.000000	99.661310 
2959.000000	99.662735 
2958.000000	99.662568 
2957.000000	99.661588 
2956.000000	99.661009 
2955.000000	99.661793 
2954.000000	99.664149 
2953.000000	99.667829 
2952.000000	99.672568 
2951.000000	99.677867 
2950.000000	99.682553 
2949.000000	99.685286 
2948.000000	99.685755 
2947.000000	99.685082 
2946.000000	99.684880 
2945.000000	99.686181 
2944.000000	99.689223 
2943.000000	99.693555 
2942.000000	99.697969 
2941.000000	99.700934 
2940.000000	99.701838 
2939.000000	99.701771 
2938.000000	99.702695 
2937.000000	99.705960 
2936.000000	99.711811 
2935.000000	99.719714 
2934.000000	99.728329 
2933.000000	99.735408 
2932.000000	99.738831 
2931.000000	99.738250 
2930.000000	99.735492 
2929.000000	99.733219 
2928.000000	99.733010 
2927.000000	99.734347 
2926.000000	99.735100 
2925.000000	99.733325 
2924.000000	99.729068 
2923.000000	99.724323 
2922.000000	99.720750 
2921.000000	99.717720 
2920.000000	99.713356 
2919.000000	99.707108 
2918.000000	99.700384 
2917.000000	99.694593 
2916.000000	99.689608 
2915.000000	99.684573 
2914.000000	99.679474 
2913.000000	99.675237 
2912.000000	99.672625 
2911.000000	99.671585 
2910.000000	99.671451 
2909.000000	99.671412 
2908.000000	99.670865 
2907.000000	99.669644 
2906.000000	99.667890 
2905.000000	99.665560 
2904.000000	99.662198 
2903.000000	99.657476 
2902.000000	99.652039 
2901.000000	99.647837 
2900.000000	99.646968 
2899.000000	99.650125 
2898.000000	99.655560 
2897.000000	99.659965 
2896.000000	99.661118 
2895.000000	99.659834 
2894.000000	99.659008 
2893.000000	99.660690 
2892.000000	99.664390 
2891.000000	99.668001 
2890.000000	99.669863 
2889.000000	99.669776 
2888.000000	99.668541 
2887.000000	99.667083 
2886.000000	99.666008 
2885.000000	99.665592 
2884.000000	99.665990 
2883.000000	99.667423 
2882.000000	99.670157 
2881.000000	99.674238 
2880.000000	99.679162 
2879.000000	99.683803 
2878.000000	99.686949 
2877.000000	99.688474 
2876.000000	99.689948 
2875.000000	99.693454 
2874.000000	99.699342 
2873.000000	99.705502 
2872.000000	99.709322 
2871.000000	99.710185 
2870.000000	99.709616 
2869.000000	99.709578 
2868.000000	99.711183 
2867.000000	99.714654 
2866.000000	99.719381 
2865.000000	99.723912 
2864.000000	99.726934 
2863.000000	99.728679 
2862.000000	99.730689 
2861.000000	99.733882 
2860.000000	99.737582 
2859.000000	99.740842 
2858.000000	99.743807 
2857.000000	99.747072 
2856.000000	99.750357 
2855.000000	99.752732 
2854.000000	99.753887 
2853.000000	99.754444 
2852.000000	99.755128 
2851.000000	99.756199 
2850.000000	99.757693 
2849.000000	99.759566 
2848.000000	99.761364 
2847.000000	99.762281 
2846.000000	99.761880 
2845.000000	99.760551 
2844.000000	99.759044 
2843.000000	99.757685 
2842.000000	99.756305 
2841.000000	99.754962 
2840.000000	99.754414 
2839.000000	99.755565 
2838.000000	99.758401 
2837.000000	99.761663 
2836.000000	99.763805 
2835.000000	99.764280 
2834.000000	99.763776 
2833.000000	99.763364 
2832.000000	99.763549 
2831.000000	99.764042 
2830.000000	99.764174 
2829.000000	99.763602 
2828.000000	99.762817 
2827.000000	99.762869 
2826.000000	99.764366 
2825.000000	99.766739 
2824.000000	99.768663 
2823.000000	99.769269 
2822.000000	99.768728 
2821.000000	99.767841 
2820.000000	99.767369 
2819.000000	99.767637 
2818.000000	99.768449 
2817.000000	99.769223 
2816.000000	99.769467 
2815.000000	99.769205 
2814.000000	99.768843 
2813.000000	99.768689 
2812.000000	99.768766 
2811.000000	99.769023 
2810.000000	99.769470 
2809.000000	99.770074 
2808.000000	99.770674 
2807.000000	99.771093 
2806.000000	99.771255 
2805.000000	99.771182 
2804.000000	99.770948 
2803.000000	99.770686 
2802.000000	99.770552 
2801.000000	99.770597 
2800.000000	99.770728 
2799.000000	99.770833 
2798.000000	99.770930 
2797.000000	99.771053 
2796.000000	99.771082 
2795.000000	99.770870 
2794.000000	99.770472 
2793.000000	99.770096 
2792.000000	99.769846 
2791.000000	99.769678 
2790.000000	99.769591 
2789.000000	99.769704 
2788.000000	99.770086 
2787.000000	99.770645 
2786.000000	99.771180 
2785.000000	99.771495 
2784.000000	99.771462 
2783.000000	99.771083 
2782.000000	99.770474 
2781.000000	99.769747 
2780.000000	99.768980 
2779.000000	99.768329 
2778.000000	99.768049 
2777.000000	99.768275 
2776.000000	99.768836 
2775.000000	99.769408 
2774.000000	99.769826 
2773.000000	99.770102 
2772.000000	99.770261 
2771.000000	99.770348 
2770.000000	99.770490 
2769.000000	99.770736 
2768.000000	99.770875 
2767.000000	99.770652 
2766.000000	99.770148 
2765.000000	99.769726 
2764.000000	99.769550 
2763.000000	99.769374 
2762.000000	99.768924 
2761.000000	99.768285 
2760.000000	99.767790 
2759.000000	99.767627 
2758.000000	99.767741 
2757.000000	99.768050 
2756.000000	99.768535 
2755.000000	99.769075 
2754.000000	99.769382 
2753.000000	99.769244 
2752.000000	99.768750 
2751.000000	99.768244 
2750.000000	99.768016 
2749.000000	99.768086 
2748.000000	99.768280 
2747.000000	99.768435 
2746.000000	99.768521 
2745.000000	99.768585 
2744.000000	99.768630 
2743.000000	99.768584 
2742.000000	99.768391 
2741.000000	99.768127 
2740.000000	99.767987 
2739.000000	99.768136 
2738.000000	99.768594 
2737.000000	99.769268 
2736.000000	99.770040 
2735.000000	99.770754 
2734.000000	99.771180 
2733.000000	99.771129 
2732.000000	99.770636 
2731.000000	99.770013 
2730.000000	99.769607 
2729.000000	99.769493 
2728.000000	99.769510 
2727.000000	99.769527 
2726.000000	99.769614 
2725.000000	99.769899 
2724.000000	99.770383 
2723.000000	99.770954 
2722.000000	99.771538 
2721.000000	99.772125 
2720.000000	99.772675 
2719.000000	99.773043 
2718.000000	99.773081 
2717.000000	99.772792 
2716.000000	99.772365 
2715.000000	99.772072 
2714.000000	99.772090 
2713.000000	99.772406 
2712.000000	99.772860 
2711.000000	99.773272 
2710.000000	99.773587 
2709.000000	99.773909 
2708.000000	99.774360 
2707.000000	99.774880 
2706.000000	99.775208 
2705.000000	99.775150 
2704.000000	99.774823 
2703.000000	99.774595 
2702.000000	99.774731 
2701.000000	99.775185 
2700.000000	99.775748 
2699.000000	99.776292 
2698.000000	99.776827 
2697.000000	99.777337 
2696.000000	99.777685 
2695.000000	99.777744 
2694.000000	99.777537 
2693.000000	99.777227 
2692.000000	99.777005 
2691.000000	99.776939 
2690.000000	99.776929 
2689.000000	99.776839 
2688.000000	99.776679 
2687.000000	99.776587 
2686.000000	99.776655 
2685.000000	99.776812 
2684.000000	99.776934 
2683.000000	99.776968 
2682.000000	99.776942 
2681.000000	99.776880 
2680.000000	99.776782 
2679.000000	99.776661 
2678.000000	99.776571 
2677.000000	99.776566 
2676.000000	99.776653 
2675.000000	99.776786 
2674.000000	99.776904 
2673.000000	99.776961 
2672.000000	99.776950 
2671.000000	99.776894 
2670.000000	99.776832 
2669.000000	99.776793 
2668.000000	99.776777 
2667.000000	99.776773 
2666.000000	99.776768 
2665.000000	99.776748 
2664.000000	99.776706 
2663.000000	99.776645 
2662.000000	99.776576 
2661.000000	99.776518 
2660.000000	99.776475 
2659.000000	99.776444 
2658.000000	99.776421 
2657.000000	99.776409 
2656.000000	99.776414 
2655.000000	99.776442 
2654.000000	99.776483 
2653.000000	99.776528 
2652.000000	99.776576 
2651.000000	99.776652 
2650.000000	99.776783 
2649.000000	99.776975 
2648.000000	99.777182 
2647.000000	99.777345 
2646.000000	99.777457 
2645.000000	99.777579 
2644.000000	99.777787 
2643.000000	99.778071 
2642.000000	99.778337 
2641.000000	99.778494 
2640.000000	99.778536 
2639.000000	99.778547 
2638.000000	99.778617 
2637.000000	99.778785 
2636.000000	99.779024 
2635.000000	99.779247 
2634.000000	99.779352 
2633.000000	99.779269 
2632.000000	99.779057 
2631.000000	99.778945 
2630.000000	99.779205 
2629.000000	99.779874 
2628.000000	99.780645 
2627.000000	99.781163 
2626.000000	99.781418 
2625.000000	99.781692 
2624.000000	99.782104 
2623.000000	99.782396 
2622.000000	99.782286 
2621.000000	99.781883 
2620.000000	99.781606 
2619.000000	99.781730 
2618.000000	99.782223 
2617.000000	99.782911 
2616.000000	99.783639 
2615.000000	99.784299 
2614.000000	99.784930 
2613.000000	99.785777 
2612.000000	99.787000 
2611.000000	99.788276 
2610.000000	99.788942 
2609.000000	99.788673 
2608.000000	99.787853 
2607.000000	99.787218 
2606.000000	99.787213 
2605.000000	99.787877 
2604.000000	99.789127 
2603.000000	99.790752 
2602.000000	99.792217 
2601.000000	99.792892 
2600.000000	99.792726 
2599.000000	99.792361 
2598.000000	99.792330 
2597.000000	99.792351 
2596.000000	99.791753 
2595.000000	99.790372 
2594.000000	99.788797 
2593.000000	99.787792 
2592.000000	99.787589 
2591.000000	99.787930 
2590.000000	99.788465 
2589.000000	99.789022 
2588.000000	99.789559 
2587.000000	99.789986 
2586.000000	99.790157 
2585.000000	99.790032 
2584.000000	99.789774 
2583.000000	99.789611 
2582.000000	99.789621 
2581.000000	99.789697 
2580.000000	99.789729 
2579.000000	99.789722 
2578.000000	99.789713 
2577.000000	99.789673 
2576.000000	99.789545 
2575.000000	99.789341 
2574.000000	99.789151 
2573.000000	99.789029 
2572.000000	99.788935 
2571.000000	99.788798 
2570.000000	99.788587 
2569.000000	99.788321 
2568.000000	99.788034 
2567.000000	99.787746 
2566.000000	99.787456 
2565.000000	99.787155 
2564.000000	99.786845 
2563.000000	99.786532 
2562.000000	99.786225 
2561.000000	99.785934 
2560.000000	99.785659 
2559.000000	99.785397 
2558.000000	99.785138 
2557.000000	99.784878 
2556.000000	99.784620 
2555.000000	99.784371 
2554.000000	99.784133 
2553.000000	99.783897 
2552.000000	99.783646 
2551.000000	99.783371 
2550.000000	99.783069 
2549.000000	99.782752 
2548.000000	99.782433 
2547.000000	99.782124 
2546.000000	99.781830 
2545.000000	99.781549 
2544.000000	99.781271 
2543.000000	99.780985 
2542.000000	99.780684 
2541.000000	99.780362 
2540.000000	99.780022 
2539.000000	99.779676 
2538.000000	99.779340 
2537.000000	99.779029 
2536.000000	99.778750 
2535.000000	99.778501 
2534.000000	99.778275 
2533.000000	99.778062 
2532.000000	99.777853 
2531.000000	99.777646 
2530.000000	99.777456 
2529.000000	99.777306 
2528.000000	99.777215 
2527.000000	99.777183 
2526.000000	99.777195 
2525.000000	99.777237 
2524.000000	99.777305 
2523.000000	99.777402 
2522.000000	99.777528 
2521.000000	99.777670 
2520.000000	99.777810 
2519.000000	99.777931 
2518.000000	99.778030 
2517.000000	99.778112 
2516.000000	99.778196 
2515.000000	99.778292 
2514.000000	99.778414 
2513.000000	99.778569 
2512.000000	99.778754 
2511.000000	99.778958 
2510.000000	99.779187 
2509.000000	99.779455 
2508.000000	99.779770 
2507.000000	99.780130 
2506.000000	99.780512 
2505.000000	99.780853 
2504.000000	99.781056 
2503.000000	99.781071 
2502.000000	99.780978 
2501.000000	99.780968 
2500.000000	99.781193 
2499.000000	99.781674 
2498.000000	99.782313 
2497.000000	99.782957 
2496.000000	99.783467 
2495.000000	99.783733 
2494.000000	99.783721 
2493.000000	99.783515 
2492.000000	99.783285 
2491.000000	99.783204 
2490.000000	99.783421 
2489.000000	99.784068 
2488.000000	99.785196 
2487.000000	99.786629 
2486.000000	99.787906 
2485.000000	99.788496 
2484.000000	99.788222 
2483.000000	99.787309 
2482.000000	99.786109 
2481.000000	99.784817 
2480.000000	99.783492 
2479.000000	99.782317 
2478.000000	99.781596 
2477.000000	99.781517 
2476.000000	99.782016 
2475.000000	99.782849 
2474.000000	99.783695 
2473.000000	99.784238 
2472.000000	99.784287 
2471.000000	99.783931 
2470.000000	99.783516 
2469.000000	99.783348 
2468.000000	99.783429 
2467.000000	99.783490 
2466.000000	99.783241 
2465.000000	99.782592 
2464.000000	99.781697 
2463.000000	99.780868 
2462.000000	99.780396 
2461.000000	99.780335 
2460.000000	99.780409 
2459.000000	99.780190 
2458.000000	99.779465 
2457.000000	99.778481 
2456.000000	99.777772 
2455.000000	99.777679 
2454.000000	99.778081 
2453.000000	99.778516 
2452.000000	99.778575 
2451.000000	99.778177 
2450.000000	99.777464 
2449.000000	99.776613 
2448.000000	99.775778 
2447.000000	99.775147 
2446.000000	99.774900 
2445.000000	99.775065 
2444.000000	99.775450 
2443.000000	99.775767 
2442.000000	99.775811 
2441.000000	99.775556 
2440.000000	99.775156 
2439.000000	99.774852 
2438.000000	99.774782 
2437.000000	99.774852 
2436.000000	99.774820 
2435.000000	99.774546 
2434.000000	99.774133 
2433.000000	99.773844 
2432.000000	99.773908 
2431.000000	99.774417 
2430.000000	99.775256 
2429.000000	99.776045 
2428.000000	99.776287 
2427.000000	99.775739 
2426.000000	99.774660 
2425.000000	99.773668 
2424.000000	99.773200 
2423.000000	99.773280 
2422.000000	99.773763 
2421.000000	99.774593 
2420.000000	99.775663 
2419.000000	99.776506 
2418.000000	99.776460 
2417.000000	99.775276 
2416.000000	99.773420 
2415.000000	99.771667 
2414.000000	99.770404 
2413.000000	99.769571 
2412.000000	99.769137 
2411.000000	99.769276 
2410.000000	99.770010 
2409.000000	99.770959 
2408.000000	99.771597 
2407.000000	99.771652 
2406.000000	99.771133 
2405.000000	99.770269 
2404.000000	99.769585 
2403.000000	99.769665 
2402.000000	99.770560 
2401.000000	99.771519 
2400.000000	99.771621 
2399.000000	99.770676 
2398.000000	99.769286 
2397.000000	99.768204 
2396.000000	99.767816 
2395.000000	99.768114 
2394.000000	99.768833 
2393.000000	99.769679 
2392.000000	99.770541 
2391.000000	99.771431 
2390.000000	99.772192 
2389.000000	99.772552 
2388.000000	99.772690 
2387.000000	99.773380 
2386.000000	99.775140 
2385.000000	99.777471 
2384.000000	99.779252 
2383.000000	99.779954 
2382.000000	99.780023 
2381.000000	99.780210 
2380.000000	99.780803 
2379.000000	99.781631 
2378.000000	99.782522 
2377.000000	99.783457 
2376.000000	99.784411 
2375.000000	99.785307 
2374.000000	99.786149 
2373.000000	99.787003 
2372.000000	99.787879 
2371.000000	99.788708 
2370.000000	99.789469 
2369.000000	99.790233 
2368.000000	99.791093 
2367.000000	99.792099 
2366.000000	99.793258 
2365.000000	99.794527 
2364.000000	99.795758 
2363.000000	99.796726 
2362.000000	99.797313 
2361.000000	99.797631 
2360.000000	99.797938 
2359.000000	99.798444 
2358.000000	99.799156 
2357.000000	99.799976 
2356.000000	99.800808 
2355.000000	99.801594 
2354.000000	99.802298 
2353.000000	99.802906 
2352.000000	99.803439 
2351.000000	99.803932 
2350.000000	99.804401 
2349.000000	99.804837 
2348.000000	99.805227 
2347.000000	99.805568 
2346.000000	99.805860 
2345.000000	99.806108 
2344.000000	99.806323 
2343.000000	99.806512 
2342.000000	99.806678 
2341.000000	99.806816 
2340.000000	99.806927 
2339.000000	99.807026 
2338.000000	99.807121 
2337.000000	99.807195 
2336.000000	99.807223 
2335.000000	99.807201 
2334.000000	99.807154 
2333.000000	99.807108 
2332.000000	99.807061 
2331.000000	99.806987 
2330.000000	99.806858 
2329.000000	99.806676 
2328.000000	99.806466 
2327.000000	99.806254 
2326.000000	99.806045 
2325.000000	99.805825 
2324.000000	99.805584 
2323.000000	99.805327 
2322.000000	99.805072 
2321.000000	99.804826 
2320.000000	99.804568 
2319.000000	99.804281 
2318.000000	99.803966 
2317.000000	99.803646 
2316.000000	99.803336 
2315.000000	99.803024 
2314.000000	99.802697 
2313.000000	99.802366 
2312.000000	99.802058 
2311.000000	99.801779 
2310.000000	99.801509 
2309.000000	99.801215 
2308.000000	99.800891 
2307.000000	99.800580 
2306.000000	99.800361 
2305.000000	99.800272 
2304.000000	99.800278 
2303.000000	99.800301 
2302.000000	99.800290 
2301.000000	99.800241 
2300.000000	99.800177 
2299.000000	99.800122 
2298.000000	99.800082 
2297.000000	99.800043 
2296.000000	99.799998 
2295.000000	99.799951 
2294.000000	99.799916 
2293.000000	99.799901 
2292.000000	99.799903 
2291.000000	99.799913 
2290.000000	99.799921 
2289.000000	99.799924 
2288.000000	99.799923 
2287.000000	99.799923 
2286.000000	99.799922 
2285.000000	99.799916 
2284.000000	99.799903 
2283.000000	99.799889 
2282.000000	99.799894 
2281.000000	99.799942 
2280.000000	99.800038 
2279.000000	99.800154 
2278.000000	99.800260 
2277.000000	99.800340 
2276.000000	99.800434 
2275.000000	99.800619 
2274.000000	99.800943 
2273.000000	99.801385 
2272.000000	99.801870 
2271.000000	99.802297 
2270.000000	99.802605 
2269.000000	99.802810 
2268.000000	99.802999 
2267.000000	99.803286 
2266.000000	99.803740 
2265.000000	99.804287 
2264.000000	99.804678 
2263.000000	99.804567 
2262.000000	99.803805 
2261.000000	99.802675 
2260.000000	99.801778 
2259.000000	99.801660 
2258.000000	99.802343 
2257.000000	99.803478 
2256.000000	99.804664 
2255.000000	99.805558 
2254.000000	99.805889 
2253.000000	99.805600 
2252.000000	99.805058 
2251.000000	99.804809 
2250.000000	99.804990 
2249.000000	99.805226 
2248.000000	99.805182 
2247.000000	99.805008 
2246.000000	99.805046 
2245.000000	99.805382 
2244.000000	99.805913 
2243.000000	99.806613 
2242.000000	99.807477 
2241.000000	99.808345 
2240.000000	99.809062 
2239.000000	99.809710 
2238.000000	99.810444 
2237.000000	99.811172 
2236.000000	99.811624 
2235.000000	99.811713 
2234.000000	99.811632 
2233.000000	99.811608 
2232.000000	99.811688 
2231.000000	99.811797 
2230.000000	99.811871 
2229.000000	99.811907 
2228.000000	99.811949 
2227.000000	99.812040 
2226.000000	99.812164 
2225.000000	99.812293 
2224.000000	99.812432 
2223.000000	99.812575 
2222.000000	99.812715 
2221.000000	99.812836 
2220.000000	99.812926 
2219.000000	99.812986 
2218.000000	99.813039 
2217.000000	99.813109 
2216.000000	99.813202 
2215.000000	99.813303 
2214.000000	99.813392 
2213.000000	99.813464 
2212.000000	99.813531 
2211.000000	99.813617 
2210.000000	99.813738 
2209.000000	99.813899 
2208.000000	99.814092 
2207.000000	99.814304 
2206.000000	99.814523 
2205.000000	99.814745 
2204.000000	99.814981 
2203.000000	99.815253 
2202.000000	99.815581 
2201.000000	99.815911 
2200.000000	99.816276 
2199.000000	99.816711 
2198.000000	99.817089 
2197.000000	99.817272 
2196.000000	99.817276 
2195.000000	99.817347 
2194.000000	99.817869 
2193.000000	99.818999 
2192.000000	99.820250 
2191.000000	99.820760 
2190.000000	99.820206 
2189.000000	99.819493 
2188.000000	99.820074 
2187.000000	99.822142 
2186.000000	99.823647 
2185.000000	99.822016 
2184.000000	99.817286 
2183.000000	99.812971 
2182.000000	99.812515 
2181.000000	99.815484 
2180.000000	99.818382 
2179.000000	99.819274 
2178.000000	99.819724 
2177.000000	99.821690 
2176.000000	99.824571 
2175.000000	99.826400 
2174.000000	99.826413 
2173.000000	99.825347 
2172.000000	99.824565 
2171.000000	99.825957 
2170.000000	99.831124 
2169.000000	99.839079 
2168.000000	99.845919 
2167.000000	99.848641 
2166.000000	99.848424 
2165.000000	99.848824 
2164.000000	99.851549 
2163.000000	99.855593 
2162.000000	99.859344 
2161.000000	99.861129 
2160.000000	99.858531 
2159.000000	99.850011 
2158.000000	99.837222 
2157.000000	99.823637 
2156.000000	99.811438 
2155.000000	99.802034 
2154.000000	99.798017 
2153.000000	99.801248 
2152.000000	99.809184 
2151.000000	99.815491 
2150.000000	99.815795 
2149.000000	99.811547 
2148.000000	99.807718 
2147.000000	99.807616 
2146.000000	99.810430 
2145.000000	99.812812 
2144.000000	99.812150 
2143.000000	99.808754 
2142.000000	99.805271 
2141.000000	99.803881 
2140.000000	99.804359 
2139.000000	99.805368 
2138.000000	99.806948 
2137.000000	99.810325 
2136.000000	99.815096 
2135.000000	99.818376 
2134.000000	99.817869 
2133.000000	99.814684 
2132.000000	99.811905 
2131.000000	99.810861 
2130.000000	99.810126 
2129.000000	99.808032 
2128.000000	99.804819 
2127.000000	99.801939 
2126.000000	99.800287 
2125.000000	99.799988 
2124.000000	99.801211 
2123.000000	99.804106 
2122.000000	99.807962 
2121.000000	99.811177 
2120.000000	99.812589 
2119.000000	99.812385 
2118.000000	99.811557 
2117.000000	99.810921 
2116.000000	99.810808 
2115.000000	99.811350 
2114.000000	99.812498 
2113.000000	99.813670 
2112.000000	99.813899 
2111.000000	99.812681 
2110.000000	99.810633 
2109.000000	99.808981 
2108.000000	99.808307 
2107.000000	99.808012 
2106.000000	99.807083 
2105.000000	99.805452 
2104.000000	99.804336 
2103.000000	99.804953 
2102.000000	99.807106 
2101.000000	99.809257 
2100.000000	99.810069 
2099.000000	99.809623 
2098.000000	99.808979 
2097.000000	99.808993 
2096.000000	99.809772 
2095.000000	99.811069 
2094.000000	99.812678 
2093.000000	99.814400 
2092.000000	99.815918 
2091.000000	99.816941 
2090.000000	99.817500 
2089.000000	99.818037 
2088.000000	99.818988 
2087.000000	99.820172 
2086.000000	99.820780 
2085.000000	99.820300 
2084.000000	99.819383 
2083.000000	99.819411 
2082.000000	99.821032 
2081.000000	99.823484 
2080.000000	99.825402 
2079.000000	99.826280 
2078.000000	99.826708 
2077.000000	99.827427 
2076.000000	99.828485 
2075.000000	99.829316 
2074.000000	99.829311 
2073.000000	99.828330 
2072.000000	99.826965 
2071.000000	99.826136 
2070.000000	99.826266 
2069.000000	99.826888 
2068.000000	99.827243 
2067.000000	99.827201 
2066.000000	99.827209 
2065.000000	99.827605 
2064.000000	99.828490 
2063.000000	99.829990 
2062.000000	99.831974 
2061.000000	99.833658 
2060.000000	99.834238 
2059.000000	99.833970 
2058.000000	99.834077 
2057.000000	99.835314 
2056.000000	99.837080 
2055.000000	99.838189 
2054.000000	99.838239 
2053.000000	99.837814 
2052.000000	99.837726 
2051.000000	99.838284 
2050.000000	99.839191 
2049.000000	99.839804 
2048.000000	99.839694 
2047.000000	99.839184 
2046.000000	99.839129 
2045.000000	99.839883 
2044.000000	99.840708 
2043.000000	99.840621 
2042.000000	99.839600 
2041.000000	99.838600 
2040.000000	99.838375 
2039.000000	99.838885 
2038.000000	99.839778 
2037.000000	99.840812 
2036.000000	99.841572 
2035.000000	99.841142 
2034.000000	99.838494 
2033.000000	99.833634 
2032.000000	99.828375 
2031.000000	99.825323 
2030.000000	99.825827 
2029.000000	99.828968 
2028.000000	99.832438 
2027.000000	99.834716 
2026.000000	99.835675 
2025.000000	99.835511 
2024.000000	99.834385 
2023.000000	99.833016 
2022.000000	99.832518 
2021.000000	99.833246 
2020.000000	99.834447 
2019.000000	99.835261 
2018.000000	99.835283 
2017.000000	99.834197 
2016.000000	99.832092 
2015.000000	99.830355 
2014.000000	99.830838 
2013.000000	99.833530 
2012.000000	99.836225 
2011.000000	99.837294 
2010.000000	99.837813 
2009.000000	99.839976 
2008.000000	99.844125 
2007.000000	99.848270 
2006.000000	99.850119 
2005.000000	99.848866 
2004.000000	99.845553 
2003.000000	99.842386 
2002.000000	99.841013 
2001.000000	99.840714 
2000.000000	99.838733 
1999.000000	99.833059 
1998.000000	99.824568 
1997.000000	99.816423 
1996.000000	99.811673 
1995.000000	99.811789 
1994.000000	99.816626 
1993.000000	99.824212 
1992.000000	99.830900 
1991.000000	99.833623 
1990.000000	99.832145 
1989.000000	99.828706 
1988.000000	99.826172 
1987.000000	99.826527 
1986.000000	99.830313 
1985.000000	99.836501 
1984.000000	99.842793 
1983.000000	99.846836 
1982.000000	99.847470 
1981.000000	99.844988 
1980.000000	99.840903 
1979.000000	99.837491 
1978.000000	99.836486 
1977.000000	99.837432 
1976.000000	99.837869 
1975.000000	99.835994 
1974.000000	99.832635 
1973.000000	99.830152 
1972.000000	99.830049 
1971.000000	99.832229 
1970.000000	99.835873 
1969.000000	99.840014 
1968.000000	99.843529 
1967.000000	99.845524 
1966.000000	99.845941 
1965.000000	99.845407 
1964.000000	99.844428 
1963.000000	99.843087 
1962.000000	99.841486 
1961.000000	99.840036 
1960.000000	99.839141 
1959.000000	99.838759 
1958.000000	99.838461 
1957.000000	99.837905 
1956.000000	99.837053 
1955.000000	99.835663 
1954.000000	99.832828 
1953.000000	99.827790 
1952.000000	99.821471 
1951.000000	99.816493 
1950.000000	99.814951 
1949.000000	99.816625 
1948.000000	99.819411 
1947.000000	99.821420 
1946.000000	99.822170 
1945.000000	99.821699 
1944.000000	99.819973 
1943.000000	99.817484 
1942.000000	99.815275 
1941.000000	99.813782 
1940.000000	99.812539 
1939.000000	99.811314 
1938.000000	99.810671 
1937.000000	99.811124 
1936.000000	99.812311 
1935.000000	99.813246 
1934.000000	99.813147 
1933.000000	99.811884 
1932.000000	99.809975 
1931.000000	99.808365 
1930.000000	99.807746 
1929.000000	99.807958 
1928.000000	99.808193 
1927.000000	99.807857 
1926.000000	99.807045 
1925.000000	99.806160 
1924.000000	99.805456 
1923.000000	99.804988 
1922.000000	99.804730 
1921.000000	99.804597 
1920.000000	99.804465 
1919.000000	99.804257 
1918.000000	99.803992 
1917.000000	99.803733 
1916.000000	99.803528 
1915.000000	99.803400 
1914.000000	99.803365 
1913.000000	99.803420 
1912.000000	99.803526 
1911.000000	99.803618 
1910.000000	99.803653 
1909.000000	99.803640 
1908.000000	99.803603 
1907.000000	99.803546 
1906.000000	99.803460 
1905.000000	99.803327 
1904.000000	99.803113 
1903.000000	99.802786 
1902.000000	99.802359 
1901.000000	99.801933 
1900.000000	99.801650 
1899.000000	99.801602 
1898.000000	99.801752 
1897.000000	99.801939 
1896.000000	99.802012 
1895.000000	99.801955 
1894.000000	99.801898 
1893.000000	99.801966 
1892.000000	99.802102 
1891.000000	99.802122 
1890.000000	99.801949 
1889.000000	99.801681 
1888.000000	99.801456 
1887.000000	99.801373 
1886.000000	99.801485 
1885.000000	99.801716 
1884.000000	99.801820 
1883.000000	99.801583 
1882.000000	99.801029 
1881.000000	99.800374 
1880.000000	99.799864 
1879.000000	99.799650 
1878.000000	99.799643 
1877.000000	99.799481 
1876.000000	99.798905 
1875.000000	99.798285 
1874.000000	99.798426 
1873.000000	99.799627 
1872.000000	99.801118 
1871.000000	99.801701 
1870.000000	99.800924 
1869.000000	99.799320 
1868.000000	99.797582 
1867.000000	99.795838 
1866.000000	99.794179 
1865.000000	99.793045 
1864.000000	99.792782 
1863.000000	99.793342 
1862.000000	99.794525 
1861.000000	99.796061 
1860.000000	99.797396 
1859.000000	99.798001 
1858.000000	99.798048 
1857.000000	99.798321 
1856.000000	99.799306 
1855.000000	99.800718 
1854.000000	99.801907 
1853.000000	99.802369 
1852.000000	99.801886 
1851.000000	99.800528 
1850.000000	99.798813 
1849.000000	99.797606 
1848.000000	99.797405 
1847.000000	99.797884 
1846.000000	99.798297 
1845.000000	99.798129 
1844.000000	99.797358 
1843.000000	99.796379 
1842.000000	99.795824 
1841.000000	99.796150 
1840.000000	99.797328 
1839.000000	99.798794 
1838.000000	99.799844 
1837.000000	99.800249 
1836.000000	99.800346 
1835.000000	99.800514 
1834.000000	99.800707 
1833.000000	99.800569 
1832.000000	99.799844 
1831.000000	99.798569 
1830.000000	99.797235 
1829.000000	99.796658 
1828.000000	99.797361 
1827.000000	99.798986 
1826.000000	99.800537 
1825.000000	99.801348 
1824.000000	99.801602 
1823.000000	99.801794 
1822.000000	99.801847 
1821.000000	99.801109 
1820.000000	99.799186 
1819.000000	99.796605 
1818.000000	99.794635 
1817.000000	99.794238 
1816.000000	99.795268 
1815.000000	99.796807 
1814.000000	99.798234 
1813.000000	99.799663 
1812.000000	99.801444 
1811.000000	99.803475 
1810.000000	99.805330 
1809.000000	99.806818 
1808.000000	99.807922 
1807.000000	99.808421 
1806.000000	99.808003 
1805.000000	99.806724 
1804.000000	99.805140 
1803.000000	99.803952 
1802.000000	99.803587 
1801.000000	99.804027 
1800.000000	99.804738 
1799.000000	99.805040 
1798.000000	99.804791 
1797.000000	99.804446 
1796.000000	99.804579 
1795.000000	99.805436 
1794.000000	99.806745 
1793.000000	99.807856 
1792.000000	99.808350 
1791.000000	99.808429 
1790.000000	99.808507 
1789.000000	99.808749 
1788.000000	99.809190 
1787.000000	99.809919 
1786.000000	99.810870 
1785.000000	99.811589 
1784.000000	99.811633 
1783.000000	99.811217 
1782.000000	99.810993 
1781.000000	99.811238 
1780.000000	99.811567 
1779.000000	99.811560 
1778.000000	99.811444 
1777.000000	99.811776 
1776.000000	99.812726 
1775.000000	99.814062 
1774.000000	99.815422 
1773.000000	99.816458 
1772.000000	99.816966 
1771.000000	99.817064 
1770.000000	99.817151 
1769.000000	99.817431 
1768.000000	99.817808 
1767.000000	99.818099 
1766.000000	99.818284 
1765.000000	99.818495 
1764.000000	99.818831 
1763.000000	99.819313 
1762.000000	99.819941 
1761.000000	99.820690 
1760.000000	99.821472 
1759.000000	99.822148 
1758.000000	99.822618 
1757.000000	99.822911 
1756.000000	99.823177 
1755.000000	99.823534 
1754.000000	99.823935 
1753.000000	99.824269 
1752.000000	99.824610 
1751.000000	99.825288 
1750.000000	99.826463 
1749.000000	99.827743 
1748.000000	99.828558 
1747.000000	99.828749 
1746.000000	99.828570 
1745.000000	99.828318 
1744.000000	99.828111 
1743.000000	99.827988 
1742.000000	99.828027 
1741.000000	99.828275 
1740.000000	99.828628 
1739.000000	99.828936 
1738.000000	99.829203 
1737.000000	99.829494 
1736.000000	99.829741 
1735.000000	99.829785 
1734.000000	99.829573 
1733.000000	99.829344 
1732.000000	99.829382 
1731.000000	99.829674 
1730.000000	99.830037 
1729.000000	99.830279 
1728.000000	99.830353 
1727.000000	99.830334 
1726.000000	99.830312 
1725.000000	99.830332 
1724.000000	99.830407 
1723.000000	99.830540 
1722.000000	99.830730 
1721.000000	99.830946 
1720.000000	99.831128 
1719.000000	99.831223 
1718.000000	99.831238 
1717.000000	99.831221 
1716.000000	99.831173 
1715.000000	99.831068 
1714.000000	99.830932 
1713.000000	99.830809 
1712.000000	99.830711 
1711.000000	99.830628 
1710.000000	99.830543 
1709.000000	99.830442 
1708.000000	99.830318 
1707.000000	99.830184 
1706.000000	99.830073 
1705.000000	99.829999 
1704.000000	99.829944 
1703.000000	99.829881 
1702.000000	99.829796 
1701.000000	99.829684 
1700.000000	99.829577 
1699.000000	99.829510 
1698.000000	99.829504 
1697.000000	99.829555 
1696.000000	99.829626 
1695.000000	99.829651 
1694.000000	99.829613 
1693.000000	99.829536 
1692.000000	99.829384 
1691.000000	99.829154 
1690.000000	99.828952 
1689.000000	99.828876 
1688.000000	99.828861 
1687.000000	99.828715 
1686.000000	99.828331 
1685.000000	99.827918 
1684.000000	99.827867 
1683.000000	99.828149 
1682.000000	99.828482 
1681.000000	99.828679 
1680.000000	99.828726 
1679.000000	99.828718 
1678.000000	99.828741 
1677.000000	99.828812 
1676.000000	99.828911 
1675.000000	99.829021 
1674.000000	99.829107 
1673.000000	99.829205 
1672.000000	99.829369 
1671.000000	99.829646 
1670.000000	99.830030 
1669.000000	99.830347 
1668.000000	99.830504 
1667.000000	99.830622 
1666.000000	99.830721 
1665.000000	99.830697 
1664.000000	99.830613 
1663.000000	99.830820 
1662.000000	99.831528 
1661.000000	99.832435 
1660.000000	99.833125 
1659.000000	99.833540 
1658.000000	99.833896 
1657.000000	99.834209 
1656.000000	99.834088 
1655.000000	99.833209 
1654.000000	99.832044 
1653.000000	99.831613 
1652.000000	99.831785 
1651.000000	99.832419 
1650.000000	99.833158 
1649.000000	99.833535 
1648.000000	99.833365 
1647.000000	99.832735 
1646.000000	99.832036 
1645.000000	99.831915 
1644.000000	99.832627 
1643.000000	99.833811 
1642.000000	99.834949 
1641.000000	99.835782 
1640.000000	99.836336 
1639.000000	99.836762 
1638.000000	99.837230 
1637.000000	99.837836 
1636.000000	99.838330 
1635.000000	99.838192 
1634.000000	99.837699 
1633.000000	99.837522 
1632.000000	99.837667 
1631.000000	99.837881 
1630.000000	99.838055 
1629.000000	99.838205 
1628.000000	99.838367 
1627.000000	99.838659 
1626.000000	99.839258 
1625.000000	99.840207 
1624.000000	99.841265 
1623.000000	99.842029 
1622.000000	99.842391 
1621.000000	99.842671 
1620.000000	99.843015 
1619.000000	99.843203 
1618.000000	99.843165 
1617.000000	99.843125 
1616.000000	99.843188 
1615.000000	99.843320 
1614.000000	99.843317 
1613.000000	99.842861 
1612.000000	99.842118 
1611.000000	99.841628 
1610.000000	99.841527 
1609.000000	99.841330 
1608.000000	99.840721 
1607.000000	99.840108 
1606.000000	99.840114 
1605.000000	99.840951 
1604.000000	99.842346 
1603.000000	99.843728 
1602.000000	99.844523 
1601.000000	99.844541 
1600.000000	99.844158 
1599.000000	99.844024 
1598.000000	99.844530 
1597.000000	99.845613 
1596.000000	99.846910 
1595.000000	99.848015 
1594.000000	99.848669 
1593.000000	99.848885 
1592.000000	99.848918 
1591.000000	99.849005 
1590.000000	99.849131 
1589.000000	99.849149 
1588.000000	99.849091 
1587.000000	99.849155 
1586.000000	99.849332 
1585.000000	99.849314 
1584.000000	99.848933 
1583.000000	99.848380 
1582.000000	99.847954 
1581.000000	99.847779 
1580.000000	99.847812 
1579.000000	99.847964 
1578.000000	99.848162 
1577.000000	99.848319 
1576.000000	99.848349 
1575.000000	99.848328 
1574.000000	99.848384 
1573.000000	99.848459 
1572.000000	99.848466 
1571.000000	99.848432 
1570.000000	99.848441 
1569.000000	99.848502 
1568.000000	99.848560 
1567.000000	99.848570 
1566.000000	99.848530 
1565.000000	99.848455 
1564.000000	99.848365 
1563.000000	99.848272 
1562.000000	99.848172 
1561.000000	99.848062 
1560.000000	99.847940 
1559.000000	99.847810 
1558.000000	99.847667 
1557.000000	99.847518 
1556.000000	99.847365 
1555.000000	99.847197 
1554.000000	99.847005 
1553.000000	99.846789 
1552.000000	99.846564 
1551.000000	99.846348 
1550.000000	99.846157 
1549.000000	99.845973 
1548.000000	99.845740 
1547.000000	99.845434 
1546.000000	99.845070 
1545.000000	99.844690 
1544.000000	99.844324 
1543.000000	99.843971 
1542.000000	99.843640 
1541.000000	99.843368 
1540.000000	99.843157 
1539.000000	99.842919 
1538.000000	99.842645 
1537.000000	99.842380 
1536.000000	99.842110 
1535.000000	99.841804 
1534.000000	99.841485 
1533.000000	99.841213 
1532.000000	99.840966 
1531.000000	99.840669 
1530.000000	99.840296 
1529.000000	99.839890 
1528.000000	99.839507 
1527.000000	99.839184 
1526.000000	99.838913 
1525.000000	99.838639 
1524.000000	99.838303 
1523.000000	99.837935 
1522.000000	99.837727 
1521.000000	99.837797 
1520.000000	99.837856 
1519.000000	99.837632 
1518.000000	99.837146 
1517.000000	99.836599 
1516.000000	99.836113 
1515.000000	99.835649 
1514.000000	99.835229 
1513.000000	99.834956 
1512.000000	99.834817 
1511.000000	99.834653 
1510.000000	99.834354 
1509.000000	99.834058 
1508.000000	99.834172 
1507.000000	99.834857 
1506.000000	99.835211 
1505.000000	99.834884 
1504.000000	99.834611 
1503.000000	99.834618 
1502.000000	99.834778 
1501.000000	99.835006 
1500.000000	99.835221 
1499.000000	99.835272 
1498.000000	99.835169 
1497.000000	99.835371 
1496.000000	99.836246 
1495.000000	99.837298 
1494.000000	99.837742 
1493.000000	99.837310 
1492.000000	99.836219 
1491.000000	99.835028 
1490.000000	99.834254 
1489.000000	99.833879 
1488.000000	99.833493 
1487.000000	99.832990 
1486.000000	99.832732 
1485.000000	99.832904 
1484.000000	99.833291 
1483.000000	99.833602 
1482.000000	99.833669 
1481.000000	99.833492 
1480.000000	99.833171 
1479.000000	99.832877 
1478.000000	99.832777 
1477.000000	99.832868 
1476.000000	99.832858 
1475.000000	99.832403 
1474.000000	99.831758 
1473.000000	99.831784 
1472.000000	99.832716 
1471.000000	99.833634 
1470.000000	99.833940 
1469.000000	99.833908 
1468.000000	99.834029 
1467.000000	99.834549 
1466.000000	99.835366 
1465.000000	99.836109 
1464.000000	99.836430 
1463.000000	99.836414 
1462.000000	99.836441 
1461.000000	99.836622 
1460.000000	99.836515 
1459.000000	99.835553 
1458.000000	99.833885 
1457.000000	99.832805 
1456.000000	99.832819 
1455.000000	99.833042 
1454.000000	99.832909 
1453.000000	99.832528 
1452.000000	99.832262 
1451.000000	99.832156 
1450.000000	99.831932 
1449.000000	99.831515 
1448.000000	99.831118 
1447.000000	99.830918 
1446.000000	99.831134 
1445.000000	99.832092 
1444.000000	99.833412 
1443.000000	99.833626 
1442.000000	99.831763 
1441.000000	99.828812 
1440.000000	99.826788 
1439.000000	99.826553 
1438.000000	99.827315 
1437.000000	99.828127 
1436.000000	99.828484 
1435.000000	99.827836 
1434.000000	99.826277 
1433.000000	99.824688 
1432.000000	99.824087 
1431.000000	99.825026 
1430.000000	99.826694 
1429.000000	99.827604 
1428.000000	99.827121 
1427.000000	99.825666 
1426.000000	99.823914 
1425.000000	99.822400 
1424.000000	99.821769 
1423.000000	99.821841 
1422.000000	99.821280 
1421.000000	99.819277 
1420.000000	99.816829 
1419.000000	99.815784 
1418.000000	99.815315 
1417.000000	99.813270 
1416.000000	99.809537 
1415.000000	99.804885 
1414.000000	99.799611 
1413.000000	99.793877 
1412.000000	99.788523 
1411.000000	99.784584 
1410.000000	99.781913 
1409.000000	99.779637 
1408.000000	99.777579 
1407.000000	99.776321 
1406.000000	99.776406 
1405.000000	99.778100 
1404.000000	99.781318 
1403.000000	99.784869 
1402.000000	99.786956 
1401.000000	99.787036 
1400.000000	99.786411 
1399.000000	99.786643 
1398.000000	99.786943 
1397.000000	99.785059 
1396.000000	99.780513 
1395.000000	99.775776 
1394.000000	99.773995 
1393.000000	99.776104 
1392.000000	99.781294 
1391.000000	99.787965 
1390.000000	99.794134 
1389.000000	99.798106 
1388.000000	99.799185 
1387.000000	99.797937 
1386.000000	99.795739 
1385.000000	99.794167 
1384.000000	99.794249 
1383.000000	99.795775 
1382.000000	99.797560 
1381.000000	99.798917 
1380.000000	99.800393 
1379.000000	99.802633 
1378.000000	99.805012 
1377.000000	99.806274 
1376.000000	99.806417 
1375.000000	99.807012 
1374.000000	99.809137 
1373.000000	99.811728 
1372.000000	99.813379 
1371.000000	99.814578 
1370.000000	99.816838 
1369.000000	99.820378 
1368.000000	99.823858 
1367.000000	99.826027 
1366.000000	99.826851 
1365.000000	99.827015 
1364.000000	99.827135 
1363.000000	99.827684 
1362.000000	99.828902 
1361.000000	99.830473 
1360.000000	99.831860 
1359.000000	99.833023 
1358.000000	99.834451 
1357.000000	99.836509 
1356.000000	99.839001 
1355.000000	99.841380 
1354.000000	99.843158 
1353.000000	99.844050 
1352.000000	99.843920 
1351.000000	99.843000 
1350.000000	99.842167 
1349.000000	99.842049 
1348.000000	99.842542 
1347.000000	99.843391 
1346.000000	99.844782 
1345.000000	99.846794 
1344.000000	99.848799 
1343.000000	99.850052 
1342.000000	99.850567 
1341.000000	99.850771 
1340.000000	99.850602 
1339.000000	99.849681 
1338.000000	99.848367 
1337.000000	99.847813 
1336.000000	99.848622 
1335.000000	99.850175 
1334.000000	99.851511 
1333.000000	99.852338 
1332.000000	99.852890 
1331.000000	99.853198 
1330.000000	99.853019 
1329.000000	99.852310 
1328.000000	99.851448 
1327.000000	99.850895 
1326.000000	99.850769 
1325.000000	99.850721 
1324.000000	99.850482 
1323.000000	99.850241 
1322.000000	99.850346 
1321.000000	99.850795 
1320.000000	99.851244 
1319.000000	99.851491 
1318.000000	99.851682 
1317.000000	99.851960 
1316.000000	99.852101 
1315.000000	99.851747 
1314.000000	99.850934 
1313.000000	99.850221 
1312.000000	99.850155 
1311.000000	99.850732 
1310.000000	99.851480 
1309.000000	99.851927 
1308.000000	99.851902 
1307.000000	99.851498 
1306.000000	99.850984 
1305.000000	99.850673 
1304.000000	99.850803 
1303.000000	99.851369 
1302.000000	99.852163 
1301.000000	99.852988 
1300.000000	99.853666 
1299.000000	99.853789 
1298.000000	99.852800 
1297.000000	99.850651 
1296.000000	99.848294 
1295.000000	99.847200 
1294.000000	99.848187 
1293.000000	99.850769 
1292.000000	99.853466 
1291.000000	99.854831 
1290.000000	99.854403 
1289.000000	99.852978 
1288.000000	99.851901 
1287.000000	99.851662 
1286.000000	99.851413 
1285.000000	99.850208 
1284.000000	99.848354 
1283.000000	99.847064 
1282.000000	99.846902 
1281.000000	99.847240 
1280.000000	99.847231 
1279.000000	99.846613 
1278.000000	99.845385 
1277.000000	99.843432 
1276.000000	99.840875 
1275.000000	99.838407 
1274.000000	99.836807 
1273.000000	99.836280 
1272.000000	99.836413 
1271.000000	99.836422 
1270.000000	99.835398 
1269.000000	99.832946 
1268.000000	99.829890 
1267.000000	99.827749 
1266.000000	99.827035 
1265.000000	99.826626 
1264.000000	99.825205 
1263.000000	99.822776 
1262.000000	99.820251 
1261.000000	99.818228 
1260.000000	99.816867 
1259.000000	99.816446 
1258.000000	99.817063 
1257.000000	99.818055 
1256.000000	99.818445 
1255.000000	99.817957 
1254.000000	99.817189 
1253.000000	99.816976 
1252.000000	99.817815 
1251.000000	99.819515 
1250.000000	99.821050 
1249.000000	99.821303 
1248.000000	99.820488 
1247.000000	99.820271 
1246.000000	99.821679 
1245.000000	99.823419 
1244.000000	99.823278 
1243.000000	99.820947 
1242.000000	99.818503 
1241.000000	99.818111 
1240.000000	99.820056 
1239.000000	99.823025 
1238.000000	99.825383 
1237.000000	99.825980 
1236.000000	99.824496 
1235.000000	99.821466 
1234.000000	99.817692 
1233.000000	99.813605 
1232.000000	99.809581 
1231.000000	99.806400 
1230.000000	99.804467 
1229.000000	99.802938 
1228.000000	99.800784 
1227.000000	99.798652 
1226.000000	99.798458 
1225.000000	99.800823 
1224.000000	99.803915 
1223.000000	99.805254 
1222.000000	99.803942 
1221.000000	99.800785 
1220.000000	99.797145 
1219.000000	99.794186 
1218.000000	99.792525 
1217.000000	99.791896 
1216.000000	99.791357 
1215.000000	99.790139 
1214.000000	99.788141 
1213.000000	99.785583 
1212.000000	99.782614 
1211.000000	99.779314 
1210.000000	99.775679 
1209.000000	99.771614 
1208.000000	99.767274 
1207.000000	99.763184 
1206.000000	99.759557 
1205.000000	99.755846 
1204.000000	99.751595 
1203.000000	99.747353 
1202.000000	99.743856 
1201.000000	99.740610 
1200.000000	99.736444 
1199.000000	99.731402 
1198.000000	99.726903 
1197.000000	99.723803 
1196.000000	99.721263 
1195.000000	99.717876 
1194.000000	99.712994 
1193.000000	99.706573 
1192.000000	99.698690 
1191.000000	99.690000 
1190.000000	99.682089 
1189.000000	99.676545 
1188.000000	99.673730 
1187.000000	99.672635 
1186.000000	99.671617 
1185.000000	99.669184 
1184.000000	99.664505 
1183.000000	99.657682 
1182.000000	99.649644 
1181.000000	99.641641 
1180.000000	99.634871 
1179.000000	99.630202 
1178.000000	99.627453 
1177.000000	99.624846 
1176.000000	99.620116 
1175.000000	99.612765 
1174.000000	99.604714 
1173.000000	99.598282 
1172.000000	99.593972 
1171.000000	99.590666 
1170.000000	99.587218 
1169.000000	99.583139 
1168.000000	99.578142 
1167.000000	99.571970 
1166.000000	99.564831 
1165.000000	99.557659 
1164.000000	99.551841 
1163.000000	99.548648 
1162.000000	99.548387 
1161.000000	99.549704 
1160.000000	99.550211 
1159.000000	99.548484 
1158.000000	99.545239 
1157.000000	99.542178 
1156.000000	99.539930 
1155.000000	99.537508 
1154.000000	99.533500 
1153.000000	99.527248 
1152.000000	99.519157 
1151.000000	99.510490 
1150.000000	99.502637 
1149.000000	99.496083 
1148.000000	99.490066 
1147.000000	99.483285 
1146.000000	99.474815 
1145.000000	99.464544 
1144.000000	99.453401 
1143.000000	99.443316 
1142.000000	99.436056 
1141.000000	99.431549 
1140.000000	99.427810 
1139.000000	99.422823 
1138.000000	99.416194 
1137.000000	99.408828 
1136.000000	99.401780 
1135.000000	99.395812 
1134.000000	99.391238 
1133.000000	99.387392 
1132.000000	99.382643 
1131.000000	99.375706 
1130.000000	99.366790 
1129.000000	99.357158 
1128.000000	99.347795 
1127.000000	99.338993 
1126.000000	99.330967 
1125.000000	99.324107 
1124.000000	99.318461 
1123.000000	99.313310 
1122.000000	99.307440 
1121.000000	99.299959 
1120.000000	99.291080 
1119.000000	99.282140 
1118.000000	99.274403 
1117.000000	99.267654 
1116.000000	99.260421 
1115.000000	99.251715 
1114.000000	99.241952 
1113.000000	99.231949 
1112.000000	99.221827 
1111.000000	99.211685 
1110.000000	99.202647 
1109.000000	99.195944 
1108.000000	99.190968 
1107.000000	99.185415 
1106.000000	99.177706 
1105.000000	99.168186 
1104.000000	99.157812 
1103.000000	99.146953 
1102.000000	99.136260 
1101.000000	99.127507 
1100.000000	99.122189 
1099.000000	99.119214 
1098.000000	99.115514 
1097.000000	99.109250 
1096.000000	99.101540 
1095.000000	99.094685 
1094.000000	99.089385 
1093.000000	99.084300 
1092.000000	99.077797 
1091.000000	99.069287 
1090.000000	99.058997 
1089.000000	99.047279 
1088.000000	99.034502 
1087.000000	99.021277 
1086.000000	99.008430 
1085.000000	98.996785 
1084.000000	98.986931 
1083.000000	98.978788 
1082.000000	98.971384 
1081.000000	98.963584 
1080.000000	98.955228 
1079.000000	98.947008 
1078.000000	98.939076 
1077.000000	98.930497 
1076.000000	98.920681 
1075.000000	98.910686 
1074.000000	98.902201 
1073.000000	98.895379 
1072.000000	98.888259 
1071.000000	98.878019 
1070.000000	98.862489 
1069.000000	98.841494 
1068.000000	98.818088 
1067.000000	98.798045 
1066.000000	98.786170 
1065.000000	98.782339 
1064.000000	98.781650 
1063.000000	98.778516 
1062.000000	98.770095 
1061.000000	98.756282 
1060.000000	98.738537 
1059.000000	98.719760 
1058.000000	98.703606 
1057.000000	98.691764 
1056.000000	98.681937 
1055.000000	98.669770 
1054.000000	98.653146 
1053.000000	98.634007 
1052.000000	98.615879 
1051.000000	98.600623 
1050.000000	98.588232 
1049.000000	98.578810 
1048.000000	98.572942 
1047.000000	98.569753 
1046.000000	98.565969 
1045.000000	98.558110 
1044.000000	98.545566 
1043.000000	98.531136 
1042.000000	98.518538 
1041.000000	98.509456 
1040.000000	98.502822 
1039.000000	98.496555 
1038.000000	98.489893 
1037.000000	98.484302 
1036.000000	98.482240 
1035.000000	98.485061 
1034.000000	98.491940 
1033.000000	98.500327 
1032.000000	98.506976 
1031.000000	98.509095 
1030.000000	98.506105 
1029.000000	98.501160 
1028.000000	98.499765 
1027.000000	98.505364 
1026.000000	98.516278 
1025.000000	98.527709 
1024.000000	98.536325 
1023.000000	98.541749 
1022.000000	98.544332 
1021.000000	98.543836 
1020.000000	98.541152 
1019.000000	98.539514 
1018.000000	98.542086 
1017.000000	98.548658 
1016.000000	98.556094 
1015.000000	98.562141 
1014.000000	98.567737 
1013.000000	98.574839 
1012.000000	98.582789 
1011.000000	98.588236 
1010.000000	98.589196 
1009.000000	98.588271 
1008.000000	98.590524 
1007.000000	98.598372 
1006.000000	98.609715 
1005.000000	98.621141 
1004.000000	98.631528 
1003.000000	98.641669 
1002.000000	98.651883 
1001.000000	98.661694 
1000.000000	98.671086 
999.000000	 98.680243 
998.000000	 98.688257 
997.000000	 98.694010 
996.000000	 98.698844 
995.000000	 98.706720 
994.000000	 98.720524 
993.000000	 98.738670 
992.000000	 98.755880 
991.000000	 98.767298 
990.000000	 98.772041 
989.000000	 98.773504 
988.000000	 98.776515 
987.000000	 98.783580 
986.000000	 98.793608 
985.000000	 98.804437 
984.000000	 98.816071 
983.000000	 98.830404 
982.000000	 98.848056 
981.000000	 98.867040 
980.000000	 98.885034 
979.000000	 98.901653 
978.000000	 98.917695 
977.000000	 98.933525 
976.000000	 98.949454 
975.000000	 98.966668 
974.000000	 98.986174 
973.000000	 99.007129 
972.000000	 99.027573 
971.000000	 99.046810 
970.000000	 99.065976 
969.000000	 99.086169 
968.000000	 99.107054 
967.000000	 99.127441 
966.000000	 99.146134 
965.000000	 99.161809 
964.000000	 99.173327 
963.000000	 99.181218 
962.000000	 99.188234 
961.000000	 99.197333 
960.000000	 99.209102 
959.000000	 99.221739 
958.000000	 99.233346 
957.000000	 99.243605 
956.000000	 99.253467 
955.000000	 99.264110 
954.000000	 99.276263 
953.000000	 99.289676 
952.000000	 99.302799 
951.000000	 99.313458 
950.000000	 99.320414 
949.000000	 99.324308 
948.000000	 99.327212 
947.000000	 99.331551 
946.000000	 99.339171 
945.000000	 99.350391 
944.000000	 99.363218 
943.000000	 99.373948 
942.000000	 99.379652 
941.000000	 99.380488 
940.000000	 99.379574 
939.000000	 99.380562 
938.000000	 99.385303 
937.000000	 99.393419 
936.000000	 99.403053 
935.000000	 99.411553 
934.000000	 99.416311 
933.000000	 99.416163 
932.000000	 99.412409 
931.000000	 99.408268 
930.000000	 99.407076 
929.000000	 99.410790 
928.000000	 99.419452 
927.000000	 99.430986 
926.000000	 99.441703 
925.000000	 99.448391 
924.000000	 99.450587 
923.000000	 99.450370 
922.000000	 99.449818 
921.000000	 99.449524 
920.000000	 99.449869 
919.000000	 99.452124 
918.000000	 99.456787 
917.000000	 99.461758 
916.000000	 99.464101 
915.000000	 99.463649 
914.000000	 99.463323 
913.000000	 99.465633 
912.000000	 99.470423 
911.000000	 99.476410 
910.000000	 99.483114 
909.000000	 99.490454 
908.000000	 99.497797 
907.000000	 99.504459 
906.000000	 99.510249 
905.000000	 99.514747 
904.000000	 99.517224 
903.000000	 99.518543 
902.000000	 99.522022 
901.000000	 99.530638 
900.000000	 99.543910 
899.000000	 99.558469 
898.000000	 99.571244 
897.000000	 99.581035 
896.000000	 99.587433 
895.000000	 99.590530 
894.000000	 99.592234 
893.000000	 99.595861 
892.000000	 99.603148 
891.000000	 99.612640 
890.000000	 99.621868 
889.000000	 99.630459 
888.000000	 99.639776 
887.000000	 99.649939 
886.000000	 99.658691 
885.000000	 99.663824 
884.000000	 99.665813 
883.000000	 99.667604 
882.000000	 99.671921 
881.000000	 99.678903 
880.000000	 99.686519 
879.000000	 99.693093 
878.000000	 99.699039 
877.000000	 99.705692 
876.000000	 99.712798 
875.000000	 99.718192 
874.000000	 99.720337 
873.000000	 99.720427 
872.000000	 99.721586 
871.000000	 99.726051 
870.000000	 99.733445 
869.000000	 99.741210 
868.000000	 99.746693 
867.000000	 99.749364 
866.000000	 99.751445 
865.000000	 99.755918 
864.000000	 99.763392 
863.000000	 99.771483 
862.000000	 99.777684 
861.000000	 99.782117 
860.000000	 99.786442 
859.000000	 99.791029 
858.000000	 99.795169 
857.000000	 99.799831 
856.000000	 99.807537 
855.000000	 99.818385 
854.000000	 99.828170 
853.000000	 99.832205 
852.000000	 99.829883 
851.000000	 99.824654 
850.000000	 99.820749 
849.000000	 99.820686 
848.000000	 99.824544 
847.000000	 99.830023 
846.000000	 99.834082 
845.000000	 99.836055 
844.000000	 99.838684 
843.000000	 99.844844 
842.000000	 99.853429 
841.000000	 99.859627 
840.000000	 99.859532 
839.000000	 99.854109 
838.000000	 99.848722 
837.000000	 99.848233 
836.000000	 99.852090 
835.000000	 99.854958 
834.000000	 99.853076 
833.000000	 99.848731 
832.000000	 99.846112 
831.000000	 99.843816 
830.000000	 99.836246 
829.000000	 99.823742 
828.000000	 99.815953 
827.000000	 99.820360 
826.000000	 99.831055 
825.000000	 99.835755 
824.000000	 99.832489 
823.000000	 99.831234 
822.000000	 99.838368 
821.000000	 99.847441 
820.000000	 99.848373 
819.000000	 99.839236 
818.000000	 99.826183 
817.000000	 99.815953 
816.000000	 99.810715 
815.000000	 99.807737 
814.000000	 99.801557 
813.000000	 99.787944 
812.000000	 99.767929 
811.000000	 99.747520 
810.000000	 99.732277 
809.000000	 99.722705 
808.000000	 99.715185 
807.000000	 99.705167 
806.000000	 99.688535 
805.000000	 99.662684 
804.000000	 99.629325 
803.000000	 99.595644 
802.000000	 99.569958 
801.000000	 99.555499 
800.000000	 99.549092 
799.000000	 99.545061 
798.000000	 99.539965 
797.000000	 99.534642 
796.000000	 99.532814 
795.000000	 99.537536 
794.000000	 99.548435 
793.000000	 99.562167 
792.000000	 99.574736 
791.000000	 99.582498 
790.000000	 99.582598 
789.000000	 99.575448 
788.000000	 99.566608 
787.000000	 99.562888 
786.000000	 99.565216 
785.000000	 99.567641 
784.000000	 99.564594 
783.000000	 99.557153 
782.000000	 99.550804 
781.000000	 99.549013 
780.000000	 99.550634 
779.000000	 99.551931 
778.000000	 99.549989 
777.000000	 99.546173 
776.000000	 99.546914 
775.000000	 99.558392 
774.000000	 99.579094 
773.000000	 99.599989 
772.000000	 99.614001 
771.000000	 99.622433 
770.000000	 99.629697 
769.000000	 99.635636 
768.000000	 99.637502 
767.000000	 99.637272 
766.000000	 99.641259 
765.000000	 99.651829 
764.000000	 99.663791 
763.000000	 99.670375 
762.000000	 99.670100 
761.000000	 99.666603 
760.000000	 99.664337 
759.000000	 99.665778 
758.000000	 99.670842 
757.000000	 99.677342 
756.000000	 99.682940 
755.000000	 99.687644 
754.000000	 99.693672 
753.000000	 99.702363 
752.000000	 99.712136 
751.000000	 99.719990 
750.000000	 99.724328 
749.000000	 99.725696 
748.000000	 99.725655 
747.000000	 99.725989 
746.000000	 99.728562 
745.000000	 99.734492 
744.000000	 99.742734 
743.000000	 99.749926 
742.000000	 99.752785 
741.000000	 99.751087 
740.000000	 99.748331 
739.000000	 99.748908 
738.000000	 99.754263 
737.000000	 99.762116 
736.000000	 99.768998 
735.000000	 99.773550 
734.000000	 99.777174 
733.000000	 99.781860 
732.000000	 99.787902 
731.000000	 99.793787 
730.000000	 99.797852 
729.000000	 99.799834 
728.000000	 99.801138 
727.000000	 99.803607 
726.000000	 99.808055 
725.000000	 99.814111 
724.000000	 99.821179 
723.000000	 99.828551 
722.000000	 99.834246 
721.000000	 99.835270 
720.000000	 99.830386 
719.000000	 99.822122 
718.000000	 99.814230 
717.000000	 99.807817 
716.000000	 99.802229 
715.000000	 99.798198 
714.000000	 99.797403 
713.000000	 99.799496 
712.000000	 99.802266 
711.000000	 99.805068 
710.000000	 99.809526 
709.000000	 99.815869 
708.000000	 99.820961 
707.000000	 99.821816 
706.000000	 99.819105 
705.000000	 99.815646 
704.000000	 99.812871 
703.000000	 99.810556 
702.000000	 99.809070 
701.000000	 99.809469 
700.000000	 99.811121 
699.000000	 99.810962 
698.000000	 99.806147 
697.000000	 99.796688 
696.000000	 99.784937 
695.000000	 99.773465 
694.000000	 99.764587 
693.000000	 99.760886 
692.000000	 99.764188 
691.000000	 99.772562 
690.000000	 99.780237 
689.000000	 99.783257 
688.000000	 99.784208 
687.000000	 99.788981 
686.000000	 99.798996 
685.000000	 99.809421 
684.000000	 99.815617 
683.000000	 99.818090 
682.000000	 99.820212 
681.000000	 99.824276 
680.000000	 99.830987 
679.000000	 99.839724 
678.000000	 99.846761 
677.000000	 99.846319 
676.000000	 99.837151 
675.000000	 99.825763 
674.000000	 99.821044 
673.000000	 99.825861 
672.000000	 99.835833 
671.000000	 99.845425 
670.000000	 99.851945 
669.000000	 99.852579 
668.000000	 99.842710 
667.000000	 99.828032 
666.000000	 99.824722 
665.000000	 99.836105 
664.000000	 99.851877 
663.000000	 99.860256 
662.000000	 99.857735 
661.000000	 99.852200 
660.000000	 99.853402 
659.000000	 99.860345 
658.000000	 99.861967 
657.000000	 99.850427 
656.000000	 99.830403 
655.000000	 99.815884 
654.000000	 99.815273 
653.000000	 99.819368 
652.000000	 99.810909 
651.000000	 99.785601 
650.000000	 99.758071 

