4000.000000	99.631911 
3999.000000	99.633119 
3998.000000	99.633543 
3997.000000	99.632181 
3996.000000	99.628970 
3995.000000	99.625073 
3994.000000	99.622398 
3993.000000	99.622425 
3992.000000	99.625108 
3991.000000	99.628824 
3990.000000	99.631568 
3989.000000	99.632458 
3988.000000	99.632237 
3987.000000	99.632336 
3986.000000	99.633452 
3985.000000	99.634969 
3984.000000	99.635592 
3983.000000	99.634462 
3982.000000	99.631691 
3981.000000	99.628026 
3980.000000	99.624080 
3979.000000	99.620117 
3978.000000	99.616732 
3977.000000	99.615439 
3976.000000	99.618019 
3975.000000	99.624887 
3974.000000	99.634127 
3973.000000	99.642349 
3972.000000	99.646722 
3971.000000	99.646588 
3970.000000	99.643553 
3969.000000	99.640120 
3968.000000	99.638064 
3967.000000	99.637705 
3966.000000	99.638401 
3965.000000	99.639580 
3964.000000	99.640948 
3963.000000	99.641743 
3962.000000	99.640464 
3961.000000	99.636129 
3960.000000	99.629777 
3959.000000	99.624245 
3958.000000	99.622055 
3957.000000	99.623342 
3956.000000	99.626238 
3955.000000	99.628895 
3954.000000	99.630842 
3953.000000	99.632398 
3952.000000	99.633372 
3951.000000	99.633262 
3950.000000	99.632289 
3949.000000	99.631496 
3948.000000	99.631530 
3947.000000	99.631865 
3946.000000	99.631804 
3945.000000	99.631702 
3944.000000	99.632622 
3943.000000	99.634570 
3942.000000	99.636016 
3941.000000	99.635508 
3940.000000	99.632800 
3939.000000	99.628087 
3938.000000	99.621471 
3937.000000	99.613663 
3936.000000	99.607122 
3935.000000	99.605352 
3934.000000	99.610542 
3933.000000	99.621548 
3932.000000	99.633798 
3931.000000	99.641744 
3930.000000	99.642163 
3929.000000	99.636121 
3928.000000	99.628333 
3927.000000	99.623913 
3926.000000	99.624798 
3925.000000	99.628385 
3924.000000	99.630156 
3923.000000	99.628243 
3922.000000	99.624450 
3921.000000	99.621816 
3920.000000	99.622333 
3919.000000	99.626250 
3918.000000	99.632225 
3917.000000	99.637810 
3916.000000	99.640961 
3915.000000	99.641644 
3914.000000	99.641581 
3913.000000	99.642276 
3912.000000	99.643723 
3911.000000	99.644964 
3910.000000	99.645799 
3909.000000	99.647062 
3908.000000	99.649664 
3907.000000	99.652809 
3906.000000	99.653323 
3905.000000	99.647132 
3904.000000	99.632756 
3903.000000	99.614683 
3902.000000	99.601584 
3901.000000	99.599506 
3900.000000	99.607312 
3899.000000	99.618540 
3898.000000	99.627196 
3897.000000	99.631349 
3896.000000	99.631803 
3895.000000	99.629876 
3894.000000	99.627082 
3893.000000	99.624656 
3892.000000	99.622548 
3891.000000	99.619313 
3890.000000	99.615130 
3889.000000	99.612482 
3888.000000	99.613302 
3887.000000	99.616774 
3886.000000	99.619425 
3885.000000	99.618442 
3884.000000	99.615496 
3883.000000	99.614958 
3882.000000	99.618780 
3881.000000	99.623979 
3880.000000	99.625346 
3879.000000	99.621503 
3878.000000	99.617093 
3877.000000	99.617905 
3876.000000	99.625725 
3875.000000	99.636035 
3874.000000	99.641029 
3873.000000	99.637270 
3872.000000	99.629009 
3871.000000	99.622565 
3870.000000	99.619326 
3869.000000	99.616922 
3868.000000	99.615226 
3867.000000	99.615949 
3866.000000	99.618903 
3865.000000	99.621945 
3864.000000	99.623136 
3863.000000	99.622842 
3862.000000	99.623035 
3861.000000	99.624946 
3860.000000	99.628616 
3859.000000	99.632925 
3858.000000	99.636000 
3857.000000	99.636045 
3856.000000	99.632556 
3855.000000	99.627692 
3854.000000	99.624000 
3853.000000	99.621279 
3852.000000	99.620738 
3851.000000	99.624912 
3850.000000	99.631915 
3849.000000	99.637755 
3848.000000	99.640130 
3847.000000	99.639394 
3846.000000	99.637431 
3845.000000	99.635913 
3844.000000	99.635417 
3843.000000	99.635941 
3842.000000	99.637506 
3841.000000	99.639658 
3840.000000	99.641243 
3839.000000	99.640640 
3838.000000	99.637152 
3837.000000	99.631820 
3836.000000	99.626800 
3835.000000	99.624451 
3834.000000	99.626506 
3833.000000	99.633048 
3832.000000	99.641825 
3831.000000	99.649251 
3830.000000	99.652962 
3829.000000	99.653016 
3828.000000	99.650700 
3827.000000	99.646736 
3826.000000	99.641354 
3825.000000	99.635633 
3824.000000	99.631924 
3823.000000	99.632485 
3822.000000	99.636648 
3821.000000	99.639456 
3820.000000	99.638319 
3819.000000	99.637650 
3818.000000	99.641568 
3817.000000	99.648093 
3816.000000	99.650781 
3815.000000	99.646210 
3814.000000	99.638309 
3813.000000	99.633020 
3812.000000	99.632670 
3811.000000	99.636239 
3810.000000	99.641710 
3809.000000	99.647333 
3808.000000	99.650992 
3807.000000	99.650212 
3806.000000	99.644952 
3805.000000	99.639045 
3804.000000	99.636819 
3803.000000	99.639370 
3802.000000	99.643217 
3801.000000	99.643451 
3800.000000	99.640908 
3799.000000	99.640512 
3798.000000	99.643714 
3797.000000	99.647307 
3796.000000	99.647370 
3795.000000	99.643564 
3794.000000	99.638602 
3793.000000	99.634675 
3792.000000	99.632100 
3791.000000	99.630702 
3790.000000	99.630714 
3789.000000	99.632438 
3788.000000	99.635646 
3787.000000	99.639494 
3786.000000	99.642726 
3785.000000	99.644103 
3784.000000	99.643347 
3783.000000	99.641684 
3782.000000	99.640947 
3781.000000	99.641997 
3780.000000	99.643896 
3779.000000	99.644715 
3778.000000	99.643822 
3777.000000	99.642152 
3776.000000	99.640237 
3775.000000	99.637615 
3774.000000	99.634331 
3773.000000	99.631948 
3772.000000	99.632367 
3771.000000	99.635295 
3770.000000	99.637651 
3769.000000	99.636825 
3768.000000	99.634006 
3767.000000	99.632012 
3766.000000	99.631384 
3765.000000	99.630307 
3764.000000	99.627732 
3763.000000	99.625031 
3762.000000	99.624065 
3761.000000	99.624970 
3760.000000	99.626675 
3759.000000	99.628625 
3758.000000	99.631492 
3757.000000	99.635706 
3756.000000	99.640374 
3755.000000	99.643974 
3754.000000	99.645357 
3753.000000	99.644587 
3752.000000	99.642908 
3751.000000	99.640800 
3750.000000	99.637648 
3749.000000	99.634206 
3748.000000	99.632730 
3747.000000	99.634407 
3746.000000	99.637418 
3745.000000	99.637391 
3744.000000	99.632025 
3743.000000	99.626365 
3742.000000	99.626007 
3741.000000	99.628821 
3740.000000	99.628987 
3739.000000	99.623500 
3738.000000	99.615631 
3737.000000	99.612739 
3736.000000	99.619193 
3735.000000	99.631593 
3734.000000	99.641773 
3733.000000	99.644296 
3732.000000	99.639555 
3731.000000	99.631644 
3730.000000	99.624696 
3729.000000	99.620786 
3728.000000	99.620180 
3727.000000	99.621639 
3726.000000	99.622688 
3725.000000	99.621684 
3724.000000	99.619442 
3723.000000	99.618720 
3722.000000	99.621466 
3721.000000	99.627128 
3720.000000	99.632941 
3719.000000	99.635260 
3718.000000	99.631889 
3717.000000	99.623534 
3716.000000	99.613569 
3715.000000	99.605304 
3714.000000	99.599424 
3713.000000	99.594804 
3712.000000	99.590773 
3711.000000	99.588384 
3710.000000	99.588925 
3709.000000	99.591627 
3708.000000	99.594051 
3707.000000	99.594274 
3706.000000	99.592676 
3705.000000	99.591389 
3704.000000	99.591919 
3703.000000	99.592914 
3702.000000	99.590443 
3701.000000	99.582032 
3700.000000	99.570072 
3699.000000	99.559522 
3698.000000	99.552937 
3697.000000	99.548943 
3696.000000	99.544775 
3695.000000	99.539410 
3694.000000	99.534174 
3693.000000	99.531087 
3692.000000	99.531002 
3691.000000	99.532976 
3690.000000	99.534168 
3689.000000	99.531378 
3688.000000	99.524393 
3687.000000	99.516421 
3686.000000	99.510629 
3685.000000	99.507919 
3684.000000	99.507291 
3683.000000	99.507108 
3682.000000	99.506069 
3681.000000	99.502702 
3680.000000	99.495008 
3679.000000	99.482556 
3678.000000	99.468755 
3677.000000	99.460224 
3676.000000	99.460070 
3675.000000	99.462230 
3674.000000	99.460640 
3673.000000	99.456880 
3672.000000	99.454859 
3671.000000	99.457184 
3670.000000	99.462581 
3669.000000	99.467085 
3668.000000	99.470044 
3667.000000	99.473927 
3666.000000	99.479845 
3665.000000	99.486234 
3664.000000	99.490398 
3663.000000	99.490661 
3662.000000	99.487446 
3661.000000	99.482341 
3660.000000	99.477020 
3659.000000	99.473440 
3658.000000	99.473626 
3657.000000	99.477647 
3656.000000	99.481875 
3655.000000	99.482606 
3654.000000	99.480053 
3653.000000	99.476971 
3652.000000	99.475210 
3651.000000	99.474647 
3650.000000	99.474027 
3649.000000	99.473255 
3648.000000	99.474169 
3647.000000	99.477765 
3646.000000	99.483200 
3645.000000	99.489770 
3644.000000	99.497862 
3643.000000	99.507754 
3642.000000	99.519142 
3641.000000	99.531007 
3640.000000	99.541872 
3639.000000	99.549826 
3638.000000	99.553360 
3637.000000	99.553023 
3636.000000	99.551020 
3635.000000	99.548735 
3634.000000	99.545265 
3633.000000	99.539668 
3632.000000	99.533644 
3631.000000	99.530695 
3630.000000	99.532456 
3629.000000	99.534655 
3628.000000	99.531680 
3627.000000	99.526344 
3626.000000	99.525314 
3625.000000	99.530415 
3624.000000	99.538909 
3623.000000	99.547540 
3622.000000	99.555125 
3621.000000	99.562190 
3620.000000	99.567853 
3619.000000	99.568249 
3618.000000	99.560996 
3617.000000	99.550040 
3616.000000	99.542624 
3615.000000	99.542952 
3614.000000	99.548342 
3613.000000	99.551668 
3612.000000	99.549013 
3611.000000	99.543650 
3610.000000	99.541317 
3609.000000	99.543897 
3608.000000	99.548076 
3607.000000	99.550291 
3606.000000	99.551499 
3605.000000	99.554973 
3604.000000	99.562098 
3603.000000	99.571556 
3602.000000	99.581113 
3601.000000	99.589316 
3600.000000	99.594990 
3599.000000	99.596620 
3598.000000	99.593157 
3597.000000	99.585860 
3596.000000	99.578261 
3595.000000	99.574380 
3594.000000	99.575629 
3593.000000	99.580142 
3592.000000	99.584586 
3591.000000	99.586387 
3590.000000	99.585323 
3589.000000	99.583722 
3588.000000	99.583864 
3587.000000	99.584563 
3586.000000	99.583481 
3585.000000	99.581142 
3584.000000	99.580560 
3583.000000	99.583777 
3582.000000	99.590044 
3581.000000	99.596250 
3580.000000	99.599023 
3579.000000	99.596944 
3578.000000	99.590998 
3577.000000	99.584080 
3576.000000	99.579669 
3575.000000	99.580138 
3574.000000	99.585150 
3573.000000	99.591682 
3572.000000	99.596294 
3571.000000	99.597491 
3570.000000	99.595917 
3569.000000	99.593261 
3568.000000	99.591197 
3567.000000	99.590204 
3566.000000	99.589699 
3565.000000	99.589513 
3564.000000	99.590324 
3563.000000	99.593194 
3562.000000	99.598706 
3561.000000	99.605554 
3560.000000	99.610551 
3559.000000	99.610981 
3558.000000	99.607296 
3557.000000	99.602816 
3556.000000	99.600853 
3555.000000	99.602122 
3554.000000	99.604726 
3553.000000	99.605887 
3552.000000	99.604085 
3551.000000	99.600102 
3550.000000	99.595936 
3549.000000	99.592877 
3548.000000	99.591088 
3547.000000	99.590153 
3546.000000	99.589415 
3545.000000	99.587734 
3544.000000	99.584406 
3543.000000	99.580810 
3542.000000	99.580396 
3541.000000	99.585679 
3540.000000	99.595365 
3539.000000	99.604702 
3538.000000	99.609352 
3537.000000	99.608811 
3536.000000	99.605971 
3535.000000	99.603816 
3534.000000	99.602913 
3533.000000	99.602339 
3532.000000	99.601806 
3531.000000	99.602268 
3530.000000	99.604195 
3529.000000	99.606052 
3528.000000	99.605480 
3527.000000	99.602138 
3526.000000	99.598328 
3525.000000	99.596310 
3524.000000	99.595838 
3523.000000	99.595060 
3522.000000	99.593526 
3521.000000	99.592914 
3520.000000	99.594798 
3519.000000	99.598768 
3518.000000	99.603208 
3517.000000	99.607048 
3516.000000	99.609799 
3515.000000	99.610630 
3514.000000	99.608491 
3513.000000	99.603528 
3512.000000	99.597476 
3511.000000	99.592326 
3510.000000	99.588797 
3509.000000	99.586571 
3508.000000	99.585671 
3507.000000	99.586963 
3506.000000	99.591023 
3505.000000	99.596529 
3504.000000	99.600168 
3503.000000	99.599162 
3502.000000	99.594565 
3501.000000	99.591176 
3500.000000	99.592991 
3499.000000	99.598952 
3498.000000	99.603741 
3497.000000	99.602957 
3496.000000	99.597080 
3495.000000	99.590136 
3494.000000	99.585550 
3493.000000	99.584126 
3492.000000	99.585259 
3491.000000	99.588331 
3490.000000	99.592657 
3489.000000	99.597228 
3488.000000	99.601220 
3487.000000	99.604353 
3486.000000	99.606465 
3485.000000	99.607186 
3484.000000	99.606346 
3483.000000	99.604391 
3482.000000	99.601916 
3481.000000	99.599084 
3480.000000	99.595895 
3479.000000	99.592652 
3478.000000	99.589704 
3477.000000	99.587087 
3476.000000	99.585190 
3475.000000	99.585559 
3474.000000	99.589865 
3473.000000	99.597453 
3472.000000	99.604768 
3471.000000	99.608341 
3470.000000	99.608223 
3469.000000	99.607472 
3468.000000	99.608301 
3467.000000	99.609772 
3466.000000	99.609815 
3465.000000	99.608256 
3464.000000	99.606648 
3463.000000	99.605828 
3462.000000	99.605172 
3461.000000	99.604421 
3460.000000	99.604770 
3459.000000	99.607315 
3458.000000	99.611146 
3457.000000	99.613763 
3456.000000	99.613232 
3455.000000	99.609731 
3454.000000	99.605105 
3453.000000	99.601420 
3452.000000	99.599644 
3451.000000	99.599446 
3450.000000	99.599980 
3449.000000	99.600827 
3448.000000	99.601987 
3447.000000	99.603210 
3446.000000	99.603940 
3445.000000	99.604118 
3444.000000	99.604490 
3443.000000	99.605624 
3442.000000	99.606976 
3441.000000	99.607355 
3440.000000	99.606230 
3439.000000	99.604031 
3438.000000	99.601164 
3437.000000	99.597434 
3436.000000	99.592970 
3435.000000	99.589370 
3434.000000	99.588989 
3433.000000	99.592724 
3432.000000	99.598567 
3431.000000	99.602950 
3430.000000	99.603755 
3429.000000	99.602051 
3428.000000	99.600758 
3427.000000	99.601440 
3426.000000	99.602660 
3425.000000	99.601672 
3424.000000	99.597573 
3423.000000	99.592299 
3422.000000	99.588467 
3421.000000	99.586931 
3420.000000	99.587015 
3419.000000	99.588443 
3418.000000	99.591799 
3417.000000	99.596946 
3416.000000	99.602032 
3415.000000	99.604677 
3414.000000	99.603899 
3413.000000	99.600651 
3412.000000	99.596911 
3411.000000	99.594598 
3410.000000	99.594775 
3409.000000	99.596955 
3408.000000	99.599013 
3407.000000	99.598472 
3406.000000	99.594567 
3405.000000	99.589067 
3404.000000	99.584835 
3403.000000	99.583464 
3402.000000	99.584309 
3401.000000	99.585891 
3400.000000	99.587876 
3399.000000	99.591302 
3398.000000	99.596771 
3397.000000	99.602799 
3396.000000	99.606345 
3395.000000	99.605071 
3394.000000	99.598998 
3393.000000	99.590250 
3392.000000	99.581737 
3391.000000	99.576106 
3390.000000	99.575289 
3389.000000	99.579950 
3388.000000	99.588808 
3387.000000	99.598845 
3386.000000	99.606933 
3385.000000	99.611703 
3384.000000	99.613731 
3383.000000	99.613943 
3382.000000	99.612163 
3381.000000	99.607624 
3380.000000	99.600723 
3379.000000	99.593844 
3378.000000	99.589961 
3377.000000	99.590194 
3376.000000	99.592843 
3375.000000	99.595068 
3374.000000	99.595589 
3373.000000	99.595534 
3372.000000	99.596584 
3371.000000	99.598686 
3370.000000	99.600129 
3369.000000	99.599688 
3368.000000	99.598208 
3367.000000	99.597848 
3366.000000	99.600034 
3365.000000	99.604074 
3364.000000	99.607521 
3363.000000	99.607991 
3362.000000	99.605154 
3361.000000	99.601060 
3360.000000	99.598146 
3359.000000	99.596965 
3358.000000	99.596313 
3357.000000	99.595483 
3356.000000	99.595348 
3355.000000	99.596680 
3354.000000	99.598266 
3353.000000	99.597816 
3352.000000	99.594622 
3351.000000	99.590591 
3350.000000	99.588539 
3349.000000	99.589823 
3348.000000	99.593580 
3347.000000	99.597651 
3346.000000	99.600108 
3345.000000	99.600423 
3344.000000	99.599622 
3343.000000	99.599317 
3342.000000	99.600326 
3341.000000	99.602060 
3340.000000	99.603054 
3339.000000	99.602149 
3338.000000	99.599536 
3337.000000	99.596805 
3336.000000	99.595650 
3335.000000	99.596270 
3334.000000	99.597397 
3333.000000	99.598147 
3332.000000	99.599278 
3331.000000	99.601955 
3330.000000	99.605593 
3329.000000	99.607957 
3328.000000	99.607659 
3327.000000	99.605816 
3326.000000	99.604607 
3325.000000	99.604598 
3324.000000	99.604136 
3323.000000	99.601518 
3322.000000	99.597250 
3321.000000	99.593826 
3320.000000	99.593366 
3319.000000	99.595810 
3318.000000	99.599492 
3317.000000	99.602914 
3316.000000	99.605321 
3315.000000	99.606002 
3314.000000	99.604403 
3313.000000	99.601534 
3312.000000	99.600163 
3311.000000	99.602328 
3310.000000	99.606802 
3309.000000	99.610030 
3308.000000	99.609663 
3307.000000	99.606525 
3306.000000	99.603216 
3305.000000	99.601782 
3304.000000	99.602912 
3303.000000	99.606198 
3302.000000	99.610210 
3301.000000	99.612689 
3300.000000	99.611678 
3299.000000	99.607038 
3298.000000	99.600871 
3297.000000	99.596250 
3296.000000	99.594976 
3295.000000	99.596167 
3294.000000	99.597285 
3293.000000	99.596944 
3292.000000	99.596447 
3291.000000	99.597874 
3290.000000	99.600885 
3289.000000	99.602573 
3288.000000	99.600798 
3287.000000	99.596766 
3286.000000	99.593663 
3285.000000	99.593277 
3284.000000	99.594671 
3283.000000	99.595823 
3282.000000	99.595840 
3281.000000	99.595525 
3280.000000	99.596238 
3279.000000	99.598408 
3278.000000	99.601046 
3277.000000	99.602615 
3276.000000	99.602221 
3275.000000	99.599860 
3274.000000	99.595953 
3273.000000	99.591385 
3272.000000	99.587843 
3271.000000	99.587035 
3270.000000	99.588951 
3269.000000	99.591482 
3268.000000	99.592387 
3267.000000	99.591232 
3266.000000	99.589060 
3265.000000	99.586883 
3264.000000	99.585365 
3263.000000	99.585459 
3262.000000	99.588110 
3261.000000	99.592941 
3260.000000	99.597911 
3259.000000	99.600708 
3258.000000	99.600346 
3257.000000	99.597459 
3256.000000	99.593458 
3255.000000	99.589607 
3254.000000	99.586645 
3253.000000	99.585012 
3252.000000	99.585249 
3251.000000	99.587852 
3250.000000	99.592484 
3249.000000	99.597599 
3248.000000	99.601306 
3247.000000	99.602643 
3246.000000	99.601811 
3245.000000	99.599347 
3244.000000	99.595530 
3243.000000	99.590701 
3242.000000	99.585695 
3241.000000	99.581649 
3240.000000	99.579551 
3239.000000	99.580186 
3238.000000	99.584307 
3237.000000	99.592236 
3236.000000	99.602780 
3235.000000	99.612667 
3234.000000	99.617864 
3233.000000	99.616369 
3232.000000	99.609983 
3231.000000	99.603051 
3230.000000	99.599185 
3229.000000	99.599040 
3228.000000	99.600765 
3227.000000	99.601904 
3226.000000	99.600888 
3225.000000	99.597685 
3224.000000	99.593753 
3223.000000	99.591110 
3222.000000	99.590775 
3221.000000	99.591961 
3220.000000	99.592973 
3219.000000	99.592867 
3218.000000	99.592317 
3217.000000	99.593190 
3216.000000	99.597273 
3215.000000	99.604637 
3214.000000	99.612664 
3213.000000	99.617245 
3212.000000	99.615827 
3211.000000	99.609474 
3210.000000	99.601755 
3209.000000	99.595885 
3208.000000	99.593178 
3207.000000	99.593419 
3206.000000	99.595506 
3205.000000	99.597755 
3204.000000	99.598824 
3203.000000	99.598928 
3202.000000	99.599541 
3201.000000	99.601514 
3200.000000	99.604057 
3199.000000	99.605885 
3198.000000	99.606729 
3197.000000	99.607158 
3196.000000	99.607508 
3195.000000	99.607651 
3194.000000	99.607519 
3193.000000	99.607118 
3192.000000	99.606168 
3191.000000	99.604374 
3190.000000	99.601999 
3189.000000	99.599608 
3188.000000	99.597269 
3187.000000	99.594634 
3186.000000	99.592023 
3185.000000	99.590759 
3184.000000	99.591928 
3183.000000	99.595010 
3182.000000	99.598289 
3181.000000	99.600728 
3180.000000	99.603116 
3179.000000	99.606961 
3178.000000	99.612099 
3177.000000	99.615830 
3176.000000	99.615265 
3175.000000	99.610767 
3174.000000	99.606257 
3173.000000	99.605290 
3172.000000	99.607119 
3171.000000	99.607637 
3170.000000	99.604313 
3169.000000	99.599112 
3168.000000	99.595956 
3167.000000	99.596262 
3166.000000	99.598027 
3165.000000	99.598819 
3164.000000	99.598390 
3163.000000	99.598109 
3162.000000	99.598891 
3161.000000	99.600421 
3160.000000	99.601967 
3159.000000	99.603125 
3158.000000	99.603669 
3157.000000	99.603224 
3156.000000	99.601505 
3155.000000	99.598737 
3154.000000	99.595425 
3153.000000	99.591653 
3152.000000	99.587025 
3151.000000	99.581742 
3150.000000	99.577525 
3149.000000	99.576719 
3148.000000	99.580106 
3147.000000	99.585875 
3146.000000	99.591090 
3145.000000	99.594088 
3144.000000	99.595301 
3143.000000	99.596107 
3142.000000	99.597322 
3141.000000	99.598703 
3140.000000	99.599400 
3139.000000	99.598799 
3138.000000	99.597209 
3137.000000	99.595858 
3136.000000	99.595991 
3135.000000	99.597894 
3134.000000	99.600809 
3133.000000	99.603570 
3132.000000	99.605083 
3131.000000	99.604616 
3130.000000	99.602351 
3129.000000	99.599777 
3128.000000	99.598880 
3127.000000	99.600517 
3126.000000	99.603662 
3125.000000	99.606256 
3124.000000	99.606603 
3123.000000	99.604201 
3122.000000	99.599973 
3121.000000	99.595962 
3120.000000	99.594139 
3119.000000	99.594882 
3118.000000	99.596751 
3117.000000	99.598146 
3116.000000	99.599005 
3115.000000	99.600452 
3114.000000	99.602866 
3113.000000	99.604908 
3112.000000	99.604800 
3111.000000	99.602469 
3110.000000	99.600046 
3109.000000	99.599952 
3108.000000	99.602401 
3107.000000	99.605035 
3106.000000	99.605239 
3105.000000	99.602719 
3104.000000	99.599575 
3103.000000	99.598008 
3102.000000	99.598340 
3101.000000	99.599334 
3100.000000	99.600047 
3099.000000	99.600960 
3098.000000	99.603279 
3097.000000	99.607317 
3096.000000	99.611623 
3095.000000	99.613811 
3094.000000	99.612427 
3093.000000	99.608119 
3092.000000	99.603000 
3091.000000	99.599114 
3090.000000	99.597548 
3089.000000	99.598464 
3088.000000	99.601154 
3087.000000	99.604067 
3086.000000	99.605613 
3085.000000	99.605444 
3084.000000	99.604560 
3083.000000	99.603919 
3082.000000	99.603428 
3081.000000	99.602637 
3080.000000	99.601898 
3079.000000	99.602217 
3078.000000	99.604222 
3077.000000	99.607680 
3076.000000	99.611664 
3075.000000	99.614711 
3074.000000	99.615174 
3073.000000	99.612240 
3072.000000	99.606751 
3071.000000	99.600642 
3070.000000	99.595573 
3069.000000	99.592274 
3068.000000	99.590855 
3067.000000	99.591238 
3066.000000	99.593379 
3065.000000	99.597400 
3064.000000	99.603176 
3063.000000	99.609256 
3062.000000	99.612715 
3061.000000	99.611120 
3060.000000	99.604936 
3059.000000	99.597466 
3058.000000	99.592366 
3057.000000	99.591553 
3056.000000	99.594875 
3055.000000	99.600519 
3054.000000	99.605455 
3053.000000	99.606770 
3052.000000	99.603616 
3051.000000	99.597753 
3050.000000	99.592001 
3049.000000	99.588479 
3048.000000	99.588066 
3047.000000	99.590197 
3046.000000	99.592494 
3045.000000	99.591715 
3044.000000	99.586596 
3043.000000	99.579655 
3042.000000	99.575180 
3041.000000	99.575170 
3040.000000	99.577700 
3039.000000	99.579145 
3038.000000	99.577279 
3037.000000	99.572244 
3036.000000	99.565443 
3035.000000	99.558207 
3034.000000	99.551255 
3033.000000	99.544691 
3032.000000	99.538138 
3031.000000	99.530962 
3030.000000	99.522773 
3029.000000	99.514058 
3028.000000	99.506282 
3027.000000	99.500917 
3026.000000	99.497897 
3025.000000	99.495054 
3024.000000	99.489571 
3023.000000	99.480350 
3022.000000	99.468825 
3021.000000	99.457097 
3020.000000	99.445385 
3019.000000	99.431856 
3018.000000	99.415357 
3017.000000	99.397739 
3016.000000	99.382505 
3015.000000	99.371024 
3014.000000	99.361153 
3013.000000	99.350157 
3012.000000	99.338115 
3011.000000	99.327342 
3010.000000	99.318893 
3009.000000	99.310982 
3008.000000	99.300985 
3007.000000	99.287910 
3006.000000	99.272594 
3005.000000	99.256409 
3004.000000	99.240492 
3003.000000	99.225635 
3002.000000	99.212203 
3001.000000	99.200219 
3000.000000	99.189785 
2999.000000	99.181182 
2998.000000	99.174436 
2997.000000	99.169146 
2996.000000	99.164672 
2995.000000	99.159643 
2994.000000	99.151000 
2993.000000	99.134788 
2992.000000	99.109441 
2991.000000	99.078564 
2990.000000	99.049864 
2989.000000	99.030863 
2988.000000	99.025015 
2987.000000	99.030768 
2986.000000	99.043119 
2985.000000	99.056229 
2984.000000	99.065763 
2983.000000	99.070051 
2982.000000	99.069701 
2981.000000	99.066563 
2980.000000	99.062979 
2979.000000	99.061171 
2978.000000	99.062138 
2977.000000	99.064684 
2976.000000	99.065923 
2975.000000	99.063399 
2974.000000	99.057274 
2973.000000	99.050710 
2972.000000	99.047895 
2971.000000	99.051009 
2970.000000	99.058680 
2969.000000	99.067481 
2968.000000	99.075046 
2967.000000	99.081645 
2966.000000	99.088781 
2965.000000	99.096936 
2964.000000	99.105093 
2963.000000	99.112071 
2962.000000	99.117769 
2961.000000	99.123062 
2960.000000	99.128788 
2959.000000	99.134866 
2958.000000	99.140399 
2957.000000	99.144780 
2956.000000	99.148630 
2955.000000	99.153398 
2954.000000	99.160104 
2953.000000	99.168814 
2952.000000	99.179036 
2951.000000	99.189766 
2950.000000	99.199094 
2949.000000	99.204917 
2948.000000	99.206732 
2947.000000	99.206183 
2946.000000	99.205326 
2945.000000	99.205044 
2944.000000	99.205557 
2943.000000	99.207321 
2942.000000	99.210154 
2941.000000	99.212145 
2940.000000	99.211083 
2939.000000	99.207272 
2938.000000	99.203839 
2937.000000	99.203778 
2936.000000	99.207261 
2935.000000	99.211862 
2934.000000	99.214682 
2933.000000	99.213916 
2932.000000	99.209277 
2931.000000	99.201731 
2930.000000	99.193078 
2929.000000	99.185535 
2928.000000	99.181080 
2927.000000	99.180163 
2926.000000	99.180706 
2925.000000	99.179362 
2924.000000	99.174818 
2923.000000	99.169383 
2922.000000	99.166328 
2921.000000	99.166019 
2920.000000	99.165878 
2919.000000	99.163832 
2918.000000	99.160444 
2917.000000	99.157392 
2916.000000	99.155180 
2915.000000	99.152952 
2914.000000	99.149877 
2913.000000	99.146174 
2912.000000	99.143216 
2911.000000	99.142722 
2910.000000	99.145106 
2909.000000	99.148479 
2908.000000	99.149938 
2907.000000	99.148032 
2906.000000	99.143114 
2905.000000	99.135342 
2904.000000	99.123996 
2903.000000	99.110032 
2902.000000	99.098384 
2901.000000	99.096103 
2900.000000	99.106593 
2899.000000	99.126561 
2898.000000	99.147823 
2897.000000	99.162537 
2896.000000	99.167794 
2895.000000	99.166553 
2894.000000	99.164644 
2893.000000	99.166299 
2892.000000	99.172003 
2891.000000	99.179650 
2890.000000	99.186812 
2889.000000	99.191825 
2888.000000	99.194077 
2887.000000	99.194497 
2886.000000	99.195394 
2885.000000	99.198730 
2884.000000	99.204561 
2883.000000	99.211841 
2882.000000	99.220444 
2881.000000	99.231230 
2880.000000	99.243951 
2879.000000	99.256316 
2878.000000	99.265974 
2877.000000	99.272900 
2876.000000	99.278972 
2875.000000	99.285461 
2874.000000	99.291744 
2873.000000	99.296554 
2872.000000	99.299718 
2871.000000	99.302143 
2870.000000	99.304569 
2869.000000	99.307235 
2868.000000	99.310877 
2867.000000	99.317073 
2866.000000	99.326668 
2865.000000	99.338132 
2864.000000	99.348477 
2863.000000	99.356008 
2862.000000	99.361445 
2861.000000	99.366169 
2860.000000	99.370438 
2859.000000	99.374098 
2858.000000	99.378064 
2857.000000	99.383741 
2856.000000	99.391167 
2855.000000	99.398912 
2854.000000	99.405936 
2853.000000	99.412605 
2852.000000	99.419616 
2851.000000	99.426892 
2850.000000	99.434091 
2849.000000	99.441483 
2848.000000	99.449595 
2847.000000	99.458323 
2846.000000	99.466986 
2845.000000	99.474944 
2844.000000	99.481601 
2843.000000	99.486215 
2842.000000	99.488657 
2841.000000	99.490404 
2840.000000	99.493861 
2839.000000	99.500101 
2838.000000	99.507682 
2837.000000	99.514127 
2836.000000	99.518311 
2835.000000	99.521102 
2834.000000	99.524019 
2833.000000	99.527804 
2832.000000	99.532056 
2831.000000	99.535520 
2830.000000	99.536635 
2829.000000	99.534580 
2828.000000	99.530389 
2827.000000	99.526776 
2826.000000	99.526297 
2825.000000	99.529400 
2824.000000	99.534307 
2823.000000	99.538651 
2822.000000	99.541159 
2821.000000	99.542137 
2820.000000	99.542796 
2819.000000	99.544113 
2818.000000	99.545960 
2817.000000	99.547321 
2816.000000	99.547577 
2815.000000	99.547423 
2814.000000	99.548037 
2813.000000	99.549430 
2812.000000	99.550376 
2811.000000	99.550286 
2810.000000	99.550400 
2809.000000	99.552352 
2808.000000	99.555891 
2807.000000	99.558858 
2806.000000	99.559482 
2805.000000	99.558114 
2804.000000	99.556603 
2803.000000	99.556519 
2802.000000	99.558099 
2801.000000	99.560376 
2800.000000	99.561993 
2799.000000	99.562306 
2798.000000	99.561951 
2797.000000	99.562024 
2796.000000	99.562547 
2795.000000	99.562352 
2794.000000	99.560831 
2793.000000	99.559159 
2792.000000	99.558978 
2791.000000	99.560240 
2790.000000	99.561360 
2789.000000	99.561535 
2788.000000	99.561898 
2787.000000	99.563801 
2786.000000	99.566621 
2785.000000	99.568010 
2784.000000	99.566264 
2783.000000	99.562009 
2782.000000	99.557663 
2781.000000	99.555579 
2780.000000	99.556600 
2779.000000	99.559882 
2778.000000	99.563791 
2777.000000	99.567089 
2776.000000	99.569551 
2775.000000	99.571660 
2774.000000	99.573863 
2773.000000	99.576161 
2772.000000	99.578299 
2771.000000	99.580148 
2770.000000	99.581723 
2769.000000	99.582843 
2768.000000	99.583025 
2767.000000	99.582039 
2766.000000	99.580512 
2765.000000	99.579437 
2764.000000	99.578843 
2763.000000	99.577439 
2762.000000	99.574171 
2761.000000	99.569835 
2760.000000	99.566483 
2759.000000	99.565422 
2758.000000	99.566526 
2757.000000	99.569335 
2756.000000	99.573521 
2755.000000	99.577776 
2754.000000	99.579514 
2753.000000	99.577052 
2752.000000	99.571869 
2751.000000	99.567645 
2750.000000	99.566939 
2749.000000	99.569395 
2748.000000	99.573058 
2747.000000	99.576519 
2746.000000	99.579403 
2745.000000	99.581426 
2744.000000	99.581787 
2743.000000	99.579788 
2742.000000	99.575986 
2741.000000	99.572466 
2740.000000	99.571436 
2739.000000	99.573255 
2738.000000	99.576171 
2737.000000	99.578295 
2736.000000	99.579466 
2735.000000	99.580675 
2734.000000	99.582195 
2733.000000	99.583150 
2732.000000	99.582853 
2731.000000	99.581689 
2730.000000	99.580485 
2729.000000	99.579748 
2728.000000	99.579752 
2727.000000	99.580674 
2726.000000	99.582194 
2725.000000	99.583482 
2724.000000	99.584094 
2723.000000	99.584672 
2722.000000	99.586340 
2721.000000	99.589446 
2720.000000	99.593032 
2719.000000	99.595450 
2718.000000	99.595560 
2717.000000	99.593584 
2716.000000	99.590917 
2715.000000	99.588900 
2714.000000	99.587808 
2713.000000	99.587130 
2712.000000	99.586534 
2711.000000	99.586149 
2710.000000	99.586234 
2709.000000	99.587118 
2708.000000	99.589101 
2707.000000	99.591588 
2706.000000	99.592687 
2705.000000	99.591009 
2704.000000	99.588063 
2703.000000	99.587395 
2702.000000	99.590566 
2701.000000	99.594993 
2700.000000	99.596884 
2699.000000	99.595565 
2698.000000	99.593754 
2697.000000	99.593936 
2696.000000	99.595713 
2695.000000	99.596905 
2694.000000	99.596357 
2693.000000	99.595115 
2692.000000	99.595072 
2691.000000	99.596721 
2690.000000	99.598404 
2689.000000	99.598017 
2688.000000	99.595475 
2687.000000	99.593002 
2686.000000	99.592879 
2685.000000	99.595493 
2684.000000	99.599737 
2683.000000	99.604300 
2682.000000	99.607770 
2681.000000	99.608370 
2680.000000	99.605047 
2679.000000	99.598966 
2678.000000	99.593081 
2677.000000	99.590020 
2676.000000	99.590607 
2675.000000	99.593984 
2674.000000	99.598314 
2673.000000	99.601562 
2672.000000	99.602613 
2671.000000	99.601934 
2670.000000	99.600636 
2669.000000	99.599030 
2668.000000	99.596848 
2667.000000	99.594776 
2666.000000	99.594549 
2665.000000	99.596884 
2664.000000	99.599976 
2663.000000	99.600937 
2662.000000	99.598745 
2661.000000	99.595398 
2660.000000	99.593968 
2659.000000	99.595606 
2658.000000	99.598657 
2657.000000	99.600852 
2656.000000	99.601960 
2655.000000	99.603370 
2654.000000	99.605129 
2653.000000	99.605042 
2652.000000	99.601985 
2651.000000	99.598861 
2650.000000	99.600001 
2649.000000	99.605577 
2648.000000	99.610776 
2647.000000	99.611388 
2646.000000	99.608634 
2645.000000	99.607170 
2644.000000	99.609374 
2643.000000	99.613092 
2642.000000	99.614561 
2641.000000	99.612308 
2640.000000	99.608163 
2639.000000	99.605343 
2638.000000	99.605736 
2637.000000	99.608555 
2636.000000	99.611383 
2635.000000	99.612443 
2634.000000	99.611601 
2633.000000	99.609510 
2632.000000	99.606897 
2631.000000	99.604997 
2630.000000	99.605348 
2629.000000	99.608015 
2628.000000	99.610745 
2627.000000	99.611116 
2626.000000	99.609184 
2625.000000	99.606973 
2624.000000	99.605781 
2623.000000	99.605228 
2622.000000	99.604770 
2621.000000	99.604657 
2620.000000	99.605021 
2619.000000	99.605277 
2618.000000	99.605195 
2617.000000	99.605798 
2616.000000	99.608439 
2615.000000	99.613255 
2614.000000	99.618985 
2613.000000	99.624010 
2612.000000	99.627281 
2611.000000	99.628583 
2610.000000	99.628362 
2609.000000	99.627220 
2608.000000	99.625457 
2607.000000	99.623359 
2606.000000	99.621947 
2605.000000	99.622767 
2604.000000	99.626227 
2603.000000	99.630340 
2602.000000	99.631933 
2601.000000	99.629628 
2600.000000	99.625451 
2599.000000	99.623014 
2598.000000	99.623895 
2597.000000	99.625973 
2596.000000	99.625557 
2595.000000	99.621055 
2594.000000	99.614348 
2593.000000	99.608798 
2592.000000	99.606559 
2591.000000	99.607889 
2590.000000	99.612038 
2589.000000	99.617661 
2588.000000	99.622600 
2587.000000	99.624580 
2586.000000	99.622957 
2585.000000	99.619499 
2584.000000	99.616857 
2583.000000	99.616256 
2582.000000	99.616884 
2581.000000	99.617371 
2580.000000	99.617362 
2579.000000	99.617377 
2578.000000	99.617370 
2577.000000	99.616021 
2576.000000	99.611960 
2575.000000	99.605722 
2574.000000	99.600059 
2573.000000	99.597930 
2572.000000	99.600165 
2571.000000	99.605134 
2570.000000	99.610379 
2569.000000	99.614249 
2568.000000	99.616278 
2567.000000	99.616793 
2566.000000	99.616549 
2565.000000	99.616426 
2564.000000	99.617001 
2563.000000	99.618361 
2562.000000	99.620386 
2561.000000	99.622954 
2560.000000	99.625479 
2559.000000	99.626411 
2558.000000	99.624054 
2557.000000	99.618587 
2556.000000	99.613074 
2555.000000	99.611544 
2554.000000	99.615476 
2553.000000	99.622321 
2552.000000	99.627776 
2551.000000	99.629315 
2550.000000	99.627327 
2549.000000	99.623430 
2548.000000	99.618630 
2547.000000	99.613330 
2546.000000	99.608431 
2545.000000	99.605742 
2544.000000	99.606944 
2543.000000	99.611743 
2542.000000	99.616878 
2541.000000	99.617833 
2540.000000	99.612846 
2539.000000	99.605180 
2538.000000	99.600085 
2537.000000	99.599160 
2536.000000	99.599181 
2535.000000	99.597163 
2534.000000	99.594593 
2533.000000	99.594687 
2532.000000	99.596946 
2531.000000	99.597695 
2530.000000	99.596113 
2529.000000	99.596261 
2528.000000	99.601098 
2527.000000	99.606929 
2526.000000	99.606969 
2525.000000	99.599787 
2524.000000	99.591443 
2523.000000	99.588899 
2522.000000	99.593524 
2521.000000	99.601582 
2520.000000	99.608575 
2519.000000	99.611486 
2518.000000	99.608761 
2517.000000	99.600974 
2516.000000	99.591416 
2515.000000	99.584067 
2514.000000	99.580621 
2513.000000	99.580588 
2512.000000	99.583810 
2511.000000	99.590787 
2510.000000	99.600168 
2509.000000	99.608272 
2508.000000	99.612721 
2507.000000	99.615047 
2506.000000	99.617840 
2505.000000	99.620189 
2504.000000	99.618221 
2503.000000	99.610319 
2502.000000	99.600035 
2501.000000	99.593182 
2500.000000	99.593001 
2499.000000	99.598464 
2498.000000	99.605985 
2497.000000	99.611988 
2496.000000	99.614569 
2495.000000	99.613978 
2494.000000	99.611756 
2493.000000	99.609283 
2492.000000	99.607220 
2491.000000	99.606041 
2490.000000	99.606427 
2489.000000	99.609084 
2488.000000	99.614664 
2487.000000	99.623401 
2486.000000	99.633575 
2485.000000	99.640476 
2484.000000	99.639042 
2483.000000	99.628960 
2482.000000	99.616161 
2481.000000	99.607857 
2480.000000	99.606316 
2479.000000	99.608161 
2478.000000	99.608848 
2477.000000	99.606585 
2476.000000	99.602695 
2475.000000	99.599955 
2474.000000	99.600568 
2473.000000	99.604183 
2472.000000	99.607544 
2471.000000	99.607295 
2470.000000	99.603544 
2469.000000	99.599857 
2468.000000	99.599585 
2467.000000	99.603062 
2466.000000	99.608208 
2465.000000	99.612430 
2464.000000	99.613731 
2463.000000	99.611729 
2462.000000	99.608562 
2461.000000	99.607511 
2460.000000	99.609504 
2459.000000	99.611893 
2458.000000	99.611706 
2457.000000	99.609219 
2456.000000	99.607028 
2455.000000	99.606430 
2454.000000	99.606367 
2453.000000	99.605613 
2452.000000	99.604211 
2451.000000	99.602417 
2450.000000	99.599684 
2449.000000	99.595565 
2448.000000	99.590964 
2447.000000	99.587856 
2446.000000	99.587990 
2445.000000	99.591777 
2444.000000	99.597719 
2443.000000	99.602729 
2442.000000	99.603856 
2441.000000	99.600650 
2440.000000	99.595969 
2439.000000	99.594098 
2438.000000	99.597514 
2437.000000	99.604836 
2436.000000	99.611636 
2435.000000	99.613849 
2434.000000	99.611091 
2433.000000	99.606736 
2432.000000	99.604622 
2431.000000	99.605928 
2430.000000	99.609143 
2429.000000	99.611937 
2428.000000	99.612384 
2427.000000	99.609476 
2426.000000	99.604002 
2425.000000	99.598682 
2424.000000	99.596324 
2423.000000	99.597899 
2422.000000	99.602951 
2421.000000	99.610688 
2420.000000	99.619059 
2419.000000	99.623805 
2418.000000	99.621280 
2417.000000	99.612729 
2416.000000	99.603623 
2415.000000	99.597973 
2414.000000	99.595172 
2413.000000	99.593050 
2412.000000	99.591590 
2411.000000	99.591931 
2410.000000	99.593496 
2409.000000	99.594331 
2408.000000	99.593504 
2407.000000	99.591552 
2406.000000	99.589370 
2405.000000	99.588143 
2404.000000	99.589399 
2403.000000	99.593107 
2402.000000	99.596288 
2401.000000	99.595490 
2400.000000	99.590672 
2399.000000	99.585050 
2398.000000	99.581286 
2397.000000	99.579496 
2396.000000	99.578869 
2395.000000	99.579158 
2394.000000	99.579951 
2393.000000	99.580266 
2392.000000	99.579817 
2391.000000	99.579423 
2390.000000	99.579277 
2389.000000	99.578169 
2388.000000	99.575653 
2387.000000	99.573857 
2386.000000	99.575334 
2385.000000	99.579327 
2384.000000	99.581899 
2383.000000	99.580351 
2382.000000	99.576477 
2381.000000	99.574473 
2380.000000	99.576247 
2379.000000	99.580149 
2378.000000	99.584584 
2377.000000	99.590690 
2376.000000	99.599548 
2375.000000	99.608284 
2374.000000	99.612030 
2373.000000	99.608909 
2372.000000	99.600437 
2371.000000	99.588220 
2370.000000	99.574211 
2369.000000	99.563054 
2368.000000	99.558688 
2367.000000	99.558983 
2366.000000	99.559408 
2365.000000	99.560593 
2364.000000	99.565601 
2363.000000	99.570227 
2362.000000	99.564587 
2361.000000	99.546228 
2360.000000	99.523006 
2359.000000	99.504282 
2358.000000	99.496166 
2357.000000	99.501042 
2356.000000	99.517590 
2355.000000	99.539194 
2354.000000	99.562819 
2353.000000	99.584537 
2352.000000	99.596352 
2351.000000	99.592683 
2350.000000	99.575246 
2349.000000	99.552505 
2348.000000	99.533810 
2347.000000	99.528802 
2346.000000	99.539849 
2345.000000	99.555512 
2344.000000	99.563970 
2343.000000	99.562424 
2342.000000	99.558022 
2341.000000	99.554766 
2340.000000	99.553509 
2339.000000	99.554896 
2338.000000	99.559649 
2337.000000	99.565941 
2336.000000	99.566223 
2335.000000	99.558398 
2334.000000	99.549331 
2333.000000	99.549800 
2332.000000	99.558046 
2331.000000	99.567829 
2330.000000	99.571380 
2329.000000	99.570282 
2328.000000	99.565301 
2327.000000	99.562435 
2326.000000	99.563918 
2325.000000	99.566613 
2324.000000	99.564108 
2323.000000	99.557273 
2322.000000	99.554842 
2321.000000	99.561118 
2320.000000	99.569044 
2319.000000	99.571489 
2318.000000	99.567678 
2317.000000	99.564487 
2316.000000	99.564143 
2315.000000	99.567632 
2314.000000	99.572049 
2313.000000	99.577637 
2312.000000	99.582118 
2311.000000	99.586456 
2310.000000	99.589873 
2309.000000	99.592682 
2308.000000	99.593050 
2307.000000	99.592618 
2306.000000	99.592945 
2305.000000	99.595199 
2304.000000	99.597619 
2303.000000	99.600464 
2302.000000	99.603832 
2301.000000	99.607840 
2300.000000	99.610836 
2299.000000	99.614425 
2298.000000	99.619579 
2297.000000	99.624717 
2296.000000	99.624021 
2295.000000	99.616404 
2294.000000	99.607428 
2293.000000	99.605077 
2292.000000	99.610920 
2291.000000	99.620566 
2290.000000	99.628806 
2289.000000	99.633231 
2288.000000	99.633885 
2287.000000	99.632072 
2286.000000	99.629892 
2285.000000	99.628136 
2284.000000	99.625818 
2283.000000	99.621814 
2282.000000	99.617549 
2281.000000	99.615489 
2280.000000	99.616205 
2279.000000	99.617684 
2278.000000	99.618183 
2277.000000	99.618278 
2276.000000	99.619882 
2275.000000	99.624185 
2274.000000	99.630043 
2273.000000	99.634275 
2272.000000	99.633909 
2271.000000	99.629782 
2270.000000	99.626570 
2269.000000	99.628115 
2268.000000	99.633088 
2267.000000	99.637145 
2266.000000	99.638234 
2265.000000	99.637794 
2264.000000	99.636962 
2263.000000	99.634561 
2262.000000	99.629871 
2261.000000	99.625166 
2260.000000	99.623887 
2259.000000	99.626726 
2258.000000	99.631233 
2257.000000	99.634753 
2256.000000	99.636972 
2255.000000	99.639055 
2254.000000	99.641169 
2253.000000	99.642098 
2252.000000	99.641219 
2251.000000	99.640045 
2250.000000	99.640428 
2249.000000	99.642070 
2248.000000	99.642340 
2247.000000	99.639476 
2246.000000	99.634357 
2245.000000	99.629635 
2244.000000	99.627593 
2243.000000	99.628963 
2242.000000	99.632873 
2241.000000	99.637878 
2240.000000	99.643864 
2239.000000	99.652488 
2238.000000	99.664137 
2237.000000	99.674626 
2236.000000	99.677572 
2235.000000	99.671259 
2234.000000	99.661413 
2233.000000	99.655528 
2232.000000	99.655516 
2231.000000	99.657230 
2230.000000	99.655972 
2229.000000	99.650659 
2228.000000	99.643289 
2227.000000	99.636383 
2226.000000	99.631380 
2225.000000	99.628709 
2224.000000	99.629086 
2223.000000	99.634285 
2222.000000	99.644787 
2221.000000	99.656099 
2220.000000	99.660344 
2219.000000	99.654586 
2218.000000	99.646114 
2217.000000	99.645815 
2216.000000	99.655885 
2215.000000	99.667227 
2214.000000	99.669797 
2213.000000	99.662643 
2212.000000	99.652550 
2211.000000	99.646092 
2210.000000	99.646074 
2209.000000	99.653083 
2208.000000	99.665315 
2207.000000	99.676166 
2206.000000	99.676262 
2205.000000	99.661523 
2204.000000	99.638691 
2203.000000	99.620659 
2202.000000	99.616142 
2201.000000	99.624103 
2200.000000	99.636915 
2199.000000	99.647326 
2198.000000	99.652637 
2197.000000	99.654500 
2196.000000	99.656448 
2195.000000	99.661086 
2194.000000	99.668019 
2193.000000	99.673417 
2192.000000	99.672223 
2191.000000	99.662899 
2190.000000	99.651470 
2189.000000	99.649115 
2188.000000	99.661456 
2187.000000	99.679131 
2186.000000	99.683235 
2185.000000	99.664290 
2184.000000	99.634232 
2183.000000	99.615146 
2182.000000	99.617194 
2181.000000	99.631708 
2180.000000	99.644707 
2179.000000	99.650619 
2178.000000	99.651389 
2177.000000	99.649625 
2176.000000	99.647366 
2175.000000	99.647025 
2174.000000	99.648816 
2173.000000	99.650216 
2172.000000	99.651977 
2171.000000	99.661152 
2170.000000	99.682907 
2169.000000	99.711147 
2168.000000	99.732541 
2167.000000	99.739504 
2166.000000	99.735307 
2165.000000	99.728338 
2164.000000	99.726486 
2163.000000	99.735269 
2162.000000	99.753236 
2161.000000	99.766515 
2160.000000	99.755431 
2159.000000	99.713600 
2158.000000	99.657592 
2157.000000	99.612108 
2156.000000	99.588715 
2155.000000	99.583859 
2154.000000	99.591131 
2153.000000	99.607517 
2152.000000	99.629526 
2151.000000	99.649389 
2150.000000	99.658798 
2149.000000	99.656963 
2148.000000	99.653031 
2147.000000	99.657236 
2146.000000	99.668873 
2145.000000	99.676037 
2144.000000	99.669617 
2143.000000	99.654565 
2142.000000	99.643308 
2141.000000	99.640125 
2140.000000	99.637418 
2139.000000	99.627958 
2138.000000	99.615230 
2137.000000	99.608334 
2136.000000	99.610059 
2135.000000	99.614645 
2134.000000	99.616712 
2133.000000	99.618032 
2132.000000	99.623511 
2131.000000	99.632749 
2130.000000	99.638632 
2129.000000	99.634917 
2128.000000	99.623526 
2127.000000	99.612434 
2126.000000	99.607067 
2125.000000	99.606461 
2124.000000	99.608035 
2123.000000	99.612365 
2122.000000	99.620447 
2121.000000	99.629197 
2120.000000	99.634285 
2119.000000	99.636584 
2118.000000	99.641262 
2117.000000	99.650018 
2116.000000	99.658258 
2115.000000	99.661226 
2114.000000	99.659232 
2113.000000	99.655030 
2112.000000	99.649640 
2111.000000	99.643918 
2110.000000	99.641514 
2109.000000	99.645762 
2108.000000	99.653869 
2107.000000	99.657741 
2106.000000	99.651851 
2105.000000	99.639051 
2104.000000	99.628227 
2103.000000	99.626796 
2102.000000	99.634871 
2101.000000	99.645225 
2100.000000	99.649156 
2099.000000	99.643871 
2098.000000	99.634793 
2097.000000	99.630395 
2096.000000	99.634568 
2095.000000	99.643891 
2094.000000	99.651441 
2093.000000	99.652502 
2092.000000	99.647590 
2091.000000	99.641542 
2090.000000	99.639850 
2089.000000	99.644382 
2088.000000	99.651450 
2087.000000	99.654325 
2086.000000	99.648693 
2085.000000	99.636914 
2084.000000	99.627118 
2083.000000	99.626806 
2082.000000	99.636364 
2081.000000	99.649177 
2080.000000	99.658793 
2079.000000	99.665226 
2078.000000	99.673053 
2077.000000	99.684322 
2076.000000	99.695208 
2075.000000	99.699429 
2074.000000	99.693311 
2073.000000	99.678169 
2072.000000	99.659868 
2071.000000	99.645783 
2070.000000	99.639916 
2069.000000	99.640022 
2068.000000	99.640415 
2067.000000	99.637765 
2066.000000	99.633377 
2065.000000	99.631173 
2064.000000	99.635323 
2063.000000	99.648077 
2062.000000	99.665937 
2061.000000	99.678400 
2060.000000	99.676032 
2059.000000	99.661791 
2058.000000	99.650059 
2057.000000	99.651742 
2056.000000	99.663607 
2055.000000	99.675211 
2054.000000	99.682748 
2053.000000	99.691193 
2052.000000	99.704259 
2051.000000	99.717456 
2050.000000	99.722323 
2049.000000	99.715280 
2048.000000	99.701170 
2047.000000	99.688557 
2046.000000	99.682724 
2045.000000	99.682854 
2044.000000	99.684202 
2043.000000	99.682478 
2042.000000	99.677240 
2041.000000	99.672360 
2040.000000	99.673097 
2039.000000	99.681338 
2038.000000	99.693006 
2037.000000	99.700959 
2036.000000	99.701124 
2035.000000	99.694068 
2034.000000	99.680072 
2033.000000	99.657766 
2032.000000	99.632006 
2031.000000	99.618172 
2030.000000	99.629612 
2029.000000	99.659918 
2028.000000	99.685158 
2027.000000	99.687382 
2026.000000	99.670361 
2025.000000	99.650777 
2024.000000	99.640670 
2023.000000	99.642192 
2022.000000	99.652475 
2021.000000	99.665625 
2020.000000	99.673039 
2019.000000	99.669531 
2018.000000	99.659647 
2017.000000	99.653538 
2016.000000	99.655941 
2015.000000	99.662859 
2014.000000	99.668365 
2013.000000	99.670002 
2012.000000	99.668427 
2011.000000	99.666244 
2010.000000	99.667635 
2009.000000	99.675427 
2008.000000	99.686929 
2007.000000	99.695155 
2006.000000	99.695362 
2005.000000	99.688972 
2004.000000	99.680932 
2003.000000	99.674817 
2002.000000	99.670580 
2001.000000	99.665012 
2000.000000	99.654235 
1999.000000	99.637408 
1998.000000	99.618490 
1997.000000	99.603772 
1996.000000	99.597670 
1995.000000	99.600918 
1994.000000	99.611463 
1993.000000	99.625531 
1992.000000	99.638248 
1991.000000	99.645065 
1990.000000	99.643792 
1989.000000	99.636117 
1988.000000	99.628360 
1987.000000	99.629423 
1986.000000	99.644459 
1985.000000	99.669393 
1984.000000	99.693622 
1983.000000	99.708731 
1982.000000	99.712907 
1981.000000	99.707747 
1980.000000	99.695097 
1979.000000	99.678455 
1978.000000	99.663421 
1977.000000	99.652982 
1976.000000	99.644649 
1975.000000	99.635565 
1974.000000	99.628198 
1973.000000	99.627659 
1972.000000	99.635065 
1971.000000	99.646585 
1970.000000	99.658052 
1969.000000	99.667946 
1968.000000	99.676221 
1967.000000	99.682391 
1966.000000	99.685658 
1965.000000	99.685987 
1964.000000	99.684201 
1963.000000	99.681201 
1962.000000	99.677549 
1961.000000	99.673973 
1960.000000	99.671694 
1959.000000	99.671168 
1958.000000	99.670655 
1957.000000	99.667761 
1956.000000	99.662851 
1955.000000	99.658583 
1954.000000	99.654662 
1953.000000	99.645936 
1952.000000	99.629012 
1951.000000	99.609352 
1950.000000	99.597841 
1949.000000	99.599738 
1948.000000	99.609744 
1947.000000	99.618495 
1946.000000	99.620381 
1945.000000	99.614410 
1944.000000	99.602005 
1943.000000	99.587117 
1942.000000	99.575521 
1941.000000	99.570187 
1940.000000	99.569473 
1939.000000	99.571426 
1938.000000	99.576404 
1937.000000	99.584298 
1936.000000	99.592148 
1935.000000	99.596588 
1934.000000	99.596840 
1933.000000	99.594002 
1932.000000	99.589517 
1931.000000	99.586529 
1930.000000	99.590393 
1929.000000	99.603433 
1928.000000	99.619695 
1927.000000	99.628663 
1926.000000	99.624455 
1925.000000	99.609413 
1924.000000	99.590770 
1923.000000	99.576481 
1922.000000	99.572744 
1921.000000	99.580939 
1920.000000	99.596148 
1919.000000	99.610070 
1918.000000	99.616411 
1917.000000	99.614633 
1916.000000	99.608950 
1915.000000	99.604813 
1914.000000	99.606224 
1913.000000	99.613286 
1912.000000	99.621123 
1911.000000	99.623489 
1910.000000	99.618602 
1909.000000	99.610287 
1908.000000	99.603712 
1907.000000	99.602088 
1906.000000	99.606654 
1905.000000	99.615472 
1904.000000	99.621929 
1903.000000	99.618425 
1902.000000	99.603850 
1901.000000	99.585761 
1900.000000	99.574145 
1899.000000	99.573584 
1898.000000	99.581162 
1897.000000	99.589749 
1896.000000	99.593136 
1895.000000	99.590474 
1894.000000	99.586720 
1893.000000	99.587112 
1892.000000	99.591412 
1891.000000	99.594938 
1890.000000	99.594506 
1889.000000	99.591957 
1888.000000	99.591219 
1887.000000	99.593915 
1886.000000	99.598605 
1885.000000	99.602348 
1884.000000	99.602830 
1883.000000	99.600297 
1882.000000	99.597550 
1881.000000	99.597277 
1880.000000	99.599653 
1879.000000	99.602475 
1878.000000	99.602669 
1877.000000	99.597928 
1876.000000	99.589071 
1875.000000	99.581469 
1874.000000	99.581734 
1873.000000	99.590604 
1872.000000	99.600320 
1871.000000	99.601371 
1870.000000	99.591786 
1869.000000	99.578886 
1868.000000	99.569882 
1867.000000	99.564649 
1866.000000	99.560897 
1865.000000	99.558979 
1864.000000	99.560437 
1863.000000	99.565898 
1862.000000	99.574803 
1861.000000	99.585123 
1860.000000	99.593242 
1859.000000	99.596510 
1858.000000	99.596360 
1857.000000	99.596660 
1856.000000	99.599106 
1855.000000	99.602444 
1854.000000	99.605210 
1853.000000	99.606724 
1852.000000	99.606101 
1851.000000	99.602387 
1850.000000	99.596392 
1849.000000	99.590662 
1848.000000	99.587004 
1847.000000	99.585136 
1846.000000	99.584170 
1845.000000	99.583375 
1844.000000	99.581208 
1843.000000	99.576778 
1842.000000	99.572963 
1841.000000	99.573867 
1840.000000	99.580280 
1839.000000	99.588759 
1838.000000	99.594645 
1837.000000	99.596042 
1836.000000	99.594593 
1835.000000	99.592978 
1834.000000	99.592602 
1833.000000	99.593338 
1832.000000	99.594563 
1831.000000	99.595376 
1830.000000	99.595042 
1829.000000	99.593738 
1828.000000	99.592333 
1827.000000	99.590617 
1826.000000	99.587692 
1825.000000	99.585221 
1824.000000	99.586852 
1823.000000	99.593040 
1822.000000	99.599359 
1821.000000	99.600051 
1820.000000	99.592931 
1819.000000	99.581330 
1818.000000	99.571651 
1817.000000	99.568452 
1816.000000	99.570785 
1815.000000	99.574069 
1814.000000	99.575604 
1813.000000	99.577026 
1812.000000	99.581659 
1811.000000	99.589882 
1810.000000	99.599026 
1809.000000	99.606775 
1808.000000	99.611208 
1807.000000	99.609820 
1806.000000	99.601932 
1805.000000	99.590906 
1804.000000	99.581937 
1803.000000	99.578018 
1802.000000	99.579071 
1801.000000	99.583813 
1800.000000	99.589412 
1799.000000	99.592059 
1798.000000	99.590738 
1797.000000	99.588029 
1796.000000	99.586811 
1795.000000	99.587849 
1794.000000	99.589959 
1793.000000	99.591536 
1792.000000	99.592037 
1791.000000	99.591676 
1790.000000	99.591368 
1789.000000	99.592663 
1788.000000	99.596326 
1787.000000	99.601536 
1786.000000	99.606128 
1785.000000	99.607482 
1784.000000	99.604215 
1783.000000	99.598601 
1782.000000	99.595230 
1781.000000	99.596210 
1780.000000	99.597708 
1779.000000	99.594020 
1778.000000	99.585147 
1777.000000	99.576710 
1776.000000	99.573905 
1775.000000	99.578209 
1774.000000	99.587986 
1773.000000	99.599313 
1772.000000	99.606673 
1771.000000	99.606936 
1770.000000	99.602744 
1769.000000	99.598752 
1768.000000	99.597867 
1767.000000	99.599372 
1766.000000	99.600514 
1765.000000	99.600178 
1764.000000	99.598958 
1763.000000	99.597966 
1762.000000	99.598178 
1761.000000	99.600033 
1760.000000	99.603137 
1759.000000	99.606353 
1758.000000	99.608223 
1757.000000	99.607948 
1756.000000	99.605711 
1755.000000	99.601896 
1754.000000	99.596213 
1753.000000	99.588711 
1752.000000	99.582837 
1751.000000	99.584740 
1750.000000	99.594773 
1749.000000	99.605087 
1748.000000	99.609526 
1747.000000	99.608640 
1746.000000	99.605983 
1745.000000	99.603998 
1744.000000	99.603606 
1743.000000	99.604662 
1742.000000	99.605783 
1741.000000	99.605781 
1740.000000	99.604938 
1739.000000	99.604398 
1738.000000	99.604588 
1737.000000	99.604896 
1736.000000	99.603459 
1735.000000	99.598092 
1734.000000	99.590015 
1733.000000	99.583869 
1732.000000	99.583358 
1731.000000	99.588402 
1730.000000	99.595397 
1729.000000	99.599766 
1728.000000	99.600001 
1727.000000	99.598328 
1726.000000	99.596762 
1725.000000	99.595012 
1724.000000	99.592634 
1723.000000	99.591593 
1722.000000	99.594624 
1721.000000	99.602107 
1720.000000	99.611212 
1719.000000	99.617420 
1718.000000	99.617250 
1717.000000	99.612032 
1716.000000	99.605333 
1715.000000	99.598750 
1714.000000	99.593892 
1713.000000	99.592097 
1712.000000	99.592496 
1711.000000	99.593717 
1710.000000	99.595486 
1709.000000	99.597723 
1708.000000	99.599324 
1707.000000	99.599176 
1706.000000	99.599354 
1705.000000	99.602964 
1704.000000	99.607561 
1703.000000	99.606667 
1702.000000	99.597669 
1701.000000	99.587751 
1700.000000	99.588295 
1699.000000	99.594235 
1698.000000	99.596682 
1697.000000	99.596826 
1696.000000	99.598631 
1695.000000	99.601318 
1694.000000	99.602579 
1693.000000	99.602443 
1692.000000	99.599960 
1691.000000	99.594837 
1690.000000	99.589793 
1689.000000	99.588255 
1688.000000	99.589709 
1687.000000	99.589909 
1686.000000	99.586128 
1685.000000	99.581048 
1684.000000	99.580159 
1683.000000	99.581207 
1682.000000	99.580898 
1681.000000	99.579556 
1680.000000	99.578848 
1679.000000	99.579657 
1678.000000	99.581621 
1677.000000	99.584134 
1676.000000	99.586976 
1675.000000	99.589800 
1674.000000	99.590943 
1673.000000	99.590565 
1672.000000	99.590440 
1671.000000	99.591588 
1670.000000	99.593084 
1669.000000	99.592300 
1668.000000	99.588908 
1667.000000	99.585382 
1666.000000	99.582004 
1665.000000	99.577677 
1664.000000	99.573765 
1663.000000	99.574413 
1662.000000	99.580749 
1661.000000	99.588259 
1660.000000	99.592694 
1659.000000	99.594369 
1658.000000	99.595690 
1657.000000	99.596927 
1656.000000	99.594948 
1655.000000	99.587518 
1654.000000	99.580083 
1653.000000	99.580443 
1652.000000	99.581369 
1651.000000	99.581480 
1650.000000	99.580840 
1649.000000	99.577124 
1648.000000	99.569874 
1647.000000	99.561955 
1646.000000	99.556533 
1645.000000	99.555752 
1644.000000	99.560068 
1643.000000	99.567093 
1642.000000	99.573283 
1641.000000	99.576628 
1640.000000	99.577371 
1639.000000	99.577002 
1638.000000	99.576733 
1637.000000	99.576838 
1636.000000	99.576608 
1635.000000	99.574942 
1634.000000	99.573863 
1633.000000	99.575421 
1632.000000	99.578302 
1631.000000	99.580495 
1630.000000	99.580926 
1629.000000	99.579473 
1628.000000	99.576877 
1627.000000	99.574833 
1626.000000	99.574896 
1625.000000	99.577614 
1624.000000	99.582561 
1623.000000	99.588344 
1622.000000	99.592675 
1621.000000	99.594237 
1620.000000	99.593415 
1619.000000	99.591578 
1618.000000	99.590694 
1617.000000	99.591460 
1616.000000	99.591431 
1615.000000	99.589312 
1614.000000	99.586110 
1613.000000	99.582198 
1612.000000	99.578219 
1611.000000	99.575299 
1610.000000	99.573634 
1609.000000	99.572145 
1608.000000	99.570448 
1607.000000	99.569740 
1606.000000	99.570382 
1605.000000	99.571280 
1604.000000	99.572214 
1603.000000	99.574557 
1602.000000	99.578352 
1601.000000	99.580933 
1600.000000	99.580517 
1599.000000	99.578902 
1598.000000	99.578794 
1597.000000	99.580608 
1596.000000	99.583348 
1595.000000	99.586718 
1594.000000	99.590315 
1593.000000	99.592131 
1592.000000	99.590789 
1591.000000	99.588371 
1590.000000	99.588397 
1589.000000	99.591160 
1588.000000	99.593780 
1587.000000	99.594446 
1586.000000	99.593510 
1585.000000	99.591039 
1584.000000	99.586684 
1583.000000	99.581661 
1582.000000	99.578953 
1581.000000	99.580071 
1580.000000	99.583659 
1579.000000	99.587460 
1578.000000	99.590046 
1577.000000	99.590336 
1576.000000	99.587860 
1575.000000	99.585462 
1574.000000	99.586214 
1573.000000	99.587748 
1572.000000	99.586551 
1571.000000	99.583198 
1570.000000	99.582032 
1569.000000	99.584184 
1568.000000	99.586166 
1567.000000	99.586421 
1566.000000	99.585815 
1565.000000	99.585285 
1564.000000	99.585536 
1563.000000	99.586972 
1562.000000	99.589151 
1561.000000	99.589670 
1560.000000	99.586770 
1559.000000	99.585818 
1558.000000	99.585697 
1557.000000	99.583427 
1556.000000	99.582223 
1555.000000	99.582435 
1554.000000	99.582137 
1553.000000	99.579424 
1552.000000	99.575381 
1551.000000	99.573555 
1550.000000	99.577068 
1549.000000	99.584265 
1548.000000	99.589865 
1547.000000	99.590309 
1546.000000	99.585386 
1545.000000	99.578213 
1544.000000	99.572846 
1543.000000	99.570178 
1542.000000	99.569280 
1541.000000	99.571209 
1540.000000	99.575223 
1539.000000	99.576539 
1538.000000	99.576137 
1537.000000	99.576793 
1536.000000	99.577756 
1535.000000	99.578608 
1534.000000	99.581213 
1533.000000	99.585411 
1532.000000	99.586781 
1531.000000	99.583608 
1530.000000	99.579255 
1529.000000	99.577184 
1528.000000	99.577284 
1527.000000	99.577453 
1526.000000	99.576638 
1525.000000	99.575287 
1524.000000	99.573435 
1523.000000	99.571485 
1522.000000	99.573091 
1521.000000	99.580362 
1520.000000	99.586188 
1519.000000	99.584492 
1518.000000	99.577363 
1517.000000	99.570851 
1516.000000	99.568064 
1515.000000	99.566785 
1514.000000	99.564906 
1513.000000	99.562802 
1512.000000	99.561441 
1511.000000	99.560532 
1510.000000	99.558572 
1509.000000	99.555823 
1508.000000	99.557843 
1507.000000	99.570752 
1506.000000	99.582436 
1505.000000	99.581032 
1504.000000	99.573450 
1503.000000	99.566022 
1502.000000	99.561307 
1501.000000	99.560618 
1500.000000	99.563292 
1499.000000	99.566373 
1498.000000	99.567484 
1497.000000	99.569219 
1496.000000	99.574707 
1495.000000	99.579847 
1494.000000	99.578741 
1493.000000	99.570735 
1492.000000	99.558980 
1491.000000	99.548243 
1490.000000	99.542468 
1489.000000	99.541511 
1488.000000	99.541151 
1487.000000	99.538603 
1486.000000	99.536109 
1485.000000	99.536179 
1484.000000	99.538150 
1483.000000	99.539932 
1482.000000	99.539922 
1481.000000	99.537989 
1480.000000	99.534970 
1479.000000	99.531739 
1478.000000	99.529115 
1477.000000	99.527700 
1476.000000	99.526773 
1475.000000	99.523615 
1474.000000	99.517984 
1473.000000	99.515024 
1472.000000	99.517848 
1471.000000	99.520884 
1470.000000	99.519837 
1469.000000	99.516961 
1468.000000	99.516044 
1467.000000	99.518268 
1466.000000	99.522082 
1465.000000	99.525068 
1464.000000	99.525180 
1463.000000	99.522519 
1462.000000	99.519262 
1461.000000	99.517401 
1460.000000	99.516838 
1459.000000	99.515533 
1458.000000	99.510808 
1457.000000	99.502260 
1456.000000	99.491948 
1455.000000	99.482508 
1454.000000	99.475757 
1453.000000	99.472058 
1452.000000	99.470673 
1451.000000	99.470482 
1450.000000	99.471496 
1449.000000	99.475318 
1448.000000	99.482245 
1447.000000	99.489007 
1446.000000	99.492692 
1445.000000	99.494243 
1444.000000	99.494991 
1443.000000	99.494035 
1442.000000	99.490718 
1441.000000	99.487091 
1440.000000	99.486161 
1439.000000	99.488497 
1438.000000	99.491424 
1437.000000	99.492476 
1436.000000	99.491161 
1435.000000	99.486823 
1434.000000	99.480207 
1433.000000	99.474562 
1432.000000	99.472914 
1431.000000	99.476188 
1430.000000	99.481840 
1429.000000	99.486079 
1428.000000	99.487216 
1427.000000	99.485480 
1426.000000	99.481537 
1425.000000	99.476340 
1424.000000	99.472117 
1423.000000	99.469929 
1422.000000	99.466833 
1421.000000	99.459336 
1420.000000	99.447828 
1419.000000	99.436895 
1418.000000	99.427336 
1417.000000	99.416388 
1416.000000	99.404837 
1415.000000	99.393928 
1414.000000	99.382098 
1413.000000	99.367519 
1412.000000	99.352023 
1411.000000	99.339452 
1410.000000	99.330217 
1409.000000	99.322377 
1408.000000	99.316382 
1407.000000	99.314172 
1406.000000	99.315900 
1405.000000	99.320793 
1404.000000	99.329474 
1403.000000	99.341050 
1402.000000	99.351090 
1401.000000	99.356625 
1400.000000	99.359882 
1399.000000	99.364462 
1398.000000	99.366355 
1397.000000	99.356290 
1396.000000	99.332356 
1395.000000	99.306575 
1394.000000	99.296195 
1393.000000	99.306997 
1392.000000	99.332227 
1391.000000	99.361054 
1390.000000	99.383812 
1389.000000	99.394946 
1388.000000	99.394775 
1387.000000	99.388123 
1386.000000	99.379447 
1385.000000	99.371326 
1384.000000	99.366123 
1383.000000	99.365286 
1382.000000	99.367544 
1381.000000	99.370601 
1380.000000	99.373883 
1379.000000	99.378243 
1378.000000	99.383344 
1377.000000	99.387471 
1376.000000	99.390836 
1375.000000	99.396946 
1374.000000	99.408267 
1373.000000	99.421386 
1372.000000	99.431154 
1371.000000	99.437545 
1370.000000	99.444847 
1369.000000	99.455482 
1368.000000	99.468140 
1367.000000	99.480101 
1366.000000	99.489342 
1365.000000	99.494801 
1364.000000	99.496314 
1363.000000	99.495872 
1362.000000	99.496931 
1361.000000	99.500520 
1360.000000	99.504536 
1359.000000	99.507309 
1358.000000	99.509657 
1357.000000	99.513308 
1356.000000	99.518674 
1355.000000	99.524540 
1354.000000	99.529299 
1353.000000	99.531856 
1352.000000	99.531382 
1351.000000	99.527911 
1350.000000	99.524132 
1349.000000	99.523002 
1348.000000	99.525366 
1347.000000	99.530026 
1346.000000	99.535508 
1345.000000	99.540506 
1344.000000	99.543770 
1343.000000	99.544727 
1342.000000	99.544038 
1341.000000	99.542663 
1340.000000	99.540872 
1339.000000	99.538754 
1338.000000	99.536967 
1337.000000	99.536520 
1336.000000	99.537925 
1335.000000	99.540810 
1334.000000	99.544491 
1333.000000	99.548309 
1332.000000	99.551202 
1331.000000	99.551962 
1330.000000	99.550386 
1329.000000	99.547474 
1328.000000	99.544594 
1327.000000	99.542684 
1326.000000	99.542203 
1325.000000	99.542796 
1324.000000	99.544231 
1323.000000	99.546705 
1322.000000	99.549772 
1321.000000	99.551758 
1320.000000	99.551231 
1319.000000	99.548663 
1318.000000	99.545711 
1317.000000	99.543265 
1316.000000	99.540908 
1315.000000	99.538150 
1314.000000	99.535428 
1313.000000	99.533975 
1312.000000	99.534803 
1311.000000	99.537676 
1310.000000	99.541136 
1309.000000	99.543738 
1308.000000	99.545179 
1307.000000	99.545773 
1306.000000	99.545498 
1305.000000	99.544088 
1304.000000	99.542780 
1303.000000	99.543915 
1302.000000	99.548093 
1301.000000	99.552692 
1300.000000	99.554354 
1299.000000	99.552288 
1298.000000	99.548466 
1297.000000	99.545408 
1296.000000	99.544511 
1295.000000	99.546000 
1294.000000	99.548976 
1293.000000	99.551567 
1292.000000	99.551918 
1291.000000	99.549360 
1290.000000	99.544750 
1289.000000	99.539979 
1288.000000	99.536938 
1287.000000	99.536047 
1286.000000	99.535470 
1285.000000	99.532820 
1284.000000	99.528048 
1283.000000	99.523535 
1282.000000	99.520985 
1281.000000	99.519559 
1280.000000	99.517764 
1279.000000	99.515718 
1278.000000	99.513974 
1277.000000	99.511443 
1276.000000	99.506402 
1275.000000	99.499410 
1274.000000	99.493326 
1273.000000	99.490120 
1272.000000	99.488766 
1271.000000	99.486346 
1270.000000	99.480461 
1269.000000	99.470864 
1268.000000	99.459733 
1267.000000	99.450151 
1266.000000	99.443221 
1265.000000	99.437140 
1264.000000	99.429798 
1263.000000	99.421280 
1262.000000	99.412847 
1261.000000	99.404824 
1260.000000	99.397209 
1259.000000	99.391378 
1258.000000	99.388678 
1257.000000	99.387961 
1256.000000	99.386608 
1255.000000	99.383794 
1254.000000	99.380787 
1253.000000	99.378160 
1252.000000	99.374918 
1251.000000	99.371006 
1250.000000	99.368692 
1249.000000	99.370538 
1248.000000	99.377268 
1247.000000	99.387673 
1246.000000	99.398428 
1245.000000	99.403848 
1244.000000	99.398992 
1243.000000	99.385552 
1242.000000	99.373178 
1241.000000	99.371892 
1240.000000	99.382808 
1239.000000	99.397489 
1238.000000	99.406179 
1237.000000	99.405485 
1236.000000	99.398357 
1235.000000	99.389085 
1234.000000	99.379899 
1233.000000	99.371369 
1232.000000	99.363987 
1231.000000	99.358255 
1230.000000	99.353768 
1229.000000	99.349383 
1228.000000	99.344811 
1227.000000	99.341603 
1226.000000	99.341862 
1225.000000	99.345780 
1224.000000	99.350787 
1223.000000	99.353435 
1222.000000	99.352205 
1221.000000	99.348559 
1220.000000	99.345452 
1219.000000	99.344932 
1218.000000	99.346729 
1217.000000	99.348752 
1216.000000	99.348831 
1215.000000	99.346327 
1214.000000	99.342521 
1213.000000	99.339520 
1212.000000	99.338270 
1211.000000	99.337212 
1210.000000	99.333402 
1209.000000	99.325611 
1208.000000	99.315996 
1207.000000	99.307941 
1206.000000	99.302529 
1205.000000	99.298074 
1204.000000	99.292868 
1203.000000	99.286788 
1202.000000	99.279799 
1201.000000	99.270618 
1200.000000	99.258431 
1199.000000	99.245144 
1198.000000	99.234194 
1197.000000	99.227152 
1196.000000	99.222540 
1195.000000	99.217730 
1194.000000	99.211015 
1193.000000	99.201921 
1192.000000	99.190750 
1191.000000	99.178362 
1190.000000	99.165945 
1189.000000	99.154700 
1188.000000	99.145735 
1187.000000	99.139580 
1186.000000	99.135047 
1185.000000	99.129028 
1184.000000	99.118469 
1183.000000	99.102863 
1182.000000	99.084724 
1181.000000	99.067867 
1180.000000	99.055241 
1179.000000	99.047319 
1178.000000	99.041376 
1177.000000	99.032964 
1176.000000	99.019596 
1175.000000	99.003179 
1174.000000	98.988003 
1173.000000	98.976371 
1172.000000	98.967178 
1171.000000	98.958337 
1170.000000	98.948922 
1169.000000	98.938613 
1168.000000	98.926571 
1167.000000	98.911987 
1166.000000	98.895411 
1165.000000	98.879165 
1164.000000	98.866749 
1163.000000	98.861491 
1162.000000	98.864410 
1161.000000	98.872758 
1160.000000	98.881415 
1159.000000	98.886569 
1158.000000	98.887957 
1157.000000	98.887330 
1156.000000	98.885296 
1155.000000	98.880260 
1154.000000	98.870183 
1153.000000	98.854855 
1152.000000	98.836634 
1151.000000	98.819335 
1150.000000	98.806029 
1149.000000	98.797128 
1148.000000	98.790205 
1147.000000	98.781630 
1146.000000	98.768624 
1145.000000	98.750507 
1144.000000	98.728938 
1143.000000	98.707431 
1142.000000	98.689826 
1141.000000	98.678034 
1140.000000	98.670703 
1139.000000	98.664101 
1138.000000	98.654678 
1137.000000	98.641266 
1136.000000	98.625278 
1135.000000	98.609062 
1134.000000	98.594019 
1133.000000	98.579971 
1132.000000	98.565865 
1131.000000	98.550820 
1130.000000	98.534580 
1129.000000	98.517251 
1128.000000	98.498806 
1127.000000	98.479122 
1126.000000	98.458814 
1125.000000	98.439787 
1124.000000	98.423931 
1123.000000	98.410612 
1122.000000	98.396153 
1121.000000	98.376954 
1120.000000	98.353061 
1119.000000	98.327805 
1118.000000	98.304110 
1117.000000	98.282082 
1116.000000	98.260074 
1115.000000	98.236742 
1114.000000	98.211641 
1113.000000	98.185071 
1112.000000	98.158288 
1111.000000	98.133313 
1110.000000	98.111623 
1109.000000	98.092936 
1108.000000	98.075510 
1107.000000	98.057294 
1106.000000	98.037179 
1105.000000	98.015641 
1104.000000	97.993867 
1103.000000	97.972055 
1102.000000	97.949573 
1101.000000	97.927326 
1100.000000	97.908915 
1099.000000	97.896432 
1098.000000	97.887611 
1097.000000	97.878398 
1096.000000	97.867907 
1095.000000	97.857891 
1094.000000	97.847614 
1093.000000	97.832613 
1092.000000	97.809516 
1091.000000	97.779382 
1090.000000	97.744934 
1089.000000	97.706857 
1088.000000	97.664934 
1087.000000	97.621361 
1086.000000	97.580605 
1085.000000	97.545977 
1084.000000	97.517189 
1083.000000	97.490818 
1082.000000	97.462855 
1081.000000	97.431773 
1080.000000	97.399490 
1079.000000	97.368800 
1078.000000	97.340556 
1077.000000	97.314787 
1076.000000	97.293580 
1075.000000	97.280035 
1074.000000	97.274222 
1073.000000	97.272297 
1072.000000	97.268880 
1071.000000	97.257266 
1070.000000	97.228828 
1069.000000	97.178587 
1068.000000	97.114443 
1067.000000	97.056942 
1066.000000	97.024810 
1065.000000	97.020360 
1064.000000	97.030124 
1063.000000	97.036861 
1062.000000	97.028676 
1061.000000	97.000575 
1060.000000	96.954218 
1059.000000	96.898936 
1058.000000	96.849352 
1057.000000	96.816775 
1056.000000	96.800557 
1055.000000	96.788257 
1054.000000	96.766044 
1053.000000	96.730568 
1052.000000	96.690373 
1051.000000	96.655185 
1050.000000	96.626020 
1049.000000	96.598266 
1048.000000	96.571266 
1047.000000	96.549015 
1046.000000	96.532226 
1045.000000	96.515636 
1044.000000	96.494736 
1043.000000	96.471436 
1042.000000	96.450828 
1041.000000	96.434294 
1040.000000	96.418324 
1039.000000	96.399923 
1038.000000	96.381664 
1037.000000	96.370614 
1036.000000	96.372091 
1035.000000	96.384731 
1034.000000	96.402147 
1033.000000	96.418319 
1032.000000	96.428857 
1031.000000	96.428206 
1030.000000	96.412079 
1029.000000	96.386347 
1028.000000	96.368735 
1027.000000	96.374997 
1026.000000	96.403501 
1025.000000	96.437617 
1024.000000	96.462264 
1023.000000	96.473912 
1022.000000	96.476559 
1021.000000	96.474724 
1020.000000	96.471831 
1019.000000	96.470245 
1018.000000	96.469799 
1017.000000	96.468698 
1016.000000	96.467337 
1015.000000	96.468924 
1014.000000	96.475283 
1013.000000	96.484172 
1012.000000	96.491558 
1011.000000	96.494883 
1010.000000	96.494371 
1009.000000	96.493455 
1008.000000	96.497677 
1007.000000	96.510407 
1006.000000	96.529276 
1005.000000	96.548906 
1004.000000	96.566540 
1003.000000	96.582527 
1002.000000	96.596674 
1001.000000	96.608235 
1000.000000	96.619288 
999.000000	 96.633634 
998.000000	 96.651247 
997.000000	 96.667671 
996.000000	 96.680552 
995.000000	 96.693584 
994.000000	 96.711921 
993.000000	 96.735829 
992.000000	 96.760627 
991.000000	 96.781390 
990.000000	 96.796581 
989.000000	 96.808454 
988.000000	 96.820839 
987.000000	 96.835781 
986.000000	 96.852308 
985.000000	 96.869389 
984.000000	 96.889002 
983.000000	 96.914098 
982.000000	 96.944250 
981.000000	 96.975974 
980.000000	 97.006979 
979.000000	 97.037397 
978.000000	 97.067327 
977.000000	 97.096573 
976.000000	 97.127051 
975.000000	 97.161999 
974.000000	 97.201625 
973.000000	 97.242126 
972.000000	 97.280015 
971.000000	 97.315095 
970.000000	 97.348559 
969.000000	 97.380938 
968.000000	 97.413213 
967.000000	 97.447374 
966.000000	 97.483751 
965.000000	 97.519237 
964.000000	 97.549891 
963.000000	 97.574675 
962.000000	 97.595870 
961.000000	 97.616844 
960.000000	 97.640130 
959.000000	 97.666327 
958.000000	 97.693579 
957.000000	 97.718854 
956.000000	 97.740787 
955.000000	 97.760964 
954.000000	 97.781955 
953.000000	 97.804506 
952.000000	 97.826872 
951.000000	 97.846236 
950.000000	 97.860650 
949.000000	 97.870523 
948.000000	 97.878817 
947.000000	 97.889359 
946.000000	 97.904278 
945.000000	 97.922685 
944.000000	 97.941297 
943.000000	 97.955985 
942.000000	 97.963716 
941.000000	 97.964523 
940.000000	 97.961898 
939.000000	 97.960607 
938.000000	 97.963603 
937.000000	 97.970605 
936.000000	 97.978756 
935.000000	 97.984414 
934.000000	 97.985789 
933.000000	 97.985072 
932.000000	 97.987003 
931.000000	 97.994094 
930.000000	 98.004122 
929.000000	 98.013539 
928.000000	 98.021951 
927.000000	 98.031162 
926.000000	 98.041039 
925.000000	 98.049095 
924.000000	 98.053818 
923.000000	 98.055542 
922.000000	 98.053838 
921.000000	 98.047013 
920.000000	 98.035532 
919.000000	 98.023805 
918.000000	 98.016701 
917.000000	 98.015075 
916.000000	 98.015770 
915.000000	 98.015336 
914.000000	 98.013276 
913.000000	 98.012617 
912.000000	 98.017647 
911.000000	 98.029868 
910.000000	 98.045596 
909.000000	 98.058738 
908.000000	 98.066613 
907.000000	 98.072168 
906.000000	 98.080157 
905.000000	 98.092326 
904.000000	 98.107215 
903.000000	 98.123746 
902.000000	 98.143482 
901.000000	 98.168854 
900.000000	 98.199639 
899.000000	 98.232013 
898.000000	 98.261525 
897.000000	 98.286324 
896.000000	 98.306641 
895.000000	 98.322620 
894.000000	 98.335381 
893.000000	 98.349783 
892.000000	 98.372294 
891.000000	 98.404114 
890.000000	 98.438824 
889.000000	 98.469065 
888.000000	 98.493334 
887.000000	 98.513832 
886.000000	 98.530335 
885.000000	 98.540388 
884.000000	 98.544765 
883.000000	 98.548485 
882.000000	 98.555258 
881.000000	 98.563892 
880.000000	 98.571877 
879.000000	 98.580478 
878.000000	 98.594114 
877.000000	 98.614809 
876.000000	 98.638166 
875.000000	 98.655384 
874.000000	 98.660603 
873.000000	 98.657348 
872.000000	 98.656616 
871.000000	 98.666942 
870.000000	 98.686361 
869.000000	 98.705095 
868.000000	 98.715451 
867.000000	 98.717953 
866.000000	 98.719183 
865.000000	 98.725931 
864.000000	 98.741362 
863.000000	 98.764290 
862.000000	 98.790251 
861.000000	 98.813639 
860.000000	 98.830342 
859.000000	 98.840235 
858.000000	 98.848497 
857.000000	 98.863092 
856.000000	 98.887635 
855.000000	 98.915763 
854.000000	 98.935328 
853.000000	 98.940281 
852.000000	 98.936501 
851.000000	 98.934331 
850.000000	 98.937855 
849.000000	 98.944058 
848.000000	 98.949889 
847.000000	 98.955533 
846.000000	 98.961392 
845.000000	 98.966512 
844.000000	 98.971055 
843.000000	 98.976617 
842.000000	 98.982211 
841.000000	 98.982868 
840.000000	 98.975036 
839.000000	 98.962058 
838.000000	 98.951532 
837.000000	 98.947037 
836.000000	 98.944479 
835.000000	 98.937856 
834.000000	 98.927632 
833.000000	 98.921005 
832.000000	 98.922349 
831.000000	 98.925393 
830.000000	 98.919243 
829.000000	 98.903278 
828.000000	 98.890923 
827.000000	 98.893942 
826.000000	 98.906421 
825.000000	 98.911791 
824.000000	 98.904989 
823.000000	 98.898645 
822.000000	 98.905010 
821.000000	 98.920266 
820.000000	 98.931060 
819.000000	 98.930104 
818.000000	 98.921150 
817.000000	 98.912515 
816.000000	 98.909136 
815.000000	 98.908652 
814.000000	 98.902463 
813.000000	 98.882521 
812.000000	 98.849753 
811.000000	 98.814846 
810.000000	 98.788457 
809.000000	 98.770933 
808.000000	 98.752526 
807.000000	 98.721764 
806.000000	 98.672432 
805.000000	 98.605625 
804.000000	 98.529484 
803.000000	 98.456857 
802.000000	 98.398820 
801.000000	 98.358213 
800.000000	 98.330252 
799.000000	 98.309258 
798.000000	 98.293836 
797.000000	 98.286567 
796.000000	 98.290710 
795.000000	 98.307335 
794.000000	 98.334262 
793.000000	 98.366655 
792.000000	 98.397739 
791.000000	 98.419108 
790.000000	 98.423220 
789.000000	 98.409247 
788.000000	 98.386530 
787.000000	 98.368805 
786.000000	 98.362608 
785.000000	 98.362336 
784.000000	 98.357712 
783.000000	 98.344207 
782.000000	 98.325163 
781.000000	 98.306414 
780.000000	 98.291514 
779.000000	 98.281020 
778.000000	 98.274127 
777.000000	 98.271744 
776.000000	 98.278889 
775.000000	 98.301472 
774.000000	 98.338125 
773.000000	 98.377478 
772.000000	 98.407036 
771.000000	 98.423857 
770.000000	 98.433760 
769.000000	 98.441516 
768.000000	 98.446498 
767.000000	 98.448217 
766.000000	 98.450529 
765.000000	 98.456949 
764.000000	 98.465071 
763.000000	 98.469413 
762.000000	 98.468525 
761.000000	 98.466294 
760.000000	 98.466972 
759.000000	 98.471438 
758.000000	 98.477726 
757.000000	 98.483008 
756.000000	 98.485561 
755.000000	 98.487221 
754.000000	 98.493486 
753.000000	 98.508306 
752.000000	 98.528499 
751.000000	 98.545324 
750.000000	 98.551997 
749.000000	 98.548480 
748.000000	 98.539925 
747.000000	 98.533422 
746.000000	 98.535868 
745.000000	 98.549854 
744.000000	 98.568992 
743.000000	 98.581117 
742.000000	 98.580181 
741.000000	 98.573330 
740.000000	 98.573296 
739.000000	 98.585224 
738.000000	 98.603452 
737.000000	 98.619412 
736.000000	 98.629110 
735.000000	 98.634196 
734.000000	 98.639884 
733.000000	 98.651678 
732.000000	 98.670762 
731.000000	 98.691498 
730.000000	 98.705242 
729.000000	 98.706322 
728.000000	 98.696030 
727.000000	 98.681467 
726.000000	 98.669277 
725.000000	 98.662793 
724.000000	 98.663936 
723.000000	 98.674296 
722.000000	 98.692646 
721.000000	 98.712665 
720.000000	 98.725614 
719.000000	 98.726582 
718.000000	 98.717940 
717.000000	 98.707104 
716.000000	 98.700479 
715.000000	 98.699179 
714.000000	 98.699876 
713.000000	 98.698450 
712.000000	 98.693418 
711.000000	 98.686346 
710.000000	 98.680231 
709.000000	 98.676626 
708.000000	 98.674097 
707.000000	 98.670579 
706.000000	 98.663755 
705.000000	 98.652318 
704.000000	 98.638764 
703.000000	 98.626817 
702.000000	 98.617398 
701.000000	 98.608066 
700.000000	 98.594043 
699.000000	 98.573030 
698.000000	 98.545703 
697.000000	 98.513382 
696.000000	 98.478207 
695.000000	 98.442688 
694.000000	 98.414218 
693.000000	 98.405262 
692.000000	 98.422276 
691.000000	 98.458503 
690.000000	 98.496456 
689.000000	 98.521935 
688.000000	 98.535330 
687.000000	 98.545820 
686.000000	 98.560458 
685.000000	 98.577225 
684.000000	 98.585364 
683.000000	 98.576746 
682.000000	 98.557093 
681.000000	 98.543545 
680.000000	 98.548286 
679.000000	 98.568416 
678.000000	 98.591725 
677.000000	 98.601603 
676.000000	 98.591518 
675.000000	 98.577206 
674.000000	 98.581285 
673.000000	 98.609792 
672.000000	 98.658097 
671.000000	 98.732500 
670.000000	 98.850219 
669.000000	 98.993543 
668.000000	 99.047946 
667.000000	 98.943380 
666.000000	 98.800973 
665.000000	 98.702144 
664.000000	 98.648485 
663.000000	 98.629655 
662.000000	 98.637530 
661.000000	 98.659634 
660.000000	 98.681390 
659.000000	 98.689644 
658.000000	 98.673236 
657.000000	 98.626865 
656.000000	 98.570327 
655.000000	 98.542303 
654.000000	 98.550197 
653.000000	 98.555661 
652.000000	 98.530544 
651.000000	 98.492884 
650.000000	 98.476947 

