4000.000000	99.510933 
3999.000000	99.512433 
3998.000000	99.513476 
3997.000000	99.512698 
3996.000000	99.509788 
3995.000000	99.506006 
3994.000000	99.503442 
3993.000000	99.503504 
3992.000000	99.505784 
3991.000000	99.508311 
3990.000000	99.509231 
3989.000000	99.508551 
3988.000000	99.508254 
3987.000000	99.510375 
3986.000000	99.514860 
3985.000000	99.519355 
3984.000000	99.521181 
3983.000000	99.519561 
3982.000000	99.515950 
3981.000000	99.512353 
3980.000000	99.509499 
3979.000000	99.506781 
3978.000000	99.503818 
3977.000000	99.501665 
3976.000000	99.502236 
3975.000000	99.506486 
3974.000000	99.513267 
3973.000000	99.519894 
3972.000000	99.523880 
3971.000000	99.524290 
3970.000000	99.521894 
3969.000000	99.518353 
3968.000000	99.515219 
3967.000000	99.513308 
3966.000000	99.512592 
3965.000000	99.512532 
3964.000000	99.512533 
3963.000000	99.512181 
3962.000000	99.511228 
3961.000000	99.509529 
3960.000000	99.507150 
3959.000000	99.504427 
3958.000000	99.501742 
3957.000000	99.499302 
3956.000000	99.497404 
3955.000000	99.496717 
3954.000000	99.497724 
3953.000000	99.499843 
3952.000000	99.501481 
3951.000000	99.501615 
3950.000000	99.501252 
3949.000000	99.502684 
3948.000000	99.506795 
3947.000000	99.511442 
3946.000000	99.513280 
3945.000000	99.511120 
3944.000000	99.507230 
3943.000000	99.504957 
3942.000000	99.505247 
3941.000000	99.506018 
3940.000000	99.504759 
3939.000000	99.500760 
3938.000000	99.495250 
3937.000000	99.490323 
3936.000000	99.488068 
3935.000000	99.490009 
3934.000000	99.496190 
3933.000000	99.504607 
3932.000000	99.511956 
3931.000000	99.515669 
3930.000000	99.515158 
3929.000000	99.511098 
3928.000000	99.504560 
3927.000000	99.497433 
3926.000000	99.492852 
3925.000000	99.493032 
3924.000000	99.496570 
3923.000000	99.499951 
3922.000000	99.501644 
3921.000000	99.503060 
3920.000000	99.505919 
3919.000000	99.510192 
3918.000000	99.514851 
3917.000000	99.519039 
3916.000000	99.521923 
3915.000000	99.522650 
3914.000000	99.521556 
3913.000000	99.520354 
3912.000000	99.520786 
3911.000000	99.523232 
3910.000000	99.527122 
3909.000000	99.531723 
3908.000000	99.536237 
3907.000000	99.539447 
3906.000000	99.540143 
3905.000000	99.538110 
3904.000000	99.533549 
3903.000000	99.526381 
3902.000000	99.517522 
3901.000000	99.510264 
3900.000000	99.508444 
3899.000000	99.512472 
3898.000000	99.518856 
3897.000000	99.523977 
3896.000000	99.526613 
3895.000000	99.526524 
3894.000000	99.523339 
3893.000000	99.517672 
3892.000000	99.512733 
3891.000000	99.511606 
3890.000000	99.513760 
3889.000000	99.516308 
3888.000000	99.517363 
3887.000000	99.517877 
3886.000000	99.519956 
3885.000000	99.522726 
3884.000000	99.522629 
3883.000000	99.518224 
3882.000000	99.512307 
3881.000000	99.509450 
3880.000000	99.511031 
3879.000000	99.513585 
3878.000000	99.513415 
3877.000000	99.510610 
3876.000000	99.508793 
3875.000000	99.511966 
3874.000000	99.519522 
3873.000000	99.525657 
3872.000000	99.526351 
3871.000000	99.525185 
3870.000000	99.528328 
3869.000000	99.534716 
3868.000000	99.538243 
3867.000000	99.536830 
3866.000000	99.533669 
3865.000000	99.531393 
3864.000000	99.528998 
3863.000000	99.525380 
3862.000000	99.522734 
3861.000000	99.523407 
3860.000000	99.527172 
3859.000000	99.532181 
3858.000000	99.537139 
3857.000000	99.541195 
3856.000000	99.543305 
3855.000000	99.544845 
3854.000000	99.551195 
3853.000000	99.560864 
3852.000000	99.564730 
3851.000000	99.560516 
3850.000000	99.553189 
3849.000000	99.546434 
3848.000000	99.540413 
3847.000000	99.534162 
3846.000000	99.528365 
3845.000000	99.525017 
3844.000000	99.525813 
3843.000000	99.530304 
3842.000000	99.535594 
3841.000000	99.538709 
3840.000000	99.539750 
3839.000000	99.540905 
3838.000000	99.543102 
3837.000000	99.544711 
3836.000000	99.543650 
3835.000000	99.539944 
3834.000000	99.535957 
3833.000000	99.534781 
3832.000000	99.537522 
3831.000000	99.541468 
3830.000000	99.542361 
3829.000000	99.538319 
3828.000000	99.531780 
3827.000000	99.527664 
3826.000000	99.528745 
3825.000000	99.532773 
3824.000000	99.535230 
3823.000000	99.534098 
3822.000000	99.532833 
3821.000000	99.535355 
3820.000000	99.539444 
3819.000000	99.541826 
3818.000000	99.543583 
3817.000000	99.547622 
3816.000000	99.552230 
3815.000000	99.550410 
3814.000000	99.539589 
3813.000000	99.526494 
3812.000000	99.519723 
3811.000000	99.521693 
3810.000000	99.528205 
3809.000000	99.533950 
3808.000000	99.537967 
3807.000000	99.541947 
3806.000000	99.545034 
3805.000000	99.544706 
3804.000000	99.541230 
3803.000000	99.538650 
3802.000000	99.541340 
3801.000000	99.546329 
3800.000000	99.545941 
3799.000000	99.538987 
3798.000000	99.530873 
3797.000000	99.526301 
3796.000000	99.524789 
3795.000000	99.522793 
3794.000000	99.518883 
3793.000000	99.514942 
3792.000000	99.512999 
3791.000000	99.513269 
3790.000000	99.514994 
3789.000000	99.517279 
3788.000000	99.518901 
3787.000000	99.518831 
3786.000000	99.517687 
3785.000000	99.517592 
3784.000000	99.519549 
3783.000000	99.521883 
3782.000000	99.522522 
3781.000000	99.521951 
3780.000000	99.522947 
3779.000000	99.526346 
3778.000000	99.529092 
3777.000000	99.527993 
3776.000000	99.523813 
3775.000000	99.520192 
3774.000000	99.519694 
3773.000000	99.521877 
3772.000000	99.525223 
3771.000000	99.529233 
3770.000000	99.533265 
3769.000000	99.535056 
3768.000000	99.533039 
3767.000000	99.528730 
3766.000000	99.525218 
3765.000000	99.523650 
3764.000000	99.522266 
3763.000000	99.519428 
3762.000000	99.516209 
3761.000000	99.514866 
3760.000000	99.515887 
3759.000000	99.517830 
3758.000000	99.520509 
3757.000000	99.525267 
3756.000000	99.532346 
3755.000000	99.540371 
3754.000000	99.548212 
3753.000000	99.556279 
3752.000000	99.565337 
3751.000000	99.574701 
3750.000000	99.582376 
3749.000000	99.587179 
3748.000000	99.588656 
3747.000000	99.586237 
3746.000000	99.581272 
3745.000000	99.578104 
3744.000000	99.576197 
3743.000000	99.570017 
3742.000000	99.560020 
3741.000000	99.551918 
3740.000000	99.548317 
3739.000000	99.546226 
3738.000000	99.542100 
3737.000000	99.537071 
3736.000000	99.534628 
3735.000000	99.534777 
3734.000000	99.534748 
3733.000000	99.534437 
3732.000000	99.535345 
3731.000000	99.536697 
3730.000000	99.536621 
3729.000000	99.535180 
3728.000000	99.534386 
3727.000000	99.535372 
3726.000000	99.536060 
3725.000000	99.533619 
3724.000000	99.528685 
3723.000000	99.524700 
3722.000000	99.523675 
3721.000000	99.524231 
3720.000000	99.523706 
3719.000000	99.520803 
3718.000000	99.516562 
3717.000000	99.512601 
3716.000000	99.509098 
3715.000000	99.505287 
3714.000000	99.501036 
3713.000000	99.497971 
3712.000000	99.498586 
3711.000000	99.502555 
3710.000000	99.505593 
3709.000000	99.503063 
3708.000000	99.493953 
3707.000000	99.481075 
3706.000000	99.468336 
3705.000000	99.458335 
3704.000000	99.451714 
3703.000000	99.447849 
3702.000000	99.445365 
3701.000000	99.442090 
3700.000000	99.436091 
3699.000000	99.427400 
3698.000000	99.418387 
3697.000000	99.412109 
3696.000000	99.409941 
3695.000000	99.411657 
3694.000000	99.416905 
3693.000000	99.424676 
3692.000000	99.431998 
3691.000000	99.435233 
3690.000000	99.434155 
3689.000000	99.432147 
3688.000000	99.431359 
3687.000000	99.430428 
3686.000000	99.427488 
3685.000000	99.423222 
3684.000000	99.419824 
3683.000000	99.417997 
3682.000000	99.416314 
3681.000000	99.413745 
3680.000000	99.410534 
3679.000000	99.406213 
3678.000000	99.399457 
3677.000000	99.392838 
3676.000000	99.393323 
3675.000000	99.400010 
3674.000000	99.402381 
3673.000000	99.394058 
3672.000000	99.377767 
3671.000000	99.361431 
3670.000000	99.351863 
3669.000000	99.348013 
3668.000000	99.344650 
3667.000000	99.339711 
3666.000000	99.333796 
3665.000000	99.326932 
3664.000000	99.318031 
3663.000000	99.306517 
3662.000000	99.293736 
3661.000000	99.281903 
3660.000000	99.271692 
3659.000000	99.262149 
3658.000000	99.252811 
3657.000000	99.245383 
3656.000000	99.240877 
3655.000000	99.237109 
3654.000000	99.231296 
3653.000000	99.222320 
3652.000000	99.210087 
3651.000000	99.195029 
3650.000000	99.178711 
3649.000000	99.163487 
3648.000000	99.151404 
3647.000000	99.142774 
3646.000000	99.135870 
3645.000000	99.128731 
3644.000000	99.120923 
3643.000000	99.113372 
3642.000000	99.107143 
3641.000000	99.102441 
3640.000000	99.098933 
3639.000000	99.096358 
3638.000000	99.093786 
3637.000000	99.089314 
3636.000000	99.081730 
3635.000000	99.072283 
3634.000000	99.063256 
3633.000000	99.054914 
3632.000000	99.045296 
3631.000000	99.033308 
3630.000000	99.021917 
3629.000000	99.014517 
3628.000000	99.007561 
3627.000000	98.996934 
3626.000000	98.985993 
3625.000000	98.980102 
3624.000000	98.979833 
3623.000000	98.981142 
3622.000000	98.980423 
3621.000000	98.979054 
3620.000000	98.982246 
3619.000000	98.992571 
3618.000000	99.006578 
3617.000000	99.019721 
3616.000000	99.031286 
3615.000000	99.043363 
3614.000000	99.056926 
3613.000000	99.069749 
3612.000000	99.078599 
3611.000000	99.083110 
3610.000000	99.085973 
3609.000000	99.089618 
3608.000000	99.093937 
3607.000000	99.097718 
3606.000000	99.101387 
3605.000000	99.106536 
3604.000000	99.113521 
3603.000000	99.121366 
3602.000000	99.129676 
3601.000000	99.139242 
3600.000000	99.149622 
3599.000000	99.157919 
3598.000000	99.161096 
3597.000000	99.159036 
3596.000000	99.155209 
3595.000000	99.154894 
3594.000000	99.161342 
3593.000000	99.173465 
3592.000000	99.186823 
3591.000000	99.196039 
3590.000000	99.197495 
3589.000000	99.191954 
3588.000000	99.184664 
3587.000000	99.180128 
3586.000000	99.178193 
3585.000000	99.177169 
3584.000000	99.177139 
3583.000000	99.178869 
3582.000000	99.181632 
3581.000000	99.183373 
3580.000000	99.182368 
3579.000000	99.178465 
3578.000000	99.172979 
3577.000000	99.167931 
3576.000000	99.165107 
3575.000000	99.165106 
3574.000000	99.167068 
3573.000000	99.169637 
3572.000000	99.172297 
3571.000000	99.174898 
3570.000000	99.176068 
3569.000000	99.173482 
3568.000000	99.166688 
3567.000000	99.158585 
3566.000000	99.152875 
3565.000000	99.151211 
3564.000000	99.153236 
3563.000000	99.157559 
3562.000000	99.162196 
3561.000000	99.165001 
3560.000000	99.164815 
3559.000000	99.162399 
3558.000000	99.159870 
3557.000000	99.158720 
3556.000000	99.158443 
3555.000000	99.157237 
3554.000000	99.154086 
3553.000000	99.149885 
3552.000000	99.146522 
3551.000000	99.145191 
3550.000000	99.145543 
3549.000000	99.146040 
3548.000000	99.145158 
3547.000000	99.142826 
3546.000000	99.140486 
3545.000000	99.139007 
3544.000000	99.137275 
3543.000000	99.134069 
3542.000000	99.130784 
3541.000000	99.130590 
3540.000000	99.134522 
3539.000000	99.139414 
3538.000000	99.140839 
3537.000000	99.137913 
3536.000000	99.134131 
3535.000000	99.133272 
3534.000000	99.135581 
3533.000000	99.138511 
3532.000000	99.140040 
3531.000000	99.140298 
3530.000000	99.140359 
3529.000000	99.140394 
3528.000000	99.139423 
3527.000000	99.136552 
3526.000000	99.131993 
3525.000000	99.126870 
3524.000000	99.122393 
3523.000000	99.119285 
3522.000000	99.117735 
3521.000000	99.117695 
3520.000000	99.119233 
3519.000000	99.122576 
3518.000000	99.127505 
3517.000000	99.132673 
3516.000000	99.135881 
3515.000000	99.135448 
3514.000000	99.131321 
3513.000000	99.124932 
3512.000000	99.118299 
3511.000000	99.113289 
3510.000000	99.111074 
3509.000000	99.111641 
3508.000000	99.113910 
3507.000000	99.116771 
3506.000000	99.119811 
3505.000000	99.122606 
3504.000000	99.123817 
3503.000000	99.122268 
3502.000000	99.119233 
3501.000000	99.118313 
3500.000000	99.121850 
3499.000000	99.128045 
3498.000000	99.132362 
3497.000000	99.131550 
3496.000000	99.125929 
3495.000000	99.118186 
3494.000000	99.111052 
3493.000000	99.106216 
3492.000000	99.104248 
3491.000000	99.104562 
3490.000000	99.105794 
3489.000000	99.107035 
3488.000000	99.108582 
3487.000000	99.110993 
3486.000000	99.113614 
3485.000000	99.114735 
3484.000000	99.113272 
3483.000000	99.109894 
3482.000000	99.106327 
3481.000000	99.103862 
3480.000000	99.102725 
3479.000000	99.102330 
3478.000000	99.101525 
3477.000000	99.099056 
3476.000000	99.094866 
3475.000000	99.091109 
3474.000000	99.090731 
3473.000000	99.094136 
3472.000000	99.097956 
3471.000000	99.098244 
3470.000000	99.094850 
3469.000000	99.091385 
3468.000000	99.090644 
3467.000000	99.091225 
3466.000000	99.089752 
3465.000000	99.085530 
3464.000000	99.081413 
3463.000000	99.080210 
3462.000000	99.081729 
3461.000000	99.083975 
3460.000000	99.085935 
3459.000000	99.087964 
3458.000000	99.089919 
3457.000000	99.090267 
3456.000000	99.087405 
3455.000000	99.081524 
3454.000000	99.074969 
3453.000000	99.070713 
3452.000000	99.070011 
3451.000000	99.071227 
3450.000000	99.071288 
3449.000000	99.068588 
3448.000000	99.064164 
3447.000000	99.059857 
3446.000000	99.056171 
3445.000000	99.052852 
3444.000000	99.050627 
3443.000000	99.050743 
3442.000000	99.052749 
3441.000000	99.054103 
3440.000000	99.052597 
3439.000000	99.048326 
3438.000000	99.042706 
3437.000000	99.036480 
3436.000000	99.029708 
3435.000000	99.023434 
3434.000000	99.020135 
3433.000000	99.021736 
3432.000000	99.027217 
3431.000000	99.032743 
3430.000000	99.034700 
3429.000000	99.032822 
3428.000000	99.030199 
3427.000000	99.029822 
3426.000000	99.031212 
3425.000000	99.030836 
3424.000000	99.025931 
3423.000000	99.017591 
3422.000000	99.009873 
3421.000000	99.006223 
3420.000000	99.007229 
3419.000000	99.011345 
3418.000000	99.016658 
3417.000000	99.021562 
3416.000000	99.024690 
3415.000000	99.025266 
3414.000000	99.023544 
3413.000000	99.020487 
3412.000000	99.017090 
3411.000000	99.014230 
3410.000000	99.012681 
3409.000000	99.012432 
3408.000000	99.011988 
3407.000000	99.009268 
3406.000000	99.003781 
3405.000000	98.997533 
3404.000000	98.993341 
3403.000000	98.992403 
3402.000000	98.993787 
3401.000000	98.996103 
3400.000000	98.999110 
3399.000000	99.003444 
3398.000000	99.009039 
3397.000000	99.014158 
3396.000000	99.016192 
3395.000000	99.013510 
3394.000000	99.006621 
3393.000000	98.997845 
3392.000000	98.990050 
3391.000000	98.985563 
3390.000000	98.985665 
3389.000000	98.990334 
3388.000000	98.998109 
3387.000000	99.006600 
3386.000000	99.013762 
3385.000000	99.018982 
3384.000000	99.022690 
3383.000000	99.024827 
3382.000000	99.024024 
3381.000000	99.018901 
3380.000000	99.010359 
3379.000000	99.002109 
3378.000000	98.998108 
3377.000000	98.999152 
3376.000000	99.002313 
3375.000000	99.003950 
3374.000000	99.003023 
3373.000000	99.001383 
3372.000000	99.001393 
3371.000000	99.003800 
3370.000000	99.007540 
3369.000000	99.010772 
3368.000000	99.012062 
3367.000000	99.011350 
3366.000000	99.010199 
3365.000000	99.010579 
3364.000000	99.012984 
3363.000000	99.016105 
3362.000000	99.018552 
3361.000000	99.020210 
3360.000000	99.021349 
3359.000000	99.021228 
3358.000000	99.018896 
3357.000000	99.015316 
3356.000000	99.013275 
3355.000000	99.014399 
3354.000000	99.017064 
3353.000000	99.018175 
3352.000000	99.016644 
3351.000000	99.014394 
3350.000000	99.014067 
3349.000000	99.016478 
3348.000000	99.020310 
3347.000000	99.023593 
3346.000000	99.025109 
3345.000000	99.024883 
3344.000000	99.023942 
3343.000000	99.023557 
3342.000000	99.024235 
3341.000000	99.025231 
3340.000000	99.025172 
3339.000000	99.023427 
3338.000000	99.020916 
3337.000000	99.019502 
3336.000000	99.020512 
3335.000000	99.023882 
3334.000000	99.028685 
3333.000000	99.034110 
3332.000000	99.039578 
3331.000000	99.044082 
3330.000000	99.046127 
3329.000000	99.044879 
3328.000000	99.041276 
3327.000000	99.037557 
3326.000000	99.035427 
3325.000000	99.034760 
3324.000000	99.034219 
3323.000000	99.033135 
3322.000000	99.032577 
3321.000000	99.034370 
3320.000000	99.039119 
3319.000000	99.045456 
3318.000000	99.051298 
3317.000000	99.055470 
3316.000000	99.057806 
3315.000000	99.058282 
3314.000000	99.057054 
3313.000000	99.055375 
3312.000000	99.055316 
3311.000000	99.057739 
3310.000000	99.060973 
3309.000000	99.062238 
3308.000000	99.060352 
3307.000000	99.056659 
3306.000000	99.053624 
3305.000000	99.053137 
3304.000000	99.055860 
3303.000000	99.061100 
3302.000000	99.066756 
3301.000000	99.070030 
3300.000000	99.069115 
3299.000000	99.064745 
3298.000000	99.060083 
3297.000000	99.058630 
3296.000000	99.061431 
3295.000000	99.065996 
3294.000000	99.068488 
3293.000000	99.067585 
3292.000000	99.065960 
3291.000000	99.067190 
3290.000000	99.071413 
3289.000000	99.075028 
3288.000000	99.074833 
3287.000000	99.071516 
3286.000000	99.068543 
3285.000000	99.068283 
3284.000000	99.070029 
3283.000000	99.071556 
3282.000000	99.071853 
3281.000000	99.072114 
3280.000000	99.074381 
3279.000000	99.079369 
3278.000000	99.085474 
3277.000000	99.089828 
3276.000000	99.090385 
3275.000000	99.087115 
3274.000000	99.081644 
3273.000000	99.076291 
3272.000000	99.073294 
3271.000000	99.073913 
3270.000000	99.077459 
3269.000000	99.081477 
3268.000000	99.083590 
3267.000000	99.083303 
3266.000000	99.081835 
3265.000000	99.080511 
3264.000000	99.079931 
3263.000000	99.080605 
3262.000000	99.083523 
3261.000000	99.089305 
3260.000000	99.096798 
3259.000000	99.103072 
3258.000000	99.105355 
3257.000000	99.103288 
3256.000000	99.099073 
3255.000000	99.095253 
3254.000000	99.092601 
3253.000000	99.090602 
3252.000000	99.089555 
3251.000000	99.091069 
3250.000000	99.096044 
3249.000000	99.102949 
3248.000000	99.108765 
3247.000000	99.111297 
3246.000000	99.110192 
3245.000000	99.106415 
3244.000000	99.101700 
3243.000000	99.098220 
3242.000000	99.097601 
3241.000000	99.099772 
3240.000000	99.103287 
3239.000000	99.107067 
3238.000000	99.111518 
3237.000000	99.117757 
3236.000000	99.125877 
3235.000000	99.134104 
3234.000000	99.139633 
3233.000000	99.140614 
3232.000000	99.137730 
3231.000000	99.133762 
3230.000000	99.131304 
3229.000000	99.130901 
3228.000000	99.131409 
3227.000000	99.131560 
3226.000000	99.130717 
3225.000000	99.128747 
3224.000000	99.126250 
3223.000000	99.124852 
3222.000000	99.126164 
3221.000000	99.129957 
3220.000000	99.134020 
3219.000000	99.136272 
3218.000000	99.136739 
3217.000000	99.137299 
3216.000000	99.140011 
3215.000000	99.145700 
3214.000000	99.153338 
3213.000000	99.160240 
3212.000000	99.163436 
3211.000000	99.161724 
3210.000000	99.156638 
3209.000000	99.151269 
3208.000000	99.148146 
3207.000000	99.148045 
3206.000000	99.150165 
3205.000000	99.152911 
3204.000000	99.154825 
3203.000000	99.155398 
3202.000000	99.155184 
3201.000000	99.155035 
3200.000000	99.155364 
3199.000000	99.156244 
3198.000000	99.157957 
3197.000000	99.161009 
3196.000000	99.165600 
3195.000000	99.171212 
3194.000000	99.176715 
3193.000000	99.180767 
3192.000000	99.182247 
3191.000000	99.180661 
3190.000000	99.176468 
3189.000000	99.171219 
3188.000000	99.167298 
3187.000000	99.166909 
3186.000000	99.170616 
3185.000000	99.176709 
3184.000000	99.182344 
3183.000000	99.185496 
3182.000000	99.185919 
3181.000000	99.184804 
3180.000000	99.184141 
3179.000000	99.185918 
3178.000000	99.190593 
3177.000000	99.195981 
3176.000000	99.198808 
3175.000000	99.198133 
3174.000000	99.196421 
3173.000000	99.196363 
3172.000000	99.197382 
3171.000000	99.196656 
3170.000000	99.193340 
3169.000000	99.190206 
3168.000000	99.190537 
3167.000000	99.194566 
3166.000000	99.199811 
3165.000000	99.204081 
3164.000000	99.207032 
3163.000000	99.209159 
3162.000000	99.210580 
3161.000000	99.211311 
3160.000000	99.211943 
3159.000000	99.213261 
3158.000000	99.215203 
3157.000000	99.216604 
3156.000000	99.216088 
3155.000000	99.213124 
3154.000000	99.208301 
3153.000000	99.202905 
3152.000000	99.198446 
3151.000000	99.196374 
3150.000000	99.197647 
3149.000000	99.202101 
3148.000000	99.208272 
3147.000000	99.214219 
3146.000000	99.218708 
3145.000000	99.221584 
3144.000000	99.223162 
3143.000000	99.223648 
3142.000000	99.223250 
3141.000000	99.222411 
3140.000000	99.221611 
3139.000000	99.221155 
3138.000000	99.221421 
3137.000000	99.223171 
3136.000000	99.227141 
3135.000000	99.233134 
3134.000000	99.239650 
3133.000000	99.244540 
3132.000000	99.246199 
3131.000000	99.244473 
3130.000000	99.240873 
3129.000000	99.237979 
3128.000000	99.238145 
3127.000000	99.242061 
3126.000000	99.248274 
3125.000000	99.254137 
3124.000000	99.257457 
3123.000000	99.257579 
3122.000000	99.255341 
3121.000000	99.252226 
3120.000000	99.249508 
3119.000000	99.247925 
3118.000000	99.247799 
3117.000000	99.249159 
3116.000000	99.251694 
3115.000000	99.254731 
3114.000000	99.257378 
3113.000000	99.258735 
3112.000000	99.258196 
3111.000000	99.255988 
3110.000000	99.253523 
3109.000000	99.252624 
3108.000000	99.253793 
3107.000000	99.255412 
3106.000000	99.255343 
3105.000000	99.253412 
3104.000000	99.251819 
3103.000000	99.253000 
3102.000000	99.257485 
3101.000000	99.263810 
3100.000000	99.269956 
3099.000000	99.274632 
3098.000000	99.277702 
3097.000000	99.279858 
3096.000000	99.281737 
3095.000000	99.283050 
3094.000000	99.282737 
3093.000000	99.280193 
3092.000000	99.276219 
3091.000000	99.272727 
3090.000000	99.271637 
3089.000000	99.273858 
3088.000000	99.278633 
3087.000000	99.283573 
3086.000000	99.285951 
3085.000000	99.284655 
3084.000000	99.280783 
3083.000000	99.276124 
3082.000000	99.271469 
3081.000000	99.266847 
3080.000000	99.262992 
3079.000000	99.261747 
3078.000000	99.264782 
3077.000000	99.272191 
3076.000000	99.282186 
3075.000000	99.291819 
3074.000000	99.298271 
3073.000000	99.300277 
3072.000000	99.298664 
3071.000000	99.295278 
3070.000000	99.291317 
3069.000000	99.286946 
3068.000000	99.282454 
3067.000000	99.279293 
3066.000000	99.279596 
3065.000000	99.284560 
3064.000000	99.293091 
3063.000000	99.301840 
3062.000000	99.306846 
3061.000000	99.305869 
3060.000000	99.299769 
3059.000000	99.291877 
3058.000000	99.286050 
3057.000000	99.284977 
3056.000000	99.289351 
3055.000000	99.297671 
3054.000000	99.306719 
3053.000000	99.312990 
3052.000000	99.314495 
3051.000000	99.311725 
3050.000000	99.307224 
3049.000000	99.304194 
3048.000000	99.304692 
3047.000000	99.308170 
3046.000000	99.311588 
3045.000000	99.311744 
3044.000000	99.308230 
3043.000000	99.304058 
3042.000000	99.303027 
3041.000000	99.306409 
3040.000000	99.312132 
3039.000000	99.316896 
3038.000000	99.318730 
3037.000000	99.317681 
3036.000000	99.314700 
3035.000000	99.310480 
3034.000000	99.305545 
3033.000000	99.300928 
3032.000000	99.298020 
3031.000000	99.297451 
3030.000000	99.298573 
3029.000000	99.300552 
3028.000000	99.303674 
3027.000000	99.308874 
3026.000000	99.315805 
3025.000000	99.321871 
3024.000000	99.323769 
3023.000000	99.320308 
3022.000000	99.313729 
3021.000000	99.307944 
3020.000000	99.305072 
3019.000000	99.303699 
3018.000000	99.300908 
3017.000000	99.295886 
3016.000000	99.290734 
3015.000000	99.287610 
3014.000000	99.286355 
3013.000000	99.285795 
3012.000000	99.286342 
3011.000000	99.289613 
3010.000000	99.295607 
3009.000000	99.301817 
3008.000000	99.305621 
3007.000000	99.306537 
3006.000000	99.305627 
3005.000000	99.303618 
3004.000000	99.300524 
3003.000000	99.296719 
3002.000000	99.293506 
3001.000000	99.292364 
3000.000000	99.293822 
2999.000000	99.297108 
2998.000000	99.300829 
2997.000000	99.303945 
2996.000000	99.306036 
2995.000000	99.306762 
2994.000000	99.305651 
2993.000000	99.302767 
2992.000000	99.299003 
2991.000000	99.295096 
2990.000000	99.290880 
2989.000000	99.286406 
2988.000000	99.283328 
2987.000000	99.283807 
2986.000000	99.287881 
2985.000000	99.293068 
2984.000000	99.296902 
2983.000000	99.298845 
2982.000000	99.299475 
2981.000000	99.299200 
2980.000000	99.298613 
2979.000000	99.299010 
2978.000000	99.301217 
2977.000000	99.304239 
2976.000000	99.306008 
2975.000000	99.305380 
2974.000000	99.302895 
2973.000000	99.300032 
2972.000000	99.298336 
2971.000000	99.298764 
2970.000000	99.300917 
2969.000000	99.302972 
2968.000000	99.303176 
2967.000000	99.301554 
2966.000000	99.299698 
2965.000000	99.298910 
2964.000000	99.299102 
2963.000000	99.299538 
2962.000000	99.300086 
2961.000000	99.301337 
2960.000000	99.303555 
2959.000000	99.305763 
2958.000000	99.306211 
2957.000000	99.304033 
2956.000000	99.300382 
2955.000000	99.297579 
2954.000000	99.297180 
2953.000000	99.299113 
2952.000000	99.302413 
2951.000000	99.306064 
2950.000000	99.309233 
2949.000000	99.311548 
2948.000000	99.313384 
2947.000000	99.315266 
2946.000000	99.317024 
2945.000000	99.318386 
2944.000000	99.320226 
2943.000000	99.323679 
2942.000000	99.327525 
2941.000000	99.328158 
2940.000000	99.323550 
2939.000000	99.316424 
2938.000000	99.312126 
2937.000000	99.313787 
2936.000000	99.320478 
2935.000000	99.329156 
2934.000000	99.336862 
2933.000000	99.341389 
2932.000000	99.341746 
2931.000000	99.338674 
2930.000000	99.334123 
2929.000000	99.330042 
2928.000000	99.327756 
2927.000000	99.327700 
2926.000000	99.328835 
2925.000000	99.329098 
2924.000000	99.327737 
2923.000000	99.326666 
2922.000000	99.327954 
2921.000000	99.330339 
2920.000000	99.330126 
2919.000000	99.325776 
2918.000000	99.319920 
2917.000000	99.316171 
2916.000000	99.315284 
2915.000000	99.315357 
2914.000000	99.314793 
2913.000000	99.313927 
2912.000000	99.314199 
2911.000000	99.316601 
2910.000000	99.320780 
2909.000000	99.325049 
2908.000000	99.327384 
2907.000000	99.326919 
2906.000000	99.324593 
2905.000000	99.322199 
2904.000000	99.320760 
2903.000000	99.319817 
2902.000000	99.318208 
2901.000000	99.315703 
2900.000000	99.313914 
2899.000000	99.315120 
2898.000000	99.319710 
2897.000000	99.325147 
2896.000000	99.328323 
2895.000000	99.328866 
2894.000000	99.329244 
2893.000000	99.331579 
2892.000000	99.335342 
2891.000000	99.338510 
2890.000000	99.339976 
2889.000000	99.340114 
2888.000000	99.339702 
2887.000000	99.339261 
2886.000000	99.339244 
2885.000000	99.340023 
2884.000000	99.341581 
2883.000000	99.343649 
2882.000000	99.346179 
2881.000000	99.349295 
2880.000000	99.352721 
2879.000000	99.355635 
2878.000000	99.357365 
2877.000000	99.358159 
2876.000000	99.359085 
2875.000000	99.361014 
2874.000000	99.363630 
2873.000000	99.365570 
2872.000000	99.365712 
2871.000000	99.364222 
2870.000000	99.362170 
2869.000000	99.360389 
2868.000000	99.359205 
2867.000000	99.359077 
2866.000000	99.360593 
2865.000000	99.363376 
2864.000000	99.365626 
2863.000000	99.365471 
2862.000000	99.362728 
2861.000000	99.358957 
2860.000000	99.356001 
2859.000000	99.354904 
2858.000000	99.355865 
2857.000000	99.358389 
2856.000000	99.361295 
2855.000000	99.363275 
2854.000000	99.363955 
2853.000000	99.364207 
2852.000000	99.365080 
2851.000000	99.366655 
2850.000000	99.368316 
2849.000000	99.369951 
2848.000000	99.372278 
2847.000000	99.375772 
2846.000000	99.379669 
2845.000000	99.382369 
2844.000000	99.382768 
2843.000000	99.381116 
2842.000000	99.378900 
2841.000000	99.378151 
2840.000000	99.380415 
2839.000000	99.385596 
2838.000000	99.391587 
2837.000000	99.395522 
2836.000000	99.395932 
2835.000000	99.393823 
2834.000000	99.391681 
2833.000000	99.391515 
2832.000000	99.393497 
2831.000000	99.395968 
2830.000000	99.396638 
2829.000000	99.394392 
2828.000000	99.390440 
2827.000000	99.387601 
2826.000000	99.388140 
2825.000000	99.392024 
2824.000000	99.397049 
2823.000000	99.400358 
2822.000000	99.400179 
2821.000000	99.396956 
2820.000000	99.393235 
2819.000000	99.391916 
2818.000000	99.393944 
2817.000000	99.397656 
2816.000000	99.400513 
2815.000000	99.401199 
2814.000000	99.399978 
2813.000000	99.397778 
2812.000000	99.395731 
2811.000000	99.395233 
2810.000000	99.397316 
2809.000000	99.401423 
2808.000000	99.405263 
2807.000000	99.406481 
2806.000000	99.404612 
2805.000000	99.401322 
2804.000000	99.398816 
2803.000000	99.398138 
2802.000000	99.398902 
2801.000000	99.400366 
2800.000000	99.402284 
2799.000000	99.404557 
2798.000000	99.406474 
2797.000000	99.406909 
2796.000000	99.405434 
2795.000000	99.402853 
2794.000000	99.400505 
2793.000000	99.399265 
2792.000000	99.399226 
2791.000000	99.399937 
2790.000000	99.400785 
2789.000000	99.401528 
2788.000000	99.402659 
2787.000000	99.404870 
2786.000000	99.407942 
2785.000000	99.410492 
2784.000000	99.411142 
2783.000000	99.409772 
2782.000000	99.407533 
2781.000000	99.405950 
2780.000000	99.406077 
2779.000000	99.407990 
2778.000000	99.410702 
2777.000000	99.412934 
2776.000000	99.414237 
2775.000000	99.415073 
2774.000000	99.415687 
2773.000000	99.415650 
2772.000000	99.414957 
2771.000000	99.414799 
2770.000000	99.416304 
2769.000000	99.418827 
2768.000000	99.420516 
2767.000000	99.420612 
2766.000000	99.420296 
2765.000000	99.420885 
2764.000000	99.421773 
2763.000000	99.420740 
2762.000000	99.416288 
2761.000000	99.409401 
2760.000000	99.402988 
2759.000000	99.399691 
2758.000000	99.400283 
2757.000000	99.403974 
2756.000000	99.409537 
2755.000000	99.415470 
2754.000000	99.419466 
2753.000000	99.419283 
2752.000000	99.415134 
2751.000000	99.410527 
2750.000000	99.409539 
2749.000000	99.413058 
2748.000000	99.418202 
2747.000000	99.421375 
2746.000000	99.421282 
2745.000000	99.419069 
2744.000000	99.416449 
2743.000000	99.414340 
2742.000000	99.413031 
2741.000000	99.412854 
2740.000000	99.414106 
2739.000000	99.416344 
2738.000000	99.418327 
2737.000000	99.419202 
2736.000000	99.419564 
2735.000000	99.420637 
2734.000000	99.422377 
2733.000000	99.423156 
2732.000000	99.421699 
2731.000000	99.418648 
2730.000000	99.415704 
2729.000000	99.413847 
2728.000000	99.413042 
2727.000000	99.413123 
2726.000000	99.414038 
2725.000000	99.415426 
2724.000000	99.416901 
2723.000000	99.418829 
2722.000000	99.422029 
2721.000000	99.426392 
2720.000000	99.430280 
2719.000000	99.431730 
2718.000000	99.430134 
2717.000000	99.426719 
2716.000000	99.423518 
2715.000000	99.421878 
2714.000000	99.421735 
2713.000000	99.422135 
2712.000000	99.422328 
2711.000000	99.422284 
2710.000000	99.422379 
2709.000000	99.423014 
2708.000000	99.424429 
2707.000000	99.426274 
2706.000000	99.427351 
2705.000000	99.426587 
2704.000000	99.424617 
2703.000000	99.423550 
2702.000000	99.424546 
2701.000000	99.426259 
2700.000000	99.426549 
2699.000000	99.425345 
2698.000000	99.424824 
2697.000000	99.426776 
2696.000000	99.430505 
2695.000000	99.433531 
2694.000000	99.433979 
2693.000000	99.432187 
2692.000000	99.430194 
2691.000000	99.429689 
2690.000000	99.430484 
2689.000000	99.431183 
2688.000000	99.431156 
2687.000000	99.431102 
2686.000000	99.431584 
2685.000000	99.432022 
2684.000000	99.431702 
2683.000000	99.430900 
2682.000000	99.430137 
2681.000000	99.429014 
2680.000000	99.426871 
2679.000000	99.424249 
2678.000000	99.422727 
2677.000000	99.423386 
2676.000000	99.426090 
2675.000000	99.429961 
2674.000000	99.433748 
2673.000000	99.436092 
2672.000000	99.436437 
2671.000000	99.435678 
2670.000000	99.435108 
2669.000000	99.434766 
2668.000000	99.433567 
2667.000000	99.430964 
2666.000000	99.427694 
2665.000000	99.424831 
2664.000000	99.422785 
2663.000000	99.421295 
2662.000000	99.419893 
2661.000000	99.418340 
2660.000000	99.416967 
2659.000000	99.416368 
2658.000000	99.416457 
2657.000000	99.416324 
2656.000000	99.415466 
2655.000000	99.414365 
2654.000000	99.413139 
2653.000000	99.410770 
2652.000000	99.407181 
2651.000000	99.405120 
2650.000000	99.407541 
2649.000000	99.412996 
2648.000000	99.416073 
2647.000000	99.413503 
2646.000000	99.408257 
2645.000000	99.406204 
2644.000000	99.409592 
2643.000000	99.414964 
2642.000000	99.416922 
2641.000000	99.413127 
2640.000000	99.406042 
2639.000000	99.400535 
2638.000000	99.399647 
2637.000000	99.402320 
2636.000000	99.405272 
2635.000000	99.406654 
2634.000000	99.407078 
2633.000000	99.407611 
2632.000000	99.408462 
2631.000000	99.409903 
2630.000000	99.412629 
2629.000000	99.416194 
2628.000000	99.418497 
2627.000000	99.418174 
2626.000000	99.416568 
2625.000000	99.415985 
2624.000000	99.416699 
2623.000000	99.417076 
2622.000000	99.416250 
2621.000000	99.415247 
2620.000000	99.415357 
2619.000000	99.416587 
2618.000000	99.418078 
2617.000000	99.419288 
2616.000000	99.420322 
2615.000000	99.421468 
2614.000000	99.422803 
2613.000000	99.424206 
2612.000000	99.425551 
2611.000000	99.426733 
2610.000000	99.427464 
2609.000000	99.427337 
2608.000000	99.426494 
2607.000000	99.426082 
2606.000000	99.427517 
2605.000000	99.431144 
2604.000000	99.435796 
2603.000000	99.439559 
2602.000000	99.440896 
2601.000000	99.439741 
2600.000000	99.438132 
2599.000000	99.438988 
2598.000000	99.442850 
2597.000000	99.446075 
2596.000000	99.443848 
2595.000000	99.435440 
2594.000000	99.425380 
2593.000000	99.419081 
2592.000000	99.418398 
2591.000000	99.421788 
2590.000000	99.427221 
2589.000000	99.433535 
2588.000000	99.439638 
2587.000000	99.443913 
2586.000000	99.445002 
2585.000000	99.442981 
2584.000000	99.439659 
2583.000000	99.437427 
2582.000000	99.437337 
2581.000000	99.438320 
2580.000000	99.438621 
2579.000000	99.437719 
2578.000000	99.436261 
2577.000000	99.434560 
2576.000000	99.432305 
2575.000000	99.429757 
2574.000000	99.428196 
2573.000000	99.428831 
2572.000000	99.431845 
2571.000000	99.436452 
2570.000000	99.441169 
2569.000000	99.444318 
2568.000000	99.445313 
2567.000000	99.445356 
2566.000000	99.445869 
2565.000000	99.446507 
2564.000000	99.446025 
2563.000000	99.444861 
2562.000000	99.445097 
2561.000000	99.447445 
2560.000000	99.449714 
2559.000000	99.449002 
2558.000000	99.444675 
2557.000000	99.439107 
2556.000000	99.436415 
2555.000000	99.439996 
2554.000000	99.449471 
2553.000000	99.459757 
2552.000000	99.464894 
2551.000000	99.463405 
2550.000000	99.458654 
2549.000000	99.453969 
2548.000000	99.449500 
2547.000000	99.444343 
2546.000000	99.439394 
2545.000000	99.436631 
2544.000000	99.436956 
2543.000000	99.439751 
2542.000000	99.443152 
2541.000000	99.444068 
2540.000000	99.440107 
2539.000000	99.432958 
2538.000000	99.428035 
2537.000000	99.428896 
2536.000000	99.433453 
2535.000000	99.437403 
2534.000000	99.439641 
2533.000000	99.441777 
2532.000000	99.443751 
2531.000000	99.443356 
2530.000000	99.440201 
2529.000000	99.437054 
2528.000000	99.436059 
2527.000000	99.435761 
2526.000000	99.433496 
2525.000000	99.429556 
2524.000000	99.427315 
2523.000000	99.429491 
2522.000000	99.435407 
2521.000000	99.441926 
2520.000000	99.446100 
2519.000000	99.446511 
2518.000000	99.442966 
2517.000000	99.436295 
2516.000000	99.428667 
2515.000000	99.422892 
2514.000000	99.420558 
2513.000000	99.421448 
2512.000000	99.425262 
2511.000000	99.432580 
2510.000000	99.442736 
2509.000000	99.452116 
2508.000000	99.457091 
2507.000000	99.458232 
2506.000000	99.458919 
2505.000000	99.459668 
2504.000000	99.456890 
2503.000000	99.448495 
2502.000000	99.438073 
2501.000000	99.431656 
2500.000000	99.432214 
2499.000000	99.438838 
2498.000000	99.449011 
2497.000000	99.459135 
2496.000000	99.464628 
2495.000000	99.462864 
2494.000000	99.456120 
2493.000000	99.449539 
2492.000000	99.446307 
2491.000000	99.446405 
2490.000000	99.449404 
2489.000000	99.455982 
2488.000000	99.466189 
2487.000000	99.477782 
2486.000000	99.486807 
2485.000000	99.489294 
2484.000000	99.483234 
2483.000000	99.470675 
2482.000000	99.457633 
2481.000000	99.450061 
2480.000000	99.449266 
2479.000000	99.452065 
2478.000000	99.454964 
2477.000000	99.456776 
2476.000000	99.457829 
2475.000000	99.458938 
2474.000000	99.461511 
2473.000000	99.466497 
2472.000000	99.472271 
2471.000000	99.475187 
2470.000000	99.473336 
2469.000000	99.468632 
2468.000000	99.464322 
2467.000000	99.461585 
2466.000000	99.459563 
2465.000000	99.457588 
2464.000000	99.456029 
2463.000000	99.455511 
2462.000000	99.456380 
2461.000000	99.458425 
2460.000000	99.460179 
2459.000000	99.459110 
2458.000000	99.453902 
2457.000000	99.446479 
2456.000000	99.440647 
2455.000000	99.438555 
2454.000000	99.439254 
2453.000000	99.440674 
2452.000000	99.441775 
2451.000000	99.442269 
2450.000000	99.441472 
2449.000000	99.438804 
2448.000000	99.435387 
2447.000000	99.434065 
2446.000000	99.437129 
2445.000000	99.443922 
2444.000000	99.450645 
2443.000000	99.452634 
2442.000000	99.447592 
2441.000000	99.437651 
2440.000000	99.428469 
2439.000000	99.425394 
2438.000000	99.429524 
2437.000000	99.437273 
2436.000000	99.443806 
2435.000000	99.446772 
2434.000000	99.447015 
2433.000000	99.446892 
2432.000000	99.448711 
2431.000000	99.453836 
2430.000000	99.461499 
2429.000000	99.468151 
2428.000000	99.469461 
2427.000000	99.464181 
2426.000000	99.455779 
2425.000000	99.449686 
2424.000000	99.449146 
2423.000000	99.453942 
2422.000000	99.462122 
2421.000000	99.471468 
2420.000000	99.479262 
2419.000000	99.482380 
2418.000000	99.479301 
2417.000000	99.471918 
2416.000000	99.464198 
2415.000000	99.458556 
2414.000000	99.454248 
2413.000000	99.449642 
2412.000000	99.444997 
2411.000000	99.442042 
2410.000000	99.441538 
2409.000000	99.442711 
2408.000000	99.444880 
2407.000000	99.448114 
2406.000000	99.452055 
2405.000000	99.455681 
2404.000000	99.458779 
2403.000000	99.462102 
2402.000000	99.465154 
2401.000000	99.465395 
2400.000000	99.461126 
2399.000000	99.454197 
2398.000000	99.448477 
2397.000000	99.446333 
2396.000000	99.447640 
2395.000000	99.451038 
2394.000000	99.454508 
2393.000000	99.455674 
2392.000000	99.453620 
2391.000000	99.450114 
2390.000000	99.447507 
2389.000000	99.446161 
2388.000000	99.445776 
2387.000000	99.448053 
2386.000000	99.454875 
2385.000000	99.463940 
2384.000000	99.469680 
2383.000000	99.469759 
2382.000000	99.467861 
2381.000000	99.468331 
2380.000000	99.470525 
2379.000000	99.470942 
2378.000000	99.469196 
2377.000000	99.468803 
2376.000000	99.472384 
2375.000000	99.478564 
2374.000000	99.483796 
2373.000000	99.485472 
2372.000000	99.483374 
2371.000000	99.479806 
2370.000000	99.478168 
2369.000000	99.479599 
2368.000000	99.481245 
2367.000000	99.479725 
2366.000000	99.476348 
2365.000000	99.476802 
2364.000000	99.484432 
2363.000000	99.495162 
2362.000000	99.500746 
2361.000000	99.496384 
2360.000000	99.485020 
2359.000000	99.473689 
2358.000000	99.467515 
2357.000000	99.468188 
2356.000000	99.476045 
2355.000000	99.489233 
2354.000000	99.501132 
2353.000000	99.504988 
2352.000000	99.500405 
2351.000000	99.492955 
2350.000000	99.487921 
2349.000000	99.486081 
2348.000000	99.485771 
2347.000000	99.485588 
2346.000000	99.485845 
2345.000000	99.486647 
2344.000000	99.486723 
2343.000000	99.485585 
2342.000000	99.483988 
2341.000000	99.482964 
2340.000000	99.482942 
2339.000000	99.484884 
2338.000000	99.488695 
2337.000000	99.491824 
2336.000000	99.490736 
2335.000000	99.484924 
2334.000000	99.478065 
2333.000000	99.475785 
2332.000000	99.480512 
2331.000000	99.488618 
2330.000000	99.493460 
2329.000000	99.491274 
2328.000000	99.484094 
2327.000000	99.475694 
2326.000000	99.467921 
2325.000000	99.460406 
2324.000000	99.453394 
2323.000000	99.449742 
2322.000000	99.452510 
2321.000000	99.460915 
2320.000000	99.468693 
2319.000000	99.469909 
2318.000000	99.465111 
2317.000000	99.460518 
2316.000000	99.460637 
2315.000000	99.464169 
2314.000000	99.467755 
2313.000000	99.471002 
2312.000000	99.475758 
2311.000000	99.481157 
2310.000000	99.482924 
2309.000000	99.478072 
2308.000000	99.468849 
2307.000000	99.460851 
2306.000000	99.458190 
2305.000000	99.460967 
2304.000000	99.466267 
2303.000000	99.470682 
2302.000000	99.472271 
2301.000000	99.471711 
2300.000000	99.472021 
2299.000000	99.476195 
2298.000000	99.483898 
2297.000000	99.490380 
2296.000000	99.490057 
2295.000000	99.481595 
2294.000000	99.469603 
2293.000000	99.460843 
2292.000000	99.459025 
2291.000000	99.462554 
2290.000000	99.466625 
2289.000000	99.467319 
2288.000000	99.464579 
2287.000000	99.461463 
2286.000000	99.459999 
2285.000000	99.458257 
2284.000000	99.452940 
2283.000000	99.444954 
2282.000000	99.439999 
2281.000000	99.442375 
2280.000000	99.450051 
2279.000000	99.457897 
2278.000000	99.463887 
2277.000000	99.469466 
2276.000000	99.475068 
2275.000000	99.478775 
2274.000000	99.479543 
2273.000000	99.478670 
2272.000000	99.477271 
2271.000000	99.474925 
2270.000000	99.472210 
2269.000000	99.472196 
2268.000000	99.477377 
2267.000000	99.486352 
2266.000000	99.495189 
2265.000000	99.501027 
2264.000000	99.502946 
2263.000000	99.500624 
2262.000000	99.494666 
2261.000000	99.488068 
2260.000000	99.484895 
2259.000000	99.486438 
2258.000000	99.489891 
2257.000000	99.491804 
2256.000000	99.491984 
2255.000000	99.493113 
2254.000000	99.497074 
2253.000000	99.503058 
2252.000000	99.509251 
2251.000000	99.514789 
2250.000000	99.519100 
2249.000000	99.520432 
2248.000000	99.516833 
2247.000000	99.508704 
2246.000000	99.499220 
2245.000000	99.491851 
2244.000000	99.488195 
2243.000000	99.488288 
2242.000000	99.491795 
2241.000000	99.498330 
2240.000000	99.507727 
2239.000000	99.520373 
2238.000000	99.535639 
2237.000000	99.549149 
2236.000000	99.553806 
2235.000000	99.545993 
2234.000000	99.530282 
2233.000000	99.516197 
2232.000000	99.510217 
2231.000000	99.511660 
2230.000000	99.515085 
2229.000000	99.514775 
2228.000000	99.508064 
2227.000000	99.497307 
2226.000000	99.489047 
2225.000000	99.489142 
2224.000000	99.498004 
2223.000000	99.511400 
2222.000000	99.524461 
2221.000000	99.532518 
2220.000000	99.530592 
2219.000000	99.518131 
2218.000000	99.505220 
2217.000000	99.507479 
2216.000000	99.529693 
2215.000000	99.557886 
2214.000000	99.572574 
2213.000000	99.568161 
2212.000000	99.555128 
2211.000000	99.545410 
2210.000000	99.542303 
2209.000000	99.544438 
2208.000000	99.551263 
2207.000000	99.559958 
2206.000000	99.562266 
2205.000000	99.551613 
2204.000000	99.533054 
2203.000000	99.520794 
2202.000000	99.524108 
2201.000000	99.538009 
2200.000000	99.549093 
2199.000000	99.549281 
2198.000000	99.542617 
2197.000000	99.539556 
2196.000000	99.545971 
2195.000000	99.558099 
2194.000000	99.567433 
2193.000000	99.569015 
2192.000000	99.564433 
2191.000000	99.558699 
2190.000000	99.557147 
2189.000000	99.564397 
2188.000000	99.581003 
2187.000000	99.598700 
2186.000000	99.603453 
2185.000000	99.588548 
2184.000000	99.563280 
2183.000000	99.543957 
2182.000000	99.537513 
2181.000000	99.538410 
2180.000000	99.540075 
2179.000000	99.542827 
2178.000000	99.549879 
2177.000000	99.562203 
2176.000000	99.579575 
2175.000000	99.600619 
2174.000000	99.618590 
2173.000000	99.623379 
2172.000000	99.613325 
2171.000000	99.600652 
2170.000000	99.599416 
2169.000000	99.610345 
2168.000000	99.622289 
2167.000000	99.626321 
2166.000000	99.622416 
2165.000000	99.614316 
2164.000000	99.606170 
2163.000000	99.605485 
2162.000000	99.621122 
2161.000000	99.652602 
2160.000000	99.685128 
2159.000000	99.700853 
2158.000000	99.694117 
2157.000000	99.672598 
2156.000000	99.646970 
2155.000000	99.624656 
2154.000000	99.610555 
2153.000000	99.606653 
2152.000000	99.609841 
2151.000000	99.613903 
2150.000000	99.615809 
2149.000000	99.619415 
2148.000000	99.631529 
2147.000000	99.653081 
2146.000000	99.674110 
2145.000000	99.679585 
2144.000000	99.663001 
2143.000000	99.633986 
2142.000000	99.610341 
2141.000000	99.601977 
2140.000000	99.603784 
2139.000000	99.604580 
2138.000000	99.600641 
2137.000000	99.598357 
2136.000000	99.604842 
2135.000000	99.618754 
2134.000000	99.631400 
2133.000000	99.635487 
2132.000000	99.630922 
2131.000000	99.621895 
2130.000000	99.610521 
2129.000000	99.595628 
2128.000000	99.577387 
2127.000000	99.560432 
2126.000000	99.550669 
2125.000000	99.550008 
2124.000000	99.555845 
2123.000000	99.564771 
2122.000000	99.574372 
2121.000000	99.581790 
2120.000000	99.583956 
2119.000000	99.580834 
2118.000000	99.576385 
2117.000000	99.574518 
2116.000000	99.575157 
2115.000000	99.575767 
2114.000000	99.575502 
2113.000000	99.575732 
2112.000000	99.576924 
2111.000000	99.577352 
2110.000000	99.575537 
2109.000000	99.572236 
2108.000000	99.568634 
2107.000000	99.563422 
2106.000000	99.553646 
2105.000000	99.539392 
2104.000000	99.526646 
2103.000000	99.523411 
2102.000000	99.531644 
2101.000000	99.543688 
2100.000000	99.548730 
2099.000000	99.543566 
2098.000000	99.535806 
2097.000000	99.535792 
2096.000000	99.546394 
2095.000000	99.561660 
2094.000000	99.573868 
2093.000000	99.579553 
2092.000000	99.579314 
2091.000000	99.575094 
2090.000000	99.569520 
2089.000000	99.565962 
2088.000000	99.566075 
2087.000000	99.566967 
2086.000000	99.563178 
2085.000000	99.553232 
2084.000000	99.543288 
2083.000000	99.542276 
2082.000000	99.553285 
2081.000000	99.570846 
2080.000000	99.586837 
2079.000000	99.597746 
2078.000000	99.605747 
2077.000000	99.614538 
2076.000000	99.625236 
2075.000000	99.634782 
2074.000000	99.637003 
2073.000000	99.626898 
2072.000000	99.606184 
2071.000000	99.583924 
2070.000000	99.569766 
2069.000000	99.566137 
2068.000000	99.567460 
2067.000000	99.566439 
2066.000000	99.560424 
2065.000000	99.553412 
2064.000000	99.553607 
2063.000000	99.567114 
2062.000000	99.590817 
2061.000000	99.611831 
2060.000000	99.617937 
2059.000000	99.609854 
2058.000000	99.600524 
2057.000000	99.601419 
2056.000000	99.611977 
2055.000000	99.623320 
2054.000000	99.629167 
2053.000000	99.630755 
2052.000000	99.633106 
2051.000000	99.639446 
2050.000000	99.648760 
2049.000000	99.656629 
2048.000000	99.659041 
2047.000000	99.656945 
2046.000000	99.656093 
2045.000000	99.660992 
2044.000000	99.669771 
2043.000000	99.676495 
2042.000000	99.677989 
2041.000000	99.676614 
2040.000000	99.676130 
2039.000000	99.676919 
2038.000000	99.677185 
2037.000000	99.677687 
2036.000000	99.681576 
2035.000000	99.687703 
2034.000000	99.687314 
2033.000000	99.673072 
2032.000000	99.651890 
2031.000000	99.642724 
2030.000000	99.658155 
2029.000000	99.690718 
2028.000000	99.720157 
2027.000000	99.731968 
2026.000000	99.725807 
2025.000000	99.710402 
2024.000000	99.696635 
2023.000000	99.693362 
2022.000000	99.702496 
2021.000000	99.715935 
2020.000000	99.721965 
2019.000000	99.716724 
2018.000000	99.706242 
2017.000000	99.697221 
2016.000000	99.690457 
2015.000000	99.684581 
2014.000000	99.680579 
2013.000000	99.678937 
2012.000000	99.676960 
2011.000000	99.673679 
2010.000000	99.674718 
2009.000000	99.687074 
2008.000000	99.709124 
2007.000000	99.729844 
2006.000000	99.738982 
2005.000000	99.735877 
2004.000000	99.727803 
2003.000000	99.721181 
2002.000000	99.715403 
2001.000000	99.704656 
2000.000000	99.685314 
1999.000000	99.661159 
1998.000000	99.640695 
1997.000000	99.629931 
1996.000000	99.628945 
1995.000000	99.634751 
1994.000000	99.644183 
1993.000000	99.652975 
1992.000000	99.656003 
1991.000000	99.651521 
1990.000000	99.643252 
1989.000000	99.636536 
1988.000000	99.634715 
1987.000000	99.640064 
1986.000000	99.654163 
1985.000000	99.674063 
1984.000000	99.690804 
1983.000000	99.695864 
1982.000000	99.688646 
1981.000000	99.675966 
1980.000000	99.666059 
1979.000000	99.665002 
1978.000000	99.674851 
1977.000000	99.689286 
1976.000000	99.694243 
1975.000000	99.680938 
1974.000000	99.658015 
1973.000000	99.644634 
1972.000000	99.650438 
1971.000000	99.667488 
1970.000000	99.682815 
1969.000000	99.692696 
1968.000000	99.701600 
1967.000000	99.711940 
1966.000000	99.720539 
1965.000000	99.724253 
1964.000000	99.723885 
1963.000000	99.721822 
1962.000000	99.719535 
1961.000000	99.718215 
1960.000000	99.718905 
1959.000000	99.720431 
1958.000000	99.718968 
1957.000000	99.711419 
1956.000000	99.698375 
1955.000000	99.682434 
1954.000000	99.664671 
1953.000000	99.645003 
1952.000000	99.626103 
1951.000000	99.614284 
1950.000000	99.614283 
1949.000000	99.623890 
1948.000000	99.635598 
1947.000000	99.643047 
1946.000000	99.643718 
1945.000000	99.636633 
1944.000000	99.621835 
1943.000000	99.603897 
1942.000000	99.591636 
1941.000000	99.589713 
1940.000000	99.593596 
1939.000000	99.596202 
1938.000000	99.596225 
1937.000000	99.597412 
1936.000000	99.601558 
1935.000000	99.605567 
1934.000000	99.605710 
1933.000000	99.602098 
1932.000000	99.598372 
1931.000000	99.598596 
1930.000000	99.604579 
1929.000000	99.613959 
1928.000000	99.620525 
1927.000000	99.618446 
1926.000000	99.606772 
1925.000000	99.589199 
1924.000000	99.570685 
1923.000000	99.556514 
1922.000000	99.552851 
1921.000000	99.563399 
1920.000000	99.584241 
1919.000000	99.603768 
1918.000000	99.610266 
1917.000000	99.601945 
1916.000000	99.586876 
1915.000000	99.573357 
1914.000000	99.565444 
1913.000000	99.564868 
1912.000000	99.570883 
1911.000000	99.578449 
1910.000000	99.580622 
1909.000000	99.574997 
1908.000000	99.566316 
1907.000000	99.561264 
1906.000000	99.562229 
1905.000000	99.566343 
1904.000000	99.568123 
1903.000000	99.562567 
1902.000000	99.548193 
1901.000000	99.529286 
1900.000000	99.514130 
1899.000000	99.508911 
1898.000000	99.512982 
1897.000000	99.520112 
1896.000000	99.524277 
1895.000000	99.524448 
1894.000000	99.523916 
1893.000000	99.525565 
1892.000000	99.528468 
1891.000000	99.529046 
1890.000000	99.525340 
1889.000000	99.519834 
1888.000000	99.516924 
1887.000000	99.518250 
1886.000000	99.521839 
1885.000000	99.524467 
1884.000000	99.523749 
1883.000000	99.518855 
1882.000000	99.510828 
1881.000000	99.502840 
1880.000000	99.498617 
1879.000000	99.499141 
1878.000000	99.501129 
1877.000000	99.499893 
1876.000000	99.494401 
1875.000000	99.489044 
1874.000000	99.489757 
1873.000000	99.498171 
1872.000000	99.509480 
1871.000000	99.515918 
1870.000000	99.512411 
1869.000000	99.500796 
1868.000000	99.487697 
1867.000000	99.476629 
1866.000000	99.466032 
1865.000000	99.455233 
1864.000000	99.448212 
1863.000000	99.450676 
1862.000000	99.463873 
1861.000000	99.481631 
1860.000000	99.494838 
1859.000000	99.499569 
1858.000000	99.499864 
1857.000000	99.502366 
1856.000000	99.509287 
1855.000000	99.517229 
1854.000000	99.521857 
1853.000000	99.521802 
1852.000000	99.518125 
1851.000000	99.512158 
1850.000000	99.505418 
1849.000000	99.500704 
1848.000000	99.500969 
1847.000000	99.506672 
1846.000000	99.514901 
1845.000000	99.520111 
1844.000000	99.517110 
1843.000000	99.506412 
1842.000000	99.494768 
1841.000000	99.489154 
1840.000000	99.491812 
1839.000000	99.499500 
1838.000000	99.506548 
1837.000000	99.510015 
1836.000000	99.511265 
1835.000000	99.512595 
1834.000000	99.514542 
1833.000000	99.516639 
1832.000000	99.518415 
1831.000000	99.518883 
1830.000000	99.517052 
1829.000000	99.513862 
1828.000000	99.511859 
1827.000000	99.512123 
1826.000000	99.512562 
1825.000000	99.510668 
1824.000000	99.507324 
1823.000000	99.505387 
1822.000000	99.505115 
1821.000000	99.503705 
1820.000000	99.499330 
1819.000000	99.493888 
1818.000000	99.490760 
1817.000000	99.490786 
1816.000000	99.491561 
1815.000000	99.490418 
1814.000000	99.487229 
1813.000000	99.484599 
1812.000000	99.486026 
1811.000000	99.492799 
1810.000000	99.502138 
1809.000000	99.509355 
1808.000000	99.511620 
1807.000000	99.508688 
1806.000000	99.501626 
1805.000000	99.492577 
1804.000000	99.484438 
1803.000000	99.479187 
1802.000000	99.476892 
1801.000000	99.476803 
1800.000000	99.478346 
1799.000000	99.480263 
1798.000000	99.480274 
1797.000000	99.477374 
1796.000000	99.473741 
1795.000000	99.472733 
1794.000000	99.475120 
1793.000000	99.478071 
1792.000000	99.479343 
1791.000000	99.480397 
1790.000000	99.483142 
1789.000000	99.487729 
1788.000000	99.493973 
1787.000000	99.501329 
1786.000000	99.507263 
1785.000000	99.508060 
1784.000000	99.502940 
1783.000000	99.495649 
1782.000000	99.490407 
1781.000000	99.487754 
1780.000000	99.485184 
1779.000000	99.480950 
1778.000000	99.476193 
1777.000000	99.473215 
1776.000000	99.473603 
1775.000000	99.478360 
1774.000000	99.487889 
1773.000000	99.499903 
1772.000000	99.509125 
1771.000000	99.512495 
1770.000000	99.511586 
1769.000000	99.508526 
1768.000000	99.503952 
1767.000000	99.498708 
1766.000000	99.494219 
1765.000000	99.491154 
1764.000000	99.489136 
1763.000000	99.487970 
1762.000000	99.488229 
1761.000000	99.489927 
1760.000000	99.491839 
1759.000000	99.492911 
1758.000000	99.492931 
1757.000000	99.492181 
1756.000000	99.491523 
1755.000000	99.492397 
1754.000000	99.495607 
1753.000000	99.500151 
1752.000000	99.503989 
1751.000000	99.507065 
1750.000000	99.511965 
1749.000000	99.518668 
1748.000000	99.522108 
1747.000000	99.518004 
1746.000000	99.507762 
1745.000000	99.495924 
1744.000000	99.485929 
1743.000000	99.479673 
1742.000000	99.478490 
1741.000000	99.482376 
1740.000000	99.488279 
1739.000000	99.491616 
1738.000000	99.491306 
1737.000000	99.489547 
1736.000000	99.487909 
1735.000000	99.484235 
1734.000000	99.475887 
1733.000000	99.467459 
1732.000000	99.465373 
1731.000000	99.468916 
1730.000000	99.473290 
1729.000000	99.475445 
1728.000000	99.475257 
1727.000000	99.474072 
1726.000000	99.472192 
1725.000000	99.468850 
1724.000000	99.464442 
1723.000000	99.461668 
1722.000000	99.463222 
1721.000000	99.469127 
1720.000000	99.476824 
1719.000000	99.482669 
1718.000000	99.483162 
1717.000000	99.477377 
1716.000000	99.468890 
1715.000000	99.461680 
1714.000000	99.456080 
1713.000000	99.451328 
1712.000000	99.447502 
1711.000000	99.444531 
1710.000000	99.441795 
1709.000000	99.438889 
1708.000000	99.436107 
1707.000000	99.434104 
1706.000000	99.433495 
1705.000000	99.433981 
1704.000000	99.434206 
1703.000000	99.432563 
1702.000000	99.428228 
1701.000000	99.419349 
1700.000000	99.407249 
1699.000000	99.398747 
1698.000000	99.395627 
1697.000000	99.394753 
1696.000000	99.394017 
1695.000000	99.392537 
1694.000000	99.390606 
1693.000000	99.388140 
1692.000000	99.383675 
1691.000000	99.376460 
1690.000000	99.367103 
1689.000000	99.356926 
1688.000000	99.347365 
1687.000000	99.339813 
1686.000000	99.335858 
1685.000000	99.334585 
1684.000000	99.333361 
1683.000000	99.330710 
1682.000000	99.326290 
1681.000000	99.320953 
1680.000000	99.315444 
1679.000000	99.311170 
1678.000000	99.308871 
1677.000000	99.308010 
1676.000000	99.306412 
1675.000000	99.302225 
1674.000000	99.296751 
1673.000000	99.292651 
1672.000000	99.290514 
1671.000000	99.288935 
1670.000000	99.285994 
1669.000000	99.281029 
1668.000000	99.275081 
1667.000000	99.269187 
1666.000000	99.262966 
1665.000000	99.255491 
1664.000000	99.247512 
1663.000000	99.242297 
1662.000000	99.242149 
1661.000000	99.244598 
1660.000000	99.245351 
1659.000000	99.242786 
1658.000000	99.237581 
1657.000000	99.230025 
1656.000000	99.219491 
1655.000000	99.207187 
1654.000000	99.198910 
1653.000000	99.199491 
1652.000000	99.202277 
1651.000000	99.202657 
1650.000000	99.201951 
1649.000000	99.197693 
1648.000000	99.190336 
1647.000000	99.182122 
1646.000000	99.175433 
1645.000000	99.172166 
1644.000000	99.174437 
1643.000000	99.180762 
1642.000000	99.186730 
1641.000000	99.188721 
1640.000000	99.186481 
1639.000000	99.182519 
1638.000000	99.179589 
1637.000000	99.179056 
1636.000000	99.180084 
1635.000000	99.179893 
1634.000000	99.178322 
1633.000000	99.178387 
1632.000000	99.180798 
1631.000000	99.183884 
1630.000000	99.185735 
1629.000000	99.185824 
1628.000000	99.185546 
1627.000000	99.186521 
1626.000000	99.189285 
1625.000000	99.193907 
1624.000000	99.200110 
1623.000000	99.206257 
1622.000000	99.210190 
1621.000000	99.211884 
1620.000000	99.212971 
1619.000000	99.214955 
1618.000000	99.219038 
1617.000000	99.225129 
1616.000000	99.231080 
1615.000000	99.234723 
1614.000000	99.236013 
1613.000000	99.236487 
1612.000000	99.238350 
1611.000000	99.242565 
1610.000000	99.247787 
1609.000000	99.252406 
1608.000000	99.256202 
1607.000000	99.259255 
1606.000000	99.261401 
1605.000000	99.263458 
1604.000000	99.267447 
1603.000000	99.274594 
1602.000000	99.283454 
1601.000000	99.291191 
1600.000000	99.296621 
1599.000000	99.300817 
1598.000000	99.305027 
1597.000000	99.309275 
1596.000000	99.313351 
1595.000000	99.317860 
1594.000000	99.323203 
1593.000000	99.328386 
1592.000000	99.331982 
1591.000000	99.334056 
1590.000000	99.336460 
1589.000000	99.340976 
1588.000000	99.347365 
1587.000000	99.353461 
1586.000000	99.357060 
1585.000000	99.357551 
1584.000000	99.355715 
1583.000000	99.352865 
1582.000000	99.350615 
1581.000000	99.350265 
1580.000000	99.351800 
1579.000000	99.354280 
1578.000000	99.357395 
1577.000000	99.361401 
1576.000000	99.364948 
1575.000000	99.366267 
1574.000000	99.366456 
1573.000000	99.366756 
1572.000000	99.366970 
1571.000000	99.367744 
1570.000000	99.370843 
1569.000000	99.377279 
1568.000000	99.384469 
1567.000000	99.389186 
1566.000000	99.390492 
1565.000000	99.389413 
1564.000000	99.387148 
1563.000000	99.384654 
1562.000000	99.382965 
1561.000000	99.384714 
1560.000000	99.388733 
1559.000000	99.391636 
1558.000000	99.390943 
1557.000000	99.387296 
1556.000000	99.385655 
1555.000000	99.385398 
1554.000000	99.385487 
1553.000000	99.384556 
1552.000000	99.383054 
1551.000000	99.382601 
1550.000000	99.385415 
1549.000000	99.391009 
1548.000000	99.395496 
1547.000000	99.395437 
1546.000000	99.390143 
1545.000000	99.381812 
1544.000000	99.374380 
1543.000000	99.369850 
1542.000000	99.367389 
1541.000000	99.367080 
1540.000000	99.371193 
1539.000000	99.377199 
1538.000000	99.380990 
1537.000000	99.383477 
1536.000000	99.384901 
1535.000000	99.385091 
1534.000000	99.384289 
1533.000000	99.382945 
1532.000000	99.381666 
1531.000000	99.381251 
1530.000000	99.381626 
1529.000000	99.381051 
1528.000000	99.378110 
1527.000000	99.374378 
1526.000000	99.373084 
1525.000000	99.374693 
1524.000000	99.376903 
1523.000000	99.378672 
1522.000000	99.381750 
1521.000000	99.386873 
1520.000000	99.391212 
1519.000000	99.392364 
1518.000000	99.390252 
1517.000000	99.386468 
1516.000000	99.383383 
1515.000000	99.381951 
1514.000000	99.381807 
1513.000000	99.381759 
1512.000000	99.380713 
1511.000000	99.379044 
1510.000000	99.378046 
1509.000000	99.378702 
1508.000000	99.382464 
1507.000000	99.392457 
1506.000000	99.401791 
1505.000000	99.400805 
1504.000000	99.394848 
1503.000000	99.389986 
1502.000000	99.388090 
1501.000000	99.389656 
1500.000000	99.392896 
1499.000000	99.395458 
1498.000000	99.397953 
1497.000000	99.403471 
1496.000000	99.412043 
1495.000000	99.419581 
1494.000000	99.422675 
1493.000000	99.420561 
1492.000000	99.413786 
1491.000000	99.403846 
1490.000000	99.394286 
1489.000000	99.388272 
1488.000000	99.385214 
1487.000000	99.383252 
1486.000000	99.382127 
1485.000000	99.382906 
1484.000000	99.385910 
1483.000000	99.389477 
1482.000000	99.391027 
1481.000000	99.389566 
1480.000000	99.386819 
1479.000000	99.385078 
1478.000000	99.384477 
1477.000000	99.383331 
1476.000000	99.380889 
1475.000000	99.378363 
1474.000000	99.377126 
1473.000000	99.377037 
1472.000000	99.376310 
1471.000000	99.373168 
1470.000000	99.367808 
1469.000000	99.361991 
1468.000000	99.357824 
1467.000000	99.356891 
1466.000000	99.358886 
1465.000000	99.361162 
1464.000000	99.361437 
1463.000000	99.360657 
1462.000000	99.360787 
1461.000000	99.361112 
1460.000000	99.358731 
1459.000000	99.351974 
1458.000000	99.343389 
1457.000000	99.337830 
1456.000000	99.335685 
1455.000000	99.334936 
1454.000000	99.335106 
1453.000000	99.334521 
1452.000000	99.331697 
1451.000000	99.326963 
1450.000000	99.322339 
1449.000000	99.319321 
1448.000000	99.317470 
1447.000000	99.315732 
1446.000000	99.314443 
1445.000000	99.314563 
1444.000000	99.315658 
1443.000000	99.315687 
1442.000000	99.313123 
1441.000000	99.308888 
1440.000000	99.305509 
1439.000000	99.304768 
1438.000000	99.305947 
1437.000000	99.305747 
1436.000000	99.301754 
1435.000000	99.295795 
1434.000000	99.291322 
1433.000000	99.289965 
1432.000000	99.291797 
1431.000000	99.295951 
1430.000000	99.300824 
1429.000000	99.304653 
1428.000000	99.306222 
1427.000000	99.305558 
1426.000000	99.303744 
1425.000000	99.302013 
1424.000000	99.301161 
1423.000000	99.301102 
1422.000000	99.301371 
1421.000000	99.302267 
1420.000000	99.303953 
1419.000000	99.305787 
1418.000000	99.307007 
1417.000000	99.306919 
1416.000000	99.305970 
1415.000000	99.305270 
1414.000000	99.304775 
1413.000000	99.303107 
1412.000000	99.299598 
1411.000000	99.295790 
1410.000000	99.294088 
1409.000000	99.295317 
1408.000000	99.298291 
1407.000000	99.301186 
1406.000000	99.303332 
1405.000000	99.306118 
1404.000000	99.311319 
1403.000000	99.318441 
1402.000000	99.325061 
1401.000000	99.329313 
1400.000000	99.331543 
1399.000000	99.333925 
1398.000000	99.337395 
1397.000000	99.339989 
1396.000000	99.339587 
1395.000000	99.337043 
1394.000000	99.335879 
1393.000000	99.338865 
1392.000000	99.346336 
1391.000000	99.357022 
1390.000000	99.368417 
1389.000000	99.377032 
1388.000000	99.380069 
1387.000000	99.377938 
1386.000000	99.374010 
1385.000000	99.371297 
1384.000000	99.370857 
1383.000000	99.372624 
1382.000000	99.375980 
1381.000000	99.379975 
1380.000000	99.383850 
1379.000000	99.387249 
1378.000000	99.389541 
1377.000000	99.389551 
1376.000000	99.386933 
1375.000000	99.383885 
1374.000000	99.383918 
1373.000000	99.387592 
1372.000000	99.392187 
1371.000000	99.396280 
1370.000000	99.401142 
1369.000000	99.407707 
1368.000000	99.414516 
1367.000000	99.419367 
1366.000000	99.421587 
1365.000000	99.421184 
1364.000000	99.417615 
1363.000000	99.411805 
1362.000000	99.407524 
1361.000000	99.407806 
1360.000000	99.411761 
1359.000000	99.416636 
1358.000000	99.420999 
1357.000000	99.424961 
1356.000000	99.428541 
1355.000000	99.431285 
1354.000000	99.433066 
1353.000000	99.433755 
1352.000000	99.432347 
1351.000000	99.428094 
1350.000000	99.422623 
1349.000000	99.419187 
1348.000000	99.419450 
1347.000000	99.422298 
1346.000000	99.425982 
1345.000000	99.429750 
1344.000000	99.433018 
1343.000000	99.434597 
1342.000000	99.433574 
1341.000000	99.430244 
1340.000000	99.425889 
1339.000000	99.422167 
1338.000000	99.420721 
1337.000000	99.422500 
1336.000000	99.426758 
1335.000000	99.431370 
1334.000000	99.434852 
1333.000000	99.437441 
1332.000000	99.439642 
1331.000000	99.440736 
1330.000000	99.439760 
1329.000000	99.437292 
1328.000000	99.435101 
1327.000000	99.434183 
1326.000000	99.433987 
1325.000000	99.433434 
1324.000000	99.432090 
1323.000000	99.430250 
1322.000000	99.428288 
1321.000000	99.426109 
1320.000000	99.423378 
1319.000000	99.420395 
1318.000000	99.418332 
1317.000000	99.417909 
1316.000000	99.418017 
1315.000000	99.416567 
1314.000000	99.412940 
1313.000000	99.408958 
1312.000000	99.406931 
1311.000000	99.407336 
1310.000000	99.408932 
1309.000000	99.410328 
1308.000000	99.410572 
1307.000000	99.408825 
1306.000000	99.404746 
1305.000000	99.399423 
1304.000000	99.395160 
1303.000000	99.393838 
1302.000000	99.395482 
1301.000000	99.398275 
1300.000000	99.399752 
1299.000000	99.398257 
1298.000000	99.393861 
1297.000000	99.388113 
1296.000000	99.382793 
1295.000000	99.378979 
1294.000000	99.377118 
1293.000000	99.377137 
1292.000000	99.377814 
1291.000000	99.376695 
1290.000000	99.371960 
1289.000000	99.364433 
1288.000000	99.356662 
1287.000000	99.349778 
1286.000000	99.342460 
1285.000000	99.333561 
1284.000000	99.324456 
1283.000000	99.317561 
1282.000000	99.313302 
1281.000000	99.310009 
1280.000000	99.306465 
1279.000000	99.302901 
1278.000000	99.299350 
1277.000000	99.294616 
1276.000000	99.287788 
1275.000000	99.279898 
1274.000000	99.273161 
1273.000000	99.268786 
1272.000000	99.265892 
1271.000000	99.262280 
1270.000000	99.256197 
1269.000000	99.247885 
1268.000000	99.239429 
1267.000000	99.232515 
1266.000000	99.226408 
1265.000000	99.219104 
1264.000000	99.210476 
1263.000000	99.202840 
1262.000000	99.197885 
1261.000000	99.194539 
1260.000000	99.190860 
1259.000000	99.186604 
1258.000000	99.182571 
1257.000000	99.178556 
1256.000000	99.173792 
1255.000000	99.168898 
1254.000000	99.165566 
1253.000000	99.164098 
1252.000000	99.162428 
1251.000000	99.157850 
1250.000000	99.149046 
1249.000000	99.136669 
1248.000000	99.122914 
1247.000000	99.110417 
1246.000000	99.100377 
1245.000000	99.091447 
1244.000000	99.081186 
1243.000000	99.068671 
1242.000000	99.055151 
1241.000000	99.042492 
1240.000000	99.031752 
1239.000000	99.022785 
1238.000000	99.014095 
1237.000000	99.003400 
1236.000000	98.989487 
1235.000000	98.973440 
1234.000000	98.957113 
1233.000000	98.940784 
1232.000000	98.923481 
1231.000000	98.905055 
1230.000000	98.886239 
1229.000000	98.866762 
1228.000000	98.845300 
1227.000000	98.821690 
1226.000000	98.797479 
1225.000000	98.773430 
1224.000000	98.747736 
1223.000000	98.717675 
1222.000000	98.682366 
1221.000000	98.643303 
1220.000000	98.602801 
1219.000000	98.562336 
1218.000000	98.521652 
1217.000000	98.478974 
1216.000000	98.432463 
1215.000000	98.381828 
1214.000000	98.328591 
1213.000000	98.274991 
1212.000000	98.222535 
1211.000000	98.170799 
1210.000000	98.117462 
1209.000000	98.060644 
1208.000000	98.001517 
1207.000000	97.943234 
1206.000000	97.886910 
1205.000000	97.830637 
1204.000000	97.773203 
1203.000000	97.716137 
1202.000000	97.660402 
1201.000000	97.603681 
1200.000000	97.543549 
1199.000000	97.481442 
1198.000000	97.420712 
1197.000000	97.362139 
1196.000000	97.304011 
1195.000000	97.245316 
1194.000000	97.185958 
1193.000000	97.124768 
1192.000000	97.060260 
1191.000000	96.993288 
1190.000000	96.926780 
1189.000000	96.862935 
1188.000000	96.801935 
1187.000000	96.742333 
1186.000000	96.681103 
1185.000000	96.614687 
1184.000000	96.541982 
1183.000000	96.465506 
1182.000000	96.388373 
1181.000000	96.311617 
1180.000000	96.235669 
1179.000000	96.161698 
1178.000000	96.088807 
1177.000000	96.012211 
1176.000000	95.927630 
1175.000000	95.836495 
1174.000000	95.744167 
1173.000000	95.653976 
1172.000000	95.565435 
1171.000000	95.477009 
1170.000000	95.387917 
1169.000000	95.298069 
1168.000000	95.208755 
1167.000000	95.123209 
1166.000000	95.045624 
1165.000000	94.981201 
1164.000000	94.937867 
1163.000000	94.924338 
1162.000000	94.942890 
1161.000000	94.984725 
1160.000000	95.033728 
1159.000000	95.073776 
1158.000000	95.093221 
1157.000000	95.086430 
1156.000000	95.053852 
1155.000000	94.999932 
1154.000000	94.929763 
1153.000000	94.848142 
1152.000000	94.761242 
1151.000000	94.676010 
1150.000000	94.596174 
1149.000000	94.520695 
1148.000000	94.446944 
1147.000000	94.372940 
1146.000000	94.296193 
1145.000000	94.214320 
1144.000000	94.128755 
1143.000000	94.044803 
1142.000000	93.965967 
1141.000000	93.890549 
1140.000000	93.814919 
1139.000000	93.736948 
1138.000000	93.655160 
1137.000000	93.568371 
1136.000000	93.478255 
1135.000000	93.389138 
1134.000000	93.303196 
1133.000000	93.218418 
1132.000000	93.132272 
1131.000000	93.044037 
1130.000000	92.952693 
1129.000000	92.856604 
1128.000000	92.756703 
1127.000000	92.656253 
1126.000000	92.556291 
1125.000000	92.455245 
1124.000000	92.353731 
1123.000000	92.254762 
1122.000000	92.158006 
1121.000000	92.059170 
1120.000000	91.956832 
1119.000000	91.854767 
1118.000000	91.755862 
1117.000000	91.659059 
1116.000000	91.564084 
1115.000000	91.473458 
1114.000000	91.387626 
1113.000000	91.303614 
1112.000000	91.220696 
1111.000000	91.141970 
1110.000000	91.068257 
1109.000000	90.995888 
1108.000000	90.922332 
1107.000000	90.848533 
1106.000000	90.774181 
1105.000000	90.696497 
1104.000000	90.615236 
1103.000000	90.533171 
1102.000000	90.450662 
1101.000000	90.365843 
1100.000000	90.280718 
1099.000000	90.200089 
1098.000000	90.123589 
1097.000000	90.046408 
1096.000000	89.968744 
1095.000000	89.896442 
1094.000000	89.831035 
1093.000000	89.767613 
1092.000000	89.703898 
1091.000000	89.642305 
1090.000000	89.581232 
1089.000000	89.514123 
1088.000000	89.440462 
1087.000000	89.368943 
1086.000000	89.306358 
1085.000000	89.251243 
1084.000000	89.200681 
1083.000000	89.154206 
1082.000000	89.108205 
1081.000000	89.055921 
1080.000000	88.996760 
1079.000000	88.937287 
1078.000000	88.879946 
1077.000000	88.819344 
1076.000000	88.752424 
1075.000000	88.682751 
1074.000000	88.610872 
1073.000000	88.529471 
1072.000000	88.432151 
1071.000000	88.319013 
1070.000000	88.190596 
1069.000000	88.045146 
1068.000000	87.885625 
1067.000000	87.720905 
1066.000000	87.556010 
1065.000000	87.388997 
1064.000000	87.220266 
1063.000000	87.055748 
1062.000000	86.897613 
1061.000000	86.741368 
1060.000000	86.585643 
1059.000000	86.435160 
1058.000000	86.290460 
1057.000000	86.144256 
1056.000000	85.991226 
1055.000000	85.831914 
1054.000000	85.664539 
1053.000000	85.484021 
1052.000000	85.292571 
1051.000000	85.099241 
1050.000000	84.904654 
1049.000000	84.699846 
1048.000000	84.484601 
1047.000000	84.271243 
1046.000000	84.065426 
1045.000000	83.858524 
1044.000000	83.643853 
1043.000000	83.426316 
1042.000000	83.210993 
1041.000000	82.995479 
1040.000000	82.779709 
1039.000000	82.571313 
1038.000000	82.375083 
1037.000000	82.188545 
1036.000000	82.013038 
1035.000000	81.856836 
1034.000000	81.721917 
1033.000000	81.599801 
1032.000000	81.485429 
1031.000000	81.383148 
1030.000000	81.295024 
1029.000000	81.216242 
1028.000000	81.146317 
1027.000000	81.091481 
1026.000000	81.051164 
1025.000000	81.014745 
1024.000000	80.975807 
1023.000000	80.937088 
1022.000000	80.898335 
1021.000000	80.853061 
1020.000000	80.801181 
1019.000000	80.751181 
1018.000000	80.705459 
1017.000000	80.656553 
1016.000000	80.601643 
1015.000000	80.547388 
1014.000000	80.496673 
1013.000000	80.444006 
1012.000000	80.387936 
1011.000000	80.334755 
1010.000000	80.286510 
1009.000000	80.239056 
1008.000000	80.195168 
1007.000000	80.165093 
1006.000000	80.150187 
1005.000000	80.140321 
1004.000000	80.131472 
1003.000000	80.131514 
1002.000000	80.144635 
1001.000000	80.164620 
1000.000000	80.187872 
999.000000	 80.218454 
998.000000	 80.255632 
997.000000	 80.291005 
996.000000	 80.323371 
995.000000	 80.362847 
994.000000	 80.414952 
993.000000	 80.473229 
992.000000	 80.532004 
991.000000	 80.593534 
990.000000	 80.658561 
989.000000	 80.723223 
988.000000	 80.789798 
987.000000	 80.867572 
986.000000	 80.958879 
985.000000	 81.057147 
984.000000	 81.162371 
983.000000	 81.284615 
982.000000	 81.427614 
981.000000	 81.582416 
980.000000	 81.742193 
979.000000	 81.910499 
978.000000	 82.090314 
977.000000	 82.277864 
976.000000	 82.472378 
975.000000	 82.679645 
974.000000	 82.900420 
973.000000	 83.126343 
972.000000	 83.352102 
971.000000	 83.581042 
970.000000	 83.814565 
969.000000	 84.046718 
968.000000	 84.273804 
967.000000	 84.499347 
966.000000	 84.724859 
965.000000	 84.944825 
964.000000	 85.155194 
963.000000	 85.358576 
962.000000	 85.557257 
961.000000	 85.748977 
960.000000	 85.932970 
959.000000	 86.112435 
958.000000	 86.287757 
957.000000	 86.454655 
956.000000	 86.612037 
955.000000	 86.764696 
954.000000	 86.915465 
953.000000	 87.061240 
952.000000	 87.198799 
951.000000	 87.327875 
950.000000	 87.446908 
949.000000	 87.552987 
948.000000	 87.648139 
947.000000	 87.738922 
946.000000	 87.827761 
945.000000	 87.910901 
944.000000	 87.986078 
943.000000	 88.055271 
942.000000	 88.118825 
941.000000	 88.174510 
940.000000	 88.224292 
939.000000	 88.274801 
938.000000	 88.328965 
937.000000	 88.383764 
936.000000	 88.437584 
935.000000	 88.492564 
934.000000	 88.548319 
933.000000	 88.601178 
932.000000	 88.651771 
931.000000	 88.706045 
930.000000	 88.766649 
929.000000	 88.830098 
928.000000	 88.893764 
927.000000	 88.958056 
926.000000	 89.020200 
925.000000	 89.073885 
924.000000	 89.117436 
923.000000	 89.155103 
922.000000	 89.188409 
921.000000	 89.213728 
920.000000	 89.230591 
919.000000	 89.244750 
918.000000	 89.260422 
917.000000	 89.276729 
916.000000	 89.294329 
915.000000	 89.318161 
914.000000	 89.351099 
913.000000	 89.392464 
912.000000	 89.445486 
911.000000	 89.518169 
910.000000	 89.613070 
909.000000	 89.723483 
908.000000	 89.843343 
907.000000	 89.974171 
906.000000	 90.119335 
905.000000	 90.278080 
904.000000	 90.448051 
903.000000	 90.627502 
902.000000	 90.812534 
901.000000	 90.997744 
900.000000	 91.181480 
899.000000	 91.365279 
898.000000	 91.547140 
897.000000	 91.720915 
896.000000	 91.883255 
895.000000	 92.035975 
894.000000	 92.181019 
893.000000	 92.318397 
892.000000	 92.449657 
891.000000	 92.577806 
890.000000	 92.702657 
889.000000	 92.821192 
888.000000	 92.933201 
887.000000	 93.041296 
886.000000	 93.144498 
885.000000	 93.237579 
884.000000	 93.319106 
883.000000	 93.395563 
882.000000	 93.474915 
881.000000	 93.559257 
880.000000	 93.645554 
879.000000	 93.730346 
878.000000	 93.811903 
877.000000	 93.890212 
876.000000	 93.966141 
875.000000	 94.039646 
874.000000	 94.110033 
873.000000	 94.180059 
872.000000	 94.257056 
871.000000	 94.345395 
870.000000	 94.438986 
869.000000	 94.525818 
868.000000	 94.599818 
867.000000	 94.665306 
866.000000	 94.731229 
865.000000	 94.804282 
864.000000	 94.885867 
863.000000	 94.971163 
862.000000	 95.051314 
861.000000	 95.120036 
860.000000	 95.178249 
859.000000	 95.231039 
858.000000	 95.282424 
857.000000	 95.335039 
856.000000	 95.390815 
855.000000	 95.447332 
854.000000	 95.496615 
853.000000	 95.533152 
852.000000	 95.561159 
851.000000	 95.588559 
850.000000	 95.615754 
849.000000	 95.636531 
848.000000	 95.648914 
847.000000	 95.658157 
846.000000	 95.668518 
845.000000	 95.678410 
844.000000	 95.684997 
843.000000	 95.687519 
842.000000	 95.683649 
841.000000	 95.667788 
840.000000	 95.636631 
839.000000	 95.593675 
838.000000	 95.545481 
837.000000	 95.495192 
836.000000	 95.441889 
835.000000	 95.385543 
834.000000	 95.331373 
833.000000	 95.288641 
832.000000	 95.262944 
831.000000	 95.248543 
830.000000	 95.232759 
829.000000	 95.212464 
828.000000	 95.201402 
827.000000	 95.213447 
826.000000	 95.242577 
825.000000	 95.270576 
824.000000	 95.292489 
823.000000	 95.319896 
822.000000	 95.357622 
821.000000	 95.392308 
820.000000	 95.408559 
819.000000	 95.404902 
818.000000	 95.389928 
817.000000	 95.370829 
816.000000	 95.348581 
815.000000	 95.317259 
814.000000	 95.264478 
813.000000	 95.178006 
812.000000	 95.055241 
811.000000	 94.901976 
810.000000	 94.719822 
809.000000	 94.500087 
808.000000	 94.233016 
807.000000	 93.918090 
806.000000	 93.562808 
805.000000	 93.178533 
804.000000	 92.783431 
803.000000	 92.403574 
802.000000	 92.063209 
801.000000	 91.776175 
800.000000	 91.550035 
799.000000	 91.392052 
798.000000	 91.306215 
797.000000	 91.289663 
796.000000	 91.334198 
795.000000	 91.425074 
794.000000	 91.539078 
793.000000	 91.653307 
792.000000	 91.756638 
791.000000	 91.845370 
790.000000	 91.910699 
789.000000	 91.941968 
788.000000	 91.941160 
787.000000	 91.920655 
786.000000	 91.883494 
785.000000	 91.817207 
784.000000	 91.711757 
783.000000	 91.574576 
782.000000	 91.424705 
781.000000	 91.281937 
780.000000	 91.165427 
779.000000	 91.091427 
778.000000	 91.065106 
777.000000	 91.082160 
776.000000	 91.141215 
775.000000	 91.243911 
774.000000	 91.379735 
773.000000	 91.523896 
772.000000	 91.656797 
771.000000	 91.775962 
770.000000	 91.884012 
769.000000	 91.975511 
768.000000	 92.043072 
767.000000	 92.088563 
766.000000	 92.120492 
765.000000	 92.145098 
764.000000	 92.165362 
763.000000	 92.183675 
762.000000	 92.200569 
761.000000	 92.215415 
760.000000	 92.231927 
759.000000	 92.257581 
758.000000	 92.294352 
757.000000	 92.335894 
756.000000	 92.376961 
755.000000	 92.419454 
754.000000	 92.466091 
753.000000	 92.514635 
752.000000	 92.562228 
751.000000	 92.609571 
750.000000	 92.656734 
749.000000	 92.699669 
748.000000	 92.735235 
747.000000	 92.767104 
746.000000	 92.804409 
745.000000	 92.856136 
744.000000	 92.925638 
743.000000	 93.006532 
742.000000	 93.085927 
741.000000	 93.157428 
740.000000	 93.228920 
739.000000	 93.311079 
738.000000	 93.400775 
737.000000	 93.484134 
736.000000	 93.554369 
735.000000	 93.617369 
734.000000	 93.679917 
733.000000	 93.741263 
732.000000	 93.796571 
731.000000	 93.839575 
730.000000	 93.861772 
729.000000	 93.859266 
728.000000	 93.841642 
727.000000	 93.825925 
726.000000	 93.821202 
725.000000	 93.826511 
724.000000	 93.842449 
723.000000	 93.873403 
722.000000	 93.916951 
721.000000	 93.962505 
720.000000	 94.003815 
719.000000	 94.043283 
718.000000	 94.081356 
717.000000	 94.112661 
716.000000	 94.136830 
715.000000	 94.162518 
714.000000	 94.195142 
713.000000	 94.229035 
712.000000	 94.256352 
711.000000	 94.275639 
710.000000	 94.287068 
709.000000	 94.287510 
708.000000	 94.275474 
707.000000	 94.254423 
706.000000	 94.227486 
705.000000	 94.193653 
704.000000	 94.151022 
703.000000	 94.097241 
702.000000	 94.023546 
701.000000	 93.915633 
700.000000	 93.764160 
699.000000	 93.570107 
698.000000	 93.344263 
697.000000	 93.111734 
696.000000	 92.914698 
695.000000	 92.795202 
694.000000	 92.767828 
693.000000	 92.817616 
692.000000	 92.921974 
691.000000	 93.059389 
690.000000	 93.202224 
689.000000	 93.323974 
688.000000	 93.420936 
687.000000	 93.509394 
686.000000	 93.594045 
685.000000	 93.660088 
684.000000	 93.701999 
683.000000	 93.735823 
682.000000	 93.775638 
681.000000	 93.819261 
680.000000	 93.865352 
679.000000	 93.921059 
678.000000	 93.980223 
677.000000	 94.019095 
676.000000	 94.029280 
675.000000	 94.034282 
674.000000	 94.059620 
673.000000	 94.100653 
672.000000	 94.133681 
671.000000	 94.146479 
670.000000	 94.142178 
669.000000	 94.131005 
668.000000	 94.134297 
667.000000	 94.168488 
666.000000	 94.225948 
665.000000	 94.289951 
664.000000	 94.337507 
663.000000	 94.357754 
662.000000	 94.359340 
661.000000	 94.362907 
660.000000	 94.381866 
659.000000	 94.408416 
658.000000	 94.414012 
657.000000	 94.374208 
656.000000	 94.298058 
655.000000	 94.225141 
654.000000	 94.186682 
653.000000	 94.171070 
652.000000	 94.142347 
651.000000	 94.089106 
650.000000	 94.038096 

