4000.000000	98.937036 
3999.000000	98.938504 
3998.000000	98.939740 
3997.000000	98.939357 
3996.000000	98.936132 
3995.000000	98.930425 
3994.000000	98.924667 
3993.000000	98.921907 
3992.000000	98.923450 
3991.000000	98.927802 
3990.000000	98.932046 
3989.000000	98.934344 
3988.000000	98.935211 
3987.000000	98.936603 
3986.000000	98.939908 
3985.000000	98.944572 
3984.000000	98.948242 
3983.000000	98.948332 
3982.000000	98.944068 
3981.000000	98.937296 
3980.000000	98.931024 
3979.000000	98.927168 
3978.000000	98.925887 
3977.000000	98.926652 
3976.000000	98.929323 
3975.000000	98.933879 
3974.000000	98.939479 
3973.000000	98.944243 
3972.000000	98.946157 
3971.000000	98.944580 
3970.000000	98.940831 
3969.000000	98.937246 
3968.000000	98.935499 
3967.000000	98.935553 
3966.000000	98.936362 
3965.000000	98.937370 
3964.000000	98.938752 
3963.000000	98.940330 
3962.000000	98.941012 
3961.000000	98.939699 
3960.000000	98.936474 
3959.000000	98.932781 
3958.000000	98.930125 
3957.000000	98.928806 
3956.000000	98.928288 
3955.000000	98.928306 
3954.000000	98.929509 
3953.000000	98.932412 
3952.000000	98.935964 
3951.000000	98.937835 
3950.000000	98.936157 
3949.000000	98.931474 
3948.000000	98.926485 
3947.000000	98.923779 
3946.000000	98.924282 
3945.000000	98.927127 
3944.000000	98.930289 
3943.000000	98.931521 
3942.000000	98.930266 
3941.000000	98.928085 
3940.000000	98.926357 
3939.000000	98.924524 
3938.000000	98.921059 
3937.000000	98.915898 
3936.000000	98.911495 
3935.000000	98.910645 
3934.000000	98.914215 
3933.000000	98.920676 
3932.000000	98.927507 
3931.000000	98.932248 
3930.000000	98.933061 
3929.000000	98.930332 
3928.000000	98.926893 
3927.000000	98.925593 
3926.000000	98.926807 
3925.000000	98.928219 
3924.000000	98.927382 
3923.000000	98.924093 
3922.000000	98.919697 
3921.000000	98.915959 
3920.000000	98.914341 
3919.000000	98.915523 
3918.000000	98.918942 
3917.000000	98.923001 
3916.000000	98.926578 
3915.000000	98.929944 
3914.000000	98.933915 
3913.000000	98.938411 
3912.000000	98.942266 
3911.000000	98.945006 
3910.000000	98.947758 
3909.000000	98.952169 
3908.000000	98.958758 
3907.000000	98.964957 
3906.000000	98.965285 
3905.000000	98.954177 
3904.000000	98.931745 
3903.000000	98.907174 
3902.000000	98.892402 
3901.000000	98.892365 
3900.000000	98.902588 
3899.000000	98.914462 
3898.000000	98.922532 
3897.000000	98.926363 
3896.000000	98.927382 
3895.000000	98.927170 
3894.000000	98.927010 
3893.000000	98.926685 
3892.000000	98.923851 
3891.000000	98.916657 
3890.000000	98.907266 
3889.000000	98.900367 
3888.000000	98.899825 
3887.000000	98.905344 
3886.000000	98.911741 
3885.000000	98.914589 
3884.000000	98.914855 
3883.000000	98.916091 
3882.000000	98.919879 
3881.000000	98.923919 
3880.000000	98.924980 
3879.000000	98.922547 
3878.000000	98.919734 
3877.000000	98.920996 
3876.000000	98.928085 
3875.000000	98.935902 
3874.000000	98.936238 
3873.000000	98.927090 
3872.000000	98.915001 
3871.000000	98.907114 
3870.000000	98.904412 
3869.000000	98.905251 
3868.000000	98.909081 
3867.000000	98.915219 
3866.000000	98.921864 
3865.000000	98.926038 
3864.000000	98.925181 
3863.000000	98.920249 
3862.000000	98.914634 
3861.000000	98.912139 
3860.000000	98.914382 
3859.000000	98.918326 
3858.000000	98.918337 
3857.000000	98.912911 
3856.000000	98.907904 
3855.000000	98.910416 
3854.000000	98.914845 
3853.000000	98.914188 
3852.000000	98.914004 
3851.000000	98.918547 
3850.000000	98.924090 
3849.000000	98.927750 
3848.000000	98.929759 
3847.000000	98.931623 
3846.000000	98.933560 
3845.000000	98.934077 
3844.000000	98.932217 
3843.000000	98.929137 
3842.000000	98.926230 
3841.000000	98.923571 
3840.000000	98.920563 
3839.000000	98.917257 
3838.000000	98.914827 
3837.000000	98.913916 
3836.000000	98.914252 
3835.000000	98.916337 
3834.000000	98.921568 
3833.000000	98.930463 
3832.000000	98.940730 
3831.000000	98.948453 
3830.000000	98.951743 
3829.000000	98.951543 
3828.000000	98.949097 
3827.000000	98.944143 
3826.000000	98.936257 
3825.000000	98.927810 
3824.000000	98.924423 
3823.000000	98.930924 
3822.000000	98.942802 
3821.000000	98.947734 
3820.000000	98.941460 
3819.000000	98.931387 
3818.000000	98.926671 
3817.000000	98.930737 
3816.000000	98.938745 
3815.000000	98.943530 
3814.000000	98.942521 
3813.000000	98.937551 
3812.000000	98.932030 
3811.000000	98.929085 
3810.000000	98.930370 
3809.000000	98.935681 
3808.000000	98.941712 
3807.000000	98.943420 
3806.000000	98.938717 
3805.000000	98.930546 
3804.000000	98.924607 
3803.000000	98.926168 
3802.000000	98.934059 
3801.000000	98.941567 
3800.000000	98.944999 
3799.000000	98.944593 
3798.000000	98.941704 
3797.000000	98.938195 
3796.000000	98.935739 
3795.000000	98.935128 
3794.000000	98.935560 
3793.000000	98.935641 
3792.000000	98.935126 
3791.000000	98.935177 
3790.000000	98.936864 
3789.000000	98.940156 
3788.000000	98.944066 
3787.000000	98.947042 
3786.000000	98.947438 
3785.000000	98.944668 
3784.000000	98.940339 
3783.000000	98.937653 
3782.000000	98.939112 
3781.000000	98.944442 
3780.000000	98.950184 
3779.000000	98.952723 
3778.000000	98.951368 
3777.000000	98.947508 
3776.000000	98.942452 
3775.000000	98.937392 
3774.000000	98.933946 
3773.000000	98.933712 
3772.000000	98.936748 
3771.000000	98.940273 
3770.000000	98.940295 
3769.000000	98.936166 
3768.000000	98.931568 
3767.000000	98.929781 
3766.000000	98.930749 
3765.000000	98.932438 
3764.000000	98.933585 
3763.000000	98.934564 
3762.000000	98.936029 
3761.000000	98.937596 
3760.000000	98.937936 
3759.000000	98.936759 
3758.000000	98.934971 
3757.000000	98.932711 
3756.000000	98.929188 
3755.000000	98.924272 
3754.000000	98.918827 
3753.000000	98.913972 
3752.000000	98.910457 
3751.000000	98.908495 
3750.000000	98.908279 
3749.000000	98.908632 
3748.000000	98.908830 
3747.000000	98.910984 
3746.000000	98.917793 
3745.000000	98.924990 
3744.000000	98.927437 
3743.000000	98.927631 
3742.000000	98.926851 
3741.000000	98.921941 
3740.000000	98.912657 
3739.000000	98.903475 
3738.000000	98.899908 
3737.000000	98.902328 
3736.000000	98.905721 
3735.000000	98.907035 
3734.000000	98.907918 
3733.000000	98.910216 
3732.000000	98.913382 
3731.000000	98.915771 
3730.000000	98.916353 
3729.000000	98.915240 
3728.000000	98.913924 
3727.000000	98.913490 
3726.000000	98.913419 
3725.000000	98.912788 
3724.000000	98.911738 
3723.000000	98.911356 
3722.000000	98.911980 
3721.000000	98.913026 
3720.000000	98.912994 
3719.000000	98.910198 
3718.000000	98.903922 
3717.000000	98.894052 
3716.000000	98.881047 
3715.000000	98.865960 
3714.000000	98.850667 
3713.000000	98.837565 
3712.000000	98.827406 
3711.000000	98.819783 
3710.000000	98.813426 
3709.000000	98.805814 
3708.000000	98.795166 
3707.000000	98.781350 
3706.000000	98.766065 
3705.000000	98.752082 
3704.000000	98.740987 
3703.000000	98.730714 
3702.000000	98.715853 
3701.000000	98.693220 
3700.000000	98.665606 
3699.000000	98.638472 
3698.000000	98.615384 
3697.000000	98.596543 
3696.000000	98.580597 
3695.000000	98.567269 
3694.000000	98.557639 
3693.000000	98.552405 
3692.000000	98.549920 
3691.000000	98.546761 
3690.000000	98.539917 
3689.000000	98.530229 
3688.000000	98.522149 
3687.000000	98.517709 
3686.000000	98.515085 
3685.000000	98.512823 
3684.000000	98.511984 
3683.000000	98.514155 
3682.000000	98.517843 
3681.000000	98.516646 
3680.000000	98.503193 
3679.000000	98.476589 
3678.000000	98.445930 
3677.000000	98.425214 
3676.000000	98.419318 
3675.000000	98.420205 
3674.000000	98.417701 
3673.000000	98.408698 
3672.000000	98.397417 
3671.000000	98.390350 
3670.000000	98.387394 
3669.000000	98.384413 
3668.000000	98.379730 
3667.000000	98.373949 
3666.000000	98.368493 
3665.000000	98.363749 
3664.000000	98.358363 
3663.000000	98.350916 
3662.000000	98.340961 
3661.000000	98.328339 
3660.000000	98.313897 
3659.000000	98.300699 
3658.000000	98.293179 
3657.000000	98.292363 
3656.000000	98.293742 
3655.000000	98.292224 
3654.000000	98.286559 
3653.000000	98.279600 
3652.000000	98.274576 
3651.000000	98.271014 
3650.000000	98.265618 
3649.000000	98.259919 
3648.000000	98.259176 
3647.000000	98.263063 
3646.000000	98.266994 
3645.000000	98.269044 
3644.000000	98.270873 
3643.000000	98.274349 
3642.000000	98.279563 
3641.000000	98.284808 
3640.000000	98.288186 
3639.000000	98.288074 
3638.000000	98.283721 
3637.000000	98.276048 
3636.000000	98.266600 
3635.000000	98.255334 
3634.000000	98.240174 
3633.000000	98.220551 
3632.000000	98.200815 
3631.000000	98.188406 
3630.000000	98.186099 
3629.000000	98.186789 
3628.000000	98.183288 
3627.000000	98.175829 
3626.000000	98.167669 
3625.000000	98.161939 
3624.000000	98.160476 
3623.000000	98.163435 
3622.000000	98.170679 
3621.000000	98.182531 
3620.000000	98.197141 
3619.000000	98.209561 
3618.000000	98.216243 
3617.000000	98.218656 
3616.000000	98.221895 
3615.000000	98.230311 
3614.000000	98.243038 
3613.000000	98.255221 
3612.000000	98.264354 
3611.000000	98.272983 
3610.000000	98.284991 
3609.000000	98.300625 
3608.000000	98.315725 
3607.000000	98.326756 
3606.000000	98.334658 
3605.000000	98.343039 
3604.000000	98.354649 
3603.000000	98.369234 
3602.000000	98.384379 
3601.000000	98.398087 
3600.000000	98.409569 
3599.000000	98.418160 
3598.000000	98.423307 
3597.000000	98.425247 
3596.000000	98.425843 
3595.000000	98.427670 
3594.000000	98.431528 
3593.000000	98.436043 
3592.000000	98.439438 
3591.000000	98.441192 
3590.000000	98.442397 
3589.000000	98.443978 
3588.000000	98.445222 
3587.000000	98.444961 
3586.000000	98.443342 
3585.000000	98.441523 
3584.000000	98.441712 
3583.000000	98.445520 
3582.000000	98.452416 
3581.000000	98.459445 
3580.000000	98.463427 
3579.000000	98.463165 
3578.000000	98.459524 
3577.000000	98.454519 
3576.000000	98.450210 
3575.000000	98.448320 
3574.000000	98.448925 
3573.000000	98.449889 
3572.000000	98.448673 
3571.000000	98.444979 
3570.000000	98.440844 
3569.000000	98.438292 
3568.000000	98.437136 
3567.000000	98.435972 
3566.000000	98.434601 
3565.000000	98.433762 
3564.000000	98.434095 
3563.000000	98.436298 
3562.000000	98.440376 
3561.000000	98.444665 
3560.000000	98.446453 
3559.000000	98.444055 
3558.000000	98.438590 
3557.000000	98.433460 
3556.000000	98.431607 
3555.000000	98.432990 
3554.000000	98.434625 
3553.000000	98.432958 
3552.000000	98.427166 
3551.000000	98.419852 
3550.000000	98.414208 
3549.000000	98.411432 
3548.000000	98.410961 
3547.000000	98.411792 
3546.000000	98.413033 
3545.000000	98.413101 
3544.000000	98.410292 
3543.000000	98.405204 
3542.000000	98.401429 
3541.000000	98.402593 
3540.000000	98.408942 
3539.000000	98.416764 
3538.000000	98.421598 
3537.000000	98.421663 
3536.000000	98.418781 
3535.000000	98.415951 
3534.000000	98.414687 
3533.000000	98.414882 
3532.000000	98.416308 
3531.000000	98.419200 
3530.000000	98.422854 
3529.000000	98.424704 
3528.000000	98.422169 
3527.000000	98.415622 
3526.000000	98.408559 
3525.000000	98.404526 
3524.000000	98.404164 
3523.000000	98.405331 
3522.000000	98.405653 
3521.000000	98.404420 
3520.000000	98.402769 
3519.000000	98.402375 
3518.000000	98.404209 
3517.000000	98.407695 
3516.000000	98.411059 
3515.000000	98.412812 
3514.000000	98.412860 
3513.000000	98.412047 
3512.000000	98.410719 
3511.000000	98.408297 
3510.000000	98.404434 
3509.000000	98.400238 
3508.000000	98.397786 
3507.000000	98.398555 
3506.000000	98.402532 
3505.000000	98.408004 
3504.000000	98.412107 
3503.000000	98.412588 
3502.000000	98.409970 
3501.000000	98.407369 
3500.000000	98.407348 
3499.000000	98.408956 
3498.000000	98.408318 
3497.000000	98.402623 
3496.000000	98.393254 
3495.000000	98.384671 
3494.000000	98.380446 
3493.000000	98.380706 
3492.000000	98.383107 
3491.000000	98.385429 
3490.000000	98.387281 
3489.000000	98.389765 
3488.000000	98.393659 
3487.000000	98.397995 
3486.000000	98.400718 
3485.000000	98.400690 
3484.000000	98.398575 
3483.000000	98.395701 
3482.000000	98.392635 
3481.000000	98.389430 
3480.000000	98.386634 
3479.000000	98.384869 
3478.000000	98.383436 
3477.000000	98.380638 
3476.000000	98.376229 
3475.000000	98.372939 
3474.000000	98.374139 
3473.000000	98.379688 
3472.000000	98.385149 
3471.000000	98.385935 
3470.000000	98.381746 
3469.000000	98.376231 
3468.000000	98.372671 
3467.000000	98.371013 
3466.000000	98.369412 
3465.000000	98.367376 
3464.000000	98.366238 
3463.000000	98.366891 
3462.000000	98.368252 
3461.000000	98.368466 
3460.000000	98.367034 
3459.000000	98.365258 
3458.000000	98.364708 
3457.000000	98.365308 
3456.000000	98.365352 
3455.000000	98.363325 
3454.000000	98.359720 
3453.000000	98.356655 
3452.000000	98.355485 
3451.000000	98.355311 
3450.000000	98.354016 
3449.000000	98.350545 
3448.000000	98.345712 
3447.000000	98.341037 
3446.000000	98.337318 
3445.000000	98.334700 
3444.000000	98.333581 
3443.000000	98.334416 
3442.000000	98.336451 
3441.000000	98.337339 
3440.000000	98.334924 
3439.000000	98.329276 
3438.000000	98.322516 
3437.000000	98.316604 
3436.000000	98.312091 
3435.000000	98.309067 
3434.000000	98.308352 
3433.000000	98.310697 
3432.000000	98.314859 
3431.000000	98.317802 
3430.000000	98.317432 
3429.000000	98.314883 
3428.000000	98.313304 
3427.000000	98.314076 
3426.000000	98.314825 
3425.000000	98.311759 
3424.000000	98.303894 
3423.000000	98.294321 
3422.000000	98.287131 
3421.000000	98.283774 
3420.000000	98.283054 
3419.000000	98.283796 
3418.000000	98.286144 
3417.000000	98.290157 
3416.000000	98.294407 
3415.000000	98.296791 
3414.000000	98.296461 
3413.000000	98.294490 
3412.000000	98.292839 
3411.000000	98.292882 
3410.000000	98.294544 
3409.000000	98.296305 
3408.000000	98.295981 
3407.000000	98.292013 
3406.000000	98.284623 
3405.000000	98.275919 
3404.000000	98.268854 
3403.000000	98.265587 
3402.000000	98.266425 
3401.000000	98.270158 
3400.000000	98.275323 
3399.000000	98.281136 
3398.000000	98.287245 
3397.000000	98.292815 
3396.000000	98.296049 
3395.000000	98.294920 
3394.000000	98.288730 
3393.000000	98.279352 
3392.000000	98.270832 
3391.000000	98.267170 
3390.000000	98.269969 
3389.000000	98.277805 
3388.000000	98.287463 
3387.000000	98.295755 
3386.000000	98.301020 
3385.000000	98.303702 
3384.000000	98.305584 
3383.000000	98.307832 
3382.000000	98.309641 
3381.000000	98.309231 
3380.000000	98.306268 
3379.000000	98.302817 
3378.000000	98.301378 
3377.000000	98.302267 
3376.000000	98.303439 
3375.000000	98.302830 
3374.000000	98.300455 
3373.000000	98.298191 
3372.000000	98.297897 
3371.000000	98.299933 
3370.000000	98.303098 
3369.000000	98.305623 
3368.000000	98.306464 
3367.000000	98.306106 
3366.000000	98.306191 
3365.000000	98.307967 
3364.000000	98.310934 
3363.000000	98.313277 
3362.000000	98.313667 
3361.000000	98.312324 
3360.000000	98.310236 
3359.000000	98.307965 
3358.000000	98.305778 
3357.000000	98.304574 
3356.000000	98.305609 
3355.000000	98.308875 
3354.000000	98.312378 
3353.000000	98.313790 
3352.000000	98.312769 
3351.000000	98.311344 
3350.000000	98.312071 
3349.000000	98.315956 
3348.000000	98.321876 
3347.000000	98.327267 
3346.000000	98.329569 
3345.000000	98.327954 
3344.000000	98.324376 
3343.000000	98.322392 
3342.000000	98.323892 
3341.000000	98.326922 
3340.000000	98.327491 
3339.000000	98.323979 
3338.000000	98.319221 
3337.000000	98.317670 
3336.000000	98.320872 
3335.000000	98.326474 
3334.000000	98.331499 
3333.000000	98.335433 
3332.000000	98.339579 
3331.000000	98.344238 
3330.000000	98.347660 
3329.000000	98.347913 
3328.000000	98.345164 
3327.000000	98.341636 
3326.000000	98.339539 
3325.000000	98.339232 
3324.000000	98.339331 
3323.000000	98.338476 
3322.000000	98.336888 
3321.000000	98.336190 
3320.000000	98.337792 
3319.000000	98.341682 
3318.000000	98.346828 
3317.000000	98.352172 
3316.000000	98.356707 
3315.000000	98.359147 
3314.000000	98.358802 
3313.000000	98.357081 
3312.000000	98.357017 
3311.000000	98.360236 
3310.000000	98.364687 
3309.000000	98.366307 
3308.000000	98.363080 
3307.000000	98.357015 
3306.000000	98.352213 
3305.000000	98.351617 
3304.000000	98.355578 
3303.000000	98.362450 
3302.000000	98.369692 
3301.000000	98.374675 
3300.000000	98.375590 
3299.000000	98.372497 
3298.000000	98.367691 
3297.000000	98.364541 
3296.000000	98.365149 
3295.000000	98.368767 
3294.000000	98.372691 
3293.000000	98.374938 
3292.000000	98.375831 
3291.000000	98.376601 
3290.000000	98.376921 
3289.000000	98.374917 
3288.000000	98.369896 
3287.000000	98.364181 
3286.000000	98.361346 
3285.000000	98.362836 
3284.000000	98.366866 
3283.000000	98.370568 
3282.000000	98.372616 
3281.000000	98.373710 
3280.000000	98.375221 
3279.000000	98.377810 
3278.000000	98.381036 
3277.000000	98.383657 
3276.000000	98.384191 
3275.000000	98.381724 
3274.000000	98.376766 
3273.000000	98.371422 
3272.000000	98.368366 
3271.000000	98.369108 
3270.000000	98.372886 
3269.000000	98.377219 
3268.000000	98.379705 
3267.000000	98.379531 
3266.000000	98.377574 
3265.000000	98.375465 
3264.000000	98.374691 
3263.000000	98.376351 
3262.000000	98.381066 
3261.000000	98.388412 
3260.000000	98.396370 
3259.000000	98.401967 
3258.000000	98.403269 
3257.000000	98.400931 
3256.000000	98.397457 
3255.000000	98.394896 
3254.000000	98.393633 
3253.000000	98.393387 
3252.000000	98.394554 
3251.000000	98.397866 
3250.000000	98.402989 
3249.000000	98.408345 
3248.000000	98.412465 
3247.000000	98.415085 
3246.000000	98.416786 
3245.000000	98.417967 
3244.000000	98.418380 
3243.000000	98.417445 
3242.000000	98.414854 
3241.000000	98.411150 
3240.000000	98.407952 
3239.000000	98.407406 
3238.000000	98.411014 
3237.000000	98.418635 
3236.000000	98.428387 
3235.000000	98.437346 
3234.000000	98.442784 
3233.000000	98.443546 
3232.000000	98.440776 
3231.000000	98.437199 
3230.000000	98.435203 
3229.000000	98.435279 
3228.000000	98.436061 
3227.000000	98.435647 
3226.000000	98.433030 
3225.000000	98.428799 
3224.000000	98.424844 
3223.000000	98.423198 
3222.000000	98.424610 
3221.000000	98.427980 
3220.000000	98.431235 
3219.000000	98.433010 
3218.000000	98.433743 
3217.000000	98.435352 
3216.000000	98.439795 
3215.000000	98.447473 
3214.000000	98.456580 
3213.000000	98.464014 
3212.000000	98.467283 
3211.000000	98.465951 
3210.000000	98.461531 
3209.000000	98.456289 
3208.000000	98.452130 
3207.000000	98.450131 
3206.000000	98.450434 
3205.000000	98.452376 
3204.000000	98.455018 
3203.000000	98.457845 
3202.000000	98.460922 
3201.000000	98.464405 
3200.000000	98.468152 
3199.000000	98.471896 
3198.000000	98.475520 
3197.000000	98.478964 
3196.000000	98.482078 
3195.000000	98.484745 
3194.000000	98.486912 
3193.000000	98.488237 
3192.000000	98.487940 
3191.000000	98.485454 
3190.000000	98.481247 
3189.000000	98.476783 
3188.000000	98.473655 
3187.000000	98.472936 
3186.000000	98.475044 
3185.000000	98.479518 
3184.000000	98.484806 
3183.000000	98.488913 
3182.000000	98.490994 
3181.000000	98.492291 
3180.000000	98.495045 
3179.000000	98.500143 
3178.000000	98.505803 
3177.000000	98.508871 
3176.000000	98.507839 
3175.000000	98.504631 
3174.000000	98.503054 
3173.000000	98.505129 
3172.000000	98.509155 
3171.000000	98.511816 
3170.000000	98.511969 
3169.000000	98.511642 
3168.000000	98.513260 
3167.000000	98.516798 
3166.000000	98.520240 
3165.000000	98.522207 
3164.000000	98.523225 
3163.000000	98.524500 
3162.000000	98.526312 
3161.000000	98.528047 
3160.000000	98.529371 
3159.000000	98.530672 
3158.000000	98.532102 
3157.000000	98.532685 
3156.000000	98.531067 
3155.000000	98.527222 
3154.000000	98.522722 
3153.000000	98.518942 
3152.000000	98.515681 
3151.000000	98.512368 
3150.000000	98.510119 
3149.000000	98.511285 
3148.000000	98.516692 
3147.000000	98.524347 
3146.000000	98.531341 
3145.000000	98.536287 
3144.000000	98.539437 
3143.000000	98.541308 
3142.000000	98.542220 
3141.000000	98.542778 
3140.000000	98.543703 
3139.000000	98.545030 
3138.000000	98.546118 
3137.000000	98.546647 
3136.000000	98.547180 
3135.000000	98.548610 
3134.000000	98.551272 
3133.000000	98.554458 
3132.000000	98.556639 
3131.000000	98.556529 
3130.000000	98.554431 
3129.000000	98.552402 
3128.000000	98.552754 
3127.000000	98.556402 
3126.000000	98.562554 
3125.000000	98.569258 
3124.000000	98.573960 
3123.000000	98.574571 
3122.000000	98.571233 
3121.000000	98.566807 
3120.000000	98.564588 
3119.000000	98.565445 
3118.000000	98.567760 
3117.000000	98.569933 
3116.000000	98.571943 
3115.000000	98.574336 
3114.000000	98.576825 
3113.000000	98.578501 
3112.000000	98.578930 
3111.000000	98.578571 
3110.000000	98.578385 
3109.000000	98.579212 
3108.000000	98.581180 
3107.000000	98.583476 
3106.000000	98.584868 
3105.000000	98.584764 
3104.000000	98.583728 
3103.000000	98.583016 
3102.000000	98.583726 
3101.000000	98.586252 
3100.000000	98.590226 
3099.000000	98.594836 
3098.000000	98.599355 
3097.000000	98.603398 
3096.000000	98.606578 
3095.000000	98.608133 
3094.000000	98.607408 
3093.000000	98.604750 
3092.000000	98.601518 
3091.000000	98.599176 
3090.000000	98.598559 
3089.000000	98.599782 
3088.000000	98.602202 
3087.000000	98.604502 
3086.000000	98.605542 
3085.000000	98.605365 
3084.000000	98.604795 
3083.000000	98.603936 
3082.000000	98.601958 
3081.000000	98.598789 
3080.000000	98.596226 
3079.000000	98.596594 
3078.000000	98.600687 
3077.000000	98.607401 
3076.000000	98.614847 
3075.000000	98.621159 
3074.000000	98.624830 
3073.000000	98.625339 
3072.000000	98.623449 
3071.000000	98.620364 
3070.000000	98.616623 
3069.000000	98.612296 
3068.000000	98.608023 
3067.000000	98.605234 
3066.000000	98.605359 
3065.000000	98.609133 
3064.000000	98.616100 
3063.000000	98.624003 
3062.000000	98.629129 
3061.000000	98.628575 
3060.000000	98.622707 
3059.000000	98.614934 
3058.000000	98.609101 
3057.000000	98.607465 
3056.000000	98.610476 
3055.000000	98.616947 
3054.000000	98.624057 
3053.000000	98.628497 
3052.000000	98.628588 
3051.000000	98.625151 
3050.000000	98.620214 
3049.000000	98.615497 
3048.000000	98.611974 
3047.000000	98.609575 
3046.000000	98.606697 
3045.000000	98.601161 
3044.000000	98.592796 
3043.000000	98.584530 
3042.000000	98.579793 
3041.000000	98.578893 
3040.000000	98.578645 
3039.000000	98.575427 
3038.000000	98.567962 
3037.000000	98.557334 
3036.000000	98.545250 
3035.000000	98.532739 
3034.000000	98.520072 
3033.000000	98.507264 
3032.000000	98.494338 
3031.000000	98.481118 
3030.000000	98.467136 
3029.000000	98.452224 
3028.000000	98.437261 
3027.000000	98.423843 
3026.000000	98.412628 
3025.000000	98.401940 
3024.000000	98.388430 
3023.000000	98.369537 
3022.000000	98.345483 
3021.000000	98.318914 
3020.000000	98.292591 
3019.000000	98.267405 
3018.000000	98.242611 
3017.000000	98.217633 
3016.000000	98.192899 
3015.000000	98.168616 
3014.000000	98.143755 
3013.000000	98.117413 
3012.000000	98.090780 
3011.000000	98.066281 
3010.000000	98.044361 
3009.000000	98.022327 
3008.000000	97.996964 
3007.000000	97.967536 
3006.000000	97.935719 
3005.000000	97.903498 
3004.000000	97.872044 
3003.000000	97.841991 
3002.000000	97.813655 
3001.000000	97.786937 
3000.000000	97.761620 
2999.000000	97.737823 
2998.000000	97.716042 
2997.000000	97.697053 
2996.000000	97.681498 
2995.000000	97.667942 
2994.000000	97.650422 
2993.000000	97.619927 
2992.000000	97.571673 
2991.000000	97.512005 
2990.000000	97.456635 
2989.000000	97.420547 
2988.000000	97.409097 
2987.000000	97.417733 
2986.000000	97.437720 
2985.000000	97.460861 
2984.000000	97.480783 
2983.000000	97.493414 
2982.000000	97.498039 
2981.000000	97.497291 
2980.000000	97.495033 
2979.000000	97.493763 
2978.000000	97.493510 
2977.000000	97.492448 
2976.000000	97.488455 
2975.000000	97.480917 
2974.000000	97.471866 
2973.000000	97.465325 
2972.000000	97.464913 
2971.000000	97.471698 
2970.000000	97.484289 
2969.000000	97.500860 
2968.000000	97.520770 
2967.000000	97.544166 
2966.000000	97.570347 
2965.000000	97.597019 
2964.000000	97.621326 
2963.000000	97.641536 
2962.000000	97.657781 
2961.000000	97.671404 
2960.000000	97.683810 
2959.000000	97.695907 
2958.000000	97.708416 
2957.000000	97.722231 
2956.000000	97.737992 
2955.000000	97.755263 
2954.000000	97.772656 
2953.000000	97.789193 
2952.000000	97.805297 
2951.000000	97.821912 
2950.000000	97.838736 
2949.000000	97.853812 
2948.000000	97.864975 
2947.000000	97.871432 
2946.000000	97.874216 
2945.000000	97.875775 
2944.000000	97.878976 
2943.000000	97.885316 
2942.000000	97.893357 
2941.000000	97.899606 
2940.000000	97.901879 
2939.000000	97.901814 
2938.000000	97.903525 
2937.000000	97.909830 
2936.000000	97.920013 
2935.000000	97.930793 
2934.000000	97.938769 
2933.000000	97.942106 
2932.000000	97.940824 
2931.000000	97.936115 
2930.000000	97.929501 
2929.000000	97.922534 
2928.000000	97.916678 
2927.000000	97.912498 
2926.000000	97.908663 
2925.000000	97.902769 
2924.000000	97.894055 
2923.000000	97.884783 
2922.000000	97.878035 
2921.000000	97.874425 
2920.000000	97.871776 
2919.000000	97.867613 
2918.000000	97.861034 
2917.000000	97.852350 
2916.000000	97.842097 
2915.000000	97.830716 
2914.000000	97.818622 
2913.000000	97.806476 
2912.000000	97.795796 
2911.000000	97.788691 
2910.000000	97.785929 
2909.000000	97.785364 
2908.000000	97.783414 
2907.000000	97.777973 
2906.000000	97.768478 
2905.000000	97.753255 
2904.000000	97.729847 
2903.000000	97.700060 
2902.000000	97.674653 
2901.000000	97.668347 
2900.000000	97.688924 
2899.000000	97.730112 
2898.000000	97.774901 
2897.000000	97.807061 
2896.000000	97.820900 
2895.000000	97.822399 
2894.000000	97.822068 
2893.000000	97.826499 
2892.000000	97.835701 
2891.000000	97.846476 
2890.000000	97.856421 
2889.000000	97.864545 
2888.000000	97.870079 
2887.000000	97.872816 
2886.000000	97.874462 
2885.000000	97.878223 
2884.000000	97.886650 
2883.000000	97.900451 
2882.000000	97.919238 
2881.000000	97.942244 
2880.000000	97.967851 
2879.000000	97.993382 
2878.000000	98.016367 
2877.000000	98.036071 
2876.000000	98.053450 
2875.000000	98.069656 
2874.000000	98.084777 
2873.000000	98.097866 
2872.000000	98.108016 
2871.000000	98.115522 
2870.000000	98.122215 
2869.000000	98.130718 
2868.000000	98.143199 
2867.000000	98.160377 
2866.000000	98.181199 
2865.000000	98.203330 
2864.000000	98.224486 
2863.000000	98.243816 
2862.000000	98.261982 
2861.000000	98.279824 
2860.000000	98.297438 
2859.000000	98.314826 
2858.000000	98.332612 
2857.000000	98.351042 
2856.000000	98.368637 
2855.000000	98.383192 
2854.000000	98.394488 
2853.000000	98.405037 
2852.000000	98.417535 
2851.000000	98.432157 
2850.000000	98.446994 
2849.000000	98.460592 
2848.000000	98.473195 
2847.000000	98.485621 
2846.000000	98.497668 
2845.000000	98.507939 
2844.000000	98.515046 
2843.000000	98.518990 
2842.000000	98.521572 
2841.000000	98.525385 
2840.000000	98.532051 
2839.000000	98.541256 
2838.000000	98.551380 
2837.000000	98.560815 
2836.000000	98.568686 
2835.000000	98.574891 
2834.000000	98.580026 
2833.000000	98.585104 
2832.000000	98.590733 
2831.000000	98.596385 
2830.000000	98.600789 
2829.000000	98.603194 
2828.000000	98.604166 
2827.000000	98.605223 
2826.000000	98.607829 
2825.000000	98.612414 
2824.000000	98.617880 
2823.000000	98.622161 
2822.000000	98.623886 
2821.000000	98.623800 
2820.000000	98.624205 
2819.000000	98.626807 
2818.000000	98.631302 
2817.000000	98.636120 
2816.000000	98.640115 
2815.000000	98.643213 
2814.000000	98.645700 
2813.000000	98.647463 
2812.000000	98.648188 
2811.000000	98.648187 
2810.000000	98.648711 
2809.000000	98.651063 
2808.000000	98.655159 
2807.000000	98.659243 
2806.000000	98.661464 
2805.000000	98.661779 
2804.000000	98.661925 
2803.000000	98.663438 
2802.000000	98.666088 
2801.000000	98.668397 
2800.000000	98.669351 
2799.000000	98.669285 
2798.000000	98.669287 
2797.000000	98.669982 
2796.000000	98.670931 
2795.000000	98.671267 
2794.000000	98.671003 
2793.000000	98.671448 
2792.000000	98.673821 
2791.000000	98.677595 
2790.000000	98.680968 
2789.000000	98.683158 
2788.000000	98.685421 
2787.000000	98.689168 
2786.000000	98.693695 
2785.000000	98.696614 
2784.000000	98.696376 
2783.000000	98.693695 
2782.000000	98.690638 
2781.000000	98.688976 
2780.000000	98.689383 
2779.000000	98.691472 
2778.000000	98.694273 
2777.000000	98.697106 
2776.000000	98.700177 
2775.000000	98.703979 
2774.000000	98.708057 
2773.000000	98.710953 
2772.000000	98.711774 
2771.000000	98.711385 
2770.000000	98.711451 
2769.000000	98.712461 
2768.000000	98.713382 
2767.000000	98.713435 
2766.000000	98.713434 
2765.000000	98.714609 
2764.000000	98.716375 
2763.000000	98.716368 
2762.000000	98.713213 
2761.000000	98.708501 
2760.000000	98.705226 
2759.000000	98.704782 
2758.000000	98.706542 
2757.000000	98.709954 
2756.000000	98.715262 
2755.000000	98.721571 
2754.000000	98.725829 
2753.000000	98.725412 
2752.000000	98.721268 
2751.000000	98.717168 
2750.000000	98.715863 
2749.000000	98.716950 
2748.000000	98.718459 
2747.000000	98.719358 
2746.000000	98.720067 
2745.000000	98.721279 
2744.000000	98.722969 
2743.000000	98.724463 
2742.000000	98.725245 
2741.000000	98.725663 
2740.000000	98.726595 
2739.000000	98.728233 
2738.000000	98.729698 
2737.000000	98.730415 
2736.000000	98.731394 
2735.000000	98.734115 
2734.000000	98.738275 
2733.000000	98.741686 
2732.000000	98.742680 
2731.000000	98.741739 
2730.000000	98.740430 
2729.000000	98.739613 
2728.000000	98.739256 
2727.000000	98.739310 
2726.000000	98.739944 
2725.000000	98.741177 
2724.000000	98.742907 
2723.000000	98.745265 
2722.000000	98.748518 
2721.000000	98.752519 
2720.000000	98.756410 
2719.000000	98.758947 
2718.000000	98.759277 
2717.000000	98.757636 
2716.000000	98.755279 
2715.000000	98.753547 
2714.000000	98.753107 
2713.000000	98.754087 
2712.000000	98.756416 
2711.000000	98.759552 
2710.000000	98.762419 
2709.000000	98.764385 
2708.000000	98.765909 
2707.000000	98.767396 
2706.000000	98.767911 
2705.000000	98.766449 
2704.000000	98.764276 
2703.000000	98.764240 
2702.000000	98.767175 
2701.000000	98.770488 
2700.000000	98.771347 
2699.000000	98.770177 
2698.000000	98.769806 
2697.000000	98.771871 
2696.000000	98.775191 
2695.000000	98.777375 
2694.000000	98.777121 
2693.000000	98.775098 
2692.000000	98.773212 
2691.000000	98.772827 
2690.000000	98.773340 
2689.000000	98.772978 
2688.000000	98.771250 
2687.000000	98.769821 
2686.000000	98.770479 
2685.000000	98.773192 
2684.000000	98.776912 
2683.000000	98.781064 
2682.000000	98.784881 
2681.000000	98.786213 
2680.000000	98.783053 
2679.000000	98.776396 
2678.000000	98.770148 
2677.000000	98.767907 
2676.000000	98.770615 
2675.000000	98.776995 
2674.000000	98.784625 
2673.000000	98.790339 
2672.000000	98.791468 
2671.000000	98.788008 
2670.000000	98.782899 
2669.000000	98.779294 
2668.000000	98.777947 
2667.000000	98.777753 
2666.000000	98.777949 
2665.000000	98.778705 
2664.000000	98.779925 
2663.000000	98.780624 
2662.000000	98.779920 
2661.000000	98.778152 
2660.000000	98.776609 
2659.000000	98.776267 
2658.000000	98.777044 
2657.000000	98.778314 
2656.000000	98.779791 
2655.000000	98.781434 
2654.000000	98.782551 
2653.000000	98.781987 
2652.000000	98.779915 
2651.000000	98.778702 
2650.000000	98.780598 
2649.000000	98.784545 
2648.000000	98.786761 
2647.000000	98.785237 
2646.000000	98.782651 
2645.000000	98.783619 
2644.000000	98.789261 
2643.000000	98.795501 
2642.000000	98.796994 
2641.000000	98.792375 
2640.000000	98.785451 
2639.000000	98.781439 
2638.000000	98.782239 
2637.000000	98.785294 
2636.000000	98.786773 
2635.000000	98.785274 
2634.000000	98.782215 
2633.000000	98.779478 
2632.000000	98.777854 
2631.000000	98.777659 
2630.000000	98.779367 
2629.000000	98.782794 
2628.000000	98.786496 
2627.000000	98.788959 
2626.000000	98.790026 
2625.000000	98.790440 
2624.000000	98.790403 
2623.000000	98.789513 
2622.000000	98.787949 
2621.000000	98.786755 
2620.000000	98.786728 
2619.000000	98.787699 
2618.000000	98.789131 
2617.000000	98.790893 
2616.000000	98.793118 
2615.000000	98.795742 
2614.000000	98.798503 
2613.000000	98.801113 
2612.000000	98.803201 
2611.000000	98.804360 
2610.000000	98.804520 
2609.000000	98.804124 
2608.000000	98.803799 
2607.000000	98.804122 
2606.000000	98.805787 
2605.000000	98.809360 
2604.000000	98.814207 
2603.000000	98.818065 
2602.000000	98.818723 
2601.000000	98.816453 
2600.000000	98.814038 
2599.000000	98.813784 
2598.000000	98.814863 
2597.000000	98.814155 
2596.000000	98.809577 
2595.000000	98.802249 
2594.000000	98.795642 
2593.000000	98.792949 
2592.000000	98.794964 
2591.000000	98.799883 
2590.000000	98.805040 
2589.000000	98.808984 
2588.000000	98.811781 
2587.000000	98.813508 
2586.000000	98.813544 
2585.000000	98.811983 
2584.000000	98.810674 
2583.000000	98.811396 
2582.000000	98.813380 
2581.000000	98.814145 
2580.000000	98.812705 
2579.000000	98.810449 
2578.000000	98.808739 
2577.000000	98.807313 
2576.000000	98.805565 
2575.000000	98.803857 
2574.000000	98.802756 
2573.000000	98.802423 
2572.000000	98.803570 
2571.000000	98.807398 
2570.000000	98.813279 
2569.000000	98.817930 
2568.000000	98.818639 
2567.000000	98.816411 
2566.000000	98.814297 
2565.000000	98.813511 
2564.000000	98.813105 
2563.000000	98.812746 
2562.000000	98.813393 
2561.000000	98.814957 
2560.000000	98.815302 
2559.000000	98.812420 
2558.000000	98.806646 
2557.000000	98.800454 
2556.000000	98.797027 
2555.000000	98.798859 
2554.000000	98.806104 
2553.000000	98.815610 
2552.000000	98.822695 
2551.000000	98.824703 
2550.000000	98.822487 
2549.000000	98.818607 
2548.000000	98.815077 
2547.000000	98.812833 
2546.000000	98.811970 
2545.000000	98.811868 
2544.000000	98.811813 
2543.000000	98.811775 
2542.000000	98.811893 
2541.000000	98.811429 
2540.000000	98.809603 
2539.000000	98.807421 
2538.000000	98.806898 
2537.000000	98.807880 
2536.000000	98.807571 
2535.000000	98.804422 
2534.000000	98.800738 
2533.000000	98.799483 
2532.000000	98.799635 
2531.000000	98.797239 
2530.000000	98.791064 
2529.000000	98.784852 
2528.000000	98.782924 
2527.000000	98.785160 
2526.000000	98.787890 
2525.000000	98.789047 
2524.000000	98.790788 
2523.000000	98.796652 
2522.000000	98.807087 
2521.000000	98.818348 
2520.000000	98.825270 
2519.000000	98.824685 
2518.000000	98.816923 
2517.000000	98.805316 
2516.000000	98.794364 
2515.000000	98.787261 
2514.000000	98.784413 
2513.000000	98.784536 
2512.000000	98.787104 
2511.000000	98.792852 
2510.000000	98.801629 
2509.000000	98.811033 
2508.000000	98.818171 
2507.000000	98.821959 
2506.000000	98.822660 
2505.000000	98.820138 
2504.000000	98.814220 
2503.000000	98.806393 
2502.000000	98.799456 
2501.000000	98.795330 
2500.000000	98.794475 
2499.000000	98.797252 
2498.000000	98.803950 
2497.000000	98.812780 
2496.000000	98.819574 
2495.000000	98.821031 
2494.000000	98.817743 
2493.000000	98.813216 
2492.000000	98.810419 
2491.000000	98.810032 
2490.000000	98.811615 
2489.000000	98.815444 
2488.000000	98.822505 
2487.000000	98.832292 
2486.000000	98.840694 
2485.000000	98.841524 
2484.000000	98.832053 
2483.000000	98.816992 
2482.000000	98.805245 
2481.000000	98.802021 
2480.000000	98.805269 
2479.000000	98.809875 
2478.000000	98.813157 
2477.000000	98.815159 
2476.000000	98.816027 
2475.000000	98.815851 
2474.000000	98.816225 
2473.000000	98.819135 
2472.000000	98.823841 
2471.000000	98.826786 
2470.000000	98.825313 
2469.000000	98.820299 
2468.000000	98.814690 
2467.000000	98.810590 
2466.000000	98.808345 
2465.000000	98.807339 
2464.000000	98.806798 
2463.000000	98.806343 
2462.000000	98.806330 
2461.000000	98.807263 
2460.000000	98.808594 
2459.000000	98.808840 
2458.000000	98.807388 
2457.000000	98.805573 
2456.000000	98.805235 
2455.000000	98.806636 
2454.000000	98.808472 
2453.000000	98.809599 
2452.000000	98.809877 
2451.000000	98.809299 
2450.000000	98.807278 
2449.000000	98.803479 
2448.000000	98.799235 
2447.000000	98.797471 
2446.000000	98.800603 
2445.000000	98.808004 
2444.000000	98.815523 
2443.000000	98.818153 
2442.000000	98.813994 
2441.000000	98.806010 
2440.000000	98.799774 
2439.000000	98.799180 
2438.000000	98.803833 
2437.000000	98.809932 
2436.000000	98.813392 
2435.000000	98.812705 
2434.000000	98.809809 
2433.000000	98.808595 
2432.000000	98.812078 
2431.000000	98.820091 
2430.000000	98.829121 
2429.000000	98.834408 
2428.000000	98.832971 
2427.000000	98.825568 
2426.000000	98.816171 
2425.000000	98.809235 
2424.000000	98.807058 
2423.000000	98.809566 
2422.000000	98.815960 
2421.000000	98.825171 
2420.000000	98.834316 
2419.000000	98.838517 
2418.000000	98.834515 
2417.000000	98.824536 
2416.000000	98.814888 
2415.000000	98.810115 
2414.000000	98.809574 
2413.000000	98.809859 
2412.000000	98.808857 
2411.000000	98.806577 
2410.000000	98.803656 
2409.000000	98.800803 
2408.000000	98.799000 
2407.000000	98.798747 
2406.000000	98.799499 
2405.000000	98.800959 
2404.000000	98.804223 
2403.000000	98.810075 
2402.000000	98.816530 
2401.000000	98.819834 
2400.000000	98.818131 
2399.000000	98.812936 
2398.000000	98.807154 
2397.000000	98.803107 
2396.000000	98.802324 
2395.000000	98.805038 
2394.000000	98.809080 
2393.000000	98.810961 
2392.000000	98.809306 
2391.000000	98.806183 
2390.000000	98.804275 
2389.000000	98.804103 
2388.000000	98.805043 
2387.000000	98.807453 
2386.000000	98.811782 
2385.000000	98.816296 
2384.000000	98.817995 
2383.000000	98.816179 
2382.000000	98.813527 
2381.000000	98.812958 
2380.000000	98.814560 
2379.000000	98.816712 
2378.000000	98.819567 
2377.000000	98.825557 
2376.000000	98.835576 
2375.000000	98.845990 
2374.000000	98.851136 
2373.000000	98.848536 
2372.000000	98.840467 
2371.000000	98.830974 
2370.000000	98.823146 
2369.000000	98.819029 
2368.000000	98.819389 
2367.000000	98.822676 
2366.000000	98.826383 
2365.000000	98.829937 
2364.000000	98.834277 
2363.000000	98.838258 
2362.000000	98.838021 
2361.000000	98.831676 
2360.000000	98.821301 
2359.000000	98.811058 
2358.000000	98.804506 
2357.000000	98.803934 
2356.000000	98.810331 
2355.000000	98.822799 
2354.000000	98.839012 
2353.000000	98.852359 
2352.000000	98.855440 
2351.000000	98.847893 
2350.000000	98.835733 
2349.000000	98.825640 
2348.000000	98.820740 
2347.000000	98.822076 
2346.000000	98.826918 
2345.000000	98.829458 
2344.000000	98.827853 
2343.000000	98.825379 
2342.000000	98.825260 
2341.000000	98.825410 
2340.000000	98.823458 
2339.000000	98.821432 
2338.000000	98.823840 
2337.000000	98.830405 
2336.000000	98.834810 
2335.000000	98.832731 
2334.000000	98.828190 
2333.000000	98.827234 
2332.000000	98.829693 
2331.000000	98.831149 
2330.000000	98.829181 
2329.000000	98.825733 
2328.000000	98.822484 
2327.000000	98.820745 
2326.000000	98.820389 
2325.000000	98.818908 
2324.000000	98.814342 
2323.000000	98.808820 
2322.000000	98.808158 
2321.000000	98.812618 
2320.000000	98.815359 
2319.000000	98.810466 
2318.000000	98.800786 
2317.000000	98.794424 
2316.000000	98.795432 
2315.000000	98.801389 
2314.000000	98.807951 
2313.000000	98.813990 
2312.000000	98.820435 
2311.000000	98.827177 
2310.000000	98.831586 
2309.000000	98.830970 
2308.000000	98.825821 
2307.000000	98.820118 
2306.000000	98.818098 
2305.000000	98.820875 
2304.000000	98.826928 
2303.000000	98.833998 
2302.000000	98.839977 
2301.000000	98.843317 
2300.000000	98.844806 
2299.000000	98.847757 
2298.000000	98.853643 
2297.000000	98.858604 
2296.000000	98.856491 
2295.000000	98.846726 
2294.000000	98.836293 
2293.000000	98.833323 
2292.000000	98.839499 
2291.000000	98.849591 
2290.000000	98.856704 
2289.000000	98.857223 
2288.000000	98.852560 
2287.000000	98.847174 
2286.000000	98.844314 
2285.000000	98.842907 
2284.000000	98.840022 
2283.000000	98.836090 
2282.000000	98.835617 
2281.000000	98.841383 
2280.000000	98.850275 
2279.000000	98.856613 
2278.000000	98.858082 
2277.000000	98.856298 
2276.000000	98.853112 
2275.000000	98.849423 
2274.000000	98.847082 
2273.000000	98.848738 
2272.000000	98.854541 
2271.000000	98.861115 
2270.000000	98.864980 
2269.000000	98.865999 
2268.000000	98.866617 
2267.000000	98.868670 
2266.000000	98.871764 
2265.000000	98.874093 
2264.000000	98.873851 
2263.000000	98.870259 
2262.000000	98.864334 
2261.000000	98.858878 
2260.000000	98.856919 
2259.000000	98.859426 
2258.000000	98.864863 
2257.000000	98.871081 
2256.000000	98.877109 
2255.000000	98.882364 
2254.000000	98.885203 
2253.000000	98.884296 
2252.000000	98.881370 
2251.000000	98.880093 
2250.000000	98.881411 
2249.000000	98.881749 
2248.000000	98.877899 
2247.000000	98.871806 
2246.000000	98.868140 
2245.000000	98.868897 
2244.000000	98.872320 
2243.000000	98.876435 
2242.000000	98.880921 
2241.000000	98.886161 
2240.000000	98.893137 
2239.000000	98.903679 
2238.000000	98.917422 
2237.000000	98.928278 
2236.000000	98.927869 
2235.000000	98.914535 
2234.000000	98.896814 
2233.000000	98.886019 
2232.000000	98.886101 
2231.000000	98.891423 
2230.000000	98.892941 
2229.000000	98.885889 
2228.000000	98.873297 
2227.000000	98.863234 
2226.000000	98.861665 
2225.000000	98.867552 
2224.000000	98.875974 
2223.000000	98.885232 
2222.000000	98.897360 
2221.000000	98.910996 
2220.000000	98.918525 
2219.000000	98.914238 
2218.000000	98.903056 
2217.000000	98.896888 
2216.000000	98.902281 
2215.000000	98.914684 
2214.000000	98.924808 
2213.000000	98.927401 
2212.000000	98.923296 
2211.000000	98.916673 
2210.000000	98.913235 
2209.000000	98.918564 
2208.000000	98.933315 
2207.000000	98.949115 
2206.000000	98.953117 
2205.000000	98.940301 
2204.000000	98.920584 
2203.000000	98.910663 
2202.000000	98.918285 
2201.000000	98.935884 
2200.000000	98.949297 
2199.000000	98.950469 
2198.000000	98.941505 
2197.000000	98.930178 
2196.000000	98.924130 
2195.000000	98.927133 
2194.000000	98.937250 
2193.000000	98.948088 
2192.000000	98.953975 
2191.000000	98.954835 
2190.000000	98.955569 
2189.000000	98.960798 
2188.000000	98.969973 
2187.000000	98.976532 
2186.000000	98.972126 
2185.000000	98.954301 
2184.000000	98.931087 
2183.000000	98.915527 
2182.000000	98.914200 
2181.000000	98.922666 
2180.000000	98.932543 
2179.000000	98.939786 
2178.000000	98.944610 
2177.000000	98.947828 
2176.000000	98.950565 
2175.000000	98.954173 
2174.000000	98.957416 
2173.000000	98.957609 
2172.000000	98.958010 
2171.000000	98.969049 
2170.000000	98.995960 
2169.000000	99.027942 
2168.000000	99.046601 
2167.000000	99.044635 
2166.000000	99.030549 
2165.000000	99.016768 
2164.000000	99.010494 
2163.000000	99.015501 
2162.000000	99.032580 
2161.000000	99.053069 
2160.000000	99.059857 
2159.000000	99.043334 
2158.000000	99.013177 
2157.000000	98.987443 
2156.000000	98.973644 
2155.000000	98.967168 
2154.000000	98.963318 
2153.000000	98.963022 
2152.000000	98.967654 
2151.000000	98.973475 
2150.000000	98.974065 
2149.000000	98.967968 
2148.000000	98.962049 
2147.000000	98.964848 
2146.000000	98.975946 
2145.000000	98.984350 
2144.000000	98.979926 
2143.000000	98.964816 
2142.000000	98.950471 
2141.000000	98.944483 
2140.000000	98.943816 
2139.000000	98.941362 
2138.000000	98.935586 
2137.000000	98.931422 
2136.000000	98.933182 
2135.000000	98.939052 
2134.000000	98.943335 
2133.000000	98.943259 
2132.000000	98.941766 
2131.000000	98.942183 
2130.000000	98.941569 
2129.000000	98.932713 
2128.000000	98.913748 
2127.000000	98.892923 
2126.000000	98.881574 
2125.000000	98.883993 
2124.000000	98.895919 
2123.000000	98.910606 
2122.000000	98.922956 
2121.000000	98.929484 
2120.000000	98.929209 
2119.000000	98.925324 
2118.000000	98.922694 
2117.000000	98.922842 
2116.000000	98.923616 
2115.000000	98.923767 
2114.000000	98.924674 
2113.000000	98.926725 
2112.000000	98.927319 
2111.000000	98.924595 
2110.000000	98.921032 
2109.000000	98.920902 
2108.000000	98.924657 
2107.000000	98.927336 
2106.000000	98.922891 
2105.000000	98.910468 
2104.000000	98.896885 
2103.000000	98.891846 
2102.000000	98.898848 
2101.000000	98.910982 
2100.000000	98.917442 
2099.000000	98.914051 
2098.000000	98.905911 
2097.000000	98.900732 
2096.000000	98.902105 
2095.000000	98.909154 
2094.000000	98.919343 
2093.000000	98.929752 
2092.000000	98.937515 
2091.000000	98.941027 
2090.000000	98.940870 
2089.000000	98.939260 
2088.000000	98.938041 
2087.000000	98.936172 
2086.000000	98.929462 
2085.000000	98.915515 
2084.000000	98.900205 
2083.000000	98.895599 
2082.000000	98.907796 
2081.000000	98.928750 
2080.000000	98.944512 
2079.000000	98.950680 
2078.000000	98.955161 
2077.000000	98.966099 
2076.000000	98.981827 
2075.000000	98.993344 
2074.000000	98.992616 
2073.000000	98.978191 
2072.000000	98.957109 
2071.000000	98.941741 
2070.000000	98.940508 
2069.000000	98.949948 
2068.000000	98.958334 
2067.000000	98.957492 
2066.000000	98.948481 
2065.000000	98.937692 
2064.000000	98.932593 
2063.000000	98.940129 
2062.000000	98.961556 
2061.000000	98.986500 
2060.000000	98.999496 
2059.000000	98.996665 
2058.000000	98.990438 
2057.000000	98.993851 
2056.000000	99.005273 
2055.000000	99.013281 
2054.000000	99.012197 
2053.000000	99.007183 
2052.000000	99.006375 
2051.000000	99.013113 
2050.000000	99.024908 
2049.000000	99.035960 
2048.000000	99.041612 
2047.000000	99.043110 
2046.000000	99.046242 
2045.000000	99.052810 
2044.000000	99.056194 
2043.000000	99.049347 
2042.000000	99.035718 
2041.000000	99.027695 
2040.000000	99.033080 
2039.000000	99.046382 
2038.000000	99.054953 
2037.000000	99.051946 
2036.000000	99.042214 
2035.000000	99.035150 
2034.000000	99.032800 
2033.000000	99.028553 
2032.000000	99.019654 
2031.000000	99.015980 
2030.000000	99.029402 
2029.000000	99.055898 
2028.000000	99.076327 
2027.000000	99.076941 
2026.000000	99.062487 
2025.000000	99.047518 
2024.000000	99.041594 
2023.000000	99.045594 
2022.000000	99.055292 
2021.000000	99.062857 
2020.000000	99.060428 
2019.000000	99.048711 
2018.000000	99.039084 
2017.000000	99.041289 
2016.000000	99.051047 
2015.000000	99.056132 
2014.000000	99.051943 
2013.000000	99.044648 
2012.000000	99.041527 
2011.000000	99.044168 
2010.000000	99.050705 
2009.000000	99.059250 
2008.000000	99.067730 
2007.000000	99.074011 
2006.000000	99.077154 
2005.000000	99.076729 
2004.000000	99.071442 
2003.000000	99.060550 
2002.000000	99.045898 
2001.000000	99.030210 
2000.000000	99.014120 
1999.000000	98.996950 
1998.000000	98.979669 
1997.000000	98.965460 
1996.000000	98.957827 
1995.000000	98.958702 
1994.000000	98.967298 
1993.000000	98.979829 
1992.000000	98.991096 
1991.000000	98.997674 
1990.000000	98.998899 
1989.000000	98.994991 
1988.000000	98.987453 
1987.000000	98.981866 
1986.000000	98.986363 
1985.000000	99.004198 
1984.000000	99.028587 
1983.000000	99.046756 
1982.000000	99.049106 
1981.000000	99.035780 
1980.000000	99.017380 
1979.000000	99.008907 
1978.000000	99.017949 
1977.000000	99.036062 
1976.000000	99.045694 
1975.000000	99.037888 
1974.000000	99.019923 
1973.000000	99.005100 
1972.000000	98.998826 
1971.000000	98.996994 
1970.000000	98.995576 
1969.000000	98.997519 
1968.000000	99.008307 
1967.000000	99.026387 
1966.000000	99.042077 
1965.000000	99.047536 
1964.000000	99.044724 
1963.000000	99.041295 
1962.000000	99.041369 
1961.000000	99.043318 
1960.000000	99.044463 
1959.000000	99.042915 
1958.000000	99.034972 
1957.000000	99.016907 
1956.000000	98.991594 
1955.000000	98.968335 
1954.000000	98.953005 
1953.000000	98.941905 
1952.000000	98.928621 
1951.000000	98.914165 
1950.000000	98.906186 
1949.000000	98.909222 
1948.000000	98.919605 
1947.000000	98.929603 
1946.000000	98.932647 
1945.000000	98.925425 
1944.000000	98.909879 
1943.000000	98.894222 
1942.000000	98.887307 
1941.000000	98.889476 
1940.000000	98.893382 
1939.000000	98.893962 
1938.000000	98.892752 
1937.000000	98.893312 
1936.000000	98.896150 
1935.000000	98.898449 
1934.000000	98.896583 
1933.000000	98.888612 
1932.000000	98.876246 
1931.000000	98.865461 
1930.000000	98.863200 
1929.000000	98.870846 
1928.000000	98.882276 
1927.000000	98.890050 
1926.000000	98.891240 
1925.000000	98.886277 
1924.000000	98.876128 
1923.000000	98.863871 
1922.000000	98.856236 
1921.000000	98.858048 
1920.000000	98.866376 
1919.000000	98.872931 
1918.000000	98.871289 
1917.000000	98.861937 
1916.000000	98.851273 
1915.000000	98.847061 
1914.000000	98.853611 
1913.000000	98.868058 
1912.000000	98.881717 
1911.000000	98.887537 
1910.000000	98.885535 
1909.000000	98.879801 
1908.000000	98.873368 
1907.000000	98.868381 
1906.000000	98.867421 
1905.000000	98.869907 
1904.000000	98.869409 
1903.000000	98.859546 
1902.000000	98.841664 
1901.000000	98.823626 
1900.000000	98.812859 
1899.000000	98.812137 
1898.000000	98.819275 
1897.000000	98.828183 
1896.000000	98.832218 
1895.000000	98.830480 
1894.000000	98.829394 
1893.000000	98.834202 
1892.000000	98.841699 
1891.000000	98.844404 
1890.000000	98.839566 
1889.000000	98.831899 
1888.000000	98.827703 
1887.000000	98.829330 
1886.000000	98.834800 
1885.000000	98.839283 
1884.000000	98.838350 
1883.000000	98.832365 
1882.000000	98.826021 
1881.000000	98.822330 
1880.000000	98.820185 
1879.000000	98.818083 
1878.000000	98.816133 
1877.000000	98.813543 
1876.000000	98.808489 
1875.000000	98.802998 
1874.000000	98.803848 
1873.000000	98.814034 
1872.000000	98.826633 
1871.000000	98.831491 
1870.000000	98.826178 
1869.000000	98.816775 
1868.000000	98.807167 
1867.000000	98.795604 
1866.000000	98.782674 
1865.000000	98.773082 
1864.000000	98.770904 
1863.000000	98.777274 
1862.000000	98.790549 
1861.000000	98.806223 
1860.000000	98.818050 
1859.000000	98.823194 
1858.000000	98.825382 
1857.000000	98.829650 
1856.000000	98.836132 
1855.000000	98.842225 
1854.000000	98.846900 
1853.000000	98.849568 
1852.000000	98.848298 
1851.000000	98.842185 
1850.000000	98.834050 
1849.000000	98.828446 
1848.000000	98.827312 
1847.000000	98.829462 
1846.000000	98.833121 
1845.000000	98.836188 
1844.000000	98.835314 
1843.000000	98.830221 
1842.000000	98.825763 
1841.000000	98.825599 
1840.000000	98.829276 
1839.000000	98.834650 
1838.000000	98.839952 
1837.000000	98.844016 
1836.000000	98.846192 
1835.000000	98.847591 
1834.000000	98.850127 
1833.000000	98.854066 
1832.000000	98.857923 
1831.000000	98.859488 
1830.000000	98.857553 
1829.000000	98.854127 
1828.000000	98.852506 
1827.000000	98.852441 
1826.000000	98.850900 
1825.000000	98.847057 
1824.000000	98.843339 
1823.000000	98.841823 
1822.000000	98.842200 
1821.000000	98.842677 
1820.000000	98.841380 
1819.000000	98.837555 
1818.000000	98.833059 
1817.000000	98.830832 
1816.000000	98.830336 
1815.000000	98.828416 
1814.000000	98.824935 
1813.000000	98.824350 
1812.000000	98.830271 
1811.000000	98.839903 
1810.000000	98.848553 
1809.000000	98.855493 
1808.000000	98.860272 
1807.000000	98.860317 
1806.000000	98.855447 
1805.000000	98.848975 
1804.000000	98.842948 
1803.000000	98.836013 
1802.000000	98.827868 
1801.000000	98.822742 
1800.000000	98.822897 
1799.000000	98.824237 
1798.000000	98.823899 
1797.000000	98.824065 
1796.000000	98.826720 
1795.000000	98.830755 
1794.000000	98.833673 
1793.000000	98.834401 
1792.000000	98.833294 
1791.000000	98.830855 
1790.000000	98.829077 
1789.000000	98.830198 
1788.000000	98.834194 
1787.000000	98.839413 
1786.000000	98.844512 
1785.000000	98.847976 
1784.000000	98.847491 
1783.000000	98.842952 
1782.000000	98.837502 
1781.000000	98.834134 
1780.000000	98.831945 
1779.000000	98.828053 
1778.000000	98.823068 
1777.000000	98.820244 
1776.000000	98.821163 
1775.000000	98.825539 
1774.000000	98.832712 
1773.000000	98.842231 
1772.000000	98.851657 
1771.000000	98.856402 
1770.000000	98.854347 
1769.000000	98.847583 
1768.000000	98.841164 
1767.000000	98.839000 
1766.000000	98.840658 
1765.000000	98.843661 
1764.000000	98.846572 
1763.000000	98.849347 
1762.000000	98.852073 
1761.000000	98.854954 
1760.000000	98.857790 
1759.000000	98.858768 
1758.000000	98.856051 
1757.000000	98.850482 
1756.000000	98.846351 
1755.000000	98.845821 
1754.000000	98.845198 
1753.000000	98.840382 
1752.000000	98.834426 
1751.000000	98.836826 
1750.000000	98.850179 
1749.000000	98.864952 
1748.000000	98.872579 
1747.000000	98.872756 
1746.000000	98.868022 
1745.000000	98.860606 
1744.000000	98.854088 
1743.000000	98.851735 
1742.000000	98.852773 
1741.000000	98.854229 
1740.000000	98.854602 
1739.000000	98.854066 
1738.000000	98.851536 
1737.000000	98.844702 
1736.000000	98.831270 
1735.000000	98.813452 
1734.000000	98.800889 
1733.000000	98.800840 
1732.000000	98.810158 
1731.000000	98.822199 
1730.000000	98.832600 
1729.000000	98.837845 
1728.000000	98.838289 
1727.000000	98.837018 
1726.000000	98.835860 
1725.000000	98.833812 
1724.000000	98.830401 
1723.000000	98.828100 
1722.000000	98.830087 
1721.000000	98.835997 
1720.000000	98.842004 
1719.000000	98.843066 
1718.000000	98.836355 
1717.000000	98.826511 
1716.000000	98.817757 
1715.000000	98.809089 
1714.000000	98.803325 
1713.000000	98.803134 
1712.000000	98.804813 
1711.000000	98.804531 
1710.000000	98.803199 
1709.000000	98.803413 
1708.000000	98.804714 
1707.000000	98.804584 
1706.000000	98.804319 
1705.000000	98.808143 
1704.000000	98.811957 
1703.000000	98.805969 
1702.000000	98.785723 
1701.000000	98.763673 
1700.000000	98.756986 
1699.000000	98.759277 
1698.000000	98.758935 
1697.000000	98.757266 
1696.000000	98.757307 
1695.000000	98.757224 
1694.000000	98.756339 
1693.000000	98.755206 
1692.000000	98.751317 
1691.000000	98.742943 
1690.000000	98.732273 
1689.000000	98.723220 
1688.000000	98.716078 
1687.000000	98.707429 
1686.000000	98.695608 
1685.000000	98.686725 
1684.000000	98.684252 
1683.000000	98.682964 
1682.000000	98.680184 
1681.000000	98.674732 
1680.000000	98.669324 
1679.000000	98.666761 
1678.000000	98.666080 
1677.000000	98.663393 
1676.000000	98.657785 
1675.000000	98.652366 
1674.000000	98.648528 
1673.000000	98.645067 
1672.000000	98.641365 
1671.000000	98.638504 
1670.000000	98.636932 
1669.000000	98.633935 
1668.000000	98.629596 
1667.000000	98.626512 
1666.000000	98.622233 
1665.000000	98.612956 
1664.000000	98.600469 
1663.000000	98.592192 
1662.000000	98.592354 
1661.000000	98.595816 
1660.000000	98.596304 
1659.000000	98.593268 
1658.000000	98.589925 
1657.000000	98.584766 
1656.000000	98.574731 
1655.000000	98.559539 
1654.000000	98.552166 
1653.000000	98.556190 
1652.000000	98.556419 
1651.000000	98.552483 
1650.000000	98.545189 
1649.000000	98.534466 
1648.000000	98.523069 
1647.000000	98.514606 
1646.000000	98.509831 
1645.000000	98.509109 
1644.000000	98.510804 
1643.000000	98.512608 
1642.000000	98.513395 
1641.000000	98.513907 
1640.000000	98.514049 
1639.000000	98.513055 
1638.000000	98.511252 
1637.000000	98.510774 
1636.000000	98.511732 
1635.000000	98.512484 
1634.000000	98.514558 
1633.000000	98.517874 
1632.000000	98.519410 
1631.000000	98.518587 
1630.000000	98.517928 
1629.000000	98.518834 
1628.000000	98.520347 
1627.000000	98.521947 
1626.000000	98.524528 
1625.000000	98.528696 
1624.000000	98.534868 
1623.000000	98.543363 
1622.000000	98.552650 
1621.000000	98.558794 
1620.000000	98.559404 
1619.000000	98.556482 
1618.000000	98.556003 
1617.000000	98.561355 
1616.000000	98.568114 
1615.000000	98.572689 
1614.000000	98.574675 
1613.000000	98.573269 
1612.000000	98.570242 
1611.000000	98.570379 
1610.000000	98.575808 
1609.000000	98.582307 
1608.000000	98.585257 
1607.000000	98.586134 
1606.000000	98.588217 
1605.000000	98.591774 
1604.000000	98.596511 
1603.000000	98.603536 
1602.000000	98.612110 
1601.000000	98.618386 
1600.000000	98.620808 
1599.000000	98.623014 
1598.000000	98.628407 
1597.000000	98.635875 
1596.000000	98.642807 
1595.000000	98.649362 
1594.000000	98.656638 
1593.000000	98.662563 
1592.000000	98.664354 
1591.000000	98.663569 
1590.000000	98.664254 
1589.000000	98.667266 
1588.000000	98.670839 
1587.000000	98.675242 
1586.000000	98.681110 
1585.000000	98.685451 
1584.000000	98.685218 
1583.000000	98.682580 
1582.000000	98.682572 
1581.000000	98.686608 
1580.000000	98.692345 
1579.000000	98.698344 
1578.000000	98.704996 
1577.000000	98.710843 
1576.000000	98.712109 
1575.000000	98.711747 
1574.000000	98.714637 
1573.000000	98.717271 
1572.000000	98.715901 
1571.000000	98.713675 
1570.000000	98.716293 
1569.000000	98.721444 
1568.000000	98.724282 
1567.000000	98.725272 
1566.000000	98.726344 
1565.000000	98.727376 
1564.000000	98.729831 
1563.000000	98.733498 
1562.000000	98.736307 
1561.000000	98.731836 
1560.000000	98.721233 
1559.000000	98.716265 
1558.000000	98.720829 
1557.000000	98.729414 
1556.000000	98.734259 
1555.000000	98.735901 
1554.000000	98.733698 
1553.000000	98.730629 
1552.000000	98.728137 
1551.000000	98.728388 
1550.000000	98.731244 
1549.000000	98.734553 
1548.000000	98.735592 
1547.000000	98.734109 
1546.000000	98.731607 
1545.000000	98.730395 
1544.000000	98.730454 
1543.000000	98.729107 
1542.000000	98.726482 
1541.000000	98.728130 
1540.000000	98.731381 
1539.000000	98.730439 
1538.000000	98.730538 
1537.000000	98.732985 
1536.000000	98.733774 
1535.000000	98.732094 
1534.000000	98.731816 
1533.000000	98.734565 
1532.000000	98.736615 
1531.000000	98.734613 
1530.000000	98.731134 
1529.000000	98.729677 
1528.000000	98.729035 
1527.000000	98.726177 
1526.000000	98.721974 
1525.000000	98.720033 
1524.000000	98.720270 
1523.000000	98.719868 
1522.000000	98.720633 
1521.000000	98.726042 
1520.000000	98.732138 
1519.000000	98.732205 
1518.000000	98.725529 
1517.000000	98.716767 
1516.000000	98.709624 
1515.000000	98.704285 
1514.000000	98.699807 
1513.000000	98.696903 
1512.000000	98.697063 
1511.000000	98.698273 
1510.000000	98.697085 
1509.000000	98.693250 
1508.000000	98.693175 
1507.000000	98.698031 
1506.000000	98.699011 
1505.000000	98.697122 
1504.000000	98.696393 
1503.000000	98.695397 
1502.000000	98.692538 
1501.000000	98.689945 
1500.000000	98.690107 
1499.000000	98.693090 
1498.000000	98.695604 
1497.000000	98.698659 
1496.000000	98.704772 
1495.000000	98.709401 
1494.000000	98.706657 
1493.000000	98.696606 
1492.000000	98.683290 
1491.000000	98.672095 
1490.000000	98.666792 
1489.000000	98.667618 
1488.000000	98.668979 
1487.000000	98.665263 
1486.000000	98.659957 
1485.000000	98.657884 
1484.000000	98.658607 
1483.000000	98.658720 
1482.000000	98.654840 
1481.000000	98.646759 
1480.000000	98.636906 
1479.000000	98.627493 
1478.000000	98.619573 
1477.000000	98.613607 
1476.000000	98.608047 
1475.000000	98.599898 
1474.000000	98.590835 
1473.000000	98.588598 
1472.000000	98.595281 
1471.000000	98.601853 
1470.000000	98.602516 
1469.000000	98.600091 
1468.000000	98.598245 
1467.000000	98.596969 
1466.000000	98.594554 
1465.000000	98.591091 
1464.000000	98.587950 
1463.000000	98.585497 
1462.000000	98.583826 
1461.000000	98.583784 
1460.000000	98.584662 
1459.000000	98.581871 
1458.000000	98.566175 
1457.000000	98.536023 
1456.000000	98.507974 
1455.000000	98.492925 
1454.000000	98.484880 
1453.000000	98.479467 
1452.000000	98.476297 
1451.000000	98.475356 
1450.000000	98.476336 
1449.000000	98.481561 
1448.000000	98.492054 
1447.000000	98.502533 
1446.000000	98.507010 
1445.000000	98.506571 
1444.000000	98.505319 
1443.000000	98.503574 
1442.000000	98.499552 
1441.000000	98.493870 
1440.000000	98.489370 
1439.000000	98.486537 
1438.000000	98.481868 
1437.000000	98.473932 
1436.000000	98.467172 
1435.000000	98.463491 
1434.000000	98.459732 
1433.000000	98.455528 
1432.000000	98.453122 
1431.000000	98.453500 
1430.000000	98.453678 
1429.000000	98.450722 
1428.000000	98.445814 
1427.000000	98.440636 
1426.000000	98.433906 
1425.000000	98.423618 
1424.000000	98.412673 
1423.000000	98.404689 
1422.000000	98.396444 
1421.000000	98.381933 
1420.000000	98.361204 
1419.000000	98.339343 
1418.000000	98.316517 
1417.000000	98.291146 
1416.000000	98.266013 
1415.000000	98.242849 
1414.000000	98.218439 
1413.000000	98.189549 
1412.000000	98.159341 
1411.000000	98.134600 
1410.000000	98.116667 
1409.000000	98.103174 
1408.000000	98.094509 
1407.000000	98.092372 
1406.000000	98.095730 
1405.000000	98.103713 
1404.000000	98.120033 
1403.000000	98.145073 
1402.000000	98.170814 
1401.000000	98.190915 
1400.000000	98.207910 
1399.000000	98.224984 
1398.000000	98.231281 
1397.000000	98.208028 
1396.000000	98.152154 
1395.000000	98.091579 
1394.000000	98.067832 
1393.000000	98.096420 
1392.000000	98.158780 
1391.000000	98.225244 
1390.000000	98.273673 
1389.000000	98.295767 
1388.000000	98.295504 
1387.000000	98.283222 
1386.000000	98.267922 
1385.000000	98.254389 
1384.000000	98.245603 
1383.000000	98.243274 
1382.000000	98.246728 
1381.000000	98.254315 
1380.000000	98.264993 
1379.000000	98.278434 
1378.000000	98.293681 
1377.000000	98.309173 
1376.000000	98.324956 
1375.000000	98.343379 
1374.000000	98.365408 
1373.000000	98.387993 
1372.000000	98.407742 
1371.000000	98.425533 
1370.000000	98.444803 
1369.000000	98.465838 
1368.000000	98.486283 
1367.000000	98.504429 
1366.000000	98.519909 
1365.000000	98.532688 
1364.000000	98.542294 
1363.000000	98.549451 
1362.000000	98.557397 
1361.000000	98.568377 
1360.000000	98.580731 
1359.000000	98.592100 
1358.000000	98.602706 
1357.000000	98.613961 
1356.000000	98.625782 
1355.000000	98.636550 
1354.000000	98.645208 
1353.000000	98.652157 
1352.000000	98.656794 
1351.000000	98.658117 
1350.000000	98.658104 
1349.000000	98.659357 
1348.000000	98.662575 
1347.000000	98.667164 
1346.000000	98.673209 
1345.000000	98.680668 
1344.000000	98.687698 
1343.000000	98.691981 
1342.000000	98.693337 
1341.000000	98.693119 
1340.000000	98.691833 
1339.000000	98.689573 
1338.000000	98.687839 
1337.000000	98.688888 
1336.000000	98.693056 
1335.000000	98.698055 
1334.000000	98.701922 
1333.000000	98.705364 
1332.000000	98.709843 
1331.000000	98.714798 
1330.000000	98.717796 
1329.000000	98.716952 
1328.000000	98.712712 
1327.000000	98.707675 
1326.000000	98.704380 
1325.000000	98.702750 
1324.000000	98.701756 
1323.000000	98.701529 
1322.000000	98.702498 
1321.000000	98.703767 
1320.000000	98.704041 
1319.000000	98.703649 
1318.000000	98.704103 
1317.000000	98.705824 
1316.000000	98.707360 
1315.000000	98.707179 
1314.000000	98.705459 
1313.000000	98.703966 
1312.000000	98.704135 
1311.000000	98.705689 
1310.000000	98.707250 
1309.000000	98.707978 
1308.000000	98.707852 
1307.000000	98.706790 
1306.000000	98.704513 
1305.000000	98.701198 
1304.000000	98.698597 
1303.000000	98.698747 
1302.000000	98.701720 
1301.000000	98.705286 
1300.000000	98.706743 
1299.000000	98.704403 
1298.000000	98.697986 
1297.000000	98.688938 
1296.000000	98.680241 
1295.000000	98.674899 
1294.000000	98.673519 
1293.000000	98.673815 
1292.000000	98.672601 
1291.000000	98.667910 
1290.000000	98.659885 
1289.000000	98.650503 
1288.000000	98.642067 
1287.000000	98.635043 
1286.000000	98.627491 
1285.000000	98.617636 
1284.000000	98.606509 
1283.000000	98.596521 
1282.000000	98.588093 
1281.000000	98.579474 
1280.000000	98.569735 
1279.000000	98.559838 
1278.000000	98.550071 
1277.000000	98.538724 
1276.000000	98.524502 
1275.000000	98.509010 
1274.000000	98.495238 
1273.000000	98.484381 
1272.000000	98.475081 
1271.000000	98.464766 
1270.000000	98.450962 
1269.000000	98.432710 
1268.000000	98.411991 
1267.000000	98.392451 
1266.000000	98.375390 
1265.000000	98.358594 
1264.000000	98.339966 
1263.000000	98.320128 
1262.000000	98.300304 
1261.000000	98.280060 
1260.000000	98.259419 
1259.000000	98.241113 
1258.000000	98.227529 
1257.000000	98.217154 
1256.000000	98.206696 
1255.000000	98.195391 
1254.000000	98.184463 
1253.000000	98.173443 
1252.000000	98.160482 
1251.000000	98.146471 
1250.000000	98.135814 
1249.000000	98.132391 
1248.000000	98.136825 
1247.000000	98.146897 
1246.000000	98.156914 
1245.000000	98.157063 
1244.000000	98.139041 
1243.000000	98.106575 
1242.000000	98.077687 
1241.000000	98.070850 
1240.000000	98.087554 
1239.000000	98.110521 
1238.000000	98.119644 
1237.000000	98.108028 
1236.000000	98.082427 
1235.000000	98.052313 
1234.000000	98.022317 
1233.000000	97.993663 
1232.000000	97.967878 
1231.000000	97.946172 
1230.000000	97.926946 
1229.000000	97.906925 
1228.000000	97.885049 
1227.000000	97.863862 
1226.000000	97.846755 
1225.000000	97.834342 
1224.000000	97.823352 
1223.000000	97.808558 
1222.000000	97.786419 
1221.000000	97.757771 
1220.000000	97.726876 
1219.000000	97.697333 
1218.000000	97.669045 
1217.000000	97.639456 
1216.000000	97.606664 
1215.000000	97.570297 
1214.000000	97.530482 
1213.000000	97.487698 
1212.000000	97.443156 
1211.000000	97.397569 
1210.000000	97.350019 
1209.000000	97.299545 
1208.000000	97.247175 
1207.000000	97.194700 
1206.000000	97.142351 
1205.000000	97.089707 
1204.000000	97.037703 
1203.000000	96.986950 
1202.000000	96.934844 
1201.000000	96.877843 
1200.000000	96.816806 
1199.000000	96.756716 
1198.000000	96.700434 
1197.000000	96.646001 
1196.000000	96.590690 
1195.000000	96.534122 
1194.000000	96.476314 
1193.000000	96.416131 
1192.000000	96.353592 
1191.000000	96.290940 
1190.000000	96.229679 
1189.000000	96.168916 
1188.000000	96.107799 
1187.000000	96.046758 
1186.000000	95.984993 
1185.000000	95.919730 
1184.000000	95.849525 
1183.000000	95.775652 
1182.000000	95.699020 
1181.000000	95.618754 
1180.000000	95.535352 
1179.000000	95.452074 
1178.000000	95.370854 
1177.000000	95.289447 
1176.000000	95.204592 
1175.000000	95.115532 
1174.000000	95.022868 
1173.000000	94.926890 
1172.000000	94.829222 
1171.000000	94.733338 
1170.000000	94.641062 
1169.000000	94.550932 
1168.000000	94.461933 
1167.000000	94.376625 
1166.000000	94.299553 
1165.000000	94.235980 
1164.000000	94.193545 
1163.000000	94.180607 
1162.000000	94.199182 
1161.000000	94.240917 
1160.000000	94.291056 
1159.000000	94.334421 
1158.000000	94.358424 
1157.000000	94.355308 
1156.000000	94.324268 
1155.000000	94.270067 
1154.000000	94.198898 
1153.000000	94.116782 
1152.000000	94.030700 
1151.000000	93.946962 
1150.000000	93.867283 
1149.000000	93.789565 
1148.000000	93.712849 
1147.000000	93.637783 
1146.000000	93.562309 
1145.000000	93.482131 
1144.000000	93.396967 
1143.000000	93.311935 
1142.000000	93.230999 
1141.000000	93.152930 
1140.000000	93.074923 
1139.000000	92.995736 
1138.000000	92.913924 
1137.000000	92.827689 
1136.000000	92.738417 
1135.000000	92.650294 
1134.000000	92.564820 
1133.000000	92.479357 
1132.000000	92.391789 
1131.000000	92.302161 
1130.000000	92.209295 
1129.000000	92.111053 
1128.000000	92.008941 
1127.000000	91.907252 
1126.000000	91.806715 
1125.000000	91.704260 
1124.000000	91.599587 
1123.000000	91.495851 
1122.000000	91.393007 
1121.000000	91.287218 
1120.000000	91.178226 
1119.000000	91.070474 
1118.000000	90.965367 
1117.000000	90.859598 
1116.000000	90.753092 
1115.000000	90.651101 
1114.000000	90.555631 
1113.000000	90.461721 
1112.000000	90.365082 
1111.000000	90.267080 
1110.000000	90.169745 
1109.000000	90.072390 
1108.000000	89.975521 
1107.000000	89.881169 
1106.000000	89.787669 
1105.000000	89.690855 
1104.000000	89.591623 
1103.000000	89.495628 
1102.000000	89.404330 
1101.000000	89.314470 
1100.000000	89.226362 
1099.000000	89.143195 
1098.000000	89.063736 
1097.000000	88.983245 
1096.000000	88.903044 
1095.000000	88.827840 
1094.000000	88.752671 
1093.000000	88.664136 
1092.000000	88.557625 
1091.000000	88.442644 
1090.000000	88.328186 
1089.000000	88.213743 
1088.000000	88.098326 
1087.000000	87.986931 
1086.000000	87.882911 
1085.000000	87.783653 
1084.000000	87.688016 
1083.000000	87.598451 
1082.000000	87.512437 
1081.000000	87.422273 
1080.000000	87.327249 
1079.000000	87.236076 
1078.000000	87.154051 
1077.000000	87.078118 
1076.000000	87.007020 
1075.000000	86.944204 
1074.000000	86.887146 
1073.000000	86.825412 
1072.000000	86.751406 
1071.000000	86.659799 
1070.000000	86.535215 
1069.000000	86.359706 
1068.000000	86.142059 
1067.000000	85.925120 
1066.000000	85.751062 
1065.000000	85.626571 
1064.000000	85.528376 
1063.000000	85.429378 
1062.000000	85.309533 
1061.000000	85.155711 
1060.000000	84.968820 
1059.000000	84.768980 
1058.000000	84.582523 
1057.000000	84.422476 
1056.000000	84.283432 
1055.000000	84.149096 
1054.000000	84.001634 
1053.000000	83.832310 
1052.000000	83.648861 
1051.000000	83.466452 
1050.000000	83.288662 
1049.000000	83.106307 
1048.000000	82.915814 
1047.000000	82.725152 
1046.000000	82.539198 
1045.000000	82.353257 
1044.000000	82.164732 
1043.000000	81.978790 
1042.000000	81.798051 
1041.000000	81.617536 
1040.000000	81.435176 
1039.000000	81.258916 
1038.000000	81.099497 
1037.000000	80.963370 
1036.000000	80.853438 
1035.000000	80.767282 
1034.000000	80.693720 
1033.000000	80.619870 
1032.000000	80.540611 
1031.000000	80.453581 
1030.000000	80.352744 
1029.000000	80.242233 
1028.000000	80.150285 
1027.000000	80.108072 
1026.000000	80.113073 
1025.000000	80.131035 
1024.000000	80.134590 
1023.000000	80.121814 
1022.000000	80.097896 
1021.000000	80.061546 
1020.000000	80.015492 
1019.000000	79.970710 
1018.000000	79.931169 
1017.000000	79.888590 
1016.000000	79.838612 
1015.000000	79.788697 
1014.000000	79.745034 
1013.000000	79.704907 
1012.000000	79.666373 
1011.000000	79.632340 
1010.000000	79.601540 
1009.000000	79.568942 
1008.000000	79.538288 
1007.000000	79.520731 
1006.000000	79.518294 
1005.000000	79.522235 
1004.000000	79.529623 
1003.000000	79.546698 
1002.000000	79.573669 
1001.000000	79.601938 
1000.000000	79.629648 
999.000000	 79.664644 
998.000000	 79.708311 
997.000000	 79.751470 
996.000000	 79.790499 
995.000000	 79.833204 
994.000000	 79.884387 
993.000000	 79.939057 
992.000000	 79.993850 
991.000000	 80.052086 
990.000000	 80.114112 
989.000000	 80.175629 
988.000000	 80.238700 
987.000000	 80.311651 
986.000000	 80.395568 
985.000000	 80.483877 
984.000000	 80.577143 
983.000000	 80.684365 
982.000000	 80.807325 
981.000000	 80.937709 
980.000000	 81.072219 
979.000000	 81.216512 
978.000000	 81.371722 
977.000000	 81.531398 
976.000000	 81.694752 
975.000000	 81.869010 
974.000000	 82.055319 
973.000000	 82.245601 
972.000000	 82.436313 
971.000000	 82.632029 
970.000000	 82.832391 
969.000000	 83.029021 
968.000000	 83.219173 
967.000000	 83.409777 
966.000000	 83.603797 
965.000000	 83.794388 
964.000000	 83.976714 
963.000000	 84.154414 
962.000000	 84.330251 
961.000000	 84.500764 
960.000000	 84.664274 
959.000000	 84.824543 
958.000000	 84.982700 
957.000000	 85.134399 
956.000000	 85.278151 
955.000000	 85.417991 
954.000000	 85.555181 
953.000000	 85.685494 
952.000000	 85.806903 
951.000000	 85.921836 
950.000000	 86.030128 
949.000000	 86.127999 
948.000000	 86.215684 
947.000000	 86.298048 
946.000000	 86.376390 
945.000000	 86.447512 
944.000000	 86.511468 
943.000000	 86.571787 
942.000000	 86.627706 
941.000000	 86.675330 
940.000000	 86.717139 
939.000000	 86.761034 
938.000000	 86.809037 
937.000000	 86.856112 
936.000000	 86.900673 
935.000000	 86.946340 
934.000000	 86.992606 
933.000000	 87.034431 
932.000000	 87.072906 
931.000000	 87.116041 
930.000000	 87.166743 
929.000000	 87.219460 
928.000000	 87.270332 
927.000000	 87.320747 
926.000000	 87.369198 
925.000000	 87.409896 
924.000000	 87.441836 
923.000000	 87.469673 
922.000000	 87.493571 
921.000000	 87.507957 
920.000000	 87.512601 
919.000000	 87.515191 
918.000000	 87.520263 
917.000000	 87.524937 
916.000000	 87.528104 
915.000000	 87.534528 
914.000000	 87.547584 
913.000000	 87.567569 
912.000000	 87.599373 
911.000000	 87.651352 
910.000000	 87.723434 
909.000000	 87.806405 
908.000000	 87.896233 
907.000000	 87.999436 
906.000000	 88.121391 
905.000000	 88.258842 
904.000000	 88.406759 
903.000000	 88.563435 
902.000000	 88.726286 
901.000000	 88.891301 
900.000000	 89.058800 
899.000000	 89.231842 
898.000000	 89.407561 
897.000000	 89.577288 
896.000000	 89.735638 
895.000000	 89.882624 
894.000000	 90.018908 
893.000000	 90.147763 
892.000000	 90.279519 
891.000000	 90.422844 
890.000000	 90.571359 
889.000000	 90.709320 
888.000000	 90.830916 
887.000000	 90.943539 
886.000000	 91.051933 
885.000000	 91.151144 
884.000000	 91.237851 
883.000000	 91.317602 
882.000000	 91.396845 
881.000000	 91.477456 
880.000000	 91.563049 
879.000000	 91.660717 
878.000000	 91.770641 
877.000000	 91.881577 
876.000000	 91.981731 
875.000000	 92.068575 
874.000000	 92.146343 
873.000000	 92.221380 
872.000000	 92.302025 
871.000000	 92.394759 
870.000000	 92.496496 
869.000000	 92.596609 
868.000000	 92.689097 
867.000000	 92.777776 
866.000000	 92.869049 
865.000000	 92.965510 
864.000000	 93.067238 
863.000000	 93.172759 
862.000000	 93.277021 
861.000000	 93.373882 
860.000000	 93.462206 
859.000000	 93.545761 
858.000000	 93.627695 
857.000000	 93.709607 
856.000000	 93.794075 
855.000000	 93.881187 
854.000000	 93.963273 
853.000000	 94.030582 
852.000000	 94.082882 
851.000000	 94.129033 
850.000000	 94.174782 
849.000000	 94.217807 
848.000000	 94.255474 
847.000000	 94.289871 
846.000000	 94.322750 
845.000000	 94.351829 
844.000000	 94.374784 
843.000000	 94.391461 
842.000000	 94.399636 
841.000000	 94.393808 
840.000000	 94.371558 
839.000000	 94.337663 
838.000000	 94.299325 
837.000000	 94.259657 
836.000000	 94.217255 
835.000000	 94.170149 
834.000000	 94.120022 
833.000000	 94.074279 
832.000000	 94.041724 
831.000000	 94.022713 
830.000000	 94.007636 
829.000000	 93.991951 
828.000000	 93.988172 
827.000000	 94.011502 
826.000000	 94.055294 
825.000000	 94.095309 
824.000000	 94.120402 
823.000000	 94.143702 
822.000000	 94.178996 
821.000000	 94.221188 
820.000000	 94.256119 
819.000000	 94.276739 
818.000000	 94.283657 
817.000000	 94.278901 
816.000000	 94.263870 
815.000000	 94.236729 
814.000000	 94.188177 
813.000000	 94.105712 
812.000000	 93.985137 
811.000000	 93.832106 
810.000000	 93.649612 
809.000000	 93.430335 
808.000000	 93.165164 
807.000000	 92.853325 
806.000000	 92.500727 
805.000000	 92.115744 
804.000000	 91.713080 
803.000000	 91.316446 
802.000000	 90.950592 
801.000000	 90.633895 
800.000000	 90.380643 
799.000000	 90.201672 
798.000000	 90.097681 
797.000000	 90.059336 
796.000000	 90.076584 
795.000000	 90.139620 
794.000000	 90.231226 
793.000000	 90.330318 
792.000000	 90.424505 
791.000000	 90.508496 
790.000000	 90.571112 
789.000000	 90.598081 
788.000000	 90.589559 
787.000000	 90.560425 
786.000000	 90.518353 
785.000000	 90.453869 
784.000000	 90.357731 
783.000000	 90.236719 
782.000000	 90.106386 
781.000000	 89.979767 
780.000000	 89.870145 
779.000000	 89.793406 
778.000000	 89.758659 
777.000000	 89.764855 
776.000000	 89.812032 
775.000000	 89.904592 
774.000000	 90.036520 
773.000000	 90.184631 
772.000000	 90.325103 
771.000000	 90.448904 
770.000000	 90.555408 
769.000000	 90.640585 
768.000000	 90.700291 
767.000000	 90.738916 
766.000000	 90.766043 
765.000000	 90.787358 
764.000000	 90.804112 
763.000000	 90.817531 
762.000000	 90.828978 
761.000000	 90.839420 
760.000000	 90.852540 
759.000000	 90.874435 
758.000000	 90.907004 
757.000000	 90.945722 
756.000000	 90.986265 
755.000000	 91.028939 
754.000000	 91.074938 
753.000000	 91.123265 
752.000000	 91.173120 
751.000000	 91.224045 
750.000000	 91.272234 
749.000000	 91.312184 
748.000000	 91.343985 
747.000000	 91.374871 
746.000000	 91.412897 
745.000000	 91.462560 
744.000000	 91.525094 
743.000000	 91.597700 
742.000000	 91.673962 
741.000000	 91.750823 
740.000000	 91.833288 
739.000000	 91.926292 
738.000000	 92.024816 
737.000000	 92.119114 
736.000000	 92.206567 
735.000000	 92.290627 
734.000000	 92.371351 
733.000000	 92.445618 
732.000000	 92.513395 
731.000000	 92.573555 
730.000000	 92.616533 
729.000000	 92.633035 
728.000000	 92.630400 
727.000000	 92.627927 
726.000000	 92.634368 
725.000000	 92.643662 
724.000000	 92.654206 
723.000000	 92.677155 
722.000000	 92.720365 
721.000000	 92.776324 
720.000000	 92.832391 
719.000000	 92.883614 
718.000000	 92.930074 
717.000000	 92.971297 
716.000000	 93.008708 
715.000000	 93.045379 
714.000000	 93.078911 
713.000000	 93.102046 
712.000000	 93.114234 
711.000000	 93.124178 
710.000000	 93.137306 
709.000000	 93.148212 
708.000000	 93.149182 
707.000000	 93.138531 
706.000000	 93.115646 
705.000000	 93.078082 
704.000000	 93.027775 
703.000000	 92.968874 
702.000000	 92.895424 
701.000000	 92.789983 
700.000000	 92.637566 
699.000000	 92.436500 
698.000000	 92.195785 
697.000000	 91.936191 
696.000000	 91.698028 
695.000000	 91.529929 
694.000000	 91.460665 
693.000000	 91.485631 
692.000000	 91.579473 
691.000000	 91.712113 
690.000000	 91.851891 
689.000000	 91.973260 
688.000000	 92.071566 
687.000000	 92.158845 
686.000000	 92.241153 
685.000000	 92.310534 
684.000000	 92.361174 
683.000000	 92.400591 
682.000000	 92.439815 
681.000000	 92.484376 
680.000000	 92.537541 
679.000000	 92.599986 
678.000000	 92.660153 
677.000000	 92.697109 
676.000000	 92.709752 
675.000000	 92.726581 
674.000000	 92.769629 
673.000000	 92.825851 
672.000000	 92.872070 
671.000000	 92.913259 
670.000000	 92.980157 
669.000000	 93.087673 
668.000000	 93.180394 
667.000000	 93.200551 
666.000000	 93.187662 
665.000000	 93.177660 
664.000000	 93.172924 
663.000000	 93.170349 
662.000000	 93.168453 
661.000000	 93.169061 
660.000000	 93.180767 
659.000000	 93.205998 
658.000000	 93.219612 
657.000000	 93.182029 
656.000000	 93.091304 
655.000000	 92.996031 
654.000000	 92.937043 
653.000000	 92.904589 
652.000000	 92.874818 
651.000000	 92.851600 
650.000000	 92.846691 

