4000.000000	99.464956 
3999.000000	99.465206 
3998.000000	99.465366 
3997.000000	99.465148 
3996.000000	99.464529 
3995.000000	99.463818 
3994.000000	99.463402 
3993.000000	99.463449 
3992.000000	99.463826 
3991.000000	99.464224 
3990.000000	99.464403 
3989.000000	99.464379 
3988.000000	99.464396 
3987.000000	99.464692 
3986.000000	99.465270 
3985.000000	99.465877 
3984.000000	99.466195 
3983.000000	99.466055 
3982.000000	99.465490 
3981.000000	99.464670 
3980.000000	99.463769 
3979.000000	99.462904 
3978.000000	99.462242 
3977.000000	99.462049 
3976.000000	99.462506 
3975.000000	99.463492 
3974.000000	99.464577 
3973.000000	99.465301 
3972.000000	99.465496 
3971.000000	99.465302 
3970.000000	99.464948 
3969.000000	99.464569 
3968.000000	99.464188 
3967.000000	99.463800 
3966.000000	99.463466 
3965.000000	99.463337 
3964.000000	99.463509 
3963.000000	99.463824 
3962.000000	99.463900 
3961.000000	99.463440 
3960.000000	99.462503 
3959.000000	99.461477 
3958.000000	99.460773 
3957.000000	99.460523 
3956.000000	99.460584 
3955.000000	99.460720 
3954.000000	99.460763 
3953.000000	99.460642 
3952.000000	99.460314 
3951.000000	99.459788 
3950.000000	99.459190 
3949.000000	99.458765 
3948.000000	99.458729 
3947.000000	99.459051 
3946.000000	99.459504 
3945.000000	99.459945 
3944.000000	99.460415 
3943.000000	99.460882 
3942.000000	99.461124 
3941.000000	99.460927 
3940.000000	99.460237 
3939.000000	99.459079 
3938.000000	99.457511 
3937.000000	99.455751 
3936.000000	99.454330 
3935.000000	99.453851 
3934.000000	99.454618 
3933.000000	99.456378 
3932.000000	99.458354 
3931.000000	99.459588 
3930.000000	99.459467 
3929.000000	99.458195 
3928.000000	99.456728 
3927.000000	99.456056 
3926.000000	99.456543 
3925.000000	99.457691 
3924.000000	99.458520 
3923.000000	99.458453 
3922.000000	99.457653 
3921.000000	99.456729 
3920.000000	99.456227 
3919.000000	99.456394 
3918.000000	99.457218 
3917.000000	99.458466 
3916.000000	99.459775 
3915.000000	99.460867 
3914.000000	99.461742 
3913.000000	99.462499 
3912.000000	99.463008 
3911.000000	99.463056 
3910.000000	99.462691 
3909.000000	99.462233 
3908.000000	99.461941 
3907.000000	99.461472 
3906.000000	99.459959 
3905.000000	99.456681 
3904.000000	99.451810 
3903.000000	99.446829 
3902.000000	99.443728 
3901.000000	99.443473 
3900.000000	99.445576 
3899.000000	99.448444 
3898.000000	99.450563 
3897.000000	99.451477 
3896.000000	99.451444 
3895.000000	99.450859 
3894.000000	99.450060 
3893.000000	99.449244 
3892.000000	99.448380 
3891.000000	99.447228 
3890.000000	99.445767 
3889.000000	99.444304 
3888.000000	99.443253 
3887.000000	99.442958 
3886.000000	99.443376 
3885.000000	99.443937 
3884.000000	99.444135 
3883.000000	99.444046 
3882.000000	99.444063 
3881.000000	99.444279 
3880.000000	99.444330 
3879.000000	99.443883 
3878.000000	99.443169 
3877.000000	99.442710 
3876.000000	99.442777 
3875.000000	99.443110 
3874.000000	99.443129 
3873.000000	99.442551 
3872.000000	99.441665 
3871.000000	99.441004 
3870.000000	99.440785 
3869.000000	99.440845 
3868.000000	99.440958 
3867.000000	99.441054 
3866.000000	99.441233 
3865.000000	99.441581 
3864.000000	99.441985 
3863.000000	99.442237 
3862.000000	99.442248 
3861.000000	99.442179 
3860.000000	99.442319 
3859.000000	99.442806 
3858.000000	99.443454 
3857.000000	99.443883 
3856.000000	99.443841 
3855.000000	99.443547 
3854.000000	99.443448 
3853.000000	99.443670 
3852.000000	99.444193 
3851.000000	99.445090 
3850.000000	99.446157 
3849.000000	99.447137 
3848.000000	99.447837 
3847.000000	99.448147 
3846.000000	99.448040 
3845.000000	99.447575 
3844.000000	99.447034 
3843.000000	99.446857 
3842.000000	99.447073 
3841.000000	99.447196 
3840.000000	99.446850 
3839.000000	99.446230 
3838.000000	99.445901 
3837.000000	99.446158 
3836.000000	99.446863 
3835.000000	99.447865 
3834.000000	99.449243 
3833.000000	99.451223 
3832.000000	99.453745 
3831.000000	99.456165 
3830.000000	99.457755 
3829.000000	99.458264 
3828.000000	99.457926 
3827.000000	99.457253 
3826.000000	99.456638 
3825.000000	99.456135 
3824.000000	99.455744 
3823.000000	99.455788 
3822.000000	99.456509 
3821.000000	99.457321 
3820.000000	99.457408 
3819.000000	99.456889 
3818.000000	99.456525 
3817.000000	99.456971 
3816.000000	99.458145 
3815.000000	99.459156 
3814.000000	99.459341 
3813.000000	99.458932 
3812.000000	99.458627 
3811.000000	99.458865 
3810.000000	99.459488 
3809.000000	99.460025 
3808.000000	99.460231 
3807.000000	99.460172 
3806.000000	99.459893 
3805.000000	99.459347 
3804.000000	99.458617 
3803.000000	99.458233 
3802.000000	99.458699 
3801.000000	99.459638 
3800.000000	99.460231 
3799.000000	99.460246 
3798.000000	99.460017 
3797.000000	99.460019 
3796.000000	99.460400 
3795.000000	99.460894 
3794.000000	99.461202 
3793.000000	99.461335 
3792.000000	99.461504 
3791.000000	99.461826 
3790.000000	99.462167 
3789.000000	99.462321 
3788.000000	99.462273 
3787.000000	99.462150 
3786.000000	99.462018 
3785.000000	99.461811 
3784.000000	99.461462 
3783.000000	99.461051 
3782.000000	99.460830 
3781.000000	99.461055 
3780.000000	99.461685 
3779.000000	99.462268 
3778.000000	99.462363 
3777.000000	99.461916 
3776.000000	99.461085 
3775.000000	99.460098 
3774.000000	99.459125 
3773.000000	99.458252 
3772.000000	99.457594 
3771.000000	99.457250 
3770.000000	99.456985 
3769.000000	99.456396 
3768.000000	99.455604 
3767.000000	99.455153 
3766.000000	99.455295 
3765.000000	99.455555 
3764.000000	99.455058 
3763.000000	99.453317 
3762.000000	99.450765 
3761.000000	99.448569 
3760.000000	99.447409 
3759.000000	99.446854 
3758.000000	99.446341 
3757.000000	99.446069 
3756.000000	99.446354 
3755.000000	99.446851 
3754.000000	99.446873 
3753.000000	99.446123 
3752.000000	99.444669 
3751.000000	99.442347 
3750.000000	99.439647 
3749.000000	99.438449 
3748.000000	99.439730 
3747.000000	99.441981 
3746.000000	99.443583 
3745.000000	99.443877 
3744.000000	99.442646 
3743.000000	99.440876 
3742.000000	99.439375 
3741.000000	99.436874 
3740.000000	99.431844 
3739.000000	99.423992 
3738.000000	99.415593 
3737.000000	99.411181 
3736.000000	99.414138 
3735.000000	99.422610 
3734.000000	99.430435 
3733.000000	99.433731 
3732.000000	99.433551 
3731.000000	99.432550 
3730.000000	99.431493 
3729.000000	99.429339 
3728.000000	99.426280 
3727.000000	99.424057 
3726.000000	99.423210 
3725.000000	99.422485 
3724.000000	99.421378 
3723.000000	99.421085 
3722.000000	99.421917 
3721.000000	99.422716 
3720.000000	99.421771 
3719.000000	99.417873 
3718.000000	99.411436 
3717.000000	99.403530 
3716.000000	99.394532 
3715.000000	99.384065 
3714.000000	99.372404 
3713.000000	99.362025 
3712.000000	99.355901 
3711.000000	99.354514 
3710.000000	99.354761 
3709.000000	99.352319 
3708.000000	99.345295 
3707.000000	99.334710 
3706.000000	99.323056 
3705.000000	99.312593 
3704.000000	99.304067 
3703.000000	99.296094 
3702.000000	99.285410 
3701.000000	99.269571 
3700.000000	99.249339 
3699.000000	99.227500 
3698.000000	99.206539 
3697.000000	99.187497 
3696.000000	99.169955 
3695.000000	99.153271 
3694.000000	99.137960 
3693.000000	99.125392 
3692.000000	99.115748 
3691.000000	99.107318 
3690.000000	99.097705 
3689.000000	99.086264 
3688.000000	99.075183 
3687.000000	99.066894 
3686.000000	99.061599 
3685.000000	99.058900 
3684.000000	99.059434 
3683.000000	99.063472 
3682.000000	99.068616 
3681.000000	99.069586 
3680.000000	99.061053 
3679.000000	99.040502 
3678.000000	99.010871 
3677.000000	98.983003 
3676.000000	98.970061 
3675.000000	98.973399 
3674.000000	98.981521 
3673.000000	98.984827 
3672.000000	98.982936 
3671.000000	98.982824 
3670.000000	98.989399 
3669.000000	98.999251 
3668.000000	99.006944 
3667.000000	99.011498 
3666.000000	99.014696 
3665.000000	99.017616 
3664.000000	99.019542 
3663.000000	99.019504 
3662.000000	99.017881 
3661.000000	99.015805 
3660.000000	99.014317 
3659.000000	99.014741 
3658.000000	99.019498 
3657.000000	99.030395 
3656.000000	99.045348 
3655.000000	99.059552 
3654.000000	99.069616 
3653.000000	99.075085 
3652.000000	99.077094 
3651.000000	99.077705 
3650.000000	99.079795 
3649.000000	99.086482 
3648.000000	99.098725 
3647.000000	99.113710 
3646.000000	99.127864 
3645.000000	99.140351 
3644.000000	99.152831 
3643.000000	99.166856 
3642.000000	99.182636 
3641.000000	99.199022 
3640.000000	99.214685 
3639.000000	99.228346 
3638.000000	99.238539 
3637.000000	99.244383 
3636.000000	99.246706 
3635.000000	99.247834 
3634.000000	99.249287 
3633.000000	99.250589 
3632.000000	99.250918 
3631.000000	99.251365 
3630.000000	99.254837 
3629.000000	99.261512 
3628.000000	99.266955 
3627.000000	99.269531 
3626.000000	99.272459 
3625.000000	99.278656 
3624.000000	99.288095 
3623.000000	99.298574 
3622.000000	99.307975 
3621.000000	99.316180 
3620.000000	99.323383 
3619.000000	99.327646 
3618.000000	99.327016 
3617.000000	99.323225 
3616.000000	99.320530 
3615.000000	99.321989 
3614.000000	99.326746 
3613.000000	99.331018 
3612.000000	99.332361 
3611.000000	99.332229 
3610.000000	99.333901 
3609.000000	99.338943 
3608.000000	99.345582 
3607.000000	99.351009 
3606.000000	99.354717 
3605.000000	99.358206 
3604.000000	99.362724 
3603.000000	99.368109 
3602.000000	99.373374 
3601.000000	99.377958 
3600.000000	99.381390 
3599.000000	99.382852 
3598.000000	99.382050 
3597.000000	99.379936 
3596.000000	99.378294 
3595.000000	99.378746 
3594.000000	99.381294 
3593.000000	99.384531 
3592.000000	99.386971 
3591.000000	99.387889 
3590.000000	99.387859 
3589.000000	99.388512 
3588.000000	99.390777 
3587.000000	99.393080 
3586.000000	99.393419 
3585.000000	99.392305 
3584.000000	99.392195 
3583.000000	99.394472 
3582.000000	99.398290 
3581.000000	99.401593 
3580.000000	99.402936 
3579.000000	99.402221 
3578.000000	99.400065 
3577.000000	99.397328 
3576.000000	99.394920 
3575.000000	99.393708 
3574.000000	99.393916 
3573.000000	99.394788 
3572.000000	99.395272 
3571.000000	99.394847 
3570.000000	99.393613 
3569.000000	99.392214 
3568.000000	99.391651 
3567.000000	99.392349 
3566.000000	99.393607 
3565.000000	99.394654 
3564.000000	99.395651 
3563.000000	99.397410 
3562.000000	99.400392 
3561.000000	99.403977 
3560.000000	99.406805 
3559.000000	99.407887 
3558.000000	99.407434 
3557.000000	99.406548 
3556.000000	99.406236 
3555.000000	99.406627 
3554.000000	99.407154 
3553.000000	99.407062 
3552.000000	99.405961 
3551.000000	99.404084 
3550.000000	99.401988 
3549.000000	99.400103 
3548.000000	99.398755 
3547.000000	99.398259 
3546.000000	99.398821 
3545.000000	99.400063 
3544.000000	99.401209 
3543.000000	99.401956 
3542.000000	99.402900 
3541.000000	99.404752 
3540.000000	99.407381 
3539.000000	99.409694 
3538.000000	99.410730 
3537.000000	99.410543 
3536.000000	99.409972 
3535.000000	99.409731 
3534.000000	99.409789 
3533.000000	99.409803 
3532.000000	99.409734 
3531.000000	99.409926 
3530.000000	99.410564 
3529.000000	99.411296 
3528.000000	99.411548 
3527.000000	99.411132 
3526.000000	99.410396 
3525.000000	99.409840 
3524.000000	99.409704 
3523.000000	99.409900 
3522.000000	99.410250 
3521.000000	99.410649 
3520.000000	99.411095 
3519.000000	99.411631 
3518.000000	99.412315 
3517.000000	99.413119 
3516.000000	99.413826 
3515.000000	99.414158 
3514.000000	99.413990 
3513.000000	99.413475 
3512.000000	99.412939 
3511.000000	99.412651 
3510.000000	99.412686 
3509.000000	99.412964 
3508.000000	99.413376 
3507.000000	99.413876 
3506.000000	99.414464 
3505.000000	99.415062 
3504.000000	99.415465 
3503.000000	99.415509 
3502.000000	99.415363 
3501.000000	99.415522 
3500.000000	99.416384 
3499.000000	99.417859 
3498.000000	99.419325 
3497.000000	99.420116 
3496.000000	99.420002 
3495.000000	99.419197 
3494.000000	99.418133 
3493.000000	99.417174 
3492.000000	99.416519 
3491.000000	99.416250 
3490.000000	99.416394 
3489.000000	99.416984 
3488.000000	99.417968 
3487.000000	99.419046 
3486.000000	99.419759 
3485.000000	99.419874 
3484.000000	99.419590 
3483.000000	99.419306 
3482.000000	99.419167 
3481.000000	99.419002 
3480.000000	99.418672 
3479.000000	99.418283 
3478.000000	99.417987 
3477.000000	99.417784 
3476.000000	99.417699 
3475.000000	99.418017 
3474.000000	99.419085 
3473.000000	99.420787 
3472.000000	99.422391 
3471.000000	99.423165 
3470.000000	99.423106 
3469.000000	99.422873 
3468.000000	99.422988 
3467.000000	99.423225 
3466.000000	99.423032 
3465.000000	99.422355 
3464.000000	99.421760 
3463.000000	99.421761 
3462.000000	99.422291 
3461.000000	99.422957 
3460.000000	99.423575 
3459.000000	99.424272 
3458.000000	99.425145 
3457.000000	99.426000 
3456.000000	99.426508 
3455.000000	99.426484 
3454.000000	99.425975 
3453.000000	99.425247 
3452.000000	99.424564 
3451.000000	99.424007 
3450.000000	99.423517 
3449.000000	99.423052 
3448.000000	99.422589 
3447.000000	99.422035 
3446.000000	99.421302 
3445.000000	99.420556 
3444.000000	99.420199 
3443.000000	99.420464 
3442.000000	99.421089 
3441.000000	99.421485 
3440.000000	99.421292 
3439.000000	99.420622 
3438.000000	99.419820 
3437.000000	99.419092 
3436.000000	99.418467 
3435.000000	99.418014 
3434.000000	99.417912 
3433.000000	99.418265 
3432.000000	99.418874 
3431.000000	99.419287 
3430.000000	99.419182 
3429.000000	99.418703 
3428.000000	99.418348 
3427.000000	99.418442 
3426.000000	99.418743 
3425.000000	99.418669 
3424.000000	99.417895 
3423.000000	99.416652 
3422.000000	99.415454 
3421.000000	99.414613 
3420.000000	99.414165 
3419.000000	99.414130 
3418.000000	99.414590 
3417.000000	99.415441 
3416.000000	99.416286 
3415.000000	99.416711 
3414.000000	99.416627 
3413.000000	99.416300 
3412.000000	99.416107 
3411.000000	99.416273 
3410.000000	99.416737 
3409.000000	99.417186 
3408.000000	99.417221 
3407.000000	99.416611 
3406.000000	99.415465 
3405.000000	99.414206 
3404.000000	99.413352 
3403.000000	99.413223 
3402.000000	99.413794 
3401.000000	99.414824 
3400.000000	99.416117 
3399.000000	99.417624 
3398.000000	99.419253 
3397.000000	99.420685 
3396.000000	99.421482 
3395.000000	99.421367 
3394.000000	99.420347 
3393.000000	99.418623 
3392.000000	99.416546 
3391.000000	99.414676 
3390.000000	99.413689 
3389.000000	99.414044 
3388.000000	99.415696 
3387.000000	99.418078 
3386.000000	99.420448 
3385.000000	99.422344 
3384.000000	99.423672 
3383.000000	99.424455 
3382.000000	99.424598 
3381.000000	99.424002 
3380.000000	99.422871 
3379.000000	99.421779 
3378.000000	99.421272 
3377.000000	99.421398 
3376.000000	99.421711 
3375.000000	99.421750 
3374.000000	99.421499 
3373.000000	99.421323 
3372.000000	99.421511 
3371.000000	99.421969 
3370.000000	99.422353 
3369.000000	99.422408 
3368.000000	99.422162 
3367.000000	99.421875 
3366.000000	99.421848 
3365.000000	99.422192 
3364.000000	99.422739 
3363.000000	99.423183 
3362.000000	99.423367 
3361.000000	99.423379 
3360.000000	99.423347 
3359.000000	99.423260 
3358.000000	99.423060 
3357.000000	99.422853 
3356.000000	99.422865 
3355.000000	99.423166 
3354.000000	99.423535 
3353.000000	99.423673 
3352.000000	99.423508 
3351.000000	99.423220 
3350.000000	99.423061 
3349.000000	99.423142 
3348.000000	99.423413 
3347.000000	99.423733 
3346.000000	99.423937 
3345.000000	99.423916 
3344.000000	99.423663 
3343.000000	99.423294 
3342.000000	99.422977 
3341.000000	99.422774 
3340.000000	99.422599 
3339.000000	99.422332 
3338.000000	99.421999 
3337.000000	99.421794 
3336.000000	99.421877 
3335.000000	99.422185 
3334.000000	99.422506 
3333.000000	99.422760 
3332.000000	99.423070 
3331.000000	99.423526 
3330.000000	99.423985 
3329.000000	99.424176 
3328.000000	99.423981 
3327.000000	99.423550 
3326.000000	99.423118 
3325.000000	99.422789 
3324.000000	99.422493 
3323.000000	99.422145 
3322.000000	99.421802 
3321.000000	99.421638 
3320.000000	99.421757 
3319.000000	99.422087 
3318.000000	99.422447 
3317.000000	99.422711 
3316.000000	99.422838 
3315.000000	99.422807 
3314.000000	99.422610 
3313.000000	99.422341 
3312.000000	99.422183 
3311.000000	99.422237 
3310.000000	99.422421 
3309.000000	99.422530 
3308.000000	99.422433 
3307.000000	99.422151 
3306.000000	99.421800 
3305.000000	99.421495 
3304.000000	99.421280 
3303.000000	99.421130 
3302.000000	99.420985 
3301.000000	99.420800 
3300.000000	99.420570 
3299.000000	99.420320 
3298.000000	99.420081 
3297.000000	99.419860 
3296.000000	99.419642 
3295.000000	99.419412 
3294.000000	99.419164 
3293.000000	99.418898 
3292.000000	99.418615 
3291.000000	99.418321 
3290.000000	99.418017 
3289.000000	99.417704 
3288.000000	99.417385 
3287.000000	99.417066 
3286.000000	99.416752 
3285.000000	99.416443 
3284.000000	99.416134 
3283.000000	99.415818 
3282.000000	99.415494 
3281.000000	99.415163 
3280.000000	99.414830 
3279.000000	99.414497 
3278.000000	99.414165 
3277.000000	99.413830 
3276.000000	99.413493 
3275.000000	99.413157 
3274.000000	99.412816 
3273.000000	99.412466 
3272.000000	99.412119 
3271.000000	99.411799 
3270.000000	99.411519 
3269.000000	99.411263 
3268.000000	99.410988 
3267.000000	99.410660 
3266.000000	99.410273 
3265.000000	99.409856 
3264.000000	99.409489 
3263.000000	99.409279 
3262.000000	99.409297 
3261.000000	99.409477 
3260.000000	99.409611 
3259.000000	99.409480 
3258.000000	99.409001 
3257.000000	99.408281 
3256.000000	99.407518 
3255.000000	99.406813 
3254.000000	99.406130 
3253.000000	99.405456 
3252.000000	99.404967 
3251.000000	99.404905 
3250.000000	99.405275 
3249.000000	99.405752 
3248.000000	99.405966 
3247.000000	99.405801 
3246.000000	99.405354 
3245.000000	99.404741 
3244.000000	99.404022 
3243.000000	99.403270 
3242.000000	99.402587 
3241.000000	99.402049 
3240.000000	99.401759 
3239.000000	99.401896 
3238.000000	99.402624 
3237.000000	99.403865 
3236.000000	99.405206 
3235.000000	99.406122 
3234.000000	99.406287 
3233.000000	99.405725 
3232.000000	99.404770 
3231.000000	99.403875 
3230.000000	99.403372 
3229.000000	99.403300 
3228.000000	99.403401 
3227.000000	99.403277 
3226.000000	99.402668 
3225.000000	99.401669 
3224.000000	99.400685 
3223.000000	99.400093 
3222.000000	99.399922 
3221.000000	99.399876 
3220.000000	99.399650 
3219.000000	99.399197 
3218.000000	99.398730 
3217.000000	99.398582 
3216.000000	99.399046 
3215.000000	99.400182 
3214.000000	99.401634 
3213.000000	99.402710 
3212.000000	99.402843 
3211.000000	99.401954 
3210.000000	99.400468 
3209.000000	99.399051 
3208.000000	99.398247 
3207.000000	99.398274 
3206.000000	99.398974 
3205.000000	99.399896 
3204.000000	99.400610 
3203.000000	99.401025 
3202.000000	99.401326 
3201.000000	99.401662 
3200.000000	99.402016 
3199.000000	99.402385 
3198.000000	99.402906 
3197.000000	99.403688 
3196.000000	99.404601 
3195.000000	99.405337 
3194.000000	99.405634 
3193.000000	99.405405 
3192.000000	99.404703 
3191.000000	99.403698 
3190.000000	99.402633 
3189.000000	99.401739 
3188.000000	99.401182 
3187.000000	99.401061 
3186.000000	99.401386 
3185.000000	99.402045 
3184.000000	99.402875 
3183.000000	99.403781 
3182.000000	99.404766 
3181.000000	99.405843 
3180.000000	99.407062 
3179.000000	99.408542 
3178.000000	99.410196 
3177.000000	99.411418 
3176.000000	99.411487 
3175.000000	99.410510 
3174.000000	99.409592 
3173.000000	99.409627 
3172.000000	99.410119 
3171.000000	99.409820 
3170.000000	99.408422 
3169.000000	99.407032 
3168.000000	99.406770 
3167.000000	99.407526 
3166.000000	99.408499 
3165.000000	99.409330 
3164.000000	99.410191 
3163.000000	99.410987 
3162.000000	99.411153 
3161.000000	99.410380 
3160.000000	99.409170 
3159.000000	99.408359 
3158.000000	99.408151 
3157.000000	99.407855 
3156.000000	99.406667 
3155.000000	99.404521 
3154.000000	99.402064 
3153.000000	99.399877 
3152.000000	99.398028 
3151.000000	99.396480 
3150.000000	99.395624 
3149.000000	99.396012 
3148.000000	99.397646 
3147.000000	99.399815 
3146.000000	99.401715 
3145.000000	99.403036 
3144.000000	99.403919 
3143.000000	99.404615 
3142.000000	99.405299 
3141.000000	99.406009 
3140.000000	99.406579 
3139.000000	99.406717 
3138.000000	99.406292 
3137.000000	99.405532 
3136.000000	99.404907 
3135.000000	99.404815 
3134.000000	99.405338 
3133.000000	99.406170 
3132.000000	99.406735 
3131.000000	99.406582 
3130.000000	99.405801 
3129.000000	99.405034 
3128.000000	99.404944 
3127.000000	99.405650 
3126.000000	99.406697 
3125.000000	99.407434 
3124.000000	99.407513 
3123.000000	99.407022 
3122.000000	99.406329 
3121.000000	99.405809 
3120.000000	99.405613 
3119.000000	99.405652 
3118.000000	99.405751 
3117.000000	99.405816 
3116.000000	99.405868 
3115.000000	99.405972 
3114.000000	99.406163 
3113.000000	99.406408 
3112.000000	99.406617 
3111.000000	99.406728 
3110.000000	99.406795 
3109.000000	99.406967 
3108.000000	99.407309 
3107.000000	99.407653 
3106.000000	99.407694 
3105.000000	99.407264 
3104.000000	99.406525 
3103.000000	99.405910 
3102.000000	99.405788 
3101.000000	99.406156 
3100.000000	99.406684 
3099.000000	99.407115 
3098.000000	99.407629 
3097.000000	99.408717 
3096.000000	99.410596 
3095.000000	99.412673 
3094.000000	99.413784 
3093.000000	99.413122 
3092.000000	99.410886 
3091.000000	99.408103 
3090.000000	99.405990 
3089.000000	99.405475 
3088.000000	99.406683 
3087.000000	99.408500 
3086.000000	99.409149 
3085.000000	99.407821 
3084.000000	99.405476 
3083.000000	99.403570 
3082.000000	99.402394 
3081.000000	99.401305 
3080.000000	99.400336 
3079.000000	99.400669 
3078.000000	99.403415 
3077.000000	99.408421 
3076.000000	99.414284 
3075.000000	99.418970 
3074.000000	99.420556 
3073.000000	99.418318 
3072.000000	99.413480 
3071.000000	99.408316 
3070.000000	99.404115 
3069.000000	99.400411 
3068.000000	99.396440 
3067.000000	99.392794 
3066.000000	99.391148 
3065.000000	99.392640 
3064.000000	99.396712 
3063.000000	99.401195 
3062.000000	99.403374 
3061.000000	99.401616 
3060.000000	99.396628 
3059.000000	99.390999 
3058.000000	99.387245 
3057.000000	99.386347 
3056.000000	99.387914 
3055.000000	99.390934 
3054.000000	99.393880 
3053.000000	99.394822 
3052.000000	99.392294 
3051.000000	99.386233 
3050.000000	99.378059 
3049.000000	99.370052 
3048.000000	99.364296 
3047.000000	99.361116 
3046.000000	99.358052 
3045.000000	99.351396 
3044.000000	99.339854 
3043.000000	99.326344 
3042.000000	99.315333 
3041.000000	99.308366 
3040.000000	99.302870 
3039.000000	99.295056 
3038.000000	99.283105 
3037.000000	99.267628 
3036.000000	99.250067 
3035.000000	99.231370 
3034.000000	99.211818 
3033.000000	99.191196 
3032.000000	99.169222 
3031.000000	99.146116 
3030.000000	99.122430 
3029.000000	99.098587 
3028.000000	99.075206 
3027.000000	99.053238 
3026.000000	99.032761 
3025.000000	99.011741 
3024.000000	98.987064 
3023.000000	98.957345 
3022.000000	98.924239 
3021.000000	98.890469 
3020.000000	98.856840 
3019.000000	98.821694 
3018.000000	98.783377 
3017.000000	98.742679 
3016.000000	98.702395 
3015.000000	98.664489 
3014.000000	98.628348 
3013.000000	98.592148 
3012.000000	98.555381 
3011.000000	98.519007 
3010.000000	98.483210 
3009.000000	98.446318 
3008.000000	98.406639 
3007.000000	98.364520 
3006.000000	98.321691 
3005.000000	98.279113 
3004.000000	98.236552 
3003.000000	98.194074 
3002.000000	98.152825 
3001.000000	98.114009 
3000.000000	98.077696 
2999.000000	98.043088 
2998.000000	98.009966 
2997.000000	97.979853 
2996.000000	97.954964 
2995.000000	97.934083 
2994.000000	97.908645 
2993.000000	97.865579 
2992.000000	97.798270 
2991.000000	97.716197 
2990.000000	97.641622 
2989.000000	97.594551 
2988.000000	97.580802 
2987.000000	97.592859 
2986.000000	97.618284 
2985.000000	97.646248 
2984.000000	97.668895 
2983.000000	97.681577 
2982.000000	97.683937 
2981.000000	97.679606 
2980.000000	97.673422 
2979.000000	97.668610 
2978.000000	97.665852 
2977.000000	97.663581 
2976.000000	97.658979 
2975.000000	97.650177 
2974.000000	97.638703 
2973.000000	97.629462 
2972.000000	97.627666 
2971.000000	97.635742 
2970.000000	97.653037 
2969.000000	97.677507 
2968.000000	97.706908 
2967.000000	97.738839 
2966.000000	97.770795 
2965.000000	97.800923 
2964.000000	97.828708 
2963.000000	97.854622 
2962.000000	97.879039 
2961.000000	97.901603 
2960.000000	97.921819 
2959.000000	97.940173 
2958.000000	97.958270 
2957.000000	97.977528 
2956.000000	97.997876 
2955.000000	98.018151 
2954.000000	98.037862 
2953.000000	98.058213 
2952.000000	98.081042 
2951.000000	98.106602 
2950.000000	98.132377 
2949.000000	98.154261 
2948.000000	98.169120 
2947.000000	98.176581 
2946.000000	98.179188 
2945.000000	98.181173 
2944.000000	98.186197 
2943.000000	98.195431 
2942.000000	98.207200 
2941.000000	98.218276 
2940.000000	98.226117 
2939.000000	98.230747 
2938.000000	98.234557 
2937.000000	98.240192 
2936.000000	98.248529 
2935.000000	98.258137 
2934.000000	98.266096 
2933.000000	98.269504 
2932.000000	98.267114 
2931.000000	98.260062 
2930.000000	98.250993 
2929.000000	98.242336 
2928.000000	98.235204 
2927.000000	98.229375 
2926.000000	98.223701 
2925.000000	98.216807 
2924.000000	98.208261 
2923.000000	98.199275 
2922.000000	98.191586 
2921.000000	98.185405 
2920.000000	98.179103 
2919.000000	98.171088 
2918.000000	98.161283 
2917.000000	98.150263 
2916.000000	98.137676 
2915.000000	98.122375 
2914.000000	98.104162 
2913.000000	98.085023 
2912.000000	98.068564 
2911.000000	98.057898 
2910.000000	98.053374 
2909.000000	98.052100 
2908.000000	98.050119 
2907.000000	98.045043 
2906.000000	98.035644 
2905.000000	98.019364 
2904.000000	97.993127 
2903.000000	97.959420 
2902.000000	97.930526 
2901.000000	97.922995 
2900.000000	97.944834 
2899.000000	97.988816 
2898.000000	98.036956 
2897.000000	98.072938 
2896.000000	98.091530 
2895.000000	98.098120 
2894.000000	98.101950 
2893.000000	98.109472 
2892.000000	98.121906 
2891.000000	98.136611 
2890.000000	98.149933 
2889.000000	98.159338 
2888.000000	98.164356 
2887.000000	98.166858 
2886.000000	98.170515 
2885.000000	98.178988 
2884.000000	98.193888 
2883.000000	98.214457 
2882.000000	98.239110 
2881.000000	98.266701 
2880.000000	98.296144 
2879.000000	98.325746 
2878.000000	98.353762 
2877.000000	98.379426 
2876.000000	98.402771 
2875.000000	98.423680 
2874.000000	98.441828 
2873.000000	98.457544 
2872.000000	98.471988 
2871.000000	98.486163 
2870.000000	98.500385 
2869.000000	98.515248 
2868.000000	98.532637 
2867.000000	98.554898 
2866.000000	98.582644 
2865.000000	98.613771 
2864.000000	98.644985 
2863.000000	98.674268 
2862.000000	98.701646 
2861.000000	98.727994 
2860.000000	98.753958 
2859.000000	98.780205 
2858.000000	98.807599 
2857.000000	98.836131 
2856.000000	98.863891 
2855.000000	98.888072 
2854.000000	98.907549 
2853.000000	98.924201 
2852.000000	98.940879 
2851.000000	98.958511 
2850.000000	98.975987 
2849.000000	98.992192 
2848.000000	99.007133 
2847.000000	99.021310 
2846.000000	99.034907 
2845.000000	99.047750 
2844.000000	99.059459 
2843.000000	99.069543 
2842.000000	99.077963 
2841.000000	99.085881 
2840.000000	99.095245 
2839.000000	99.107093 
2838.000000	99.120437 
2837.000000	99.133095 
2836.000000	99.143471 
2835.000000	99.151462 
2834.000000	99.158028 
2833.000000	99.164246 
2832.000000	99.170521 
2831.000000	99.176276 
2830.000000	99.180404 
2829.000000	99.182406 
2828.000000	99.183235 
2827.000000	99.184857 
2826.000000	99.188800 
2825.000000	99.195012 
2824.000000	99.202050 
2823.000000	99.208306 
2822.000000	99.213155 
2821.000000	99.217118 
2820.000000	99.221029 
2819.000000	99.225099 
2818.000000	99.228793 
2817.000000	99.231584 
2816.000000	99.233618 
2815.000000	99.235490 
2814.000000	99.237464 
2813.000000	99.239133 
2812.000000	99.240062 
2811.000000	99.240737 
2810.000000	99.242610 
2809.000000	99.246844 
2808.000000	99.252928 
2807.000000	99.258773 
2806.000000	99.262450 
2805.000000	99.263691 
2804.000000	99.263648 
2803.000000	99.263506 
2802.000000	99.263751 
2801.000000	99.264549 
2800.000000	99.266090 
2799.000000	99.268282 
2798.000000	99.270468 
2797.000000	99.271799 
2796.000000	99.271849 
2795.000000	99.270925 
2794.000000	99.270018 
2793.000000	99.270352 
2792.000000	99.272486 
2791.000000	99.275730 
2790.000000	99.278828 
2789.000000	99.281324 
2788.000000	99.283862 
2787.000000	99.286981 
2786.000000	99.290148 
2785.000000	99.292326 
2784.000000	99.293112 
2783.000000	99.292918 
2782.000000	99.292387 
2781.000000	99.292040 
2780.000000	99.292285 
2779.000000	99.293263 
2778.000000	99.294709 
2777.000000	99.296359 
2776.000000	99.298436 
2775.000000	99.301306 
2774.000000	99.304677 
2773.000000	99.307571 
2772.000000	99.309309 
2771.000000	99.310167 
2770.000000	99.310852 
2769.000000	99.311608 
2768.000000	99.312159 
2767.000000	99.312404 
2766.000000	99.312721 
2765.000000	99.313441 
2764.000000	99.314264 
2763.000000	99.314485 
2762.000000	99.313792 
2761.000000	99.312722 
2760.000000	99.312243 
2759.000000	99.312883 
2758.000000	99.314416 
2757.000000	99.316305 
2756.000000	99.318219 
2755.000000	99.319977 
2754.000000	99.321250 
2753.000000	99.321761 
2752.000000	99.321812 
2751.000000	99.322240 
2750.000000	99.323623 
2749.000000	99.325710 
2748.000000	99.327748 
2747.000000	99.329253 
2746.000000	99.330313 
2745.000000	99.331200 
2744.000000	99.331986 
2743.000000	99.332605 
2742.000000	99.333169 
2741.000000	99.334045 
2740.000000	99.335520 
2739.000000	99.337434 
2738.000000	99.339259 
2737.000000	99.340617 
2736.000000	99.341652 
2735.000000	99.342766 
2734.000000	99.344070 
2733.000000	99.345282 
2732.000000	99.346164 
2731.000000	99.346830 
2730.000000	99.347538 
2729.000000	99.348368 
2728.000000	99.349240 
2727.000000	99.350126 
2726.000000	99.351070 
2725.000000	99.352078 
2724.000000	99.353100 
2723.000000	99.354160 
2722.000000	99.355387 
2721.000000	99.356852 
2720.000000	99.358401 
2719.000000	99.359726 
2718.000000	99.360635 
2717.000000	99.361191 
2716.000000	99.361616 
2715.000000	99.362119 
2714.000000	99.362806 
2713.000000	99.363709 
2712.000000	99.364811 
2711.000000	99.366007 
2710.000000	99.367146 
2709.000000	99.368169 
2708.000000	99.369155 
2707.000000	99.370161 
2706.000000	99.371091 
2705.000000	99.371819 
2704.000000	99.372407 
2703.000000	99.373066 
2702.000000	99.373875 
2701.000000	99.374681 
2700.000000	99.375332 
2699.000000	99.375881 
2698.000000	99.376498 
2697.000000	99.377238 
2696.000000	99.378002 
2695.000000	99.378662 
2694.000000	99.379182 
2693.000000	99.379629 
2692.000000	99.380124 
2691.000000	99.380728 
2690.000000	99.381375 
2689.000000	99.381932 
2688.000000	99.382359 
2687.000000	99.382746 
2686.000000	99.383210 
2685.000000	99.383769 
2684.000000	99.384375 
2683.000000	99.384986 
2682.000000	99.385558 
2681.000000	99.386008 
2680.000000	99.386280 
2679.000000	99.386422 
2678.000000	99.386574 
2677.000000	99.386863 
2676.000000	99.387321 
2675.000000	99.387916 
2674.000000	99.388568 
2673.000000	99.389164 
2672.000000	99.389624 
2671.000000	99.389948 
2670.000000	99.390210 
2669.000000	99.390481 
2668.000000	99.390775 
2667.000000	99.391081 
2666.000000	99.391412 
2665.000000	99.391793 
2664.000000	99.392221 
2663.000000	99.392658 
2662.000000	99.393069 
2661.000000	99.393441 
2660.000000	99.393785 
2659.000000	99.394115 
2658.000000	99.394427 
2657.000000	99.394716 
2656.000000	99.394997 
2655.000000	99.395299 
2654.000000	99.395630 
2653.000000	99.395958 
2652.000000	99.396266 
2651.000000	99.396603 
2650.000000	99.397034 
2649.000000	99.397555 
2648.000000	99.398064 
2647.000000	99.398475 
2646.000000	99.398825 
2645.000000	99.399231 
2644.000000	99.399736 
2643.000000	99.400243 
2642.000000	99.400609 
2641.000000	99.400785 
2640.000000	99.400856 
2639.000000	99.400988 
2638.000000	99.401304 
2637.000000	99.401765 
2636.000000	99.402184 
2635.000000	99.402406 
2634.000000	99.402478 
2633.000000	99.402610 
2632.000000	99.402984 
2631.000000	99.403621 
2630.000000	99.404385 
2629.000000	99.405056 
2628.000000	99.405465 
2627.000000	99.405616 
2626.000000	99.405701 
2625.000000	99.405939 
2624.000000	99.406351 
2623.000000	99.406766 
2622.000000	99.407033 
2621.000000	99.407174 
2620.000000	99.407319 
2619.000000	99.407564 
2618.000000	99.407934 
2617.000000	99.408429 
2616.000000	99.409051 
2615.000000	99.409792 
2614.000000	99.410622 
2613.000000	99.411482 
2612.000000	99.412275 
2611.000000	99.412883 
2610.000000	99.413208 
2609.000000	99.413212 
2608.000000	99.412950 
2607.000000	99.412592 
2606.000000	99.412394 
2605.000000	99.412599 
2604.000000	99.413307 
2603.000000	99.414361 
2602.000000	99.415360 
2601.000000	99.415949 
2600.000000	99.416194 
2599.000000	99.416523 
2598.000000	99.417110 
2597.000000	99.417429 
2596.000000	99.416792 
2595.000000	99.415206 
2594.000000	99.413535 
2593.000000	99.412687 
2592.000000	99.412828 
2591.000000	99.413564 
2590.000000	99.414536 
2589.000000	99.415660 
2588.000000	99.416796 
2587.000000	99.417538 
2586.000000	99.417577 
2585.000000	99.417114 
2584.000000	99.416751 
2583.000000	99.416852 
2582.000000	99.417148 
2581.000000	99.417068 
2580.000000	99.416408 
2579.000000	99.415548 
2578.000000	99.414986 
2577.000000	99.414794 
2576.000000	99.414636 
2575.000000	99.414223 
2574.000000	99.413602 
2573.000000	99.413016 
2572.000000	99.412676 
2571.000000	99.412702 
2570.000000	99.413123 
2569.000000	99.413813 
2568.000000	99.414505 
2567.000000	99.414964 
2566.000000	99.415117 
2565.000000	99.414991 
2564.000000	99.414663 
2563.000000	99.414285 
2562.000000	99.414067 
2561.000000	99.414092 
2560.000000	99.414165 
2559.000000	99.413930 
2558.000000	99.413198 
2557.000000	99.412170 
2556.000000	99.411379 
2555.000000	99.411316 
2554.000000	99.412042 
2553.000000	99.412980 
2552.000000	99.413319 
2551.000000	99.412785 
2550.000000	99.411794 
2549.000000	99.410904 
2548.000000	99.410222 
2547.000000	99.409557 
2546.000000	99.408881 
2545.000000	99.408394 
2544.000000	99.408238 
2543.000000	99.408299 
2542.000000	99.408223 
2541.000000	99.407624 
2540.000000	99.406428 
2539.000000	99.405124 
2538.000000	99.404415 
2537.000000	99.404445 
2536.000000	99.404562 
2535.000000	99.404112 
2534.000000	99.403218 
2533.000000	99.402482 
2532.000000	99.402080 
2531.000000	99.401642 
2530.000000	99.400978 
2529.000000	99.400451 
2528.000000	99.400399 
2527.000000	99.400556 
2526.000000	99.400339 
2525.000000	99.399628 
2524.000000	99.398993 
2523.000000	99.399104 
2522.000000	99.400058 
2521.000000	99.401353 
2520.000000	99.402387 
2519.000000	99.402853 
2518.000000	99.402649 
2517.000000	99.401661 
2516.000000	99.399899 
2515.000000	99.397832 
2514.000000	99.396325 
2513.000000	99.396121 
2512.000000	99.397448 
2511.000000	99.399978 
2510.000000	99.402933 
2509.000000	99.405342 
2508.000000	99.406656 
2507.000000	99.407204 
2506.000000	99.407732 
2505.000000	99.408399 
2504.000000	99.408553 
2503.000000	99.407710 
2502.000000	99.406298 
2501.000000	99.405227 
2500.000000	99.405027 
2499.000000	99.405688 
2498.000000	99.406984 
2497.000000	99.408497 
2496.000000	99.409571 
2495.000000	99.409746 
2494.000000	99.409195 
2493.000000	99.408453 
2492.000000	99.407805 
2491.000000	99.407273 
2490.000000	99.407099 
2489.000000	99.407761 
2488.000000	99.409417 
2487.000000	99.411606 
2486.000000	99.413500 
2485.000000	99.414408 
2484.000000	99.414069 
2483.000000	99.412772 
2482.000000	99.411272 
2481.000000	99.410219 
2480.000000	99.409627 
2479.000000	99.409110 
2478.000000	99.408524 
2477.000000	99.408114 
2476.000000	99.408060 
2475.000000	99.408246 
2474.000000	99.408525 
2473.000000	99.408861 
2472.000000	99.409097 
2471.000000	99.408954 
2470.000000	99.408406 
2469.000000	99.407822 
2468.000000	99.407547 
2467.000000	99.407506 
2466.000000	99.407415 
2465.000000	99.407214 
2464.000000	99.407055 
2463.000000	99.406979 
2462.000000	99.406880 
2461.000000	99.406706 
2460.000000	99.406473 
2459.000000	99.406125 
2458.000000	99.405545 
2457.000000	99.404799 
2456.000000	99.404181 
2455.000000	99.403935 
2454.000000	99.404060 
2453.000000	99.404383 
2452.000000	99.404654 
2451.000000	99.404585 
2450.000000	99.403959 
2449.000000	99.402865 
2448.000000	99.401755 
2447.000000	99.401099 
2446.000000	99.401042 
2445.000000	99.401405 
2444.000000	99.401906 
2443.000000	99.402285 
2442.000000	99.402307 
2441.000000	99.401881 
2440.000000	99.401210 
2439.000000	99.400696 
2438.000000	99.400640 
2437.000000	99.401014 
2436.000000	99.401529 
2435.000000	99.401858 
2434.000000	99.401829 
2433.000000	99.401533 
2432.000000	99.401335 
2431.000000	99.401696 
2430.000000	99.402762 
2429.000000	99.404010 
2428.000000	99.404461 
2427.000000	99.403550 
2426.000000	99.401780 
2425.000000	99.400422 
2424.000000	99.400302 
2423.000000	99.401191 
2422.000000	99.402401 
2421.000000	99.403591 
2420.000000	99.404624 
2419.000000	99.404947 
2418.000000	99.403921 
2417.000000	99.401770 
2416.000000	99.399598 
2415.000000	99.398136 
2414.000000	99.397036 
2413.000000	99.395719 
2412.000000	99.394342 
2411.000000	99.393458 
2410.000000	99.393127 
2409.000000	99.392956 
2408.000000	99.392801 
2407.000000	99.392830 
2406.000000	99.392978 
2405.000000	99.392944 
2404.000000	99.392744 
2403.000000	99.392747 
2402.000000	99.393112 
2401.000000	99.393534 
2400.000000	99.393610 
2399.000000	99.393171 
2398.000000	99.392245 
2397.000000	99.391030 
2396.000000	99.389989 
2395.000000	99.389622 
2394.000000	99.389955 
2393.000000	99.390448 
2392.000000	99.390600 
2391.000000	99.390437 
2390.000000	99.390277 
2389.000000	99.390289 
2388.000000	99.390449 
2387.000000	99.390729 
2386.000000	99.391066 
2385.000000	99.391294 
2384.000000	99.391288 
2383.000000	99.391131 
2382.000000	99.391029 
2381.000000	99.391074 
2380.000000	99.391178 
2379.000000	99.391240 
2378.000000	99.391265 
2377.000000	99.391309 
2376.000000	99.391378 
2375.000000	99.391454 
2374.000000	99.391533 
2373.000000	99.391623 
2372.000000	99.391723 
2371.000000	99.391831 
2370.000000	99.391949 
2369.000000	99.392075 
2368.000000	99.392209 
2367.000000	99.392349 
2366.000000	99.392492 
2365.000000	99.392634 
2364.000000	99.392773 
2363.000000	99.392897 
2362.000000	99.392999 
2361.000000	99.393073 
2360.000000	99.393126 
2359.000000	99.393169 
2358.000000	99.393213 
2357.000000	99.393269 
2356.000000	99.393344 
2355.000000	99.393439 
2354.000000	99.393546 
2353.000000	99.393651 
2352.000000	99.393735 
2351.000000	99.393789 
2350.000000	99.393813 
2349.000000	99.393819 
2348.000000	99.393820 
2347.000000	99.393829 
2346.000000	99.393848 
2345.000000	99.393872 
2344.000000	99.393898 
2343.000000	99.393930 
2342.000000	99.393976 
2341.000000	99.394042 
2340.000000	99.394137 
2339.000000	99.394269 
2338.000000	99.394441 
2337.000000	99.394645 
2336.000000	99.394862 
2335.000000	99.395081 
2334.000000	99.395305 
2333.000000	99.395546 
2332.000000	99.395810 
2331.000000	99.396096 
2330.000000	99.396402 
2329.000000	99.396723 
2328.000000	99.397043 
2327.000000	99.397376 
2326.000000	99.397749 
2325.000000	99.398144 
2324.000000	99.398449 
2323.000000	99.398596 
2322.000000	99.398714 
2321.000000	99.398976 
2320.000000	99.399275 
2319.000000	99.399371 
2318.000000	99.399268 
2317.000000	99.399358 
2316.000000	99.399856 
2315.000000	99.400687 
2314.000000	99.401557 
2313.000000	99.402430 
2312.000000	99.403258 
2311.000000	99.403992 
2310.000000	99.404421 
2309.000000	99.404537 
2308.000000	99.404513 
2307.000000	99.404733 
2306.000000	99.405341 
2305.000000	99.406273 
2304.000000	99.407406 
2303.000000	99.408865 
2302.000000	99.410580 
2301.000000	99.412180 
2300.000000	99.413325 
2299.000000	99.414358 
2298.000000	99.415705 
2297.000000	99.417131 
2296.000000	99.417692 
2295.000000	99.417017 
2294.000000	99.415782 
2293.000000	99.415133 
2292.000000	99.415586 
2291.000000	99.416949 
2290.000000	99.418690 
2289.000000	99.420204 
2288.000000	99.421069 
2287.000000	99.421281 
2286.000000	99.421193 
2285.000000	99.420953 
2284.000000	99.420344 
2283.000000	99.419307 
2282.000000	99.418395 
2281.000000	99.418327 
2280.000000	99.419239 
2279.000000	99.420655 
2278.000000	99.422003 
2277.000000	99.423007 
2276.000000	99.423657 
2275.000000	99.423989 
2274.000000	99.424041 
2273.000000	99.423878 
2272.000000	99.423618 
2271.000000	99.423498 
2270.000000	99.423800 
2269.000000	99.424628 
2268.000000	99.425772 
2267.000000	99.426891 
2266.000000	99.427781 
2265.000000	99.428316 
2264.000000	99.428260 
2263.000000	99.427428 
2262.000000	99.426104 
2261.000000	99.425031 
2260.000000	99.424791 
2259.000000	99.425252 
2258.000000	99.425746 
2257.000000	99.425860 
2256.000000	99.425836 
2255.000000	99.426125 
2254.000000	99.426778 
2253.000000	99.427438 
2252.000000	99.427841 
2251.000000	99.428106 
2250.000000	99.428437 
2249.000000	99.428779 
2248.000000	99.428922 
2247.000000	99.428890 
2246.000000	99.428878 
2245.000000	99.428984 
2244.000000	99.429150 
2243.000000	99.429359 
2242.000000	99.429672 
2241.000000	99.430106 
2240.000000	99.430621 
2239.000000	99.431218 
2238.000000	99.431870 
2237.000000	99.432376 
2236.000000	99.432485 
2235.000000	99.432219 
2234.000000	99.431859 
2233.000000	99.431670 
2232.000000	99.431675 
2231.000000	99.431772 
2230.000000	99.431893 
2229.000000	99.432029 
2228.000000	99.432199 
2227.000000	99.432407 
2226.000000	99.432635 
2225.000000	99.432869 
2224.000000	99.433114 
2223.000000	99.433361 
2222.000000	99.433607 
2221.000000	99.433846 
2220.000000	99.434075 
2219.000000	99.434296 
2218.000000	99.434516 
2217.000000	99.434744 
2216.000000	99.434974 
2215.000000	99.435189 
2214.000000	99.435374 
2213.000000	99.435524 
2212.000000	99.435655 
2211.000000	99.435795 
2210.000000	99.435971 
2209.000000	99.436203 
2208.000000	99.436493 
2207.000000	99.436828 
2206.000000	99.437188 
2205.000000	99.437564 
2204.000000	99.437972 
2203.000000	99.438437 
2202.000000	99.438957 
2201.000000	99.439587 
2200.000000	99.440327 
2199.000000	99.440986 
2198.000000	99.441384 
2197.000000	99.441549 
2196.000000	99.441653 
2195.000000	99.441883 
2194.000000	99.442400 
2193.000000	99.443223 
2192.000000	99.444082 
2191.000000	99.444680 
2190.000000	99.445217 
2189.000000	99.446355 
2188.000000	99.448252 
2187.000000	99.449760 
2186.000000	99.449152 
2185.000000	99.445793 
2184.000000	99.441069 
2183.000000	99.437519 
2182.000000	99.436749 
2181.000000	99.438405 
2180.000000	99.440783 
2179.000000	99.442375 
2178.000000	99.442762 
2177.000000	99.442354 
2176.000000	99.441738 
2175.000000	99.441211 
2174.000000	99.440748 
2173.000000	99.440555 
2172.000000	99.441655 
2171.000000	99.445361 
2170.000000	99.451627 
2169.000000	99.458245 
2168.000000	99.462460 
2167.000000	99.463325 
2166.000000	99.461854 
2165.000000	99.459460 
2164.000000	99.457372 
2163.000000	99.457249 
2162.000000	99.460297 
2161.000000	99.464622 
2160.000000	99.465137 
2159.000000	99.458179 
2158.000000	99.445329 
2157.000000	99.431981 
2156.000000	99.422308 
2155.000000	99.417218 
2154.000000	99.416391 
2153.000000	99.419410 
2152.000000	99.424805 
2151.000000	99.429678 
2150.000000	99.431591 
2149.000000	99.430744 
2148.000000	99.429791 
2147.000000	99.431109 
2146.000000	99.434198 
2145.000000	99.436066 
2144.000000	99.434495 
2143.000000	99.430478 
2142.000000	99.427011 
2141.000000	99.425611 
2140.000000	99.424997 
2139.000000	99.423432 
2138.000000	99.421293 
2137.000000	99.420446 
2136.000000	99.421594 
2135.000000	99.423414 
2134.000000	99.424412 
2133.000000	99.424698 
2132.000000	99.425340 
2131.000000	99.426511 
2130.000000	99.427004 
2129.000000	99.425580 
2128.000000	99.422432 
2127.000000	99.419186 
2126.000000	99.417576 
2125.000000	99.418230 
2124.000000	99.420562 
2123.000000	99.423452 
2122.000000	99.425916 
2121.000000	99.427482 
2120.000000	99.428241 
2119.000000	99.428645 
2118.000000	99.429079 
2117.000000	99.429601 
2116.000000	99.430131 
2115.000000	99.430749 
2114.000000	99.431506 
2113.000000	99.432116 
2112.000000	99.432217 
2111.000000	99.431887 
2110.000000	99.431668 
2109.000000	99.432056 
2108.000000	99.432930 
2107.000000	99.433552 
2106.000000	99.433282 
2105.000000	99.432260 
2104.000000	99.431412 
2103.000000	99.431654 
2102.000000	99.433076 
2101.000000	99.434897 
2100.000000	99.436264 
2099.000000	99.436948 
2098.000000	99.437212 
2097.000000	99.437386 
2096.000000	99.437694 
2095.000000	99.438298 
2094.000000	99.439221 
2093.000000	99.440232 
2092.000000	99.441003 
2091.000000	99.441463 
2090.000000	99.441883 
2089.000000	99.442552 
2088.000000	99.443428 
2087.000000	99.444183 
2086.000000	99.444567 
2085.000000	99.444716 
2084.000000	99.445107 
2083.000000	99.446177 
2082.000000	99.447894 
2081.000000	99.449699 
2080.000000	99.451026 
2079.000000	99.451858 
2078.000000	99.452685 
2077.000000	99.453913 
2076.000000	99.455392 
2075.000000	99.456593 
2074.000000	99.457066 
2073.000000	99.456713 
2072.000000	99.455876 
2071.000000	99.455171 
2070.000000	99.455069 
2069.000000	99.455566 
2068.000000	99.456239 
2067.000000	99.456659 
2066.000000	99.456699 
2065.000000	99.456574 
2064.000000	99.456749 
2063.000000	99.457629 
2062.000000	99.459114 
2061.000000	99.460484 
2060.000000	99.461050 
2059.000000	99.460866 
2058.000000	99.460662 
2057.000000	99.461041 
2056.000000	99.461880 
2055.000000	99.462644 
2054.000000	99.463103 
2053.000000	99.463469 
2052.000000	99.463956 
2051.000000	99.464476 
2050.000000	99.464792 
2049.000000	99.464805 
2048.000000	99.464672 
2047.000000	99.464714 
2046.000000	99.465160 
2045.000000	99.465868 
2044.000000	99.466286 
2043.000000	99.465978 
2042.000000	99.465095 
2041.000000	99.464240 
2040.000000	99.463799 
2039.000000	99.463620 
2038.000000	99.463355 
2037.000000	99.462852 
2036.000000	99.462177 
2035.000000	99.461391 
2034.000000	99.460452 
2033.000000	99.459348 
2032.000000	99.458253 
2031.000000	99.457461 
2030.000000	99.457133 
2029.000000	99.457145 
2028.000000	99.457074 
2027.000000	99.456560 
2026.000000	99.455565 
2025.000000	99.454336 
2024.000000	99.453253 
2023.000000	99.452598 
2022.000000	99.452412 
2021.000000	99.452397 
2020.000000	99.452104 
2019.000000	99.451383 
2018.000000	99.450517 
2017.000000	99.449801 
2016.000000	99.449094 
2015.000000	99.448085 
2014.000000	99.446783 
2013.000000	99.445435 
2012.000000	99.444128 
2011.000000	99.442888 
2010.000000	99.442050 
2009.000000	99.442106 
2008.000000	99.443092 
2007.000000	99.444434 
2006.000000	99.445420 
2005.000000	99.445653 
2004.000000	99.445128 
2003.000000	99.444149 
2002.000000	99.443143 
2001.000000	99.442269 
2000.000000	99.441254 
1999.000000	99.439798 
1998.000000	99.437978 
1997.000000	99.436027 
1996.000000	99.434012 
1995.000000	99.432152 
1994.000000	99.431233 
1993.000000	99.432104 
1992.000000	99.434562 
1991.000000	99.437074 
1990.000000	99.437986 
1989.000000	99.436817 
1988.000000	99.434681 
1987.000000	99.433861 
1986.000000	99.436361 
1985.000000	99.442300 
1984.000000	99.449253 
1983.000000	99.453707 
1982.000000	99.453604 
1981.000000	99.449418 
1980.000000	99.443833 
1979.000000	99.439974 
1978.000000	99.439027 
1977.000000	99.439374 
1976.000000	99.438343 
1975.000000	99.434886 
1974.000000	99.430171 
1973.000000	99.426096 
1972.000000	99.424031 
1971.000000	99.424731 
1970.000000	99.428412 
1969.000000	99.434402 
1968.000000	99.441074 
1967.000000	99.446477 
1966.000000	99.449197 
1965.000000	99.448967 
1964.000000	99.446858 
1963.000000	99.444698 
1962.000000	99.443766 
1961.000000	99.443890 
1960.000000	99.443910 
1959.000000	99.442565 
1958.000000	99.438801 
1957.000000	99.432218 
1956.000000	99.423903 
1955.000000	99.416066 
1954.000000	99.410099 
1953.000000	99.405526 
1952.000000	99.401377 
1951.000000	99.398015 
1950.000000	99.396791 
1949.000000	99.398253 
1948.000000	99.401613 
1947.000000	99.405518 
1946.000000	99.408151 
1945.000000	99.407176 
1944.000000	99.401515 
1943.000000	99.393634 
1942.000000	99.388251 
1941.000000	99.387285 
1940.000000	99.388277 
1939.000000	99.388056 
1938.000000	99.386008 
1937.000000	99.383601 
1936.000000	99.382365 
1935.000000	99.382836 
1934.000000	99.384510 
1933.000000	99.386089 
1932.000000	99.386329 
1931.000000	99.385567 
1930.000000	99.385750 
1929.000000	99.388062 
1928.000000	99.391225 
1927.000000	99.392982 
1926.000000	99.392608 
1925.000000	99.391026 
1924.000000	99.389362 
1923.000000	99.388230 
1922.000000	99.387995 
1921.000000	99.388671 
1920.000000	99.389623 
1919.000000	99.389976 
1918.000000	99.389434 
1917.000000	99.388483 
1916.000000	99.387825 
1915.000000	99.387831 
1914.000000	99.388448 
1913.000000	99.389317 
1912.000000	99.389961 
1911.000000	99.390146 
1910.000000	99.390019 
1909.000000	99.389857 
1908.000000	99.389791 
1907.000000	99.389821 
1906.000000	99.389948 
1905.000000	99.390156 
1904.000000	99.390338 
1903.000000	99.390344 
1902.000000	99.390131 
1901.000000	99.389819 
1900.000000	99.389591 
1899.000000	99.389570 
1898.000000	99.389760 
1897.000000	99.390056 
1896.000000	99.390311 
1895.000000	99.390471 
1894.000000	99.390608 
1893.000000	99.390812 
1892.000000	99.391075 
1891.000000	99.391287 
1890.000000	99.391360 
1889.000000	99.391334 
1888.000000	99.391332 
1887.000000	99.391432 
1886.000000	99.391646 
1885.000000	99.391917 
1884.000000	99.392129 
1883.000000	99.392203 
1882.000000	99.392187 
1881.000000	99.392148 
1880.000000	99.392069 
1879.000000	99.391926 
1878.000000	99.391742 
1877.000000	99.391480 
1876.000000	99.391068 
1875.000000	99.390701 
1874.000000	99.390908 
1873.000000	99.391993 
1872.000000	99.393518 
1871.000000	99.394623 
1870.000000	99.394910 
1869.000000	99.394633 
1868.000000	99.393933 
1867.000000	99.392599 
1866.000000	99.390817 
1865.000000	99.389286 
1864.000000	99.388734 
1863.000000	99.389635 
1862.000000	99.392034 
1861.000000	99.395250 
1860.000000	99.397958 
1859.000000	99.399268 
1858.000000	99.399512 
1857.000000	99.399638 
1856.000000	99.400112 
1855.000000	99.400882 
1854.000000	99.401938 
1853.000000	99.403155 
1852.000000	99.403974 
1851.000000	99.403851 
1850.000000	99.402955 
1849.000000	99.402096 
1848.000000	99.401906 
1847.000000	99.402365 
1846.000000	99.403121 
1845.000000	99.403756 
1844.000000	99.403778 
1843.000000	99.403092 
1842.000000	99.402513 
1841.000000	99.402854 
1840.000000	99.404209 
1839.000000	99.406116 
1838.000000	99.407994 
1837.000000	99.409419 
1836.000000	99.410208 
1835.000000	99.410558 
1834.000000	99.410952 
1833.000000	99.411750 
1832.000000	99.412961 
1831.000000	99.414097 
1830.000000	99.414517 
1829.000000	99.414218 
1828.000000	99.413975 
1827.000000	99.414161 
1826.000000	99.414331 
1825.000000	99.414253 
1824.000000	99.414258 
1823.000000	99.414581 
1822.000000	99.414997 
1821.000000	99.415051 
1820.000000	99.414458 
1819.000000	99.413280 
1818.000000	99.412102 
1817.000000	99.411646 
1816.000000	99.411783 
1815.000000	99.411660 
1814.000000	99.411126 
1813.000000	99.411243 
1812.000000	99.413003 
1811.000000	99.415938 
1810.000000	99.418825 
1809.000000	99.421159 
1808.000000	99.422651 
1807.000000	99.422724 
1806.000000	99.421375 
1805.000000	99.419542 
1804.000000	99.418136 
1803.000000	99.417239 
1802.000000	99.416668 
1801.000000	99.416684 
1800.000000	99.417150 
1799.000000	99.417221 
1798.000000	99.416736 
1797.000000	99.416445 
1796.000000	99.416817 
1795.000000	99.417583 
1794.000000	99.418247 
1793.000000	99.418647 
1792.000000	99.418888 
1791.000000	99.418922 
1790.000000	99.418901 
1789.000000	99.419155 
1788.000000	99.419731 
1787.000000	99.420414 
1786.000000	99.420975 
1785.000000	99.421280 
1784.000000	99.421285 
1783.000000	99.421183 
1782.000000	99.421303 
1781.000000	99.421773 
1780.000000	99.422317 
1779.000000	99.422567 
1778.000000	99.422577 
1777.000000	99.422696 
1776.000000	99.423126 
1775.000000	99.423809 
1774.000000	99.424577 
1773.000000	99.425312 
1772.000000	99.425950 
1771.000000	99.426391 
1770.000000	99.426640 
1769.000000	99.426790 
1768.000000	99.426979 
1767.000000	99.427276 
1766.000000	99.427664 
1765.000000	99.428145 
1764.000000	99.428717 
1763.000000	99.429339 
1762.000000	99.429927 
1761.000000	99.430455 
1760.000000	99.430994 
1759.000000	99.431578 
1758.000000	99.432117 
1757.000000	99.432530 
1756.000000	99.432889 
1755.000000	99.433300 
1754.000000	99.433685 
1753.000000	99.433880 
1752.000000	99.434001 
1751.000000	99.434510 
1750.000000	99.435589 
1749.000000	99.436799 
1748.000000	99.437697 
1747.000000	99.438273 
1746.000000	99.438642 
1745.000000	99.438854 
1744.000000	99.439043 
1743.000000	99.439327 
1742.000000	99.439627 
1741.000000	99.439832 
1740.000000	99.439989 
1739.000000	99.440192 
1738.000000	99.440411 
1737.000000	99.440525 
1736.000000	99.440350 
1735.000000	99.439830 
1734.000000	99.439377 
1733.000000	99.439367 
1732.000000	99.439803 
1731.000000	99.440475 
1730.000000	99.441091 
1729.000000	99.441416 
1728.000000	99.441483 
1727.000000	99.441504 
1726.000000	99.441589 
1725.000000	99.441691 
1724.000000	99.441756 
1723.000000	99.441847 
1722.000000	99.442066 
1721.000000	99.442413 
1720.000000	99.442730 
1719.000000	99.442787 
1718.000000	99.442499 
1717.000000	99.442077 
1716.000000	99.441716 
1715.000000	99.441397 
1714.000000	99.441153 
1713.000000	99.441017 
1712.000000	99.440919 
1711.000000	99.440796 
1710.000000	99.440653 
1709.000000	99.440519 
1708.000000	99.440391 
1707.000000	99.440243 
1706.000000	99.440071 
1705.000000	99.439879 
1704.000000	99.439649 
1703.000000	99.439381 
1702.000000	99.439105 
1701.000000	99.438848 
1700.000000	99.438620 
1699.000000	99.438420 
1698.000000	99.438245 
1697.000000	99.438085 
1696.000000	99.437930 
1695.000000	99.437774 
1694.000000	99.437615 
1693.000000	99.437454 
1692.000000	99.437286 
1691.000000	99.437105 
1690.000000	99.436907 
1689.000000	99.436692 
1688.000000	99.436461 
1687.000000	99.436216 
1686.000000	99.435962 
1685.000000	99.435710 
1684.000000	99.435465 
1683.000000	99.435226 
1682.000000	99.434988 
1681.000000	99.434748 
1680.000000	99.434502 
1679.000000	99.434255 
1678.000000	99.434010 
1677.000000	99.433768 
1676.000000	99.433529 
1675.000000	99.433317 
1674.000000	99.433125 
1673.000000	99.432927 
1672.000000	99.432721 
1671.000000	99.432549 
1670.000000	99.432476 
1669.000000	99.432421 
1668.000000	99.432280 
1667.000000	99.432150 
1666.000000	99.432001 
1665.000000	99.431660 
1664.000000	99.431152 
1663.000000	99.430911 
1662.000000	99.431261 
1661.000000	99.431904 
1660.000000	99.432333 
1659.000000	99.432521 
1658.000000	99.432745 
1657.000000	99.432992 
1656.000000	99.432619 
1655.000000	99.431206 
1654.000000	99.429881 
1653.000000	99.430476 
1652.000000	99.430536 
1651.000000	99.430263 
1650.000000	99.429815 
1649.000000	99.428940 
1648.000000	99.427335 
1647.000000	99.425464 
1646.000000	99.423924 
1645.000000	99.423591 
1644.000000	99.424730 
1643.000000	99.426511 
1642.000000	99.427980 
1641.000000	99.428798 
1640.000000	99.429134 
1639.000000	99.429225 
1638.000000	99.429161 
1637.000000	99.428989 
1636.000000	99.428816 
1635.000000	99.428682 
1634.000000	99.429131 
1633.000000	99.430392 
1632.000000	99.431627 
1631.000000	99.432505 
1630.000000	99.433257 
1629.000000	99.433825 
1628.000000	99.433645 
1627.000000	99.432936 
1626.000000	99.432765 
1625.000000	99.433762 
1624.000000	99.435646 
1623.000000	99.437856 
1622.000000	99.439913 
1621.000000	99.441523 
1620.000000	99.442482 
1619.000000	99.442719 
1618.000000	99.442645 
1617.000000	99.442658 
1616.000000	99.442353 
1615.000000	99.442085 
1614.000000	99.442331 
1613.000000	99.442198 
1612.000000	99.441279 
1611.000000	99.440472 
1610.000000	99.440686 
1609.000000	99.441307 
1608.000000	99.441465 
1607.000000	99.441614 
1606.000000	99.442348 
1605.000000	99.443391 
1604.000000	99.444578 
1603.000000	99.446328 
1602.000000	99.448464 
1601.000000	99.450002 
1600.000000	99.450586 
1599.000000	99.451021 
1598.000000	99.451985 
1597.000000	99.453240 
1596.000000	99.454317 
1595.000000	99.455267 
1594.000000	99.456306 
1593.000000	99.457212 
1592.000000	99.457715 
1591.000000	99.458052 
1590.000000	99.458643 
1589.000000	99.459452 
1588.000000	99.460145 
1587.000000	99.460615 
1586.000000	99.460947 
1585.000000	99.461153 
1584.000000	99.461273 
1583.000000	99.461457 
1582.000000	99.461803 
1581.000000	99.462243 
1580.000000	99.462670 
1579.000000	99.463036 
1578.000000	99.463334 
1577.000000	99.463579 
1576.000000	99.463805 
1575.000000	99.464042 
1574.000000	99.464283 
1573.000000	99.464509 
1572.000000	99.464709 
1571.000000	99.464882 
1570.000000	99.465028 
1569.000000	99.465144 
1568.000000	99.465230 
1567.000000	99.465288 
1566.000000	99.465326 
1565.000000	99.465352 
1564.000000	99.465373 
1563.000000	99.465394 
1562.000000	99.465413 
1561.000000	99.465420 
1560.000000	99.465409 
1559.000000	99.465385 
1558.000000	99.465355 
1557.000000	99.465315 
1556.000000	99.465254 
1555.000000	99.465162 
1554.000000	99.465032 
1553.000000	99.464861 
1552.000000	99.464653 
1551.000000	99.464416 
1550.000000	99.464161 
1549.000000	99.463884 
1548.000000	99.463566 
1547.000000	99.463193 
1546.000000	99.462764 
1545.000000	99.462295 
1544.000000	99.461807 
1543.000000	99.461270 
1542.000000	99.460662 
1541.000000	99.460081 
1540.000000	99.459578 
1539.000000	99.458956 
1538.000000	99.458295 
1537.000000	99.457788 
1536.000000	99.457361 
1535.000000	99.456857 
1534.000000	99.456302 
1533.000000	99.455785 
1532.000000	99.455022 
1531.000000	99.453801 
1530.000000	99.452387 
1529.000000	99.451172 
1528.000000	99.450134 
1527.000000	99.449009 
1526.000000	99.447748 
1525.000000	99.446653 
1524.000000	99.445792 
1523.000000	99.444906 
1522.000000	99.444094 
1521.000000	99.443586 
1520.000000	99.442590 
1519.000000	99.440609 
1518.000000	99.438006 
1517.000000	99.435693 
1516.000000	99.433955 
1515.000000	99.432266 
1514.000000	99.430320 
1513.000000	99.428352 
1512.000000	99.426784 
1511.000000	99.425584 
1510.000000	99.424171 
1509.000000	99.422133 
1508.000000	99.420220 
1507.000000	99.419479 
1506.000000	99.418170 
1505.000000	99.415531 
1504.000000	99.413041 
1503.000000	99.410805 
1502.000000	99.408749 
1501.000000	99.407175 
1500.000000	99.406511 
1499.000000	99.406283 
1498.000000	99.405238 
1497.000000	99.403623 
1496.000000	99.402775 
1495.000000	99.401971 
1494.000000	99.399591 
1493.000000	99.395344 
1492.000000	99.390092 
1491.000000	99.385453 
1490.000000	99.382726 
1489.000000	99.381677 
1488.000000	99.380365 
1487.000000	99.377261 
1486.000000	99.373605 
1485.000000	99.370681 
1484.000000	99.368096 
1483.000000	99.365083 
1482.000000	99.361219 
1481.000000	99.356768 
1480.000000	99.352110 
1479.000000	99.347433 
1478.000000	99.343177 
1477.000000	99.340216 
1476.000000	99.338533 
1475.000000	99.336102 
1474.000000	99.332442 
1473.000000	99.331020 
1472.000000	99.333787 
1471.000000	99.336244 
1470.000000	99.335722 
1469.000000	99.334342 
1468.000000	99.334751 
1467.000000	99.336988 
1466.000000	99.339194 
1465.000000	99.339974 
1464.000000	99.338983 
1463.000000	99.336844 
1462.000000	99.334933 
1461.000000	99.334632 
1460.000000	99.335719 
1459.000000	99.335329 
1458.000000	99.327120 
1457.000000	99.307380 
1456.000000	99.282542 
1455.000000	99.262329 
1454.000000	99.248839 
1453.000000	99.240682 
1452.000000	99.236191 
1451.000000	99.234013 
1450.000000	99.234872 
1449.000000	99.242082 
1448.000000	99.256250 
1447.000000	99.270702 
1446.000000	99.278469 
1445.000000	99.280496 
1444.000000	99.281081 
1443.000000	99.281240 
1442.000000	99.279844 
1441.000000	99.277645 
1440.000000	99.277465 
1439.000000	99.280152 
1438.000000	99.282369 
1437.000000	99.280492 
1436.000000	99.274495 
1435.000000	99.265893 
1434.000000	99.257014 
1433.000000	99.250792 
1432.000000	99.248225 
1431.000000	99.247534 
1430.000000	99.244648 
1429.000000	99.237350 
1428.000000	99.227629 
1427.000000	99.218007 
1426.000000	99.208082 
1425.000000	99.195971 
1424.000000	99.182789 
1423.000000	99.171016 
1422.000000	99.159048 
1421.000000	99.142640 
1420.000000	99.120123 
1419.000000	99.094268 
1418.000000	99.065818 
1417.000000	99.034860 
1416.000000	99.004713 
1415.000000	98.977201 
1414.000000	98.950316 
1413.000000	98.921514 
1412.000000	98.892446 
1411.000000	98.867427 
1410.000000	98.847500 
1409.000000	98.831286 
1408.000000	98.819408 
1407.000000	98.813411 
1406.000000	98.812717 
1405.000000	98.816356 
1404.000000	98.826126 
1403.000000	98.842236 
1402.000000	98.859876 
1401.000000	98.874883 
1400.000000	98.887823 
1399.000000	98.899060 
1398.000000	98.900029 
1397.000000	98.878203 
1396.000000	98.832637 
1395.000000	98.784614 
1394.000000	98.765265 
1393.000000	98.785723 
1392.000000	98.832317 
1391.000000	98.882790 
1390.000000	98.920487 
1389.000000	98.939105 
1388.000000	98.940901 
1387.000000	98.932695 
1386.000000	98.921228 
1385.000000	98.911141 
1384.000000	98.905385 
1383.000000	98.905172 
1382.000000	98.909751 
1381.000000	98.917918 
1380.000000	98.929238 
1379.000000	98.943651 
1378.000000	98.960316 
1377.000000	98.977861 
1376.000000	98.995978 
1375.000000	99.015591 
1374.000000	99.036721 
1373.000000	99.057364 
1372.000000	99.076253 
1371.000000	99.094731 
1370.000000	99.114869 
1369.000000	99.136239 
1368.000000	99.156931 
1367.000000	99.176070 
1366.000000	99.194262 
1365.000000	99.212303 
1364.000000	99.229841 
1363.000000	99.245765 
1362.000000	99.259797 
1361.000000	99.272737 
1360.000000	99.285368 
1359.000000	99.298050 
1358.000000	99.311217 
1357.000000	99.325188 
1356.000000	99.339535 
1355.000000	99.352949 
1354.000000	99.364420 
1353.000000	99.374524 
1352.000000	99.383630 
1351.000000	99.390207 
1350.000000	99.394327 
1349.000000	99.397926 
1348.000000	99.402781 
1347.000000	99.409470 
1346.000000	99.417843 
1345.000000	99.426625 
1344.000000	99.433909 
1343.000000	99.438811 
1342.000000	99.442408 
1341.000000	99.445859 
1340.000000	99.448398 
1339.000000	99.448474 
1338.000000	99.446313 
1337.000000	99.444244 
1336.000000	99.444256 
1335.000000	99.446122 
1334.000000	99.448745 
1333.000000	99.452074 
1332.000000	99.456392 
1331.000000	99.460734 
1330.000000	99.463307 
1329.000000	99.463247 
1328.000000	99.461672 
1327.000000	99.460665 
1326.000000	99.461378 
1325.000000	99.462585 
1324.000000	99.463219 
1323.000000	99.463887 
1322.000000	99.465164 
1321.000000	99.466045 
1320.000000	99.465536 
1319.000000	99.464476 
1318.000000	99.464402 
1317.000000	99.465508 
1316.000000	99.466648 
1315.000000	99.466765 
1314.000000	99.465552 
1313.000000	99.463608 
1312.000000	99.462228 
1311.000000	99.462474 
1310.000000	99.464174 
1309.000000	99.466171 
1308.000000	99.467438 
1307.000000	99.467357 
1306.000000	99.465696 
1305.000000	99.462724 
1304.000000	99.460466 
1303.000000	99.461461 
1302.000000	99.465892 
1301.000000	99.470831 
1300.000000	99.473023 
1299.000000	99.471399 
1298.000000	99.466992 
1297.000000	99.461949 
1296.000000	99.458788 
1295.000000	99.459325 
1294.000000	99.462914 
1293.000000	99.466594 
1292.000000	99.467501 
1291.000000	99.464602 
1290.000000	99.458543 
1289.000000	99.451148 
1288.000000	99.444850 
1287.000000	99.440759 
1286.000000	99.437046 
1285.000000	99.430910 
1284.000000	99.422423 
1283.000000	99.414857 
1282.000000	99.410142 
1281.000000	99.406174 
1280.000000	99.400070 
1279.000000	99.391645 
1278.000000	99.381993 
1277.000000	99.371187 
1276.000000	99.359005 
1275.000000	99.346587 
1274.000000	99.335359 
1273.000000	99.325146 
1272.000000	99.314689 
1271.000000	99.303105 
1270.000000	99.289659 
1269.000000	99.273370 
1268.000000	99.254434 
1267.000000	99.234967 
1266.000000	99.216685 
1265.000000	99.199121 
1264.000000	99.181369 
1263.000000	99.164072 
1262.000000	99.148183 
1261.000000	99.133297 
1260.000000	99.119054 
1259.000000	99.106826 
1258.000000	99.097639 
1257.000000	99.089992 
1256.000000	99.081878 
1255.000000	99.073763 
1254.000000	99.067135 
1253.000000	99.061298 
1252.000000	99.054493 
1251.000000	99.047922 
1250.000000	99.045682 
1249.000000	99.050424 
1248.000000	99.061235 
1247.000000	99.075108 
1246.000000	99.087318 
1245.000000	99.090938 
1244.000000	99.080766 
1243.000000	99.060801 
1242.000000	99.045240 
1241.000000	99.047107 
1240.000000	99.066196 
1239.000000	99.089201 
1238.000000	99.101964 
1237.000000	99.100666 
1236.000000	99.090411 
1235.000000	99.077210 
1234.000000	99.063485 
1233.000000	99.049762 
1232.000000	99.037348 
1231.000000	99.027927 
1230.000000	99.021863 
1229.000000	99.018268 
1228.000000	99.016491 
1227.000000	99.016828 
1226.000000	99.019919 
1225.000000	99.025788 
1224.000000	99.033345 
1223.000000	99.040684 
1222.000000	99.046285 
1221.000000	99.050247 
1220.000000	99.054165 
1219.000000	99.059635 
1218.000000	99.066917 
1217.000000	99.074934 
1216.000000	99.082086 
1215.000000	99.087069 
1214.000000	99.089642 
1213.000000	99.090923 
1212.000000	99.092257 
1211.000000	99.093332 
1210.000000	99.092241 
1209.000000	99.087968 
1208.000000	99.081939 
1207.000000	99.076337 
1206.000000	99.071739 
1205.000000	99.067455 
1204.000000	99.063284 
1203.000000	99.059274 
1202.000000	99.053977 
1201.000000	99.044869 
1200.000000	99.031198 
1199.000000	99.015215 
1198.000000	99.000316 
1197.000000	98.988630 
1196.000000	98.979986 
1195.000000	98.972536 
1194.000000	98.964023 
1193.000000	98.952698 
1192.000000	98.937955 
1191.000000	98.920722 
1190.000000	98.903303 
1189.000000	98.888611 
1188.000000	98.878602 
1187.000000	98.872384 
1186.000000	98.866115 
1185.000000	98.855806 
1184.000000	98.840174 
1183.000000	98.820363 
1182.000000	98.798007 
1181.000000	98.774841 
1180.000000	98.753354 
1179.000000	98.735514 
1178.000000	98.720182 
1177.000000	98.703532 
1176.000000	98.683035 
1175.000000	98.659935 
1174.000000	98.637142 
1173.000000	98.615804 
1172.000000	98.595160 
1171.000000	98.574768 
1170.000000	98.555263 
1169.000000	98.536969 
1168.000000	98.518914 
1167.000000	98.499749 
1166.000000	98.479650 
1165.000000	98.461414 
1164.000000	98.449500 
1163.000000	98.447191 
1162.000000	98.454119 
1161.000000	98.466456 
1160.000000	98.479358 
1159.000000	98.489217 
1158.000000	98.494250 
1157.000000	98.493831 
1156.000000	98.487350 
1155.000000	98.473672 
1154.000000	98.452324 
1153.000000	98.425433 
1152.000000	98.397513 
1151.000000	98.372332 
1150.000000	98.350462 
1149.000000	98.330491 
1148.000000	98.311316 
1147.000000	98.291766 
1146.000000	98.269430 
1145.000000	98.242582 
1144.000000	98.213128 
1143.000000	98.185401 
1142.000000	98.161527 
1141.000000	98.139694 
1140.000000	98.117126 
1139.000000	98.092723 
1138.000000	98.066531 
1137.000000	98.038911 
1136.000000	98.011175 
1135.000000	97.985435 
1134.000000	97.962754 
1133.000000	97.942211 
1132.000000	97.921900 
1131.000000	97.899664 
1130.000000	97.873272 
1129.000000	97.841813 
1128.000000	97.807103 
1127.000000	97.772116 
1126.000000	97.738101 
1125.000000	97.704844 
1124.000000	97.672906 
1123.000000	97.642877 
1122.000000	97.612596 
1121.000000	97.578316 
1120.000000	97.539158 
1119.000000	97.497587 
1118.000000	97.455070 
1117.000000	97.410442 
1116.000000	97.363359 
1115.000000	97.315847 
1114.000000	97.268757 
1113.000000	97.219692 
1112.000000	97.166871 
1111.000000	97.112871 
1110.000000	97.061756 
1109.000000	97.014529 
1108.000000	96.969559 
1107.000000	96.924977 
1106.000000	96.879630 
1105.000000	96.833412 
1104.000000	96.787523 
1103.000000	96.743246 
1102.000000	96.700611 
1101.000000	96.659506 
1100.000000	96.621880 
1099.000000	96.588860 
1098.000000	96.558304 
1097.000000	96.526611 
1096.000000	96.493044 
1095.000000	96.458443 
1094.000000	96.419499 
1093.000000	96.368722 
1092.000000	96.302084 
1091.000000	96.223983 
1090.000000	96.142941 
1089.000000	96.064252 
1088.000000	95.988438 
1087.000000	95.914442 
1086.000000	95.841722 
1085.000000	95.770368 
1084.000000	95.700910 
1083.000000	95.633364 
1082.000000	95.566266 
1081.000000	95.498465 
1080.000000	95.432081 
1079.000000	95.371315 
1078.000000	95.318135 
1077.000000	95.272114 
1076.000000	95.234480 
1075.000000	95.208370 
1074.000000	95.194298 
1073.000000	95.188587 
1072.000000	95.185126 
1071.000000	95.173095 
1070.000000	95.134491 
1069.000000	95.055232 
1068.000000	94.945738 
1067.000000	94.844634 
1066.000000	94.791104 
1065.000000	94.793540 
1064.000000	94.827440 
1063.000000	94.857953 
1062.000000	94.860791 
1061.000000	94.826236 
1060.000000	94.757110 
1059.000000	94.670559 
1058.000000	94.593966 
1057.000000	94.547897 
1056.000000	94.530998 
1055.000000	94.523576 
1054.000000	94.506646 
1053.000000	94.477293 
1052.000000	94.445983 
1051.000000	94.422070 
1050.000000	94.405119 
1049.000000	94.389885 
1048.000000	94.375089 
1047.000000	94.363699 
1046.000000	94.356897 
1045.000000	94.352213 
1044.000000	94.347973 
1043.000000	94.346549 
1042.000000	94.351236 
1041.000000	94.360951 
1040.000000	94.370629 
1039.000000	94.378565 
1038.000000	94.392273 
1037.000000	94.423615 
1036.000000	94.476447 
1035.000000	94.541420 
1034.000000	94.605098 
1033.000000	94.660507 
1032.000000	94.703293 
1031.000000	94.722509 
1030.000000	94.708276 
1029.000000	94.672562 
1028.000000	94.651589 
1027.000000	94.676576 
1026.000000	94.744991 
1025.000000	94.825914 
1024.000000	94.890714 
1023.000000	94.931912 
1022.000000	94.956251 
1021.000000	94.971619 
1020.000000	94.983449 
1019.000000	94.995978 
1018.000000	95.010950 
1017.000000	95.027410 
1016.000000	95.045254 
1015.000000	95.066730 
1014.000000	95.093340 
1013.000000	95.123721 
1012.000000	95.155508 
1011.000000	95.187038 
1010.000000	95.217156 
1009.000000	95.245966 
1008.000000	95.275809 
1007.000000	95.309111 
1006.000000	95.345311 
1005.000000	95.382027 
1004.000000	95.418676 
1003.000000	95.456373 
1002.000000	95.494805 
1001.000000	95.532058 
1000.000000	95.567575 
999.000000	 95.602697 
998.000000	 95.637898 
997.000000	 95.671762 
996.000000	 95.703447 
995.000000	 95.734456 
994.000000	 95.766995 
993.000000	 95.801595 
992.000000	 95.837068 
991.000000	 95.871621 
990.000000	 95.903463 
989.000000	 95.931971 
988.000000	 95.958953 
987.000000	 95.987080 
986.000000	 96.016829 
985.000000	 96.047664 
984.000000	 96.081362 
983.000000	 96.120257 
982.000000	 96.164245 
981.000000	 96.211507 
980.000000	 96.260209 
979.000000	 96.308684 
978.000000	 96.354832 
977.000000	 96.398309 
976.000000	 96.442851 
975.000000	 96.492763 
974.000000	 96.547274 
973.000000	 96.601829 
972.000000	 96.654647 
971.000000	 96.707920 
970.000000	 96.762394 
969.000000	 96.815154 
968.000000	 96.864107 
967.000000	 96.911016 
966.000000	 96.958220 
965.000000	 97.005020 
964.000000	 97.049124 
963.000000	 97.089803 
962.000000	 97.128137 
961.000000	 97.165618 
960.000000	 97.203539 
959.000000	 97.242394 
958.000000	 97.280835 
957.000000	 97.316419 
956.000000	 97.348362 
955.000000	 97.378978 
954.000000	 97.411675 
953.000000	 97.447466 
952.000000	 97.483391 
951.000000	 97.514512 
950.000000	 97.538301 
949.000000	 97.557327 
948.000000	 97.576717 
947.000000	 97.598763 
946.000000	 97.621646 
945.000000	 97.643637 
944.000000	 97.665614 
943.000000	 97.687872 
942.000000	 97.707322 
941.000000	 97.720718 
940.000000	 97.729017 
939.000000	 97.736176 
938.000000	 97.745066 
937.000000	 97.756773 
936.000000	 97.771956 
935.000000	 97.789464 
934.000000	 97.804924 
933.000000	 97.814494 
932.000000	 97.819764 
931.000000	 97.826263 
930.000000	 97.837430 
929.000000	 97.852391 
928.000000	 97.868982 
927.000000	 97.885824 
926.000000	 97.901485 
925.000000	 97.914511 
924.000000	 97.924814 
923.000000	 97.933082 
922.000000	 97.938829 
921.000000	 97.940937 
920.000000	 97.940050 
919.000000	 97.938532 
918.000000	 97.938102 
917.000000	 97.938922 
916.000000	 97.940612 
915.000000	 97.942689 
914.000000	 97.944542 
913.000000	 97.946571 
912.000000	 97.950633 
911.000000	 97.957677 
910.000000	 97.965696 
909.000000	 97.971934 
908.000000	 97.976518 
907.000000	 97.982072 
906.000000	 97.990478 
905.000000	 98.001862 
904.000000	 98.016011 
903.000000	 98.033054 
902.000000	 98.053406 
901.000000	 98.078275 
900.000000	 98.108963 
899.000000	 98.144163 
898.000000	 98.179433 
897.000000	 98.210629 
896.000000	 98.236236 
895.000000	 98.255701 
894.000000	 98.269245 
893.000000	 98.281700 
892.000000	 98.302676 
891.000000	 98.338493 
890.000000	 98.385201 
889.000000	 98.432466 
888.000000	 98.473028 
887.000000	 98.505150 
886.000000	 98.528643 
885.000000	 98.544130 
884.000000	 98.555487 
883.000000	 98.567585 
882.000000	 98.580790 
881.000000	 98.592395 
880.000000	 98.604515 
879.000000	 98.625305 
878.000000	 98.659402 
877.000000	 98.700639 
876.000000	 98.737091 
875.000000	 98.761259 
874.000000	 98.773781 
873.000000	 98.780667 
872.000000	 98.789811 
871.000000	 98.807498 
870.000000	 98.834305 
869.000000	 98.864194 
868.000000	 98.889863 
867.000000	 98.909408 
866.000000	 98.927255 
865.000000	 98.949196 
864.000000	 98.977250 
863.000000	 99.008992 
862.000000	 99.041027 
861.000000	 99.072518 
860.000000	 99.104854 
859.000000	 99.138518 
858.000000	 99.172297 
857.000000	 99.206037 
856.000000	 99.241350 
855.000000	 99.277478 
854.000000	 99.308883 
853.000000	 99.330257 
852.000000	 99.342754 
851.000000	 99.352330 
850.000000	 99.362711 
849.000000	 99.373288 
848.000000	 99.383630 
847.000000	 99.396018 
846.000000	 99.412226 
845.000000	 99.430748 
844.000000	 99.448700 
843.000000	 99.464227 
842.000000	 99.475640 
841.000000	 99.480303 
840.000000	 99.476926 
839.000000	 99.468708 
838.000000	 99.462013 
837.000000	 99.460310 
836.000000	 99.460127 
835.000000	 99.455270 
834.000000	 99.445929 
833.000000	 99.440526 
832.000000	 99.444513 
831.000000	 99.449136 
830.000000	 99.438946 
829.000000	 99.413378 
828.000000	 99.393421 
827.000000	 99.399126 
826.000000	 99.424588 
825.000000	 99.445449 
824.000000	 99.449637 
823.000000	 99.448500 
822.000000	 99.456416 
821.000000	 99.471879 
820.000000	 99.483691 
819.000000	 99.485687 
818.000000	 99.479445 
817.000000	 99.468660 
816.000000	 99.455989 
815.000000	 99.442274 
814.000000	 99.424898 
813.000000	 99.398877 
812.000000	 99.362409 
811.000000	 99.319413 
810.000000	 99.273783 
809.000000	 99.222664 
808.000000	 99.158208 
807.000000	 99.074776 
806.000000	 98.972642 
805.000000	 98.856909 
804.000000	 98.736498 
803.000000	 98.623479 
802.000000	 98.528943 
801.000000	 98.457806 
800.000000	 98.408383 
799.000000	 98.376511 
798.000000	 98.359586 
797.000000	 98.357884 
796.000000	 98.372488 
795.000000	 98.401040 
794.000000	 98.436384 
793.000000	 98.471354 
792.000000	 98.503455 
791.000000	 98.531859 
790.000000	 98.551624 
789.000000	 98.555980 
788.000000	 98.544738 
787.000000	 98.525694 
786.000000	 98.505959 
785.000000	 98.485376 
784.000000	 98.460413 
783.000000	 98.430892 
782.000000	 98.400078 
781.000000	 98.370978 
780.000000	 98.345752 
779.000000	 98.327183 
778.000000	 98.318176 
777.000000	 98.321129 
776.000000	 98.338690 
775.000000	 98.372093 
774.000000	 98.416845 
773.000000	 98.463162 
772.000000	 98.503427 
771.000000	 98.537036 
770.000000	 98.565822 
769.000000	 98.587922 
768.000000	 98.600449 
767.000000	 98.606792 
766.000000	 98.616050 
765.000000	 98.633566 
764.000000	 98.655217 
763.000000	 98.672735 
762.000000	 98.682773 
761.000000	 98.689156 
760.000000	 98.697937 
759.000000	 98.712344 
758.000000	 98.731524 
757.000000	 98.752073 
756.000000	 98.770758 
755.000000	 98.787462 
754.000000	 98.805816 
753.000000	 98.829525 
752.000000	 98.857675 
751.000000	 98.884453 
750.000000	 98.903761 
749.000000	 98.913420 
748.000000	 98.915556 
747.000000	 98.915597 
746.000000	 98.921393 
745.000000	 98.939301 
744.000000	 98.967641 
743.000000	 98.995854 
742.000000	 99.014198 
741.000000	 99.023767 
740.000000	 99.033908 
739.000000	 99.050872 
738.000000	 99.072566 
737.000000	 99.093754 
736.000000	 99.111815 
735.000000	 99.126983 
734.000000	 99.141454 
733.000000	 99.159400 
732.000000	 99.183642 
731.000000	 99.209910 
730.000000	 99.228287 
729.000000	 99.232910 
728.000000	 99.228462 
727.000000	 99.224570 
726.000000	 99.225578 
725.000000	 99.230628 
724.000000	 99.240516 
723.000000	 99.257720 
722.000000	 99.280106 
721.000000	 99.300164 
720.000000	 99.311657 
719.000000	 99.313847 
718.000000	 99.309393 
717.000000	 99.302729 
716.000000	 99.300545 
715.000000	 99.308236 
714.000000	 99.323806 
713.000000	 99.338752 
712.000000	 99.347160 
711.000000	 99.350713 
710.000000	 99.353860 
709.000000	 99.357336 
708.000000	 99.358020 
707.000000	 99.354792 
706.000000	 99.349957 
705.000000	 99.346509 
704.000000	 99.345560 
703.000000	 99.343856 
702.000000	 99.334601 
701.000000	 99.312776 
700.000000	 99.278806 
699.000000	 99.237792 
698.000000	 99.193937 
697.000000	 99.148304 
696.000000	 99.103107 
695.000000	 99.064382 
694.000000	 99.041744 
693.000000	 99.044571 
692.000000	 99.074615 
691.000000	 99.121774 
690.000000	 99.167631 
689.000000	 99.198889 
688.000000	 99.217720 
687.000000	 99.235035 
686.000000	 99.257166 
685.000000	 99.281244 
684.000000	 99.300394 
683.000000	 99.310774 
682.000000	 99.314283 
681.000000	 99.317699 
680.000000	 99.327854 
679.000000	 99.345018 
678.000000	 99.360393 
677.000000	 99.361200 
676.000000	 99.346575 
675.000000	 99.333503 
674.000000	 99.339068 
673.000000	 99.362187 
672.000000	 99.390509 
671.000000	 99.420057 
670.000000	 99.460408 
669.000000	 99.513131 
668.000000	 99.539752 
667.000000	 99.514474 
666.000000	 99.480389 
665.000000	 99.461752 
664.000000	 99.452164 
663.000000	 99.443917 
662.000000	 99.435911 
661.000000	 99.432888 
660.000000	 99.441137 
659.000000	 99.460011 
658.000000	 99.477236 
657.000000	 99.478735 
656.000000	 99.468484 
655.000000	 99.465805 
654.000000	 99.475603 
653.000000	 99.479499 
652.000000	 99.465663 
651.000000	 99.446568 
650.000000	 99.442330 

