4000.000000	99.554210 
3999.000000	99.553255 
3998.000000	99.550856 
3997.000000	99.546897 
3996.000000	99.542001 
3995.000000	99.537682 
3994.000000	99.535723 
3993.000000	99.536959 
3992.000000	99.540429 
3991.000000	99.543799 
3990.000000	99.545029 
3989.000000	99.544097 
3988.000000	99.543254 
3987.000000	99.545198 
3986.000000	99.550592 
3985.000000	99.557198 
3984.000000	99.561515 
3983.000000	99.561407 
3982.000000	99.557356 
3981.000000	99.551489 
3980.000000	99.545656 
3979.000000	99.540579 
3978.000000	99.536666 
3977.000000	99.534915 
3976.000000	99.536483 
3975.000000	99.541378 
3974.000000	99.547928 
3973.000000	99.553635 
3972.000000	99.556513 
3971.000000	99.555937 
3970.000000	99.552679 
3969.000000	99.548350 
3968.000000	99.544689 
3967.000000	99.542863 
3966.000000	99.543143 
3965.000000	99.545177 
3964.000000	99.548274 
3963.000000	99.551269 
3962.000000	99.552535 
3961.000000	99.550787 
3960.000000	99.546233 
3959.000000	99.540901 
3958.000000	99.537267 
3957.000000	99.536196 
3956.000000	99.536594 
3955.000000	99.536916 
3954.000000	99.536746 
3953.000000	99.536681 
3952.000000	99.537138 
3951.000000	99.538072 
3950.000000	99.539483 
3949.000000	99.541634 
3948.000000	99.544337 
3947.000000	99.546288 
3946.000000	99.545945 
3945.000000	99.543240 
3944.000000	99.540225 
3943.000000	99.539190 
3942.000000	99.540398 
3941.000000	99.541925 
3940.000000	99.541290 
3939.000000	99.536969 
3938.000000	99.529166 
3937.000000	99.519813 
3936.000000	99.512187 
3935.000000	99.509800 
3934.000000	99.514798 
3933.000000	99.526297 
3932.000000	99.539817 
3931.000000	99.549295 
3930.000000	99.550961 
3929.000000	99.545961 
3928.000000	99.539179 
3927.000000	99.535367 
3926.000000	99.536235 
3925.000000	99.539748 
3924.000000	99.541976 
3923.000000	99.540650 
3922.000000	99.536611 
3921.000000	99.532464 
3920.000000	99.530480 
3919.000000	99.531717 
3918.000000	99.536187 
3917.000000	99.542752 
3916.000000	99.549157 
3915.000000	99.553269 
3914.000000	99.554747 
3913.000000	99.555024 
3912.000000	99.555435 
3911.000000	99.556239 
3910.000000	99.557196 
3909.000000	99.558344 
3908.000000	99.559772 
3907.000000	99.560303 
3906.000000	99.557420 
3905.000000	99.549198 
3904.000000	99.536486 
3903.000000	99.523639 
3902.000000	99.516228 
3901.000000	99.517265 
3900.000000	99.525620 
3899.000000	99.536806 
3898.000000	99.546065 
3897.000000	99.551278 
3896.000000	99.552700 
3895.000000	99.551262 
3894.000000	99.547563 
3893.000000	99.541924 
3892.000000	99.535138 
3891.000000	99.528680 
3890.000000	99.524221 
3889.000000	99.522376 
3888.000000	99.522460 
3887.000000	99.523977 
3886.000000	99.526904 
3885.000000	99.530157 
3884.000000	99.531818 
3883.000000	99.531453 
3882.000000	99.530677 
3881.000000	99.531090 
3880.000000	99.532303 
3879.000000	99.532672 
3878.000000	99.532144 
3877.000000	99.532465 
3876.000000	99.535390 
3875.000000	99.540467 
3874.000000	99.544287 
3873.000000	99.543191 
3872.000000	99.537621 
3871.000000	99.532523 
3870.000000	99.532242 
3869.000000	99.535996 
3868.000000	99.539732 
3867.000000	99.540968 
3866.000000	99.540781 
3865.000000	99.541309 
3864.000000	99.541871 
3863.000000	99.540328 
3862.000000	99.536778 
3861.000000	99.534208 
3860.000000	99.535671 
3859.000000	99.541763 
3858.000000	99.550050 
3857.000000	99.556476 
3856.000000	99.557699 
3855.000000	99.555208 
3854.000000	99.555044 
3853.000000	99.559194 
3852.000000	99.563307 
3851.000000	99.564532 
3850.000000	99.562854 
3849.000000	99.559694 
3848.000000	99.556047 
3847.000000	99.552156 
3846.000000	99.548014 
3845.000000	99.543737 
3844.000000	99.540287 
3843.000000	99.539659 
3842.000000	99.542472 
3841.000000	99.546953 
3840.000000	99.550685 
3839.000000	99.552305 
3838.000000	99.551764 
3837.000000	99.549699 
3836.000000	99.547044 
3835.000000	99.545301 
3834.000000	99.546022 
3833.000000	99.550064 
3832.000000	99.556675 
3831.000000	99.563264 
3830.000000	99.567093 
3829.000000	99.566774 
3828.000000	99.562545 
3827.000000	99.556274 
3826.000000	99.550298 
3825.000000	99.545708 
3824.000000	99.542134 
3823.000000	99.539770 
3822.000000	99.540223 
3821.000000	99.543888 
3820.000000	99.548835 
3819.000000	99.553747 
3818.000000	99.558187 
3817.000000	99.561706 
3816.000000	99.563410 
3815.000000	99.561727 
3814.000000	99.556343 
3813.000000	99.549943 
3812.000000	99.546662 
3811.000000	99.548855 
3810.000000	99.555256 
3809.000000	99.562244 
3808.000000	99.567053 
3807.000000	99.569257 
3806.000000	99.569171 
3805.000000	99.566609 
3804.000000	99.561413 
3803.000000	99.555390 
3802.000000	99.552031 
3801.000000	99.552194 
3800.000000	99.553128 
3799.000000	99.552514 
3798.000000	99.550615 
3797.000000	99.549231 
3796.000000	99.549359 
3795.000000	99.550117 
3794.000000	99.550153 
3793.000000	99.549430 
3792.000000	99.549038 
3791.000000	99.549703 
3790.000000	99.550983 
3789.000000	99.551838 
3788.000000	99.551742 
3787.000000	99.550865 
3786.000000	99.549683 
3785.000000	99.548585 
3784.000000	99.547639 
3783.000000	99.546552 
3782.000000	99.545214 
3781.000000	99.544435 
3780.000000	99.545526 
3779.000000	99.548731 
3778.000000	99.552481 
3777.000000	99.554648 
3776.000000	99.554204 
3775.000000	99.551997 
3774.000000	99.549648 
3773.000000	99.547885 
3772.000000	99.546444 
3771.000000	99.544995 
3770.000000	99.543066 
3769.000000	99.540097 
3768.000000	99.536722 
3767.000000	99.534631 
3766.000000	99.535102 
3765.000000	99.537729 
3764.000000	99.540420 
3763.000000	99.541029 
3762.000000	99.539221 
3761.000000	99.536853 
3760.000000	99.535893 
3759.000000	99.536672 
3758.000000	99.538646 
3757.000000	99.541595 
3756.000000	99.545139 
3755.000000	99.548423 
3754.000000	99.551083 
3753.000000	99.554092 
3752.000000	99.558153 
3751.000000	99.560996 
3750.000000	99.560108 
3749.000000	99.557813 
3748.000000	99.557889 
3747.000000	99.560075 
3746.000000	99.561556 
3745.000000	99.560822 
3744.000000	99.558292 
3743.000000	99.554672 
3742.000000	99.550298 
3741.000000	99.545453 
3740.000000	99.540266 
3739.000000	99.534032 
3738.000000	99.527029 
3737.000000	99.522472 
3736.000000	99.524189 
3735.000000	99.531324 
3734.000000	99.538220 
3733.000000	99.541071 
3732.000000	99.540843 
3731.000000	99.540070 
3730.000000	99.539524 
3729.000000	99.538374 
3728.000000	99.536950 
3727.000000	99.537004 
3726.000000	99.538881 
3725.000000	99.540585 
3724.000000	99.540739 
3723.000000	99.540701 
3722.000000	99.542317 
3721.000000	99.545828 
3720.000000	99.549283 
3719.000000	99.549889 
3718.000000	99.546700 
3717.000000	99.541095 
3716.000000	99.535080 
3715.000000	99.529520 
3714.000000	99.524377 
3713.000000	99.520690 
3712.000000	99.520347 
3711.000000	99.523789 
3710.000000	99.528554 
3709.000000	99.530781 
3708.000000	99.528349 
3707.000000	99.522236 
3706.000000	99.515674 
3705.000000	99.511987 
3704.000000	99.512484 
3703.000000	99.515514 
3702.000000	99.517166 
3701.000000	99.514509 
3700.000000	99.508110 
3699.000000	99.500554 
3698.000000	99.494023 
3697.000000	99.489501 
3696.000000	99.486752 
3695.000000	99.485130 
3694.000000	99.485050 
3693.000000	99.488080 
3692.000000	99.494770 
3691.000000	99.502930 
3690.000000	99.508357 
3689.000000	99.508503 
3688.000000	99.505112 
3687.000000	99.501287 
3686.000000	99.497551 
3685.000000	99.493166 
3684.000000	99.488296 
3683.000000	99.483688 
3682.000000	99.479614 
3681.000000	99.475677 
3680.000000	99.471610 
3679.000000	99.466894 
3678.000000	99.461155 
3677.000000	99.457073 
3676.000000	99.459131 
3675.000000	99.465453 
3674.000000	99.468666 
3673.000000	99.464689 
3672.000000	99.454926 
3671.000000	99.446103 
3670.000000	99.444496 
3669.000000	99.448744 
3668.000000	99.453558 
3667.000000	99.456580 
3666.000000	99.458161 
3665.000000	99.458724 
3664.000000	99.457653 
3663.000000	99.454117 
3662.000000	99.448269 
3661.000000	99.440834 
3660.000000	99.432339 
3659.000000	99.423274 
3658.000000	99.415191 
3657.000000	99.410306 
3656.000000	99.408804 
3655.000000	99.408100 
3654.000000	99.405194 
3653.000000	99.398381 
3652.000000	99.387182 
3651.000000	99.372882 
3650.000000	99.358729 
3649.000000	99.348372 
3648.000000	99.343618 
3647.000000	99.343414 
3646.000000	99.345259 
3645.000000	99.347306 
3644.000000	99.348967 
3643.000000	99.350391 
3642.000000	99.352406 
3641.000000	99.355683 
3640.000000	99.359902 
3639.000000	99.363219 
3638.000000	99.362965 
3637.000000	99.357430 
3636.000000	99.347199 
3635.000000	99.335037 
3634.000000	99.323701 
3633.000000	99.313753 
3632.000000	99.303694 
3631.000000	99.292690 
3630.000000	99.283660 
3629.000000	99.280403 
3628.000000	99.281059 
3627.000000	99.281771 
3626.000000	99.282046 
3625.000000	99.283137 
3624.000000	99.285505 
3623.000000	99.288345 
3622.000000	99.290726 
3621.000000	99.293348 
3620.000000	99.297231 
3619.000000	99.300785 
3618.000000	99.301360 
3617.000000	99.299801 
3616.000000	99.299902 
3615.000000	99.304392 
3614.000000	99.311701 
3613.000000	99.316997 
3612.000000	99.317382 
3611.000000	99.314949 
3610.000000	99.313821 
3609.000000	99.315704 
3608.000000	99.318423 
3607.000000	99.319518 
3606.000000	99.320317 
3605.000000	99.324194 
3604.000000	99.332342 
3603.000000	99.342314 
3602.000000	99.350232 
3601.000000	99.354294 
3600.000000	99.355153 
3599.000000	99.353873 
3598.000000	99.351095 
3597.000000	99.347772 
3596.000000	99.345702 
3595.000000	99.346986 
3594.000000	99.351795 
3593.000000	99.357922 
3592.000000	99.362568 
3591.000000	99.363717 
3590.000000	99.361187 
3589.000000	99.357109 
3588.000000	99.354228 
3587.000000	99.352534 
3586.000000	99.350438 
3585.000000	99.348257 
3584.000000	99.348145 
3583.000000	99.350961 
3582.000000	99.355047 
3581.000000	99.357425 
3580.000000	99.356169 
3579.000000	99.351582 
3578.000000	99.345335 
3577.000000	99.339361 
3576.000000	99.335168 
3575.000000	99.333560 
3574.000000	99.334112 
3573.000000	99.335251 
3572.000000	99.335672 
3571.000000	99.335332 
3570.000000	99.334775 
3569.000000	99.334465 
3568.000000	99.334742 
3567.000000	99.335216 
3566.000000	99.334911 
3565.000000	99.333694 
3564.000000	99.332442 
3563.000000	99.332225 
3562.000000	99.333636 
3561.000000	99.336145 
3560.000000	99.338228 
3559.000000	99.338413 
3558.000000	99.336596 
3557.000000	99.334208 
3556.000000	99.333054 
3555.000000	99.333719 
3554.000000	99.334978 
3553.000000	99.334432 
3552.000000	99.330488 
3551.000000	99.324105 
3550.000000	99.317988 
3549.000000	99.314086 
3548.000000	99.312518 
3547.000000	99.312323 
3546.000000	99.312706 
3545.000000	99.312976 
3544.000000	99.312264 
3543.000000	99.310274 
3542.000000	99.308266 
3541.000000	99.308202 
3540.000000	99.310776 
3539.000000	99.314393 
3538.000000	99.316683 
3537.000000	99.316711 
3536.000000	99.315389 
3535.000000	99.313993 
3534.000000	99.312697 
3533.000000	99.311064 
3532.000000	99.309140 
3531.000000	99.307668 
3530.000000	99.306951 
3529.000000	99.306023 
3528.000000	99.303485 
3527.000000	99.299218 
3526.000000	99.294890 
3525.000000	99.292563 
3524.000000	99.292829 
3523.000000	99.294216 
3522.000000	99.294603 
3521.000000	99.293105 
3520.000000	99.290974 
3519.000000	99.290693 
3518.000000	99.293991 
3517.000000	99.300014 
3516.000000	99.305430 
3515.000000	99.306976 
3514.000000	99.304061 
3513.000000	99.298892 
3512.000000	99.294134 
3511.000000	99.290742 
3510.000000	99.287862 
3509.000000	99.284535 
3508.000000	99.281095 
3507.000000	99.279014 
3506.000000	99.279686 
3505.000000	99.283001 
3504.000000	99.286774 
3503.000000	99.288149 
3502.000000	99.286510 
3501.000000	99.284411 
3500.000000	99.284633 
3499.000000	99.286739 
3498.000000	99.287460 
3497.000000	99.284503 
3496.000000	99.278986 
3495.000000	99.273727 
3494.000000	99.270154 
3493.000000	99.267742 
3492.000000	99.265908 
3491.000000	99.265171 
3490.000000	99.266456 
3489.000000	99.269967 
3488.000000	99.274767 
3487.000000	99.278875 
3486.000000	99.280042 
3485.000000	99.277328 
3484.000000	99.272125 
3483.000000	99.267199 
3482.000000	99.264270 
3481.000000	99.262956 
3480.000000	99.262206 
3479.000000	99.261783 
3478.000000	99.261650 
3477.000000	99.260856 
3476.000000	99.258415 
3475.000000	99.255268 
3474.000000	99.254027 
3473.000000	99.255899 
3472.000000	99.258751 
3471.000000	99.259334 
3470.000000	99.257150 
3469.000000	99.254945 
3468.000000	99.255259 
3467.000000	99.257476 
3466.000000	99.258978 
3465.000000	99.258353 
3464.000000	99.256418 
3463.000000	99.254574 
3462.000000	99.253388 
3461.000000	99.253011 
3460.000000	99.253725 
3459.000000	99.255310 
3458.000000	99.256486 
3457.000000	99.255742 
3456.000000	99.252768 
3455.000000	99.248731 
3454.000000	99.245148 
3453.000000	99.242969 
3452.000000	99.242349 
3451.000000	99.242960 
3450.000000	99.244323 
3449.000000	99.246089 
3448.000000	99.247864 
3447.000000	99.248726 
3446.000000	99.247405 
3445.000000	99.243597 
3444.000000	99.238893 
3443.000000	99.235707 
3442.000000	99.235032 
3441.000000	99.235466 
3440.000000	99.234726 
3439.000000	99.231769 
3438.000000	99.227241 
3437.000000	99.222409 
3436.000000	99.218364 
3435.000000	99.216061 
3434.000000	99.216173 
3433.000000	99.218477 
3432.000000	99.221447 
3431.000000	99.223130 
3430.000000	99.222764 
3429.000000	99.221614 
3428.000000	99.221897 
3427.000000	99.224356 
3426.000000	99.226906 
3425.000000	99.226142 
3424.000000	99.220551 
3423.000000	99.212034 
3422.000000	99.204109 
3421.000000	99.199067 
3420.000000	99.197349 
3419.000000	99.198826 
3418.000000	99.203220 
3417.000000	99.209023 
3416.000000	99.213369 
3415.000000	99.214001 
3414.000000	99.211177 
3413.000000	99.207171 
3412.000000	99.204170 
3411.000000	99.203042 
3410.000000	99.203541 
3409.000000	99.204631 
3408.000000	99.204504 
3407.000000	99.201371 
3406.000000	99.195264 
3405.000000	99.188908 
3404.000000	99.186032 
3403.000000	99.188263 
3402.000000	99.193694 
3401.000000	99.198841 
3400.000000	99.201904 
3399.000000	99.203909 
3398.000000	99.206779 
3397.000000	99.210770 
3396.000000	99.213996 
3395.000000	99.214177 
3394.000000	99.210460 
3393.000000	99.203859 
3392.000000	99.196559 
3391.000000	99.190885 
3390.000000	99.188483 
3389.000000	99.189839 
3388.000000	99.194256 
3387.000000	99.200277 
3386.000000	99.206469 
3385.000000	99.212087 
3384.000000	99.216947 
3383.000000	99.220479 
3382.000000	99.221134 
3381.000000	99.217618 
3380.000000	99.211051 
3379.000000	99.205257 
3378.000000	99.203721 
3377.000000	99.206207 
3376.000000	99.209151 
3375.000000	99.209651 
3374.000000	99.208318 
3373.000000	99.207939 
3372.000000	99.210172 
3371.000000	99.214193 
3370.000000	99.217906 
3369.000000	99.219465 
3368.000000	99.218086 
3367.000000	99.214643 
3366.000000	99.211633 
3365.000000	99.211349 
3364.000000	99.213475 
3363.000000	99.215210 
3362.000000	99.214302 
3361.000000	99.211332 
3360.000000	99.208446 
3359.000000	99.206666 
3358.000000	99.205539 
3357.000000	99.205119 
3356.000000	99.206798 
3355.000000	99.211370 
3354.000000	99.216996 
3353.000000	99.220156 
3352.000000	99.218862 
3351.000000	99.214697 
3350.000000	99.211531 
3349.000000	99.212220 
3348.000000	99.216492 
3347.000000	99.221623 
3346.000000	99.224849 
3345.000000	99.225202 
3344.000000	99.223692 
3343.000000	99.222299 
3342.000000	99.222423 
3341.000000	99.223602 
3340.000000	99.223703 
3339.000000	99.221169 
3338.000000	99.217369 
3337.000000	99.215888 
3336.000000	99.218842 
3335.000000	99.224495 
3334.000000	99.229370 
3333.000000	99.232101 
3332.000000	99.234093 
3331.000000	99.236586 
3330.000000	99.238496 
3329.000000	99.237865 
3328.000000	99.234657 
3327.000000	99.231174 
3326.000000	99.229691 
3325.000000	99.230191 
3324.000000	99.230574 
3323.000000	99.229180 
3322.000000	99.227003 
3321.000000	99.227086 
3320.000000	99.231378 
3319.000000	99.238423 
3318.000000	99.244627 
3317.000000	99.247523 
3316.000000	99.247193 
3315.000000	99.245052 
3314.000000	99.242702 
3313.000000	99.242088 
3312.000000	99.245005 
3311.000000	99.251159 
3310.000000	99.257436 
3309.000000	99.260349 
3308.000000	99.259006 
3307.000000	99.255145 
3306.000000	99.251025 
3305.000000	99.248345 
3304.000000	99.248537 
3303.000000	99.252236 
3302.000000	99.258028 
3301.000000	99.262835 
3300.000000	99.264337 
3299.000000	99.262789 
3298.000000	99.260423 
3297.000000	99.259556 
3296.000000	99.261007 
3295.000000	99.263519 
3294.000000	99.264661 
3293.000000	99.263158 
3292.000000	99.260558 
3291.000000	99.259640 
3290.000000	99.260800 
3289.000000	99.261207 
3288.000000	99.258317 
3287.000000	99.253405 
3286.000000	99.250482 
3285.000000	99.251945 
3284.000000	99.256266 
3283.000000	99.260007 
3282.000000	99.261386 
3281.000000	99.261565 
3280.000000	99.262934 
3279.000000	99.266514 
3278.000000	99.270933 
3277.000000	99.273708 
3276.000000	99.273331 
3275.000000	99.270072 
3274.000000	99.265175 
3273.000000	99.260026 
3272.000000	99.256215 
3271.000000	99.255437 
3270.000000	99.258388 
3269.000000	99.263877 
3268.000000	99.269526 
3267.000000	99.273277 
3266.000000	99.274070 
3265.000000	99.271843 
3264.000000	99.267857 
3263.000000	99.264855 
3262.000000	99.265642 
3261.000000	99.270655 
3260.000000	99.277266 
3259.000000	99.281922 
3258.000000	99.283083 
3257.000000	99.282110 
3256.000000	99.281525 
3255.000000	99.282588 
3254.000000	99.284492 
3253.000000	99.285804 
3252.000000	99.286393 
3251.000000	99.287521 
3250.000000	99.289900 
3249.000000	99.292359 
3248.000000	99.293040 
3247.000000	99.291533 
3246.000000	99.289124 
3245.000000	99.287126 
3244.000000	99.285801 
3243.000000	99.284945 
3242.000000	99.284495 
3241.000000	99.284262 
3240.000000	99.284134 
3239.000000	99.285187 
3238.000000	99.289681 
3237.000000	99.298771 
3236.000000	99.310362 
3235.000000	99.320124 
3234.000000	99.324841 
3233.000000	99.324465 
3232.000000	99.321246 
3231.000000	99.317731 
3230.000000	99.315561 
3229.000000	99.315123 
3228.000000	99.315529 
3227.000000	99.315153 
3226.000000	99.312901 
3225.000000	99.309287 
3224.000000	99.306221 
3223.000000	99.305564 
3222.000000	99.307636 
3221.000000	99.310818 
3220.000000	99.312643 
3219.000000	99.311656 
3218.000000	99.308678 
3217.000000	99.306443 
3216.000000	99.307856 
3215.000000	99.314001 
3214.000000	99.323127 
3213.000000	99.331392 
3212.000000	99.335176 
3211.000000	99.333394 
3210.000000	99.328021 
3209.000000	99.322540 
3208.000000	99.319821 
3207.000000	99.320864 
3206.000000	99.324582 
3205.000000	99.328447 
3204.000000	99.330165 
3203.000000	99.329513 
3202.000000	99.328349 
3201.000000	99.328403 
3200.000000	99.329561 
3199.000000	99.330815 
3198.000000	99.332182 
3197.000000	99.334580 
3196.000000	99.338165 
3195.000000	99.341982 
3194.000000	99.345199 
3193.000000	99.347424 
3192.000000	99.347744 
3191.000000	99.344958 
3190.000000	99.339499 
3189.000000	99.334019 
3188.000000	99.331143 
3187.000000	99.331382 
3186.000000	99.333887 
3185.000000	99.338131 
3184.000000	99.343614 
3183.000000	99.348625 
3182.000000	99.351134 
3181.000000	99.351314 
3180.000000	99.352053 
3179.000000	99.356154 
3178.000000	99.363178 
3177.000000	99.369429 
3176.000000	99.371253 
3175.000000	99.368446 
3174.000000	99.364341 
3173.000000	99.362234 
3172.000000	99.361888 
3171.000000	99.360399 
3170.000000	99.356634 
3169.000000	99.353377 
3168.000000	99.354046 
3167.000000	99.358454 
3166.000000	99.363444 
3165.000000	99.367018 
3164.000000	99.369858 
3163.000000	99.372785 
3162.000000	99.374864 
3161.000000	99.374937 
3160.000000	99.373503 
3159.000000	99.371806 
3158.000000	99.369973 
3157.000000	99.367318 
3156.000000	99.363990 
3155.000000	99.361126 
3154.000000	99.359436 
3153.000000	99.358569 
3152.000000	99.358037 
3151.000000	99.358194 
3150.000000	99.360015 
3149.000000	99.364049 
3148.000000	99.369591 
3147.000000	99.374815 
3146.000000	99.378013 
3145.000000	99.378910 
3144.000000	99.378590 
3143.000000	99.378061 
3142.000000	99.377400 
3141.000000	99.376524 
3140.000000	99.376049 
3139.000000	99.376682 
3138.000000	99.378149 
3137.000000	99.379571 
3136.000000	99.380784 
3135.000000	99.382525 
3134.000000	99.385098 
3133.000000	99.387387 
3132.000000	99.387516 
3131.000000	99.384427 
3130.000000	99.378971 
3129.000000	99.373889 
3128.000000	99.372585 
3127.000000	99.377002 
3126.000000	99.385840 
3125.000000	99.394797 
3124.000000	99.399142 
3123.000000	99.396792 
3122.000000	99.389582 
3121.000000	99.381760 
3120.000000	99.377019 
3119.000000	99.376425 
3118.000000	99.378661 
3117.000000	99.381879 
3116.000000	99.385138 
3115.000000	99.388256 
3114.000000	99.390916 
3113.000000	99.392487 
3112.000000	99.392669 
3111.000000	99.391983 
3110.000000	99.391516 
3109.000000	99.392322 
3108.000000	99.394848 
3107.000000	99.398485 
3106.000000	99.401494 
3105.000000	99.401950 
3104.000000	99.399376 
3103.000000	99.395478 
3102.000000	99.392938 
3101.000000	99.393293 
3100.000000	99.396114 
3099.000000	99.400044 
3098.000000	99.404075 
3097.000000	99.407694 
3096.000000	99.410507 
3095.000000	99.412338 
3094.000000	99.413441 
3093.000000	99.413983 
3092.000000	99.413449 
3091.000000	99.411308 
3090.000000	99.408407 
3089.000000	99.406875 
3088.000000	99.407994 
3087.000000	99.410590 
3086.000000	99.412125 
3085.000000	99.411136 
3084.000000	99.407991 
3083.000000	99.403595 
3082.000000	99.398528 
3081.000000	99.393777 
3080.000000	99.391395 
3079.000000	99.393450 
3078.000000	99.400284 
3077.000000	99.410138 
3076.000000	99.420295 
3075.000000	99.428349 
3074.000000	99.432747 
3073.000000	99.433031 
3072.000000	99.429965 
3071.000000	99.425143 
3070.000000	99.419985 
3069.000000	99.415015 
3068.000000	99.410326 
3067.000000	99.406864 
3066.000000	99.406866 
3065.000000	99.412230 
3064.000000	99.421964 
3063.000000	99.431645 
3062.000000	99.436330 
3061.000000	99.434437 
3060.000000	99.428683 
3059.000000	99.423279 
3058.000000	99.420643 
3057.000000	99.420865 
3056.000000	99.423277 
3055.000000	99.427449 
3054.000000	99.432607 
3053.000000	99.437028 
3052.000000	99.438697 
3051.000000	99.436783 
3050.000000	99.432657 
3049.000000	99.429483 
3048.000000	99.430136 
3047.000000	99.434516 
3046.000000	99.438798 
3045.000000	99.438231 
3044.000000	99.431679 
3043.000000	99.423314 
3042.000000	99.419232 
3041.000000	99.422104 
3040.000000	99.429288 
3039.000000	99.435976 
3038.000000	99.439461 
3037.000000	99.440079 
3036.000000	99.438926 
3035.000000	99.436132 
3034.000000	99.431714 
3033.000000	99.426957 
3032.000000	99.423731 
3031.000000	99.422603 
3030.000000	99.422560 
3029.000000	99.422765 
3028.000000	99.423706 
3027.000000	99.426199 
3026.000000	99.429787 
3025.000000	99.432673 
3024.000000	99.433182 
3023.000000	99.431040 
3022.000000	99.427338 
3021.000000	99.423315 
3020.000000	99.419145 
3019.000000	99.414051 
3018.000000	99.407994 
3017.000000	99.402838 
3016.000000	99.400878 
3015.000000	99.402010 
3014.000000	99.403515 
3013.000000	99.403349 
3012.000000	99.402700 
3011.000000	99.404154 
3010.000000	99.407942 
3009.000000	99.411508 
3008.000000	99.412671 
3007.000000	99.411771 
3006.000000	99.410254 
3005.000000	99.408407 
3004.000000	99.405536 
3003.000000	99.401717 
3002.000000	99.398237 
3001.000000	99.396291 
3000.000000	99.396020 
2999.000000	99.396990 
2998.000000	99.398978 
2997.000000	99.401815 
2996.000000	99.404730 
2995.000000	99.406401 
2994.000000	99.405937 
2993.000000	99.403636 
2992.000000	99.400469 
2991.000000	99.396861 
2990.000000	99.392378 
2989.000000	99.386884 
2988.000000	99.381602 
2987.000000	99.378494 
2986.000000	99.378532 
2985.000000	99.380834 
2984.000000	99.383421 
2983.000000	99.384462 
2982.000000	99.383036 
2981.000000	99.379521 
2980.000000	99.375619 
2979.000000	99.373400 
2978.000000	99.373584 
2977.000000	99.374738 
2976.000000	99.374504 
2975.000000	99.371584 
2974.000000	99.366361 
2973.000000	99.359978 
2972.000000	99.353529 
2971.000000	99.348088 
2970.000000	99.344555 
2969.000000	99.342662 
2968.000000	99.340523 
2967.000000	99.336040 
2966.000000	99.328970 
2965.000000	99.321123 
2964.000000	99.314465 
2963.000000	99.309569 
2962.000000	99.306003 
2961.000000	99.303356 
2960.000000	99.301210 
2959.000000	99.298746 
2958.000000	99.295351 
2957.000000	99.291591 
2956.000000	99.288922 
2955.000000	99.288468 
2954.000000	99.290564 
2953.000000	99.295113 
2952.000000	99.301355 
2951.000000	99.307327 
2950.000000	99.310697 
2949.000000	99.310686 
2948.000000	99.308419 
2947.000000	99.305141 
2946.000000	99.301000 
2945.000000	99.296062 
2944.000000	99.291252 
2943.000000	99.287054 
2942.000000	99.281819 
2941.000000	99.272818 
2940.000000	99.259206 
2939.000000	99.243386 
2938.000000	99.229401 
2937.000000	99.220243 
2936.000000	99.216115 
2935.000000	99.214257 
2934.000000	99.210520 
2933.000000	99.202036 
2932.000000	99.188967 
2931.000000	99.173697 
2930.000000	99.158796 
2929.000000	99.146114 
2928.000000	99.136858 
2927.000000	99.131091 
2926.000000	99.127184 
2925.000000	99.123165 
2924.000000	99.119155 
2923.000000	99.117573 
2922.000000	99.120433 
2921.000000	99.127103 
2920.000000	99.135264 
2919.000000	99.143461 
2918.000000	99.152157 
2917.000000	99.162571 
2916.000000	99.175011 
2915.000000	99.188270 
2914.000000	99.200497 
2913.000000	99.210764 
2912.000000	99.219911 
2911.000000	99.229687 
2910.000000	99.241011 
2909.000000	99.253156 
2908.000000	99.264351 
2907.000000	99.272986 
2906.000000	99.278531 
2905.000000	99.281854 
2904.000000	99.284408 
2903.000000	99.286673 
2902.000000	99.287720 
2901.000000	99.287455 
2900.000000	99.287928 
2899.000000	99.292105 
2898.000000	99.300224 
2897.000000	99.308937 
2896.000000	99.314677 
2895.000000	99.317116 
2894.000000	99.318773 
2893.000000	99.322046 
2892.000000	99.327503 
2891.000000	99.334352 
2890.000000	99.341332 
2889.000000	99.347013 
2888.000000	99.350157 
2887.000000	99.350475 
2886.000000	99.349061 
2885.000000	99.347886 
2884.000000	99.348573 
2883.000000	99.351284 
2882.000000	99.354746 
2881.000000	99.357592 
2880.000000	99.359508 
2879.000000	99.360790 
2878.000000	99.361149 
2877.000000	99.359913 
2876.000000	99.357515 
2875.000000	99.355784 
2874.000000	99.356206 
2873.000000	99.358403 
2872.000000	99.360664 
2871.000000	99.361370 
2870.000000	99.359658 
2869.000000	99.355721 
2868.000000	99.351132 
2867.000000	99.348040 
2866.000000	99.346996 
2865.000000	99.346028 
2864.000000	99.342696 
2863.000000	99.336580 
2862.000000	99.328874 
2861.000000	99.320336 
2860.000000	99.311044 
2859.000000	99.301789 
2858.000000	99.293893 
2857.000000	99.287333 
2856.000000	99.280548 
2855.000000	99.272937 
2854.000000	99.266613 
2853.000000	99.264813 
2852.000000	99.269076 
2851.000000	99.278481 
2850.000000	99.291128 
2849.000000	99.305588 
2848.000000	99.321184 
2847.000000	99.337563 
2846.000000	99.354097 
2845.000000	99.369359 
2844.000000	99.381343 
2843.000000	99.388746 
2842.000000	99.392401 
2841.000000	99.395248 
2840.000000	99.400419 
2839.000000	99.408906 
2838.000000	99.418925 
2837.000000	99.427681 
2836.000000	99.433868 
2835.000000	99.438400 
2834.000000	99.442751 
2833.000000	99.447048 
2832.000000	99.450077 
2831.000000	99.450784 
2830.000000	99.449219 
2829.000000	99.446219 
2828.000000	99.442891 
2827.000000	99.440532 
2826.000000	99.440360 
2825.000000	99.442685 
2824.000000	99.446486 
2823.000000	99.450158 
2822.000000	99.452778 
2821.000000	99.454649 
2820.000000	99.456748 
2819.000000	99.459728 
2818.000000	99.463294 
2817.000000	99.466413 
2816.000000	99.468168 
2815.000000	99.468391 
2814.000000	99.467419 
2813.000000	99.465507 
2812.000000	99.462972 
2811.000000	99.460905 
2810.000000	99.461034 
2809.000000	99.464197 
2808.000000	99.469007 
2807.000000	99.472577 
2806.000000	99.472910 
2805.000000	99.470626 
2804.000000	99.468372 
2803.000000	99.468564 
2802.000000	99.471491 
2801.000000	99.475295 
2800.000000	99.477658 
2799.000000	99.477627 
2798.000000	99.475992 
2797.000000	99.474030 
2796.000000	99.472100 
2795.000000	99.469678 
2794.000000	99.466677 
2793.000000	99.464272 
2792.000000	99.463977 
2791.000000	99.465991 
2790.000000	99.468902 
2789.000000	99.471207 
2788.000000	99.472809 
2787.000000	99.474649 
2786.000000	99.477058 
2785.000000	99.478924 
2784.000000	99.478639 
2783.000000	99.475591 
2782.000000	99.470720 
2781.000000	99.465894 
2780.000000	99.462879 
2779.000000	99.462521 
2778.000000	99.464494 
2777.000000	99.467757 
2776.000000	99.471346 
2775.000000	99.474711 
2774.000000	99.477414 
2773.000000	99.478999 
2772.000000	99.479511 
2771.000000	99.479779 
2770.000000	99.480578 
2769.000000	99.481505 
2768.000000	99.481349 
2767.000000	99.479809 
2766.000000	99.478284 
2765.000000	99.478306 
2764.000000	99.479392 
2763.000000	99.479180 
2762.000000	99.475952 
2761.000000	99.470588 
2760.000000	99.465714 
2759.000000	99.463307 
2758.000000	99.463596 
2757.000000	99.465874 
2756.000000	99.469302 
2755.000000	99.472604 
2754.000000	99.473916 
2753.000000	99.472114 
2752.000000	99.468410 
2751.000000	99.465849 
2750.000000	99.466723 
2749.000000	99.470505 
2748.000000	99.474463 
2747.000000	99.476197 
2746.000000	99.475551 
2745.000000	99.474246 
2744.000000	99.473875 
2743.000000	99.474400 
2742.000000	99.474638 
2741.000000	99.474043 
2740.000000	99.473506 
2739.000000	99.474194 
2738.000000	99.476120 
2737.000000	99.478390 
2736.000000	99.480506 
2735.000000	99.482537 
2734.000000	99.484032 
2733.000000	99.483735 
2732.000000	99.480940 
2731.000000	99.476600 
2730.000000	99.472549 
2729.000000	99.469929 
2728.000000	99.468751 
2727.000000	99.468583 
2726.000000	99.469010 
2725.000000	99.469608 
2724.000000	99.470242 
2723.000000	99.471567 
2722.000000	99.474626 
2721.000000	99.479447 
2720.000000	99.484261 
2719.000000	99.486581 
2718.000000	99.485280 
2717.000000	99.481543 
2716.000000	99.477852 
2715.000000	99.476140 
2714.000000	99.476850 
2713.000000	99.479173 
2712.000000	99.481657 
2711.000000	99.482794 
2710.000000	99.481918 
2709.000000	99.479948 
2708.000000	99.478639 
2707.000000	99.478487 
2706.000000	99.477888 
2705.000000	99.475246 
2704.000000	99.471623 
2703.000000	99.470118 
2702.000000	99.472392 
2701.000000	99.476778 
2700.000000	99.480479 
2699.000000	99.482876 
2698.000000	99.485799 
2697.000000	99.490736 
2696.000000	99.496611 
2695.000000	99.500619 
2694.000000	99.501109 
2693.000000	99.499352 
2692.000000	99.498237 
2691.000000	99.499105 
2690.000000	99.500284 
2689.000000	99.499189 
2688.000000	99.495474 
2687.000000	99.491257 
2686.000000	99.488461 
2685.000000	99.487148 
2684.000000	99.486697 
2683.000000	99.487215 
2682.000000	99.488752 
2681.000000	99.490010 
2680.000000	99.489162 
2679.000000	99.485901 
2678.000000	99.481992 
2677.000000	99.479935 
2676.000000	99.481483 
2675.000000	99.486805 
2674.000000	99.494098 
2673.000000	99.500214 
2672.000000	99.502743 
2671.000000	99.501771 
2670.000000	99.499201 
2669.000000	99.496545 
2668.000000	99.494078 
2667.000000	99.491957 
2666.000000	99.490993 
2665.000000	99.491634 
2664.000000	99.492674 
2663.000000	99.491712 
2662.000000	99.487228 
2661.000000	99.480245 
2660.000000	99.473785 
2659.000000	99.470383 
2658.000000	99.470115 
2657.000000	99.471350 
2656.000000	99.473218 
2655.000000	99.476317 
2654.000000	99.480719 
2653.000000	99.484617 
2652.000000	99.486217 
2651.000000	99.486261 
2650.000000	99.487159 
2649.000000	99.489827 
2648.000000	99.492868 
2647.000000	99.495082 
2646.000000	99.497393 
2645.000000	99.501519 
2644.000000	99.507332 
2643.000000	99.512075 
2642.000000	99.512067 
2641.000000	99.505548 
2640.000000	99.494695 
2639.000000	99.484618 
2638.000000	99.479311 
2637.000000	99.478365 
2636.000000	99.478332 
2635.000000	99.477032 
2634.000000	99.475272 
2633.000000	99.474669 
2632.000000	99.475665 
2631.000000	99.478137 
2630.000000	99.482038 
2629.000000	99.486331 
2628.000000	99.488883 
2627.000000	99.488920 
2626.000000	99.488509 
2625.000000	99.490074 
2624.000000	99.493263 
2623.000000	99.495790 
2622.000000	99.496771 
2621.000000	99.497434 
2620.000000	99.498632 
2619.000000	99.499332 
2618.000000	99.498030 
2617.000000	99.494621 
2616.000000	99.490425 
2615.000000	99.487082 
2614.000000	99.485665 
2613.000000	99.486166 
2612.000000	99.487486 
2611.000000	99.488260 
2610.000000	99.487823 
2609.000000	99.486274 
2608.000000	99.484109 
2607.000000	99.482571 
2606.000000	99.483896 
2605.000000	99.489842 
2604.000000	99.499386 
2603.000000	99.508753 
2602.000000	99.514575 
2601.000000	99.516945 
2600.000000	99.518897 
2599.000000	99.522834 
2598.000000	99.527686 
2597.000000	99.529645 
2596.000000	99.525687 
2595.000000	99.516408 
2594.000000	99.505568 
2593.000000	99.497142 
2592.000000	99.492955 
2591.000000	99.492635 
2590.000000	99.494803 
2589.000000	99.497756 
2588.000000	99.499713 
2587.000000	99.499458 
2586.000000	99.497133 
2585.000000	99.494209 
2584.000000	99.492456 
2583.000000	99.492671 
2582.000000	99.493980 
2581.000000	99.494311 
2580.000000	99.492111 
2579.000000	99.488040 
2578.000000	99.484744 
2577.000000	99.484565 
2576.000000	99.487390 
2575.000000	99.490787 
2574.000000	99.492163 
2573.000000	99.490962 
2572.000000	99.489134 
2571.000000	99.489344 
2570.000000	99.492286 
2569.000000	99.495885 
2568.000000	99.497656 
2567.000000	99.497510 
2566.000000	99.497365 
2565.000000	99.498294 
2564.000000	99.499461 
2563.000000	99.500057 
2562.000000	99.500623 
2561.000000	99.501532 
2560.000000	99.501451 
2559.000000	99.498754 
2558.000000	99.494073 
2557.000000	99.490482 
2556.000000	99.491265 
2555.000000	99.497643 
2554.000000	99.507716 
2553.000000	99.517001 
2552.000000	99.521178 
2551.000000	99.519586 
2550.000000	99.515554 
2549.000000	99.512557 
2548.000000	99.510817 
2547.000000	99.508568 
2546.000000	99.505561 
2545.000000	99.503774 
2544.000000	99.505038 
2543.000000	99.509148 
2542.000000	99.513873 
2541.000000	99.515944 
2540.000000	99.513001 
2539.000000	99.506069 
2538.000000	99.499388 
2537.000000	99.496227 
2536.000000	99.495565 
2535.000000	99.494495 
2534.000000	99.492634 
2533.000000	99.491437 
2532.000000	99.489945 
2531.000000	99.485045 
2530.000000	99.476981 
2529.000000	99.471250 
2528.000000	99.472812 
2527.000000	99.480346 
2526.000000	99.488233 
2525.000000	99.492684 
2524.000000	99.494061 
2523.000000	99.494678 
2522.000000	99.496626 
2521.000000	99.500884 
2520.000000	99.506114 
2519.000000	99.508495 
2518.000000	99.504945 
2517.000000	99.496839 
2516.000000	99.488986 
2515.000000	99.484714 
2514.000000	99.483584 
2513.000000	99.484156 
2512.000000	99.486934 
2511.000000	99.493232 
2510.000000	99.502373 
2509.000000	99.511675 
2508.000000	99.518926 
2507.000000	99.523492 
2506.000000	99.524895 
2505.000000	99.521772 
2504.000000	99.513432 
2503.000000	99.502090 
2502.000000	99.492420 
2501.000000	99.488389 
2500.000000	99.490737 
2499.000000	99.497498 
2498.000000	99.505986 
2497.000000	99.513613 
2496.000000	99.517738 
2495.000000	99.516710 
2494.000000	99.511786 
2493.000000	99.506981 
2492.000000	99.505933 
2491.000000	99.509037 
2490.000000	99.514080 
2489.000000	99.519292 
2488.000000	99.524943 
2487.000000	99.531721 
2486.000000	99.538072 
2485.000000	99.540026 
2484.000000	99.534500 
2483.000000	99.522924 
2482.000000	99.510756 
2481.000000	99.502613 
2480.000000	99.498318 
2479.000000	99.494607 
2478.000000	99.490050 
2477.000000	99.486732 
2476.000000	99.487218 
2475.000000	99.491723 
2474.000000	99.498715 
2473.000000	99.506401 
2472.000000	99.512622 
2471.000000	99.515064 
2470.000000	99.513417 
2469.000000	99.510487 
2468.000000	99.509530 
2467.000000	99.510864 
2466.000000	99.512348 
2465.000000	99.512610 
2464.000000	99.512317 
2463.000000	99.512544 
2462.000000	99.513374 
2461.000000	99.514191 
2460.000000	99.514170 
2459.000000	99.512318 
2458.000000	99.507999 
2457.000000	99.501669 
2456.000000	99.494650 
2455.000000	99.488504 
2454.000000	99.485013 
2453.000000	99.485669 
2452.000000	99.489695 
2451.000000	99.493290 
2450.000000	99.492739 
2449.000000	99.488373 
2448.000000	99.484141 
2447.000000	99.483465 
2446.000000	99.487008 
2445.000000	99.493877 
2444.000000	99.502411 
2443.000000	99.509351 
2442.000000	99.510950 
2441.000000	99.506790 
2440.000000	99.501092 
2439.000000	99.498741 
2438.000000	99.500713 
2437.000000	99.504254 
2436.000000	99.506232 
2435.000000	99.505180 
2434.000000	99.501417 
2433.000000	99.497062 
2432.000000	99.495423 
2431.000000	99.498494 
2430.000000	99.504603 
2429.000000	99.509346 
2428.000000	99.509196 
2427.000000	99.504124 
2426.000000	99.497226 
2425.000000	99.492376 
2424.000000	99.491892 
2423.000000	99.495776 
2422.000000	99.502867 
2421.000000	99.512084 
2420.000000	99.521781 
2419.000000	99.528669 
2418.000000	99.529507 
2417.000000	99.524471 
2416.000000	99.517162 
2415.000000	99.510367 
2414.000000	99.503601 
2413.000000	99.496029 
2412.000000	99.489799 
2411.000000	99.488156 
2410.000000	99.491126 
2409.000000	99.495266 
2408.000000	99.497346 
2407.000000	99.496708 
2406.000000	99.494571 
2405.000000	99.492958 
2404.000000	99.493943 
2403.000000	99.497813 
2402.000000	99.501842 
2401.000000	99.502578 
2400.000000	99.499522 
2399.000000	99.495070 
2398.000000	99.491167 
2397.000000	99.488126 
2396.000000	99.486671 
2395.000000	99.488370 
2394.000000	99.492930 
2393.000000	99.497240 
2392.000000	99.498639 
2391.000000	99.497613 
2390.000000	99.495917 
2389.000000	99.493794 
2388.000000	99.490885 
2387.000000	99.488416 
2386.000000	99.487941 
2385.000000	99.488423 
2384.000000	99.487107 
2383.000000	99.483674 
2382.000000	99.481315 
2381.000000	99.482515 
2380.000000	99.485327 
2379.000000	99.485696 
2378.000000	99.482986 
2377.000000	99.481043 
2376.000000	99.483154 
2375.000000	99.487835 
2374.000000	99.491107 
2373.000000	99.491142 
2372.000000	99.488525 
2371.000000	99.483519 
2370.000000	99.476392 
2369.000000	99.470055 
2368.000000	99.468729 
2367.000000	99.473566 
2366.000000	99.482325 
2365.000000	99.492492 
2364.000000	99.501170 
2363.000000	99.502719 
2362.000000	99.491852 
2361.000000	99.470999 
2360.000000	99.449792 
2359.000000	99.436280 
2358.000000	99.432166 
2357.000000	99.435472 
2356.000000	99.444594 
2355.000000	99.457538 
2354.000000	99.472179 
2353.000000	99.484017 
2352.000000	99.488517 
2351.000000	99.485288 
2350.000000	99.477321 
2349.000000	99.468377 
2348.000000	99.461567 
2347.000000	99.460268 
2346.000000	99.464642 
2345.000000	99.469392 
2344.000000	99.470518 
2343.000000	99.469097 
2342.000000	99.468409 
2341.000000	99.467340 
2340.000000	99.463980 
2339.000000	99.460570 
2338.000000	99.461721 
2337.000000	99.467283 
2336.000000	99.470387 
2335.000000	99.467615 
2334.000000	99.464186 
2333.000000	99.467835 
2332.000000	99.477352 
2331.000000	99.486478 
2330.000000	99.489603 
2329.000000	99.487355 
2328.000000	99.481390 
2327.000000	99.475707 
2326.000000	99.472371 
2325.000000	99.470123 
2324.000000	99.465709 
2323.000000	99.460462 
2322.000000	99.460133 
2321.000000	99.466281 
2320.000000	99.471957 
2319.000000	99.470706 
2318.000000	99.463831 
2317.000000	99.458716 
2316.000000	99.458329 
2315.000000	99.461285 
2314.000000	99.464798 
2313.000000	99.469710 
2312.000000	99.476116 
2311.000000	99.483217 
2310.000000	99.488442 
2309.000000	99.490608 
2308.000000	99.488868 
2307.000000	99.484230 
2306.000000	99.478661 
2305.000000	99.475308 
2304.000000	99.476002 
2303.000000	99.480978 
2302.000000	99.487894 
2301.000000	99.494004 
2300.000000	99.497649 
2299.000000	99.500393 
2298.000000	99.503872 
2297.000000	99.507408 
2296.000000	99.507497 
2295.000000	99.503407 
2294.000000	99.499330 
2293.000000	99.501216 
2292.000000	99.509937 
2291.000000	99.520496 
2290.000000	99.526799 
2289.000000	99.526630 
2288.000000	99.522166 
2287.000000	99.517360 
2286.000000	99.515248 
2285.000000	99.515843 
2284.000000	99.516489 
2283.000000	99.514782 
2282.000000	99.511967 
2281.000000	99.511713 
2280.000000	99.515537 
2279.000000	99.520671 
2278.000000	99.523644 
2277.000000	99.524211 
2276.000000	99.524243 
2275.000000	99.524225 
2274.000000	99.522939 
2273.000000	99.520259 
2272.000000	99.517940 
2271.000000	99.517626 
2270.000000	99.519479 
2269.000000	99.523120 
2268.000000	99.528298 
2267.000000	99.534179 
2266.000000	99.539007 
2265.000000	99.541265 
2264.000000	99.540479 
2263.000000	99.536771 
2262.000000	99.530833 
2261.000000	99.524737 
2260.000000	99.521327 
2259.000000	99.521481 
2258.000000	99.523060 
2257.000000	99.523828 
2256.000000	99.524854 
2255.000000	99.529136 
2254.000000	99.537051 
2253.000000	99.545204 
2252.000000	99.550357 
2251.000000	99.552660 
2250.000000	99.553602 
2249.000000	99.552590 
2248.000000	99.547244 
2247.000000	99.537481 
2246.000000	99.526745 
2245.000000	99.519225 
2244.000000	99.516504 
2243.000000	99.517406 
2242.000000	99.520165 
2241.000000	99.524145 
2240.000000	99.530122 
2239.000000	99.539487 
2238.000000	99.552477 
2237.000000	99.566256 
2236.000000	99.575230 
2235.000000	99.574664 
2234.000000	99.564889 
2233.000000	99.551696 
2232.000000	99.541702 
2231.000000	99.536736 
2230.000000	99.532883 
2229.000000	99.525357 
2228.000000	99.514228 
2227.000000	99.504714 
2226.000000	99.501679 
2225.000000	99.504957 
2224.000000	99.511069 
2223.000000	99.518344 
2222.000000	99.527438 
2221.000000	99.536547 
2220.000000	99.540154 
2219.000000	99.536005 
2218.000000	99.531138 
2217.000000	99.535873 
2216.000000	99.550855 
2215.000000	99.564464 
2214.000000	99.565552 
2213.000000	99.555597 
2212.000000	99.545238 
2211.000000	99.541823 
2210.000000	99.545286 
2209.000000	99.554172 
2208.000000	99.568263 
2207.000000	99.582922 
2206.000000	99.586985 
2205.000000	99.572613 
2204.000000	99.546298 
2203.000000	99.525367 
2202.000000	99.522500 
2201.000000	99.535057 
2200.000000	99.549154 
2199.000000	99.552642 
2198.000000	99.544418 
2197.000000	99.533479 
2196.000000	99.530069 
2195.000000	99.537087 
2194.000000	99.549240 
2193.000000	99.559176 
2192.000000	99.563162 
2191.000000	99.561791 
2190.000000	99.558722 
2189.000000	99.559701 
2188.000000	99.568324 
2187.000000	99.579237 
2186.000000	99.579174 
2185.000000	99.560490 
2184.000000	99.532511 
2183.000000	99.513546 
2182.000000	99.511694 
2181.000000	99.518882 
2180.000000	99.524380 
2179.000000	99.527636 
2178.000000	99.534692 
2177.000000	99.547586 
2176.000000	99.561875 
2175.000000	99.571800 
2174.000000	99.574289 
2173.000000	99.570404 
2172.000000	99.566448 
2171.000000	99.571358 
2170.000000	99.588580 
2169.000000	99.610444 
2168.000000	99.623751 
2167.000000	99.621826 
2166.000000	99.609906 
2165.000000	99.599795 
2164.000000	99.600841 
2163.000000	99.614476 
2162.000000	99.633614 
2161.000000	99.645791 
2160.000000	99.639905 
2159.000000	99.613829 
2158.000000	99.576717 
2157.000000	99.542798 
2156.000000	99.521743 
2155.000000	99.514734 
2154.000000	99.518158 
2153.000000	99.528815 
2152.000000	99.544737 
2151.000000	99.562027 
2150.000000	99.574312 
2149.000000	99.578429 
2148.000000	99.578911 
2147.000000	99.582178 
2146.000000	99.586451 
2145.000000	99.582414 
2144.000000	99.565642 
2143.000000	99.543999 
2142.000000	99.529802 
2141.000000	99.527392 
2140.000000	99.531142 
2139.000000	99.533819 
2138.000000	99.533634 
2137.000000	99.533439 
2136.000000	99.535663 
2135.000000	99.539244 
2134.000000	99.541426 
2133.000000	99.541931 
2132.000000	99.543350 
2131.000000	99.545741 
2130.000000	99.543105 
2129.000000	99.529326 
2128.000000	99.507515 
2127.000000	99.489066 
2126.000000	99.482141 
2125.000000	99.484927 
2124.000000	99.491920 
2123.000000	99.502182 
2122.000000	99.517166 
2121.000000	99.533887 
2120.000000	99.546089 
2119.000000	99.551197 
2118.000000	99.551321 
2117.000000	99.548055 
2116.000000	99.541310 
2115.000000	99.533678 
2114.000000	99.530710 
2113.000000	99.534239 
2112.000000	99.538868 
2111.000000	99.538164 
2110.000000	99.532380 
2109.000000	99.527327 
2108.000000	99.526571 
2107.000000	99.527180 
2106.000000	99.523477 
2105.000000	99.513926 
2104.000000	99.503860 
2103.000000	99.501045 
2102.000000	99.507953 
2101.000000	99.518716 
2100.000000	99.524689 
2099.000000	99.522791 
2098.000000	99.517478 
2097.000000	99.515497 
2096.000000	99.520296 
2095.000000	99.530752 
2094.000000	99.542650 
2093.000000	99.550918 
2092.000000	99.552853 
2091.000000	99.550369 
2090.000000	99.547997 
2089.000000	99.547888 
2088.000000	99.547389 
2087.000000	99.541945 
2086.000000	99.529980 
2085.000000	99.515425 
2084.000000	99.506051 
2083.000000	99.508071 
2082.000000	99.520579 
2081.000000	99.535717 
2080.000000	99.546366 
2079.000000	99.553473 
2078.000000	99.563875 
2077.000000	99.581334 
2076.000000	99.601735 
2075.000000	99.616585 
2074.000000	99.618755 
2073.000000	99.606056 
2072.000000	99.583228 
2071.000000	99.560712 
2070.000000	99.547930 
2069.000000	99.545728 
2068.000000	99.546453 
2067.000000	99.542199 
2066.000000	99.531846 
2065.000000	99.521086 
2064.000000	99.517807 
2063.000000	99.526329 
2062.000000	99.542404 
2061.000000	99.553863 
2060.000000	99.551084 
2059.000000	99.538227 
2058.000000	99.529931 
2057.000000	99.535371 
2056.000000	99.549635 
2055.000000	99.562440 
2054.000000	99.570423 
2053.000000	99.577419 
2052.000000	99.586660 
2051.000000	99.597061 
2050.000000	99.605117 
2049.000000	99.607156 
2048.000000	99.601799 
2047.000000	99.593143 
2046.000000	99.589243 
2045.000000	99.593683 
2044.000000	99.600108 
2043.000000	99.598793 
2042.000000	99.587709 
2041.000000	99.573787 
2040.000000	99.564043 
2039.000000	99.559525 
2038.000000	99.558414 
2037.000000	99.560743 
2036.000000	99.567433 
2035.000000	99.575841 
2034.000000	99.578605 
2033.000000	99.569586 
2032.000000	99.553162 
2031.000000	99.545219 
2030.000000	99.559256 
2029.000000	99.589449 
2028.000000	99.612231 
2027.000000	99.609177 
2026.000000	99.585207 
2025.000000	99.561325 
2024.000000	99.552591 
2023.000000	99.557341 
2022.000000	99.565134 
2021.000000	99.568510 
2020.000000	99.566863 
2019.000000	99.563919 
2018.000000	99.563353 
2017.000000	99.564672 
2016.000000	99.563128 
2015.000000	99.555823 
2014.000000	99.546282 
2013.000000	99.540215 
2012.000000	99.538595 
2011.000000	99.538627 
2010.000000	99.540538 
2009.000000	99.548466 
2008.000000	99.563398 
2007.000000	99.579320 
2006.000000	99.588545 
2005.000000	99.588675 
2004.000000	99.583257 
2003.000000	99.577485 
2002.000000	99.574215 
2001.000000	99.571924 
2000.000000	99.565601 
1999.000000	99.551604 
1998.000000	99.532392 
1997.000000	99.515538 
1996.000000	99.507439 
1995.000000	99.508678 
1994.000000	99.515792 
1993.000000	99.525964 
1992.000000	99.538122 
1991.000000	99.549436 
1990.000000	99.553520 
1989.000000	99.545558 
1988.000000	99.530337 
1987.000000	99.522342 
1986.000000	99.533560 
1985.000000	99.560433 
1984.000000	99.585828 
1983.000000	99.594973 
1982.000000	99.587012 
1981.000000	99.571363 
1980.000000	99.557548 
1979.000000	99.550747 
1978.000000	99.552009 
1977.000000	99.557112 
1976.000000	99.557944 
1975.000000	99.550986 
1974.000000	99.543485 
1973.000000	99.546230 
1972.000000	99.559981 
1971.000000	99.573830 
1970.000000	99.578382 
1969.000000	99.576483 
1968.000000	99.578013 
1967.000000	99.586401 
1966.000000	99.595169 
1965.000000	99.597747 
1964.000000	99.595374 
1963.000000	99.593380 
1962.000000	99.594001 
1961.000000	99.595669 
1960.000000	99.597044 
1959.000000	99.598183 
1958.000000	99.598293 
1957.000000	99.595571 
1956.000000	99.589422 
1955.000000	99.580225 
1954.000000	99.566969 
1953.000000	99.548498 
1952.000000	99.528245 
1951.000000	99.514775 
1950.000000	99.515067 
1949.000000	99.527669 
1948.000000	99.544210 
1947.000000	99.557062 
1946.000000	99.563199 
1945.000000	99.561936 
1944.000000	99.553303 
1943.000000	99.540151 
1942.000000	99.528370 
1941.000000	99.521296 
1940.000000	99.516450 
1939.000000	99.510326 
1938.000000	99.503849 
1937.000000	99.501370 
1936.000000	99.505095 
1935.000000	99.512063 
1934.000000	99.516939 
1933.000000	99.516925 
1932.000000	99.513720 
1931.000000	99.511886 
1930.000000	99.515764 
1929.000000	99.525764 
1928.000000	99.536870 
1927.000000	99.542163 
1926.000000	99.538094 
1925.000000	99.526112 
1924.000000	99.510566 
1923.000000	99.497088 
1922.000000	99.491887 
1921.000000	99.498442 
1920.000000	99.513657 
1919.000000	99.528216 
1918.000000	99.532579 
1917.000000	99.525489 
1916.000000	99.515235 
1915.000000	99.511397 
1914.000000	99.517204 
1913.000000	99.528549 
1912.000000	99.538158 
1911.000000	99.541006 
1910.000000	99.536566 
1909.000000	99.527174 
1908.000000	99.516268 
1907.000000	99.508266 
1906.000000	99.507353 
1905.000000	99.513629 
1904.000000	99.520911 
1903.000000	99.521237 
1902.000000	99.511948 
1901.000000	99.497413 
1900.000000	99.485175 
1899.000000	99.480751 
1898.000000	99.484341 
1897.000000	99.490854 
1896.000000	99.493826 
1895.000000	99.491658 
1894.000000	99.489439 
1893.000000	99.492330 
1892.000000	99.498811 
1891.000000	99.502719 
1890.000000	99.500848 
1889.000000	99.496863 
1888.000000	99.496353 
1887.000000	99.500416 
1886.000000	99.505312 
1885.000000	99.506208 
1884.000000	99.501090 
1883.000000	99.492123 
1882.000000	99.483593 
1881.000000	99.478749 
1880.000000	99.478920 
1879.000000	99.483657 
1878.000000	99.489693 
1877.000000	99.491628 
1876.000000	99.487107 
1875.000000	99.481107 
1874.000000	99.481797 
1873.000000	99.490891 
1872.000000	99.500742 
1871.000000	99.502393 
1870.000000	99.494409 
1869.000000	99.482895 
1868.000000	99.472822 
1867.000000	99.463822 
1866.000000	99.455187 
1865.000000	99.447842 
1864.000000	99.442926 
1863.000000	99.442339 
1862.000000	99.448860 
1861.000000	99.462249 
1860.000000	99.476302 
1859.000000	99.484111 
1858.000000	99.485903 
1857.000000	99.487792 
1856.000000	99.493483 
1855.000000	99.500843 
1854.000000	99.505756 
1853.000000	99.506102 
1852.000000	99.502403 
1851.000000	99.496587 
1850.000000	99.490626 
1849.000000	99.485895 
1848.000000	99.483120 
1847.000000	99.482796 
1846.000000	99.484895 
1845.000000	99.486663 
1844.000000	99.482832 
1843.000000	99.472382 
1842.000000	99.461877 
1841.000000	99.457659 
1840.000000	99.460460 
1839.000000	99.466997 
1838.000000	99.473723 
1837.000000	99.479048 
1836.000000	99.482616 
1835.000000	99.484504 
1834.000000	99.485299 
1833.000000	99.485892 
1832.000000	99.486921 
1831.000000	99.487652 
1830.000000	99.486729 
1829.000000	99.484770 
1828.000000	99.484236 
1827.000000	99.486002 
1826.000000	99.488301 
1825.000000	99.489569 
1824.000000	99.489877 
1823.000000	99.489316 
1822.000000	99.486941 
1821.000000	99.481504 
1820.000000	99.473033 
1819.000000	99.463396 
1818.000000	99.455874 
1817.000000	99.453158 
1816.000000	99.454266 
1815.000000	99.455705 
1814.000000	99.456160 
1813.000000	99.458102 
1812.000000	99.464387 
1811.000000	99.473739 
1810.000000	99.482653 
1809.000000	99.489473 
1808.000000	99.492884 
1807.000000	99.490757 
1806.000000	99.483436 
1805.000000	99.475097 
1804.000000	99.469747 
1803.000000	99.467552 
1802.000000	99.466455 
1801.000000	99.465788 
1800.000000	99.465234 
1799.000000	99.463185 
1798.000000	99.459991 
1797.000000	99.458391 
1796.000000	99.459812 
1795.000000	99.463217 
1794.000000	99.466999 
1793.000000	99.470338 
1792.000000	99.472704 
1791.000000	99.472575 
1790.000000	99.470105 
1789.000000	99.468412 
1788.000000	99.470602 
1787.000000	99.477070 
1786.000000	99.484989 
1785.000000	99.489757 
1784.000000	99.488282 
1783.000000	99.482566 
1782.000000	99.477575 
1781.000000	99.475635 
1780.000000	99.474281 
1779.000000	99.470138 
1778.000000	99.464504 
1777.000000	99.461305 
1776.000000	99.462310 
1775.000000	99.467142 
1774.000000	99.475213 
1773.000000	99.485141 
1772.000000	99.493222 
1771.000000	99.495240 
1770.000000	99.490959 
1769.000000	99.483394 
1768.000000	99.475929 
1767.000000	99.469818 
1766.000000	99.464498 
1765.000000	99.460118 
1764.000000	99.457839 
1763.000000	99.458363 
1762.000000	99.460570 
1761.000000	99.462465 
1760.000000	99.463249 
1759.000000	99.462934 
1758.000000	99.461421 
1757.000000	99.458545 
1756.000000	99.455039 
1755.000000	99.451657 
1754.000000	99.447653 
1753.000000	99.442089 
1752.000000	99.437050 
1751.000000	99.437558 
1750.000000	99.444389 
1749.000000	99.451273 
1748.000000	99.452625 
1747.000000	99.448643 
1746.000000	99.442306 
1745.000000	99.435730 
1744.000000	99.430187 
1743.000000	99.426438 
1742.000000	99.424606 
1741.000000	99.424859 
1740.000000	99.426923 
1739.000000	99.429063 
1738.000000	99.429713 
1737.000000	99.428871 
1736.000000	99.426613 
1735.000000	99.422375 
1734.000000	99.418508 
1733.000000	99.419950 
1732.000000	99.428431 
1731.000000	99.440358 
1730.000000	99.450753 
1729.000000	99.456777 
1728.000000	99.459024 
1727.000000	99.459267 
1726.000000	99.457920 
1725.000000	99.455014 
1724.000000	99.451741 
1723.000000	99.449664 
1722.000000	99.449804 
1721.000000	99.452819 
1720.000000	99.458422 
1719.000000	99.463579 
1718.000000	99.462842 
1717.000000	99.455676 
1716.000000	99.446257 
1715.000000	99.437168 
1714.000000	99.430779 
1713.000000	99.429514 
1712.000000	99.432661 
1711.000000	99.437457 
1710.000000	99.441712 
1709.000000	99.445014 
1708.000000	99.447680 
1707.000000	99.448905 
1706.000000	99.448572 
1705.000000	99.448817 
1704.000000	99.449617 
1703.000000	99.446539 
1702.000000	99.436081 
1701.000000	99.421516 
1700.000000	99.413579 
1699.000000	99.413753 
1698.000000	99.417456 
1697.000000	99.422463 
1696.000000	99.427411 
1695.000000	99.429047 
1694.000000	99.428134 
1693.000000	99.427431 
1692.000000	99.425415 
1691.000000	99.420604 
1690.000000	99.414182 
1689.000000	99.408014 
1688.000000	99.402106 
1687.000000	99.395083 
1686.000000	99.388177 
1685.000000	99.385980 
1684.000000	99.390938 
1683.000000	99.395608 
1682.000000	99.394845 
1681.000000	99.388872 
1680.000000	99.381873 
1679.000000	99.377963 
1678.000000	99.377476 
1677.000000	99.377453 
1676.000000	99.375993 
1675.000000	99.374501 
1674.000000	99.373625 
1673.000000	99.372632 
1672.000000	99.371459 
1671.000000	99.371441 
1670.000000	99.373474 
1669.000000	99.374353 
1668.000000	99.371123 
1667.000000	99.365854 
1666.000000	99.360388 
1665.000000	99.354886 
1664.000000	99.350014 
1663.000000	99.347588 
1662.000000	99.348251 
1661.000000	99.349721 
1660.000000	99.349786 
1659.000000	99.348634 
1658.000000	99.346748 
1657.000000	99.343007 
1656.000000	99.334641 
1655.000000	99.322200 
1654.000000	99.311417 
1653.000000	99.308370 
1652.000000	99.306067 
1651.000000	99.307146 
1650.000000	99.309627 
1649.000000	99.308473 
1648.000000	99.302694 
1647.000000	99.296463 
1646.000000	99.292383 
1645.000000	99.291139 
1644.000000	99.293392 
1643.000000	99.297754 
1642.000000	99.301536 
1641.000000	99.303079 
1640.000000	99.302839 
1639.000000	99.302448 
1638.000000	99.302955 
1637.000000	99.303765 
1636.000000	99.302810 
1635.000000	99.300244 
1634.000000	99.299835 
1633.000000	99.303323 
1632.000000	99.307945 
1631.000000	99.311925 
1630.000000	99.315248 
1629.000000	99.317162 
1628.000000	99.316333 
1627.000000	99.314263 
1626.000000	99.314458 
1625.000000	99.318476 
1624.000000	99.324789 
1623.000000	99.330924 
1622.000000	99.335450 
1621.000000	99.337837 
1620.000000	99.337863 
1619.000000	99.336104 
1618.000000	99.334677 
1617.000000	99.334919 
1616.000000	99.335584 
1615.000000	99.337027 
1614.000000	99.339985 
1613.000000	99.342629 
1612.000000	99.343892 
1611.000000	99.344618 
1610.000000	99.345562 
1609.000000	99.345749 
1608.000000	99.344680 
1607.000000	99.344088 
1606.000000	99.345144 
1605.000000	99.346852 
1604.000000	99.348885 
1603.000000	99.352771 
1602.000000	99.358629 
1601.000000	99.363429 
1600.000000	99.364973 
1599.000000	99.365239 
1598.000000	99.367478 
1597.000000	99.372230 
1596.000000	99.377712 
1595.000000	99.382556 
1594.000000	99.386354 
1593.000000	99.388195 
1592.000000	99.387393 
1591.000000	99.385293 
1590.000000	99.384289 
1589.000000	99.385105 
1588.000000	99.387130 
1587.000000	99.390334 
1586.000000	99.394116 
1585.000000	99.395625 
1584.000000	99.392650 
1583.000000	99.386923 
1582.000000	99.382403 
1581.000000	99.380889 
1580.000000	99.381583 
1579.000000	99.383793 
1578.000000	99.387734 
1577.000000	99.392001 
1576.000000	99.392948 
1575.000000	99.391292 
1574.000000	99.391609 
1573.000000	99.393072 
1572.000000	99.393181 
1571.000000	99.393004 
1570.000000	99.395322 
1569.000000	99.398676 
1568.000000	99.399837 
1567.000000	99.399638 
1566.000000	99.399561 
1565.000000	99.399961 
1564.000000	99.401096 
1563.000000	99.403503 
1562.000000	99.406812 
1561.000000	99.409109 
1560.000000	99.407519 
1559.000000	99.405577 
1558.000000	99.405437 
1557.000000	99.404573 
1556.000000	99.404223 
1555.000000	99.404177 
1554.000000	99.403193 
1553.000000	99.401174 
1552.000000	99.400141 
1551.000000	99.401799 
1550.000000	99.406237 
1549.000000	99.410993 
1548.000000	99.413140 
1547.000000	99.412004 
1546.000000	99.408174 
1545.000000	99.403500 
1544.000000	99.400321 
1543.000000	99.398880 
1542.000000	99.399102 
1541.000000	99.403748 
1540.000000	99.411395 
1539.000000	99.414207 
1538.000000	99.412866 
1537.000000	99.412233 
1536.000000	99.411923 
1535.000000	99.411289 
1534.000000	99.412328 
1533.000000	99.416079 
1532.000000	99.419075 
1531.000000	99.418194 
1530.000000	99.414898 
1529.000000	99.412238 
1528.000000	99.410985 
1527.000000	99.410495 
1526.000000	99.410499 
1525.000000	99.411772 
1524.000000	99.414599 
1523.000000	99.418660 
1522.000000	99.424560 
1521.000000	99.432083 
1520.000000	99.437017 
1519.000000	99.436874 
1518.000000	99.431725 
1517.000000	99.423890 
1516.000000	99.417289 
1515.000000	99.414562 
1514.000000	99.415581 
1513.000000	99.418098 
1512.000000	99.419621 
1511.000000	99.418632 
1510.000000	99.415236 
1509.000000	99.411035 
1508.000000	99.410364 
1507.000000	99.416654 
1506.000000	99.421557 
1505.000000	99.418420 
1504.000000	99.413599 
1503.000000	99.409470 
1502.000000	99.406010 
1501.000000	99.404775 
1500.000000	99.407523 
1499.000000	99.413119 
1498.000000	99.418484 
1497.000000	99.424203 
1496.000000	99.432563 
1495.000000	99.440527 
1494.000000	99.443737 
1493.000000	99.441444 
1492.000000	99.435307 
1491.000000	99.427858 
1490.000000	99.421732 
1489.000000	99.418248 
1488.000000	99.414961 
1487.000000	99.409357 
1486.000000	99.404440 
1485.000000	99.403168 
1484.000000	99.404121 
1483.000000	99.404288 
1482.000000	99.401696 
1481.000000	99.397377 
1480.000000	99.393512 
1479.000000	99.390881 
1478.000000	99.388865 
1477.000000	99.386800 
1476.000000	99.383733 
1475.000000	99.377398 
1474.000000	99.368001 
1473.000000	99.360737 
1472.000000	99.359703 
1471.000000	99.359890 
1470.000000	99.356381 
1469.000000	99.350528 
1468.000000	99.346005 
1467.000000	99.344483 
1466.000000	99.345216 
1465.000000	99.346377 
1464.000000	99.346153 
1463.000000	99.344296 
1462.000000	99.342350 
1461.000000	99.341771 
1460.000000	99.341432 
1459.000000	99.338391 
1458.000000	99.330493 
1457.000000	99.322541 
1456.000000	99.321617 
1455.000000	99.326363 
1454.000000	99.331231 
1453.000000	99.333517 
1452.000000	99.334014 
1451.000000	99.334404 
1450.000000	99.335575 
1449.000000	99.338215 
1448.000000	99.342287 
1447.000000	99.345858 
1446.000000	99.347610 
1445.000000	99.348901 
1444.000000	99.351154 
1443.000000	99.353159 
1442.000000	99.353185 
1441.000000	99.351811 
1440.000000	99.351352 
1439.000000	99.352684 
1438.000000	99.353512 
1437.000000	99.351577 
1436.000000	99.347640 
1435.000000	99.342539 
1434.000000	99.336870 
1433.000000	99.332895 
1432.000000	99.332644 
1431.000000	99.335872 
1430.000000	99.339422 
1429.000000	99.341284 
1428.000000	99.343085 
1427.000000	99.346605 
1426.000000	99.350823 
1425.000000	99.353068 
1424.000000	99.353645 
1423.000000	99.354959 
1422.000000	99.356881 
1421.000000	99.357975 
1420.000000	99.358323 
1419.000000	99.358984 
1418.000000	99.357852 
1417.000000	99.353984 
1416.000000	99.350795 
1415.000000	99.350164 
1414.000000	99.350182 
1413.000000	99.348398 
1412.000000	99.345364 
1411.000000	99.342911 
1410.000000	99.340586 
1409.000000	99.338135 
1408.000000	99.337752 
1407.000000	99.340378 
1406.000000	99.343492 
1405.000000	99.345046 
1404.000000	99.347597 
1403.000000	99.352841 
1402.000000	99.356824 
1401.000000	99.355395 
1400.000000	99.350116 
1399.000000	99.347509 
1398.000000	99.350320 
1397.000000	99.354948 
1396.000000	99.357689 
1395.000000	99.357894 
1394.000000	99.355866 
1393.000000	99.352809 
1392.000000	99.353361 
1391.000000	99.360477 
1390.000000	99.371312 
1389.000000	99.379743 
1388.000000	99.381799 
1387.000000	99.378404 
1386.000000	99.372558 
1385.000000	99.366600 
1384.000000	99.362526 
1383.000000	99.361501 
1382.000000	99.362543 
1381.000000	99.363813 
1380.000000	99.364351 
1379.000000	99.364331 
1378.000000	99.363707 
1377.000000	99.361862 
1376.000000	99.359404 
1375.000000	99.358951 
1374.000000	99.362002 
1373.000000	99.365640 
1372.000000	99.366372 
1371.000000	99.365365 
1370.000000	99.366729 
1369.000000	99.371458 
1368.000000	99.377165 
1367.000000	99.381410 
1366.000000	99.383458 
1365.000000	99.383602 
1364.000000	99.382248 
1363.000000	99.380629 
1362.000000	99.380467 
1361.000000	99.381527 
1360.000000	99.382221 
1359.000000	99.382551 
1358.000000	99.384108 
1357.000000	99.387396 
1356.000000	99.391048 
1355.000000	99.393714 
1354.000000	99.395523 
1353.000000	99.396937 
1352.000000	99.396727 
1351.000000	99.393392 
1350.000000	99.388772 
1349.000000	99.385774 
1348.000000	99.385607 
1347.000000	99.387480 
1346.000000	99.390490 
1345.000000	99.393919 
1344.000000	99.396813 
1343.000000	99.398482 
1342.000000	99.399296 
1341.000000	99.399824 
1340.000000	99.399794 
1339.000000	99.398861 
1338.000000	99.397816 
1337.000000	99.398401 
1336.000000	99.401606 
1335.000000	99.406326 
1334.000000	99.410414 
1333.000000	99.412754 
1332.000000	99.413776 
1331.000000	99.414454 
1330.000000	99.415110 
1329.000000	99.414805 
1328.000000	99.412204 
1327.000000	99.407192 
1326.000000	99.401618 
1325.000000	99.397591 
1324.000000	99.396593 
1323.000000	99.398722 
1322.000000	99.402247 
1321.000000	99.404653 
1320.000000	99.404899 
1319.000000	99.404152 
1318.000000	99.403969 
1317.000000	99.404593 
1316.000000	99.405185 
1315.000000	99.404861 
1314.000000	99.403292 
1313.000000	99.401333 
1312.000000	99.400955 
1311.000000	99.403489 
1310.000000	99.407883 
1309.000000	99.411480 
1308.000000	99.412495 
1307.000000	99.410917 
1306.000000	99.407613 
1305.000000	99.403317 
1304.000000	99.399632 
1303.000000	99.398752 
1302.000000	99.401401 
1301.000000	99.405649 
1300.000000	99.408506 
1299.000000	99.408044 
1298.000000	99.404175 
1297.000000	99.398634 
1296.000000	99.394387 
1295.000000	99.394038 
1294.000000	99.397691 
1293.000000	99.402858 
1292.000000	99.406555 
1291.000000	99.407011 
1290.000000	99.404012 
1289.000000	99.398841 
1288.000000	99.393720 
1287.000000	99.389979 
1286.000000	99.386628 
1285.000000	99.381975 
1284.000000	99.376482 
1283.000000	99.372370 
1282.000000	99.370536 
1281.000000	99.369622 
1280.000000	99.368181 
1279.000000	99.366000 
1278.000000	99.362780 
1277.000000	99.357742 
1276.000000	99.351315 
1275.000000	99.345715 
1274.000000	99.342613 
1273.000000	99.341539 
1272.000000	99.341396 
1271.000000	99.341982 
1270.000000	99.342918 
1269.000000	99.342774 
1268.000000	99.340848 
1267.000000	99.338483 
1266.000000	99.336967 
1265.000000	99.335427 
1264.000000	99.332117 
1263.000000	99.326689 
1262.000000	99.320005 
1261.000000	99.312858 
1260.000000	99.306222 
1259.000000	99.301824 
1258.000000	99.300501 
1257.000000	99.300737 
1256.000000	99.300010 
1255.000000	99.297372 
1254.000000	99.294024 
1253.000000	99.291779 
1252.000000	99.291277 
1251.000000	99.291200 
1250.000000	99.288972 
1249.000000	99.283310 
1248.000000	99.276464 
1247.000000	99.272552 
1246.000000	99.272767 
1245.000000	99.273677 
1244.000000	99.271125 
1243.000000	99.264532 
1242.000000	99.256580 
1241.000000	99.250133 
1240.000000	99.246564 
1239.000000	99.245662 
1238.000000	99.245597 
1237.000000	99.243763 
1236.000000	99.238842 
1235.000000	99.231595 
1234.000000	99.223218 
1233.000000	99.214071 
1232.000000	99.204611 
1231.000000	99.195844 
1230.000000	99.187675 
1229.000000	99.178375 
1228.000000	99.167159 
1227.000000	99.156103 
1226.000000	99.147901 
1225.000000	99.142357 
1224.000000	99.136379 
1223.000000	99.126845 
1222.000000	99.112668 
1221.000000	99.095077 
1220.000000	99.077054 
1219.000000	99.061573 
1218.000000	99.048866 
1217.000000	99.035799 
1216.000000	99.018827 
1215.000000	98.997066 
1214.000000	98.972268 
1213.000000	98.947116 
1212.000000	98.924048 
1211.000000	98.903857 
1210.000000	98.884325 
1209.000000	98.861869 
1208.000000	98.835637 
1207.000000	98.808533 
1206.000000	98.783367 
1205.000000	98.759968 
1204.000000	98.737207 
1203.000000	98.715426 
1202.000000	98.694789 
1201.000000	98.673279 
1200.000000	98.648963 
1199.000000	98.623027 
1198.000000	98.598166 
1197.000000	98.574960 
1196.000000	98.551971 
1195.000000	98.528407 
1194.000000	98.504472 
1193.000000	98.479669 
1192.000000	98.452953 
1191.000000	98.424403 
1190.000000	98.395277 
1189.000000	98.366753 
1188.000000	98.339717 
1187.000000	98.314822 
1186.000000	98.291285 
1185.000000	98.266457 
1184.000000	98.237944 
1183.000000	98.205636 
1182.000000	98.171081 
1181.000000	98.136142 
1180.000000	98.102943 
1179.000000	98.073040 
1178.000000	98.044772 
1177.000000	98.013191 
1176.000000	97.974835 
1175.000000	97.931581 
1174.000000	97.888053 
1173.000000	97.846449 
1172.000000	97.806024 
1171.000000	97.766229 
1170.000000	97.727496 
1169.000000	97.689375 
1168.000000	97.650444 
1167.000000	97.610451 
1166.000000	97.571509 
1165.000000	97.537672 
1164.000000	97.514159 
1163.000000	97.505383 
1162.000000	97.511631 
1161.000000	97.528062 
1160.000000	97.547977 
1159.000000	97.566365 
1158.000000	97.579787 
1157.000000	97.584803 
1156.000000	97.578719 
1155.000000	97.561661 
1154.000000	97.536492 
1153.000000	97.506600 
1152.000000	97.474524 
1151.000000	97.442187 
1150.000000	97.411125 
1149.000000	97.382052 
1148.000000	97.354362 
1147.000000	97.325937 
1146.000000	97.294083 
1145.000000	97.258061 
1144.000000	97.220793 
1143.000000	97.186730 
1142.000000	97.157678 
1141.000000	97.131836 
1140.000000	97.106643 
1139.000000	97.080635 
1138.000000	97.052659 
1137.000000	97.021867 
1136.000000	96.989286 
1135.000000	96.957259 
1134.000000	96.926458 
1133.000000	96.895258 
1132.000000	96.862599 
1131.000000	96.829321 
1130.000000	96.795877 
1129.000000	96.760812 
1128.000000	96.722515 
1127.000000	96.680853 
1126.000000	96.636748 
1125.000000	96.592009 
1124.000000	96.549644 
1123.000000	96.511691 
1122.000000	96.476196 
1121.000000	96.439004 
1120.000000	96.399147 
1119.000000	96.359651 
1118.000000	96.322531 
1117.000000	96.286335 
1116.000000	96.249728 
1115.000000	96.214042 
1114.000000	96.180502 
1113.000000	96.147811 
1112.000000	96.114512 
1111.000000	96.081502 
1110.000000	96.050346 
1109.000000	96.020853 
1108.000000	95.991789 
1107.000000	95.962113 
1106.000000	95.930763 
1105.000000	95.896780 
1104.000000	95.860117 
1103.000000	95.821195 
1102.000000	95.780369 
1101.000000	95.739422 
1100.000000	95.702656 
1099.000000	95.671998 
1098.000000	95.644019 
1097.000000	95.614232 
1096.000000	95.583551 
1095.000000	95.556110 
1094.000000	95.532041 
1093.000000	95.507712 
1092.000000	95.482358 
1091.000000	95.458394 
1090.000000	95.434955 
1089.000000	95.407558 
1088.000000	95.375756 
1087.000000	95.345471 
1086.000000	95.321424 
1085.000000	95.301795 
1084.000000	95.282324 
1083.000000	95.261454 
1082.000000	95.239678 
1081.000000	95.217710 
1080.000000	95.196810 
1079.000000	95.177492 
1078.000000	95.157165 
1077.000000	95.132678 
1076.000000	95.105245 
1075.000000	95.078494 
1074.000000	95.051735 
1073.000000	95.020155 
1072.000000	94.981697 
1071.000000	94.938304 
1070.000000	94.890194 
1069.000000	94.835132 
1068.000000	94.774547 
1067.000000	94.714214 
1066.000000	94.656709 
1065.000000	94.598616 
1064.000000	94.537207 
1063.000000	94.474525 
1062.000000	94.412819 
1061.000000	94.351365 
1060.000000	94.290297 
1059.000000	94.232655 
1058.000000	94.180012 
1057.000000	94.129913 
1056.000000	94.079079 
1055.000000	94.025154 
1054.000000	93.965028 
1053.000000	93.896870 
1052.000000	93.824583 
1051.000000	93.754230 
1050.000000	93.685236 
1049.000000	93.612485 
1048.000000	93.537462 
1047.000000	93.467809 
1046.000000	93.404528 
1045.000000	93.339092 
1044.000000	93.265651 
1043.000000	93.188120 
1042.000000	93.112519 
1041.000000	93.039368 
1040.000000	92.967065 
1039.000000	92.896414 
1038.000000	92.827987 
1037.000000	92.760570 
1036.000000	92.695684 
1035.000000	92.638564 
1034.000000	92.591645 
1033.000000	92.551628 
1032.000000	92.514772 
1031.000000	92.480083 
1030.000000	92.446359 
1029.000000	92.412458 
1028.000000	92.382130 
1027.000000	92.362126 
1026.000000	92.353159 
1025.000000	92.348287 
1024.000000	92.341585 
1023.000000	92.332435 
1022.000000	92.320493 
1021.000000	92.303679 
1020.000000	92.283294 
1019.000000	92.264550 
1018.000000	92.249404 
1017.000000	92.234321 
1016.000000	92.216900 
1015.000000	92.199104 
1014.000000	92.182478 
1013.000000	92.165727 
1012.000000	92.148307 
1011.000000	92.131106 
1010.000000	92.113218 
1009.000000	92.093914 
1008.000000	92.077594 
1007.000000	92.069982 
1006.000000	92.069412 
1005.000000	92.069260 
1004.000000	92.069009 
1003.000000	92.074680 
1002.000000	92.087744 
1001.000000	92.102315 
1000.000000	92.114648 
999.000000	 92.126676 
998.000000	 92.138383 
997.000000	 92.145780 
996.000000	 92.149697 
995.000000	 92.158525 
994.000000	 92.178234 
993.000000	 92.205794 
992.000000	 92.234868 
991.000000	 92.261538 
990.000000	 92.282936 
989.000000	 92.297905 
988.000000	 92.311483 
987.000000	 92.331656 
986.000000	 92.359404 
985.000000	 92.389035 
984.000000	 92.419885 
983.000000	 92.459097 
982.000000	 92.510004 
981.000000	 92.566423 
980.000000	 92.622317 
979.000000	 92.679164 
978.000000	 92.739651 
977.000000	 92.801724 
976.000000	 92.863706 
975.000000	 92.928659 
974.000000	 92.998747 
973.000000	 93.070871 
972.000000	 93.142284 
971.000000	 93.215236 
970.000000	 93.291875 
969.000000	 93.369503 
968.000000	 93.444809 
967.000000	 93.518226 
966.000000	 93.590521 
965.000000	 93.659611 
964.000000	 93.724298 
963.000000	 93.787044 
962.000000	 93.849817 
961.000000	 93.911286 
960.000000	 93.971037 
959.000000	 94.032097 
958.000000	 94.095850 
957.000000	 94.158572 
956.000000	 94.216564 
955.000000	 94.271279 
954.000000	 94.326139 
953.000000	 94.381488 
952.000000	 94.435584 
951.000000	 94.487518 
950.000000	 94.536449 
949.000000	 94.580791 
948.000000	 94.620605 
947.000000	 94.658253 
946.000000	 94.694927 
945.000000	 94.729181 
944.000000	 94.759920 
943.000000	 94.787248 
942.000000	 94.809482 
941.000000	 94.824119 
940.000000	 94.833836 
939.000000	 94.846801 
938.000000	 94.867959 
937.000000	 94.893665 
936.000000	 94.917569 
935.000000	 94.937969 
934.000000	 94.956824 
933.000000	 94.975694 
932.000000	 94.996245 
931.000000	 95.021566 
930.000000	 95.053305 
929.000000	 95.089188 
928.000000	 95.125251 
927.000000	 95.158380 
926.000000	 95.185984 
925.000000	 95.206798 
924.000000	 95.223200 
923.000000	 95.238755 
922.000000	 95.252001 
921.000000	 95.257166 
920.000000	 95.253136 
919.000000	 95.247112 
918.000000	 95.246499 
917.000000	 95.251328 
916.000000	 95.257814 
915.000000	 95.265175 
914.000000	 95.275396 
913.000000	 95.289949 
912.000000	 95.310436 
911.000000	 95.339279 
910.000000	 95.376248 
909.000000	 95.417213 
908.000000	 95.459408 
907.000000	 95.505171 
906.000000	 95.557935 
905.000000	 95.617535 
904.000000	 95.681894 
903.000000	 95.750044 
902.000000	 95.820933 
901.000000	 95.892515 
900.000000	 95.964511 
899.000000	 96.038582 
898.000000	 96.113016 
897.000000	 96.180584 
896.000000	 96.235344 
895.000000	 96.279529 
894.000000	 96.320883 
893.000000	 96.365085 
892.000000	 96.413257 
891.000000	 96.464310 
890.000000	 96.516223 
889.000000	 96.566451 
888.000000	 96.613986 
887.000000	 96.660119 
886.000000	 96.705330 
885.000000	 96.747271 
884.000000	 96.784264 
883.000000	 96.819141 
882.000000	 96.856600 
881.000000	 96.897559 
880.000000	 96.938786 
879.000000	 96.977663 
878.000000	 97.014850 
877.000000	 97.051941 
876.000000	 97.088179 
875.000000	 97.120269 
874.000000	 97.145626 
873.000000	 97.166502 
872.000000	 97.190428 
871.000000	 97.224238 
870.000000	 97.266526 
869.000000	 97.307885 
868.000000	 97.340074 
867.000000	 97.363725 
866.000000	 97.386229 
865.000000	 97.413518 
864.000000	 97.445383 
863.000000	 97.477758 
862.000000	 97.507766 
861.000000	 97.536191 
860.000000	 97.565661 
859.000000	 97.597256 
858.000000	 97.630031 
857.000000	 97.663950 
856.000000	 97.700784 
855.000000	 97.739825 
854.000000	 97.774647 
853.000000	 97.797885 
852.000000	 97.809067 
851.000000	 97.814559 
850.000000	 97.819803 
849.000000	 97.825197 
848.000000	 97.830147 
847.000000	 97.836567 
846.000000	 97.845726 
845.000000	 97.854992 
844.000000	 97.860966 
843.000000	 97.863451 
842.000000	 97.862832 
841.000000	 97.855334 
840.000000	 97.835393 
839.000000	 97.803384 
838.000000	 97.767816 
837.000000	 97.738053 
836.000000	 97.716383 
835.000000	 97.698748 
834.000000	 97.682222 
833.000000	 97.669126 
832.000000	 97.661891 
831.000000	 97.655566 
830.000000	 97.640737 
829.000000	 97.617164 
828.000000	 97.600363 
827.000000	 97.607788 
826.000000	 97.638527 
825.000000	 97.673414 
824.000000	 97.696588 
823.000000	 97.709566 
822.000000	 97.721705 
821.000000	 97.734947 
820.000000	 97.743068 
819.000000	 97.740521 
818.000000	 97.727527 
817.000000	 97.709240 
816.000000	 97.691919 
815.000000	 97.676796 
814.000000	 97.656006 
813.000000	 97.618260 
812.000000	 97.560768 
811.000000	 97.491882 
810.000000	 97.419398 
809.000000	 97.340105 
808.000000	 97.244660 
807.000000	 97.129063 
806.000000	 96.996590 
805.000000	 96.851335 
804.000000	 96.696654 
803.000000	 96.540483 
802.000000	 96.396573 
801.000000	 96.277697 
800.000000	 96.188697 
799.000000	 96.126051 
798.000000	 96.083712 
797.000000	 96.060584 
796.000000	 96.061587 
795.000000	 96.088875 
794.000000	 96.133685 
793.000000	 96.181194 
792.000000	 96.221640 
791.000000	 96.251190 
790.000000	 96.264725 
789.000000	 96.257298 
788.000000	 96.234096 
787.000000	 96.209673 
786.000000	 96.192065 
785.000000	 96.173298 
784.000000	 96.140448 
783.000000	 96.091315 
782.000000	 96.034945 
781.000000	 95.981491 
780.000000	 95.936605 
779.000000	 95.902470 
778.000000	 95.880109 
777.000000	 95.873308 
776.000000	 95.891566 
775.000000	 95.942923 
774.000000	 96.020434 
773.000000	 96.102286 
772.000000	 96.170216 
771.000000	 96.222573 
770.000000	 96.265433 
769.000000	 96.298190 
768.000000	 96.316278 
767.000000	 96.323787 
766.000000	 96.332962 
765.000000	 96.350172 
764.000000	 96.369509 
763.000000	 96.381840 
762.000000	 96.385113 
761.000000	 96.384253 
760.000000	 96.385250 
759.000000	 96.391700 
758.000000	 96.404257 
757.000000	 96.421080 
756.000000	 96.439574 
755.000000	 96.458845 
754.000000	 96.480642 
753.000000	 96.508139 
752.000000	 96.543425 
751.000000	 96.584028 
750.000000	 96.621276 
749.000000	 96.645187 
748.000000	 96.654060 
747.000000	 96.658304 
746.000000	 96.672082 
745.000000	 96.700372 
744.000000	 96.735386 
743.000000	 96.765632 
742.000000	 96.787043 
741.000000	 96.804352 
740.000000	 96.823019 
739.000000	 96.843027 
738.000000	 96.862214 
737.000000	 96.882916 
736.000000	 96.910333 
735.000000	 96.944317 
734.000000	 96.978613 
733.000000	 97.010525 
732.000000	 97.045103 
731.000000	 97.084328 
730.000000	 97.117691 
729.000000	 97.131386 
728.000000	 97.125721 
727.000000	 97.115130 
726.000000	 97.110770 
725.000000	 97.113342 
724.000000	 97.123464 
723.000000	 97.146547 
722.000000	 97.181168 
721.000000	 97.211601 
720.000000	 97.221156 
719.000000	 97.210006 
718.000000	 97.193502 
717.000000	 97.186588 
716.000000	 97.194797 
715.000000	 97.215125 
714.000000	 97.239099 
713.000000	 97.257468 
712.000000	 97.266930 
711.000000	 97.270833 
710.000000	 97.272438 
709.000000	 97.271722 
708.000000	 97.270807 
707.000000	 97.275929 
706.000000	 97.286985 
705.000000	 97.292541 
704.000000	 97.282433 
703.000000	 97.258555 
702.000000	 97.227043 
701.000000	 97.184817 
700.000000	 97.120816 
699.000000	 97.029894 
698.000000	 96.917726 
697.000000	 96.796053 
696.000000	 96.681812 
695.000000	 96.596485 
694.000000	 96.558781 
693.000000	 96.573179 
692.000000	 96.626336 
691.000000	 96.696641 
690.000000	 96.765342 
689.000000	 96.824520 
688.000000	 96.879066 
687.000000	 96.937852 
686.000000	 97.002650 
685.000000	 97.067125 
684.000000	 97.125516 
683.000000	 97.177677 
682.000000	 97.223214 
681.000000	 97.258193 
680.000000	 97.282980 
679.000000	 97.307016 
678.000000	 97.335142 
677.000000	 97.351459 
676.000000	 97.337859 
675.000000	 97.305893 
674.000000	 97.288302 
673.000000	 97.301601 
672.000000	 97.336140 
671.000000	 97.380505 
670.000000	 97.435962 
669.000000	 97.493514 
668.000000	 97.506850 
667.000000	 97.464059 
666.000000	 97.430771 
665.000000	 97.435679 
664.000000	 97.469772 
663.000000	 97.520552 
662.000000	 97.578147 
661.000000	 97.637260 
660.000000	 97.700878 
659.000000	 97.771615 
658.000000	 97.833186 
657.000000	 97.850205 
656.000000	 97.806734 
655.000000	 97.735839 
654.000000	 97.686047 
653.000000	 97.663430 
652.000000	 97.633382 
651.000000	 97.572960 
650.000000	 97.496272 

