4000.000000	99.217800 
3999.000000	99.218194 
3998.000000	99.218476 
3997.000000	99.218203 
3996.000000	99.217272 
3995.000000	99.216055 
3994.000000	99.215162 
3993.000000	99.214980 
3992.000000	99.215404 
3991.000000	99.215926 
3990.000000	99.216068 
3989.000000	99.215850 
3988.000000	99.215828 
3987.000000	99.216563 
3986.000000	99.218039 
3985.000000	99.219554 
3984.000000	99.220230 
3983.000000	99.219616 
3982.000000	99.217885 
3981.000000	99.215643 
3980.000000	99.213479 
3979.000000	99.211673 
3978.000000	99.210366 
3977.000000	99.209825 
3976.000000	99.210314 
3975.000000	99.211772 
3974.000000	99.213741 
3973.000000	99.215594 
3972.000000	99.216885 
3971.000000	99.217524 
3970.000000	99.217612 
3969.000000	99.217231 
3968.000000	99.216426 
3967.000000	99.215271 
3966.000000	99.213967 
3965.000000	99.212870 
3964.000000	99.212257 
3963.000000	99.212045 
3962.000000	99.211811 
3961.000000	99.211166 
3960.000000	99.210090 
3959.000000	99.208935 
3958.000000	99.208115 
3957.000000	99.207779 
3956.000000	99.207815 
3955.000000	99.208025 
3954.000000	99.208266 
3953.000000	99.208453 
3952.000000	99.208513 
3951.000000	99.208433 
3950.000000	99.208276 
3949.000000	99.208127 
3948.000000	99.208014 
3947.000000	99.207884 
3946.000000	99.207704 
3945.000000	99.207539 
3944.000000	99.207509 
3943.000000	99.207613 
3942.000000	99.207692 
3941.000000	99.207593 
3940.000000	99.207256 
3939.000000	99.206641 
3938.000000	99.205719 
3937.000000	99.204582 
3936.000000	99.203575 
3935.000000	99.203163 
3934.000000	99.203626 
3933.000000	99.204830 
3932.000000	99.206200 
3931.000000	99.207022 
3930.000000	99.206884 
3929.000000	99.205905 
3928.000000	99.204693 
3927.000000	99.203936 
3926.000000	99.203950 
3925.000000	99.204449 
3924.000000	99.204735 
3923.000000	99.204340 
3922.000000	99.203411 
3921.000000	99.202518 
3920.000000	99.202168 
3919.000000	99.202508 
3918.000000	99.203377 
3917.000000	99.204466 
3916.000000	99.205455 
3915.000000	99.206149 
3914.000000	99.206592 
3913.000000	99.206964 
3912.000000	99.207319 
3911.000000	99.207557 
3910.000000	99.207620 
3909.000000	99.207608 
3908.000000	99.207642 
3907.000000	99.207548 
3906.000000	99.206801 
3905.000000	99.204893 
3904.000000	99.201801 
3903.000000	99.198360 
3902.000000	99.195947 
3901.000000	99.195437 
3900.000000	99.196707 
3899.000000	99.198787 
3898.000000	99.200594 
3897.000000	99.201685 
3896.000000	99.202125 
3895.000000	99.202083 
3894.000000	99.201712 
3893.000000	99.201123 
3892.000000	99.200347 
3891.000000	99.199329 
3890.000000	99.198151 
3889.000000	99.197111 
3888.000000	99.196557 
3887.000000	99.196728 
3886.000000	99.197447 
3885.000000	99.198082 
3884.000000	99.198174 
3883.000000	99.197934 
3882.000000	99.197914 
3881.000000	99.198348 
3880.000000	99.198897 
3879.000000	99.199100 
3878.000000	99.198962 
3877.000000	99.198832 
3876.000000	99.198968 
3875.000000	99.199278 
3874.000000	99.199439 
3873.000000	99.199302 
3872.000000	99.199036 
3871.000000	99.198892 
3870.000000	99.198944 
3869.000000	99.199093 
3868.000000	99.199257 
3867.000000	99.199431 
3866.000000	99.199636 
3865.000000	99.199871 
3864.000000	99.200123 
3863.000000	99.200392 
3862.000000	99.200678 
3861.000000	99.200976 
3860.000000	99.201281 
3859.000000	99.201580 
3858.000000	99.201866 
3857.000000	99.202133 
3856.000000	99.202382 
3855.000000	99.202616 
3854.000000	99.202842 
3853.000000	99.203065 
3852.000000	99.203290 
3851.000000	99.203523 
3850.000000	99.203768 
3849.000000	99.204022 
3848.000000	99.204281 
3847.000000	99.204539 
3846.000000	99.204789 
3845.000000	99.205029 
3844.000000	99.205261 
3843.000000	99.205490 
3842.000000	99.205716 
3841.000000	99.205933 
3840.000000	99.206137 
3839.000000	99.206326 
3838.000000	99.206507 
3837.000000	99.206689 
3836.000000	99.206876 
3835.000000	99.207066 
3834.000000	99.207257 
3833.000000	99.207444 
3832.000000	99.207625 
3831.000000	99.207801 
3830.000000	99.207967 
3829.000000	99.208121 
3828.000000	99.208257 
3827.000000	99.208373 
3826.000000	99.208469 
3825.000000	99.208543 
3824.000000	99.208596 
3823.000000	99.208633 
3822.000000	99.208662 
3821.000000	99.208688 
3820.000000	99.208713 
3819.000000	99.208736 
3818.000000	99.208757 
3817.000000	99.208774 
3816.000000	99.208783 
3815.000000	99.208777 
3814.000000	99.208758 
3813.000000	99.208730 
3812.000000	99.208703 
3811.000000	99.208682 
3810.000000	99.208663 
3809.000000	99.208640 
3808.000000	99.208604 
3807.000000	99.208552 
3806.000000	99.208480 
3805.000000	99.208391 
3804.000000	99.208288 
3803.000000	99.208174 
3802.000000	99.208055 
3801.000000	99.207926 
3800.000000	99.207783 
3799.000000	99.207630 
3798.000000	99.207471 
3797.000000	99.207313 
3796.000000	99.207152 
3795.000000	99.206982 
3794.000000	99.206797 
3793.000000	99.206600 
3792.000000	99.206395 
3791.000000	99.206186 
3790.000000	99.205976 
3789.000000	99.205768 
3788.000000	99.205564 
3787.000000	99.205368 
3786.000000	99.205179 
3785.000000	99.204994 
3784.000000	99.204809 
3783.000000	99.204622 
3782.000000	99.204430 
3781.000000	99.204231 
3780.000000	99.204044 
3779.000000	99.203882 
3778.000000	99.203693 
3777.000000	99.203408 
3776.000000	99.203016 
3775.000000	99.202574 
3774.000000	99.202142 
3773.000000	99.201743 
3772.000000	99.201386 
3771.000000	99.201091 
3770.000000	99.200811 
3769.000000	99.200400 
3768.000000	99.199849 
3767.000000	99.199355 
3766.000000	99.199047 
3765.000000	99.198770 
3764.000000	99.198201 
3763.000000	99.197216 
3762.000000	99.196150 
3761.000000	99.195646 
3760.000000	99.195950 
3759.000000	99.196423 
3758.000000	99.196375 
3757.000000	99.195973 
3756.000000	99.195681 
3755.000000	99.195449 
3754.000000	99.194908 
3753.000000	99.194136 
3752.000000	99.193680 
3751.000000	99.193486 
3750.000000	99.193041 
3749.000000	99.192769 
3748.000000	99.193446 
3747.000000	99.194885 
3746.000000	99.196534 
3745.000000	99.197717 
3744.000000	99.197131 
3743.000000	99.194493 
3742.000000	99.190938 
3741.000000	99.186984 
3740.000000	99.182418 
3739.000000	99.177060 
3738.000000	99.172130 
3737.000000	99.170496 
3736.000000	99.173962 
3735.000000	99.180337 
3734.000000	99.184882 
3733.000000	99.185409 
3732.000000	99.183301 
3731.000000	99.180409 
3730.000000	99.176979 
3729.000000	99.172447 
3728.000000	99.167601 
3727.000000	99.164428 
3726.000000	99.163698 
3725.000000	99.164272 
3724.000000	99.165071 
3723.000000	99.166349 
3722.000000	99.168223 
3721.000000	99.169911 
3720.000000	99.170116 
3719.000000	99.167601 
3718.000000	99.162184 
3717.000000	99.154716 
3716.000000	99.146368 
3715.000000	99.137887 
3714.000000	99.129458 
3713.000000	99.121676 
3712.000000	99.115633 
3711.000000	99.111955 
3710.000000	99.109745 
3709.000000	99.106893 
3708.000000	99.101955 
3707.000000	99.095154 
3706.000000	99.088047 
3705.000000	99.082423 
3704.000000	99.079057 
3703.000000	99.076874 
3702.000000	99.073110 
3701.000000	99.065532 
3700.000000	99.054553 
3699.000000	99.042614 
3698.000000	99.032109 
3697.000000	99.024081 
3696.000000	99.018091 
3695.000000	99.013082 
3694.000000	99.008544 
3693.000000	99.004701 
3692.000000	99.001651 
3691.000000	98.998826 
3690.000000	98.995122 
3689.000000	98.989710 
3688.000000	98.982881 
3687.000000	98.975666 
3686.000000	98.968775 
3685.000000	98.962508 
3684.000000	98.956991 
3683.000000	98.952038 
3682.000000	98.947053 
3681.000000	98.941302 
3680.000000	98.934347 
3679.000000	98.926226 
3678.000000	98.917592 
3677.000000	98.909875 
3676.000000	98.904181 
3675.000000	98.899585 
3674.000000	98.894054 
3673.000000	98.886816 
3672.000000	98.878609 
3671.000000	98.871319 
3670.000000	98.866218 
3669.000000	98.862208 
3668.000000	98.857474 
3667.000000	98.851894 
3666.000000	98.846478 
3665.000000	98.841725 
3664.000000	98.836947 
3663.000000	98.831071 
3662.000000	98.823754 
3661.000000	98.815228 
3660.000000	98.805717 
3659.000000	98.795820 
3658.000000	98.787290 
3657.000000	98.781932 
3656.000000	98.778886 
3655.000000	98.775000 
3654.000000	98.768137 
3653.000000	98.758566 
3652.000000	98.747693 
3651.000000	98.736858 
3650.000000	98.726852 
3649.000000	98.718692 
3648.000000	98.713855 
3647.000000	98.712257 
3646.000000	98.711876 
3645.000000	98.711117 
3644.000000	98.710238 
3643.000000	98.710279 
3642.000000	98.711823 
3641.000000	98.714047 
3640.000000	98.715322 
3639.000000	98.714226 
3638.000000	98.710071 
3637.000000	98.703214 
3636.000000	98.694883 
3635.000000	98.686435 
3634.000000	98.678062 
3633.000000	98.668668 
3632.000000	98.657604 
3631.000000	98.646676 
3630.000000	98.639841 
3629.000000	98.637708 
3628.000000	98.634743 
3627.000000	98.628051 
3626.000000	98.621144 
3625.000000	98.618143 
3624.000000	98.620137 
3623.000000	98.625686 
3622.000000	98.633076 
3621.000000	98.642202 
3620.000000	98.652590 
3619.000000	98.660598 
3618.000000	98.662623 
3617.000000	98.660657 
3616.000000	98.660681 
3615.000000	98.666951 
3614.000000	98.677835 
3613.000000	98.687056 
3612.000000	98.690377 
3611.000000	98.690134 
3610.000000	98.692126 
3609.000000	98.699659 
3608.000000	98.710490 
3607.000000	98.720068 
3606.000000	98.727021 
3605.000000	98.733281 
3604.000000	98.740739 
3603.000000	98.749515 
3602.000000	98.758671 
3601.000000	98.767672 
3600.000000	98.775794 
3599.000000	98.781344 
3598.000000	98.782910 
3597.000000	98.781110 
3596.000000	98.778561 
3595.000000	98.778402 
3594.000000	98.781581 
3593.000000	98.786331 
3592.000000	98.790189 
3591.000000	98.791901 
3590.000000	98.792415 
3589.000000	98.794146 
3588.000000	98.797913 
3587.000000	98.800622 
3586.000000	98.799406 
3585.000000	98.795999 
3584.000000	98.794786 
3583.000000	98.797797 
3582.000000	98.803117 
3581.000000	98.807086 
3580.000000	98.807609 
3579.000000	98.805363 
3578.000000	98.802237 
3577.000000	98.799596 
3576.000000	98.797716 
3575.000000	98.796397 
3574.000000	98.795346 
3573.000000	98.794075 
3572.000000	98.792241 
3571.000000	98.789966 
3570.000000	98.787587 
3569.000000	98.785547 
3568.000000	98.784262 
3567.000000	98.783333 
3566.000000	98.781836 
3565.000000	98.779887 
3564.000000	98.778715 
3563.000000	98.779388 
3562.000000	98.781919 
3561.000000	98.785171 
3560.000000	98.787605 
3559.000000	98.788156 
3558.000000	98.786723 
3557.000000	98.784025 
3556.000000	98.781206 
3555.000000	98.779282 
3554.000000	98.778647 
3553.000000	98.778611 
3552.000000	98.777802 
3551.000000	98.775422 
3550.000000	98.771940 
3549.000000	98.768561 
3548.000000	98.766377 
3547.000000	98.765686 
3546.000000	98.765964 
3545.000000	98.766221 
3544.000000	98.765798 
3543.000000	98.764875 
3542.000000	98.764169 
3541.000000	98.764124 
3540.000000	98.764502 
3539.000000	98.764625 
3538.000000	98.764116 
3537.000000	98.763168 
3536.000000	98.762228 
3535.000000	98.761575 
3534.000000	98.761153 
3533.000000	98.760766 
3532.000000	98.760294 
3531.000000	98.759767 
3530.000000	98.759217 
3529.000000	98.758574 
3528.000000	98.757737 
3527.000000	98.756742 
3526.000000	98.755779 
3525.000000	98.755031 
3524.000000	98.754509 
3523.000000	98.754079 
3522.000000	98.753602 
3521.000000	98.753038 
3520.000000	98.752424 
3519.000000	98.751802 
3518.000000	98.751197 
3517.000000	98.750617 
3516.000000	98.750045 
3515.000000	98.749441 
3514.000000	98.748773 
3513.000000	98.748050 
3512.000000	98.747317 
3511.000000	98.746622 
3510.000000	98.745981 
3509.000000	98.745377 
3508.000000	98.744793 
3507.000000	98.744223 
3506.000000	98.743668 
3505.000000	98.743120 
3504.000000	98.742553 
3503.000000	98.741947 
3502.000000	98.741307 
3501.000000	98.740661 
3500.000000	98.740039 
3499.000000	98.739438 
3498.000000	98.738802 
3497.000000	98.738076 
3496.000000	98.737253 
3495.000000	98.736384 
3494.000000	98.735538 
3493.000000	98.734746 
3492.000000	98.734005 
3491.000000	98.733285 
3490.000000	98.732552 
3489.000000	98.731782 
3488.000000	98.730972 
3487.000000	98.730121 
3486.000000	98.729225 
3485.000000	98.728290 
3484.000000	98.727338 
3483.000000	98.726379 
3482.000000	98.725398 
3481.000000	98.724375 
3480.000000	98.723340 
3479.000000	98.722353 
3478.000000	98.721418 
3477.000000	98.720453 
3476.000000	98.719410 
3475.000000	98.718395 
3474.000000	98.717600 
3473.000000	98.717052 
3472.000000	98.716484 
3471.000000	98.715568 
3470.000000	98.714285 
3469.000000	98.712991 
3468.000000	98.712037 
3467.000000	98.711340 
3466.000000	98.710500 
3465.000000	98.709285 
3464.000000	98.707821 
3463.000000	98.706308 
3462.000000	98.704737 
3461.000000	98.703067 
3460.000000	98.701506 
3459.000000	98.700381 
3458.000000	98.699696 
3457.000000	98.698970 
3456.000000	98.697685 
3455.000000	98.695782 
3454.000000	98.693687 
3453.000000	98.691918 
3452.000000	98.690604 
3451.000000	98.689478 
3450.000000	98.688237 
3449.000000	98.686868 
3448.000000	98.685547 
3447.000000	98.684243 
3446.000000	98.682633 
3445.000000	98.680551 
3444.000000	98.678350 
3443.000000	98.676593 
3442.000000	98.675390 
3441.000000	98.674231 
3440.000000	98.672602 
3439.000000	98.670590 
3438.000000	98.668674 
3437.000000	98.667043 
3436.000000	98.665417 
3435.000000	98.663617 
3434.000000	98.662007 
3433.000000	98.661255 
3432.000000	98.661627 
3431.000000	98.662668 
3430.000000	98.663561 
3429.000000	98.663826 
3428.000000	98.663512 
3427.000000	98.662717 
3426.000000	98.661132 
3425.000000	98.658332 
3424.000000	98.654556 
3423.000000	98.650861 
3422.000000	98.648237 
3421.000000	98.646765 
3420.000000	98.645905 
3419.000000	98.645394 
3418.000000	98.645472 
3417.000000	98.646185 
3416.000000	98.646945 
3415.000000	98.646991 
3414.000000	98.646059 
3413.000000	98.644476 
3412.000000	98.642829 
3411.000000	98.641671 
3410.000000	98.641271 
3409.000000	98.641352 
3408.000000	98.641115 
3407.000000	98.639841 
3406.000000	98.637635 
3405.000000	98.635479 
3404.000000	98.634433 
3403.000000	98.634763 
3402.000000	98.635826 
3401.000000	98.636772 
3400.000000	98.637369 
3399.000000	98.638072 
3398.000000	98.639285 
3397.000000	98.640688 
3396.000000	98.641428 
3395.000000	98.640984 
3394.000000	98.639651 
3393.000000	98.638157 
3392.000000	98.636966 
3391.000000	98.636123 
3390.000000	98.635712 
3389.000000	98.636090 
3388.000000	98.637489 
3387.000000	98.639598 
3386.000000	98.641751 
3385.000000	98.643501 
3384.000000	98.644805 
3383.000000	98.645632 
3382.000000	98.645699 
3381.000000	98.644809 
3380.000000	98.643312 
3379.000000	98.642078 
3378.000000	98.641819 
3377.000000	98.642531 
3376.000000	98.643623 
3375.000000	98.644458 
3374.000000	98.644856 
3373.000000	98.645090 
3372.000000	98.645511 
3371.000000	98.646221 
3370.000000	98.647038 
3369.000000	98.647703 
3368.000000	98.648099 
3367.000000	98.648350 
3366.000000	98.648717 
3365.000000	98.649347 
3364.000000	98.650112 
3363.000000	98.650733 
3362.000000	98.651085 
3361.000000	98.651309 
3360.000000	98.651612 
3359.000000	98.652042 
3358.000000	98.652493 
3357.000000	98.652925 
3356.000000	98.653458 
3355.000000	98.654208 
3354.000000	98.655084 
3353.000000	98.655838 
3352.000000	98.656329 
3351.000000	98.656672 
3350.000000	98.657128 
3349.000000	98.657869 
3348.000000	98.658867 
3347.000000	98.659942 
3346.000000	98.660893 
3345.000000	98.661624 
3344.000000	98.662190 
3343.000000	98.662726 
3342.000000	98.663311 
3341.000000	98.663878 
3340.000000	98.664288 
3339.000000	98.664510 
3338.000000	98.664751 
3337.000000	98.665312 
3336.000000	98.666319 
3335.000000	98.667621 
3334.000000	98.668939 
3333.000000	98.670160 
3332.000000	98.671339 
3331.000000	98.672496 
3330.000000	98.673536 
3329.000000	98.674348 
3328.000000	98.674954 
3327.000000	98.675506 
3326.000000	98.676150 
3325.000000	98.676917 
3324.000000	98.677727 
3323.000000	98.678509 
3322.000000	98.679290 
3321.000000	98.680159 
3320.000000	98.681140 
3319.000000	98.682161 
3318.000000	98.683145 
3317.000000	98.684097 
3316.000000	98.685038 
3315.000000	98.685942 
3314.000000	98.686778 
3313.000000	98.687594 
3312.000000	98.688486 
3311.000000	98.689468 
3310.000000	98.690431 
3309.000000	98.691261 
3308.000000	98.691969 
3307.000000	98.692646 
3306.000000	98.693361 
3305.000000	98.694121 
3304.000000	98.694914 
3303.000000	98.695740 
3302.000000	98.696587 
3301.000000	98.697409 
3300.000000	98.698157 
3299.000000	98.698823 
3298.000000	98.699450 
3297.000000	98.700108 
3296.000000	98.700839 
3295.000000	98.701632 
3294.000000	98.702431 
3293.000000	98.703172 
3292.000000	98.703852 
3291.000000	98.704538 
3290.000000	98.705276 
3289.000000	98.705992 
3288.000000	98.706588 
3287.000000	98.707080 
3286.000000	98.707588 
3285.000000	98.708175 
3284.000000	98.708772 
3283.000000	98.709303 
3282.000000	98.709815 
3281.000000	98.710443 
3280.000000	98.711254 
3279.000000	98.712162 
3278.000000	98.712990 
3277.000000	98.713605 
3276.000000	98.713978 
3275.000000	98.714156 
3274.000000	98.714237 
3273.000000	98.714389 
3272.000000	98.714832 
3271.000000	98.715700 
3270.000000	98.716894 
3269.000000	98.718114 
3268.000000	98.719056 
3267.000000	98.719580 
3266.000000	98.719717 
3265.000000	98.719656 
3264.000000	98.719769 
3263.000000	98.720498 
3262.000000	98.722100 
3261.000000	98.724433 
3260.000000	98.726986 
3259.000000	98.729112 
3258.000000	98.730336 
3257.000000	98.730560 
3256.000000	98.730119 
3255.000000	98.729537 
3254.000000	98.729153 
3253.000000	98.729060 
3252.000000	98.729374 
3251.000000	98.730339 
3250.000000	98.732007 
3249.000000	98.734019 
3248.000000	98.735903 
3247.000000	98.737503 
3246.000000	98.738889 
3245.000000	98.739986 
3244.000000	98.740580 
3243.000000	98.740730 
3242.000000	98.740885 
3241.000000	98.741469 
3240.000000	98.742526 
3239.000000	98.743924 
3238.000000	98.745757 
3237.000000	98.748297 
3236.000000	98.751497 
3235.000000	98.754679 
3234.000000	98.756912 
3233.000000	98.757765 
3232.000000	98.757632 
3231.000000	98.757353 
3230.000000	98.757475 
3229.000000	98.757936 
3228.000000	98.758384 
3227.000000	98.758585 
3226.000000	98.758495 
3225.000000	98.758197 
3224.000000	98.757968 
3223.000000	98.758284 
3222.000000	98.759488 
3221.000000	98.761389 
3220.000000	98.763331 
3219.000000	98.764738 
3218.000000	98.765591 
3217.000000	98.766380 
3216.000000	98.767690 
3215.000000	98.769757 
3214.000000	98.772244 
3213.000000	98.774379 
3212.000000	98.775472 
3211.000000	98.775377 
3210.000000	98.774535 
3209.000000	98.773637 
3208.000000	98.773235 
3207.000000	98.773608 
3206.000000	98.774746 
3205.000000	98.776390 
3204.000000	98.778193 
3203.000000	98.779963 
3202.000000	98.781689 
3201.000000	98.783323 
3200.000000	98.784729 
3199.000000	98.785887 
3198.000000	98.786970 
3197.000000	98.788072 
3196.000000	98.789019 
3195.000000	98.789629 
3194.000000	98.790040 
3193.000000	98.790572 
3192.000000	98.791273 
3191.000000	98.791859 
3190.000000	98.792100 
3189.000000	98.792160 
3188.000000	98.792474 
3187.000000	98.793379 
3186.000000	98.794889 
3185.000000	98.796714 
3184.000000	98.798405 
3183.000000	98.799611 
3182.000000	98.800368 
3181.000000	98.801164 
3180.000000	98.802584 
3179.000000	98.804785 
3178.000000	98.807278 
3177.000000	98.809244 
3176.000000	98.810210 
3175.000000	98.810433 
3174.000000	98.810681 
3173.000000	98.811490 
3172.000000	98.812620 
3171.000000	98.813401 
3170.000000	98.813624 
3169.000000	98.813913 
3168.000000	98.815034 
3167.000000	98.816920 
3166.000000	98.818634 
3165.000000	98.819341 
3164.000000	98.819120 
3163.000000	98.818786 
3162.000000	98.819061 
3161.000000	98.820036 
3160.000000	98.821336 
3159.000000	98.822537 
3158.000000	98.823373 
3157.000000	98.823767 
3156.000000	98.823853 
3155.000000	98.823949 
3154.000000	98.824304 
3153.000000	98.824793 
3152.000000	98.824982 
3151.000000	98.824654 
3150.000000	98.824226 
3149.000000	98.824452 
3148.000000	98.825675 
3147.000000	98.827500 
3146.000000	98.829249 
3145.000000	98.830658 
3144.000000	98.831972 
3143.000000	98.833462 
3142.000000	98.835068 
3141.000000	98.836527 
3140.000000	98.837674 
3139.000000	98.838546 
3138.000000	98.839254 
3137.000000	98.839918 
3136.000000	98.840685 
3135.000000	98.841687 
3134.000000	98.842908 
3133.000000	98.844118 
3132.000000	98.845033 
3131.000000	98.845572 
3130.000000	98.845964 
3129.000000	98.846606 
3128.000000	98.847774 
3127.000000	98.849441 
3126.000000	98.851290 
3125.000000	98.852854 
3124.000000	98.853790 
3123.000000	98.854052 
3122.000000	98.853921 
3121.000000	98.853853 
3120.000000	98.854186 
3119.000000	98.854983 
3118.000000	98.856073 
3117.000000	98.857219 
3116.000000	98.858294 
3115.000000	98.859361 
3114.000000	98.860580 
3113.000000	98.861955 
3112.000000	98.863207 
3111.000000	98.864006 
3110.000000	98.864380 
3109.000000	98.864748 
3108.000000	98.865449 
3107.000000	98.866322 
3106.000000	98.866899 
3105.000000	98.866954 
3104.000000	98.866802 
3103.000000	98.867074 
3102.000000	98.868234 
3101.000000	98.870272 
3100.000000	98.872660 
3099.000000	98.874685 
3098.000000	98.875956 
3097.000000	98.876578 
3096.000000	98.876923 
3095.000000	98.877296 
3094.000000	98.877787 
3093.000000	98.878310 
3092.000000	98.878643 
3091.000000	98.878593 
3090.000000	98.878283 
3089.000000	98.878187 
3088.000000	98.878609 
3087.000000	98.879184 
3086.000000	98.879199 
3085.000000	98.878494 
3084.000000	98.877666 
3083.000000	98.877208 
3082.000000	98.876868 
3081.000000	98.876204 
3080.000000	98.875489 
3079.000000	98.875617 
3078.000000	98.877219 
3077.000000	98.880205 
3076.000000	98.884021 
3075.000000	98.887929 
3074.000000	98.891045 
3073.000000	98.892597 
3072.000000	98.892364 
3071.000000	98.890713 
3070.000000	98.888132 
3069.000000	98.884966 
3068.000000	98.881711 
3067.000000	98.879310 
3066.000000	98.878925 
3065.000000	98.881280 
3064.000000	98.885975 
3063.000000	98.891170 
3062.000000	98.894252 
3061.000000	98.893509 
3060.000000	98.889567 
3059.000000	98.885020 
3058.000000	98.882426 
3057.000000	98.882705 
3056.000000	98.885278 
3055.000000	98.889018 
3054.000000	98.892599 
3053.000000	98.894485 
3052.000000	98.893523 
3051.000000	98.889884 
3050.000000	98.885244 
3049.000000	98.881778 
3048.000000	98.880736 
3047.000000	98.881551 
3046.000000	98.882040 
3045.000000	98.879856 
3044.000000	98.874470 
3043.000000	98.867949 
3042.000000	98.863368 
3041.000000	98.862061 
3040.000000	98.862559 
3039.000000	98.862222 
3038.000000	98.859527 
3037.000000	98.854663 
3036.000000	98.848513 
3035.000000	98.841815 
3034.000000	98.835237 
3033.000000	98.829382 
3032.000000	98.824197 
3031.000000	98.818721 
3030.000000	98.811983 
3029.000000	98.804197 
3028.000000	98.796823 
3027.000000	98.791320 
3026.000000	98.787651 
3025.000000	98.783812 
3024.000000	98.777046 
3023.000000	98.765991 
3022.000000	98.751917 
3021.000000	98.737565 
3020.000000	98.724478 
3019.000000	98.711786 
3018.000000	98.698000 
3017.000000	98.683393 
3016.000000	98.669729 
3015.000000	98.657828 
3014.000000	98.646582 
3013.000000	98.634791 
3012.000000	98.622960 
3011.000000	98.612385 
3010.000000	98.602959 
3009.000000	98.592958 
3008.000000	98.581004 
3007.000000	98.567474 
3006.000000	98.553759 
3005.000000	98.540616 
3004.000000	98.527555 
3003.000000	98.513642 
3002.000000	98.498684 
3001.000000	98.483729 
3000.000000	98.470375 
2999.000000	98.459478 
2998.000000	98.450635 
2997.000000	98.443061 
2996.000000	98.436490 
2995.000000	98.430390 
2994.000000	98.422319 
2993.000000	98.408280 
2992.000000	98.385965 
2991.000000	98.357974 
2990.000000	98.331401 
2989.000000	98.313631 
2988.000000	98.308060 
2987.000000	98.312951 
2986.000000	98.323250 
2985.000000	98.333571 
2984.000000	98.340328 
2983.000000	98.342218 
2982.000000	98.339762 
2981.000000	98.334831 
2980.000000	98.330060 
2979.000000	98.327661 
2978.000000	98.328035 
2977.000000	98.329402 
2976.000000	98.329048 
2975.000000	98.325355 
2974.000000	98.318994 
2973.000000	98.312442 
2972.000000	98.308357 
2971.000000	98.308087 
2970.000000	98.311281 
2969.000000	98.316592 
2968.000000	98.322696 
2967.000000	98.328921 
2966.000000	98.335282 
2965.000000	98.342097 
2964.000000	98.349459 
2963.000000	98.356894 
2962.000000	98.363633 
2961.000000	98.369393 
2960.000000	98.374790 
2959.000000	98.380819 
2958.000000	98.387873 
2957.000000	98.395354 
2956.000000	98.402241 
2955.000000	98.408115 
2954.000000	98.413816 
2953.000000	98.420980 
2952.000000	98.430563 
2951.000000	98.441614 
2950.000000	98.451800 
2949.000000	98.459304 
2948.000000	98.463850 
2947.000000	98.465888 
2946.000000	98.465781 
2945.000000	98.464534 
2944.000000	98.464303 
2943.000000	98.466699 
2942.000000	98.470514 
2941.000000	98.472352 
2940.000000	98.470025 
2939.000000	98.464974 
2938.000000	98.460942 
2937.000000	98.460428 
2936.000000	98.462664 
2935.000000	98.464703 
2934.000000	98.464119 
2933.000000	98.460687 
2932.000000	98.455788 
2931.000000	98.450352 
2930.000000	98.443910 
2929.000000	98.435968 
2928.000000	98.427585 
2927.000000	98.420497 
2926.000000	98.414952 
2925.000000	98.409636 
2924.000000	98.403939 
2923.000000	98.398958 
2922.000000	98.395649 
2921.000000	98.393148 
2920.000000	98.390038 
2919.000000	98.386598 
2918.000000	98.384645 
2917.000000	98.385273 
2916.000000	98.387669 
2915.000000	98.390135 
2914.000000	98.391681 
2913.000000	98.392581 
2912.000000	98.394004 
2911.000000	98.397127 
2910.000000	98.402011 
2909.000000	98.407211 
2908.000000	98.410837 
2907.000000	98.412110 
2906.000000	98.411402 
2905.000000	98.408860 
2904.000000	98.403879 
2903.000000	98.396697 
2902.000000	98.390171 
2901.000000	98.389177 
2900.000000	98.396777 
2899.000000	98.411643 
2898.000000	98.428320 
2897.000000	98.440883 
2896.000000	98.447137 
2895.000000	98.449586 
2894.000000	98.452735 
2893.000000	98.459305 
2892.000000	98.468683 
2891.000000	98.478205 
2890.000000	98.485494 
2889.000000	98.489775 
2888.000000	98.491767 
2887.000000	98.493001 
2886.000000	98.495160 
2885.000000	98.499365 
2884.000000	98.505655 
2883.000000	98.513226 
2882.000000	98.521407 
2881.000000	98.530324 
2880.000000	98.540348 
2879.000000	98.551053 
2878.000000	98.561213 
2877.000000	98.569966 
2876.000000	98.577584 
2875.000000	98.584828 
2874.000000	98.591917 
2873.000000	98.598552 
2872.000000	98.604637 
2871.000000	98.610375 
2870.000000	98.615768 
2869.000000	98.620709 
2868.000000	98.625741 
2867.000000	98.631995 
2866.000000	98.639915 
2865.000000	98.648461 
2864.000000	98.656112 
2863.000000	98.662384 
2862.000000	98.667850 
2861.000000	98.672955 
2860.000000	98.677590 
2859.000000	98.681906 
2858.000000	98.686737 
2857.000000	98.692604 
2856.000000	98.698608 
2855.000000	98.703033 
2854.000000	98.705203 
2853.000000	98.706455 
2852.000000	98.709101 
2851.000000	98.714699 
2850.000000	98.723514 
2849.000000	98.735093 
2848.000000	98.748673 
2847.000000	98.762933 
2846.000000	98.776184 
2845.000000	98.787427 
2844.000000	98.796897 
2843.000000	98.805095 
2842.000000	98.811846 
2841.000000	98.817079 
2840.000000	98.822121 
2839.000000	98.828953 
2838.000000	98.837915 
2837.000000	98.847052 
2836.000000	98.854189 
2835.000000	98.858888 
2834.000000	98.862061 
2833.000000	98.864616 
2832.000000	98.867015 
2831.000000	98.869369 
2830.000000	98.871142 
2829.000000	98.871400 
2828.000000	98.870274 
2827.000000	98.869752 
2826.000000	98.872066 
2825.000000	98.877269 
2824.000000	98.883191 
2823.000000	98.887679 
2822.000000	98.890240 
2821.000000	98.891677 
2820.000000	98.893018 
2819.000000	98.894923 
2818.000000	98.897360 
2817.000000	98.899569 
2816.000000	98.900833 
2815.000000	98.901433 
2814.000000	98.902342 
2813.000000	98.903905 
2812.000000	98.905488 
2811.000000	98.906729 
2810.000000	98.908403 
2809.000000	98.911454 
2808.000000	98.915494 
2807.000000	98.918889 
2806.000000	98.920300 
2805.000000	98.919781 
2804.000000	98.918450 
2803.000000	98.917518 
2802.000000	98.917686 
2801.000000	98.919099 
2800.000000	98.921462 
2799.000000	98.924088 
2798.000000	98.926008 
2797.000000	98.926412 
2796.000000	98.925323 
2795.000000	98.923835 
2794.000000	98.923380 
2793.000000	98.924506 
2792.000000	98.926477 
2791.000000	98.928058 
2790.000000	98.928692 
2789.000000	98.928849 
2788.000000	98.929405 
2787.000000	98.930772 
2786.000000	98.932605 
2785.000000	98.934162 
2784.000000	98.934924 
2783.000000	98.934953 
2782.000000	98.934781 
2781.000000	98.934956 
2780.000000	98.935654 
2779.000000	98.936662 
2778.000000	98.937650 
2777.000000	98.938483 
2776.000000	98.939291 
2775.000000	98.940244 
2774.000000	98.941310 
2773.000000	98.942288 
2772.000000	98.943057 
2771.000000	98.943702 
2770.000000	98.944359 
2769.000000	98.945017 
2768.000000	98.945565 
2767.000000	98.946001 
2766.000000	98.946444 
2765.000000	98.946927 
2764.000000	98.947294 
2763.000000	98.947400 
2762.000000	98.947321 
2761.000000	98.947341 
2760.000000	98.947679 
2759.000000	98.948299 
2758.000000	98.948996 
2757.000000	98.949649 
2756.000000	98.950322 
2755.000000	98.951077 
2754.000000	98.951812 
2753.000000	98.952353 
2752.000000	98.952669 
2751.000000	98.952934 
2750.000000	98.953372 
2749.000000	98.954045 
2748.000000	98.954831 
2747.000000	98.955542 
2746.000000	98.956086 
2745.000000	98.956494 
2744.000000	98.956855 
2743.000000	98.957229 
2742.000000	98.957629 
2741.000000	98.958053 
2740.000000	98.958507 
2739.000000	98.958982 
2738.000000	98.959451 
2737.000000	98.959920 
2736.000000	98.960447 
2735.000000	98.961076 
2734.000000	98.961758 
2733.000000	98.962357 
2732.000000	98.962786 
2731.000000	98.963080 
2730.000000	98.963360 
2729.000000	98.963714 
2728.000000	98.964133 
2727.000000	98.964575 
2726.000000	98.965025 
2725.000000	98.965499 
2724.000000	98.966024 
2723.000000	98.966627 
2722.000000	98.967313 
2721.000000	98.968044 
2720.000000	98.968730 
2719.000000	98.969297 
2718.000000	98.969745 
2717.000000	98.970130 
2716.000000	98.970488 
2715.000000	98.970819 
2714.000000	98.971144 
2713.000000	98.971522 
2712.000000	98.971981 
2711.000000	98.972481 
2710.000000	98.972946 
2709.000000	98.973347 
2708.000000	98.973713 
2707.000000	98.974064 
2706.000000	98.974378 
2705.000000	98.974648 
2704.000000	98.974929 
2703.000000	98.975284 
2702.000000	98.975700 
2701.000000	98.976101 
2700.000000	98.976434 
2699.000000	98.976730 
2698.000000	98.977050 
2697.000000	98.977401 
2696.000000	98.977730 
2695.000000	98.977988 
2694.000000	98.978177 
2693.000000	98.978340 
2692.000000	98.978511 
2691.000000	98.978691 
2690.000000	98.978857 
2689.000000	98.979002 
2688.000000	98.979139 
2687.000000	98.979285 
2686.000000	98.979448 
2685.000000	98.979618 
2684.000000	98.979787 
2683.000000	98.979948 
2682.000000	98.980097 
2681.000000	98.980228 
2680.000000	98.980342 
2679.000000	98.980443 
2678.000000	98.980539 
2677.000000	98.980639 
2676.000000	98.980749 
2675.000000	98.980868 
2674.000000	98.980992 
2673.000000	98.981111 
2672.000000	98.981220 
2671.000000	98.981314 
2670.000000	98.981395 
2669.000000	98.981470 
2668.000000	98.981543 
2667.000000	98.981621 
2666.000000	98.981704 
2665.000000	98.981794 
2664.000000	98.981886 
2663.000000	98.981976 
2662.000000	98.982061 
2661.000000	98.982142 
2660.000000	98.982218 
2659.000000	98.982291 
2658.000000	98.982360 
2657.000000	98.982427 
2656.000000	98.982493 
2655.000000	98.982564 
2654.000000	98.982645 
2653.000000	98.982740 
2652.000000	98.982852 
2651.000000	98.982981 
2650.000000	98.983124 
2649.000000	98.983274 
2648.000000	98.983424 
2647.000000	98.983570 
2646.000000	98.983716 
2645.000000	98.983868 
2644.000000	98.984027 
2643.000000	98.984190 
2642.000000	98.984351 
2641.000000	98.984508 
2640.000000	98.984666 
2639.000000	98.984831 
2638.000000	98.985006 
2637.000000	98.985187 
2636.000000	98.985367 
2635.000000	98.985540 
2634.000000	98.985702 
2633.000000	98.985858 
2632.000000	98.986006 
2631.000000	98.986155 
2630.000000	98.986314 
2629.000000	98.986487 
2628.000000	98.986664 
2627.000000	98.986834 
2626.000000	98.987007 
2625.000000	98.987203 
2624.000000	98.987421 
2623.000000	98.987628 
2622.000000	98.987779 
2621.000000	98.987868 
2620.000000	98.987960 
2619.000000	98.988145 
2618.000000	98.988456 
2617.000000	98.988845 
2616.000000	98.989239 
2615.000000	98.989620 
2614.000000	98.990008 
2613.000000	98.990414 
2612.000000	98.990821 
2611.000000	98.991189 
2610.000000	98.991455 
2609.000000	98.991549 
2608.000000	98.991454 
2607.000000	98.991263 
2606.000000	98.991170 
2605.000000	98.991361 
2604.000000	98.991921 
2603.000000	98.992757 
2602.000000	98.993575 
2601.000000	98.994056 
2600.000000	98.994120 
2599.000000	98.993957 
2598.000000	98.993805 
2597.000000	98.993690 
2596.000000	98.993509 
2595.000000	98.993280 
2594.000000	98.993171 
2593.000000	98.993280 
2592.000000	98.993538 
2591.000000	98.993812 
2590.000000	98.994047 
2589.000000	98.994291 
2588.000000	98.994579 
2587.000000	98.994838 
2586.000000	98.994925 
2585.000000	98.994793 
2584.000000	98.994589 
2583.000000	98.994550 
2582.000000	98.994765 
2581.000000	98.995109 
2580.000000	98.995419 
2579.000000	98.995639 
2578.000000	98.995767 
2577.000000	98.995739 
2576.000000	98.995490 
2575.000000	98.995081 
2574.000000	98.994694 
2573.000000	98.994457 
2572.000000	98.994345 
2571.000000	98.994253 
2570.000000	98.994110 
2569.000000	98.993934 
2568.000000	98.993808 
2567.000000	98.993820 
2566.000000	98.993961 
2565.000000	98.994055 
2564.000000	98.993919 
2563.000000	98.993560 
2562.000000	98.993158 
2561.000000	98.992831 
2560.000000	98.992501 
2559.000000	98.992032 
2558.000000	98.991414 
2557.000000	98.990771 
2556.000000	98.990292 
2555.000000	98.990124 
2554.000000	98.990295 
2553.000000	98.990601 
2552.000000	98.990676 
2551.000000	98.990332 
2550.000000	98.989693 
2549.000000	98.989008 
2548.000000	98.988335 
2547.000000	98.987568 
2546.000000	98.986693 
2545.000000	98.985902 
2544.000000	98.985442 
2543.000000	98.985393 
2542.000000	98.985561 
2541.000000	98.985574 
2540.000000	98.985168 
2539.000000	98.984435 
2538.000000	98.983748 
2537.000000	98.983344 
2536.000000	98.983054 
2535.000000	98.982604 
2534.000000	98.982078 
2533.000000	98.981832 
2532.000000	98.981962 
2531.000000	98.982137 
2530.000000	98.982042 
2529.000000	98.981768 
2528.000000	98.981553 
2527.000000	98.981341 
2526.000000	98.980868 
2525.000000	98.980195 
2524.000000	98.979876 
2523.000000	98.980399 
2522.000000	98.981669 
2521.000000	98.983050 
2520.000000	98.983866 
2519.000000	98.983814 
2518.000000	98.982972 
2517.000000	98.981684 
2516.000000	98.980431 
2515.000000	98.979623 
2514.000000	98.979427 
2513.000000	98.979794 
2512.000000	98.980665 
2511.000000	98.982015 
2510.000000	98.983662 
2509.000000	98.985198 
2508.000000	98.986284 
2507.000000	98.986943 
2506.000000	98.987368 
2505.000000	98.987525 
2504.000000	98.987177 
2503.000000	98.986320 
2502.000000	98.985388 
2501.000000	98.984921 
2500.000000	98.985124 
2499.000000	98.985832 
2498.000000	98.986721 
2497.000000	98.987485 
2496.000000	98.987894 
2495.000000	98.987856 
2494.000000	98.987465 
2493.000000	98.986960 
2492.000000	98.986585 
2491.000000	98.986488 
2490.000000	98.986731 
2489.000000	98.987365 
2488.000000	98.988443 
2487.000000	98.989870 
2486.000000	98.991202 
2485.000000	98.991781 
2484.000000	98.991306 
2483.000000	98.990153 
2482.000000	98.989147 
2481.000000	98.988779 
2480.000000	98.988869 
2479.000000	98.988961 
2478.000000	98.988851 
2477.000000	98.988654 
2476.000000	98.988515 
2475.000000	98.988436 
2474.000000	98.988356 
2473.000000	98.988212 
2472.000000	98.987942 
2471.000000	98.987537 
2470.000000	98.987103 
2469.000000	98.986789 
2468.000000	98.986638 
2467.000000	98.986540 
2466.000000	98.986361 
2465.000000	98.986088 
2464.000000	98.985821 
2463.000000	98.985644 
2462.000000	98.985569 
2461.000000	98.985548 
2460.000000	98.985503 
2459.000000	98.985372 
2458.000000	98.985163 
2457.000000	98.984964 
2456.000000	98.984851 
2455.000000	98.984822 
2454.000000	98.984838 
2453.000000	98.984882 
2452.000000	98.984938 
2451.000000	98.984925 
2450.000000	98.984724 
2449.000000	98.984319 
2448.000000	98.983865 
2447.000000	98.983592 
2446.000000	98.983616 
2445.000000	98.983864 
2444.000000	98.984145 
2443.000000	98.984270 
2442.000000	98.984149 
2441.000000	98.983860 
2440.000000	98.983668 
2439.000000	98.983853 
2438.000000	98.984437 
2437.000000	98.985085 
2436.000000	98.985402 
2435.000000	98.985320 
2434.000000	98.985140 
2433.000000	98.985214 
2432.000000	98.985624 
2431.000000	98.986228 
2430.000000	98.986905 
2429.000000	98.987590 
2428.000000	98.988079 
2427.000000	98.988035 
2426.000000	98.987337 
2425.000000	98.986336 
2424.000000	98.985647 
2423.000000	98.985709 
2422.000000	98.986643 
2421.000000	98.988284 
2420.000000	98.990064 
2419.000000	98.991086 
2418.000000	98.990761 
2417.000000	98.989336 
2416.000000	98.987800 
2415.000000	98.986857 
2414.000000	98.986251 
2413.000000	98.985408 
2412.000000	98.984402 
2411.000000	98.983872 
2410.000000	98.984108 
2409.000000	98.984705 
2408.000000	98.985131 
2407.000000	98.985292 
2406.000000	98.985459 
2405.000000	98.985954 
2404.000000	98.986940 
2403.000000	98.988199 
2402.000000	98.989126 
2401.000000	98.989213 
2400.000000	98.988542 
2399.000000	98.987524 
2398.000000	98.986295 
2397.000000	98.984849 
2396.000000	98.983674 
2395.000000	98.983506 
2394.000000	98.984271 
2393.000000	98.984923 
2392.000000	98.984776 
2391.000000	98.984319 
2390.000000	98.984295 
2389.000000	98.984628 
2388.000000	98.984877 
2387.000000	98.985230 
2386.000000	98.986155 
2385.000000	98.987365 
2384.000000	98.988036 
2383.000000	98.988063 
2382.000000	98.988383 
2381.000000	98.989727 
2380.000000	98.991592 
2379.000000	98.992974 
2378.000000	98.993897 
2377.000000	98.995411 
2376.000000	98.997891 
2375.000000	99.000036 
2374.000000	99.000294 
2373.000000	98.998577 
2372.000000	98.996121 
2371.000000	98.994101 
2370.000000	98.992914 
2369.000000	98.992579 
2368.000000	98.992857 
2367.000000	98.993143 
2366.000000	98.993058 
2365.000000	98.993009 
2364.000000	98.993513 
2363.000000	98.994123 
2362.000000	98.993865 
2361.000000	98.992593 
2360.000000	98.991046 
2359.000000	98.989971 
2358.000000	98.989610 
2357.000000	98.989851 
2356.000000	98.990584 
2355.000000	98.991587 
2354.000000	98.992845 
2353.000000	98.993968 
2352.000000	98.994318 
2351.000000	98.993717 
2350.000000	98.992471 
2349.000000	98.991118 
2348.000000	98.990051 
2347.000000	98.989609 
2346.000000	98.989828 
2345.000000	98.990212 
2344.000000	98.990329 
2343.000000	98.990163 
2342.000000	98.990057 
2341.000000	98.990051 
2340.000000	98.989985 
2339.000000	98.989825 
2338.000000	98.989716 
2337.000000	98.989729 
2336.000000	98.989630 
2335.000000	98.989325 
2334.000000	98.989006 
2333.000000	98.988966 
2332.000000	98.989125 
2331.000000	98.989341 
2330.000000	98.989458 
2329.000000	98.989557 
2328.000000	98.989599 
2327.000000	98.989660 
2326.000000	98.989802 
2325.000000	98.990041 
2324.000000	98.990245 
2323.000000	98.990359 
2322.000000	98.990572 
2321.000000	98.991020 
2320.000000	98.991487 
2319.000000	98.991758 
2318.000000	98.991874 
2317.000000	98.992238 
2316.000000	98.992909 
2315.000000	98.993808 
2314.000000	98.994644 
2313.000000	98.995468 
2312.000000	98.996264 
2311.000000	98.997127 
2310.000000	98.997904 
2309.000000	98.998500 
2308.000000	98.998807 
2307.000000	98.999054 
2306.000000	98.999475 
2305.000000	99.000224 
2304.000000	99.001148 
2303.000000	99.002102 
2302.000000	99.002939 
2301.000000	99.003655 
2300.000000	99.004288 
2299.000000	99.005114 
2298.000000	99.006259 
2297.000000	99.007561 
2296.000000	99.008528 
2295.000000	99.008968 
2294.000000	99.009106 
2293.000000	99.009450 
2292.000000	99.010246 
2291.000000	99.011440 
2290.000000	99.012835 
2289.000000	99.014200 
2288.000000	99.015335 
2287.000000	99.016141 
2286.000000	99.016704 
2285.000000	99.017100 
2284.000000	99.017313 
2283.000000	99.017387 
2282.000000	99.017608 
2281.000000	99.018235 
2280.000000	99.019194 
2279.000000	99.020178 
2278.000000	99.021076 
2277.000000	99.022046 
2276.000000	99.023215 
2275.000000	99.024509 
2274.000000	99.025732 
2273.000000	99.026730 
2272.000000	99.027406 
2271.000000	99.027889 
2270.000000	99.028579 
2269.000000	99.029812 
2268.000000	99.031452 
2267.000000	99.033017 
2266.000000	99.034195 
2265.000000	99.035033 
2264.000000	99.035642 
2263.000000	99.036002 
2262.000000	99.036262 
2261.000000	99.036806 
2260.000000	99.037847 
2259.000000	99.039160 
2258.000000	99.040362 
2257.000000	99.041361 
2256.000000	99.042371 
2255.000000	99.043552 
2254.000000	99.044807 
2253.000000	99.045964 
2252.000000	99.047034 
2251.000000	99.048191 
2250.000000	99.049438 
2249.000000	99.050473 
2248.000000	99.050986 
2247.000000	99.051101 
2246.000000	99.051209 
2245.000000	99.051588 
2244.000000	99.052290 
2243.000000	99.053238 
2242.000000	99.054342 
2241.000000	99.055493 
2240.000000	99.056612 
2239.000000	99.057716 
2238.000000	99.058824 
2237.000000	99.059842 
2236.000000	99.060638 
2235.000000	99.061230 
2234.000000	99.061782 
2233.000000	99.062439 
2232.000000	99.063208 
2231.000000	99.064021 
2230.000000	99.064828 
2229.000000	99.065623 
2228.000000	99.066424 
2227.000000	99.067245 
2226.000000	99.068086 
2225.000000	99.068944 
2224.000000	99.069823 
2223.000000	99.070728 
2222.000000	99.071656 
2221.000000	99.072591 
2220.000000	99.073518 
2219.000000	99.074436 
2218.000000	99.075360 
2217.000000	99.076321 
2216.000000	99.077336 
2215.000000	99.078394 
2214.000000	99.079468 
2213.000000	99.080540 
2212.000000	99.081619 
2211.000000	99.082725 
2210.000000	99.083878 
2209.000000	99.085094 
2208.000000	99.086388 
2207.000000	99.087761 
2206.000000	99.089146 
2205.000000	99.090429 
2204.000000	99.091527 
2203.000000	99.092526 
2202.000000	99.093674 
2201.000000	99.095179 
2200.000000	99.096860 
2199.000000	99.098205 
2198.000000	99.099026 
2197.000000	99.099805 
2196.000000	99.101163 
2195.000000	99.103250 
2194.000000	99.105845 
2193.000000	99.108711 
2192.000000	99.111529 
2191.000000	99.113771 
2190.000000	99.115126 
2189.000000	99.115980 
2188.000000	99.116918 
2187.000000	99.117629 
2186.000000	99.116984 
2185.000000	99.114582 
2184.000000	99.111768 
2183.000000	99.110470 
2182.000000	99.111251 
2181.000000	99.113144 
2180.000000	99.115346 
2179.000000	99.118274 
2178.000000	99.122531 
2177.000000	99.127533 
2176.000000	99.131669 
2175.000000	99.133559 
2174.000000	99.132840 
2173.000000	99.130489 
2172.000000	99.129031 
2171.000000	99.131475 
2170.000000	99.138781 
2169.000000	99.148116 
2168.000000	99.154760 
2167.000000	99.156350 
2166.000000	99.154404 
2165.000000	99.152106 
2164.000000	99.151532 
2163.000000	99.153294 
2162.000000	99.157268 
2161.000000	99.162042 
2160.000000	99.164449 
2159.000000	99.161543 
2158.000000	99.153281 
2157.000000	99.142400 
2156.000000	99.132088 
2155.000000	99.124474 
2154.000000	99.120687 
2153.000000	99.120929 
2152.000000	99.124160 
2151.000000	99.128342 
2150.000000	99.131312 
2149.000000	99.131735 
2148.000000	99.129792 
2147.000000	99.127065 
2146.000000	99.125115 
2145.000000	99.123865 
2144.000000	99.121873 
2143.000000	99.118365 
2142.000000	99.114293 
2141.000000	99.110896 
2140.000000	99.107932 
2139.000000	99.104274 
2138.000000	99.100004 
2137.000000	99.096851 
2136.000000	99.096151 
2135.000000	99.097093 
2134.000000	99.097655 
2133.000000	99.097058 
2132.000000	99.096385 
2131.000000	99.096565 
2130.000000	99.096563 
2129.000000	99.094302 
2128.000000	99.089254 
2127.000000	99.083427 
2126.000000	99.079514 
2125.000000	99.078539 
2124.000000	99.079514 
2123.000000	99.080973 
2122.000000	99.082124 
2121.000000	99.082755 
2120.000000	99.082912 
2119.000000	99.082790 
2118.000000	99.082637 
2117.000000	99.082616 
2116.000000	99.082765 
2115.000000	99.083036 
2114.000000	99.083285 
2113.000000	99.083279 
2112.000000	99.082878 
2111.000000	99.082252 
2110.000000	99.081800 
2109.000000	99.081806 
2108.000000	99.082217 
2107.000000	99.082709 
2106.000000	99.082975 
2105.000000	99.082993 
2104.000000	99.083032 
2103.000000	99.083414 
2102.000000	99.084196 
2101.000000	99.085164 
2100.000000	99.086077 
2099.000000	99.086885 
2098.000000	99.087703 
2097.000000	99.088653 
2096.000000	99.089758 
2095.000000	99.090952 
2094.000000	99.092172 
2093.000000	99.093405 
2092.000000	99.094682 
2091.000000	99.096033 
2090.000000	99.097468 
2089.000000	99.098983 
2088.000000	99.100564 
2087.000000	99.102200 
2086.000000	99.103889 
2085.000000	99.105634 
2084.000000	99.107447 
2083.000000	99.109333 
2082.000000	99.111288 
2081.000000	99.113295 
2080.000000	99.115332 
2079.000000	99.117381 
2078.000000	99.119433 
2077.000000	99.121520 
2076.000000	99.123689 
2075.000000	99.125952 
2074.000000	99.128223 
2073.000000	99.130355 
2072.000000	99.132276 
2071.000000	99.134074 
2070.000000	99.135934 
2069.000000	99.137966 
2068.000000	99.140145 
2067.000000	99.142428 
2066.000000	99.144816 
2065.000000	99.147292 
2064.000000	99.149835 
2063.000000	99.152465 
2062.000000	99.155136 
2061.000000	99.157630 
2060.000000	99.159731 
2059.000000	99.161534 
2058.000000	99.163490 
2057.000000	99.165926 
2056.000000	99.168700 
2055.000000	99.171400 
2054.000000	99.173864 
2053.000000	99.176284 
2052.000000	99.178913 
2051.000000	99.181844 
2050.000000	99.184937 
2049.000000	99.187804 
2048.000000	99.190054 
2047.000000	99.191693 
2046.000000	99.193194 
2045.000000	99.194960 
2044.000000	99.196857 
2043.000000	99.198519 
2042.000000	99.199918 
2041.000000	99.201342 
2040.000000	99.202928 
2039.000000	99.204495 
2038.000000	99.205819 
2037.000000	99.206881 
2036.000000	99.207833 
2035.000000	99.208747 
2034.000000	99.209465 
2033.000000	99.209834 
2032.000000	99.210111 
2031.000000	99.210938 
2030.000000	99.212730 
2029.000000	99.215035 
2028.000000	99.216692 
2027.000000	99.216953 
2026.000000	99.216013 
2025.000000	99.214778 
2024.000000	99.214186 
2023.000000	99.214825 
2022.000000	99.216776 
2021.000000	99.219208 
2020.000000	99.220696 
2019.000000	99.220505 
2018.000000	99.219206 
2017.000000	99.217871 
2016.000000	99.216840 
2015.000000	99.215991 
2014.000000	99.215604 
2013.000000	99.215903 
2012.000000	99.216257 
2011.000000	99.215961 
2010.000000	99.215582 
2009.000000	99.216425 
2008.000000	99.218564 
2007.000000	99.220479 
2006.000000	99.220903 
2005.000000	99.220071 
2004.000000	99.218945 
2003.000000	99.217938 
2002.000000	99.216695 
2001.000000	99.214386 
2000.000000	99.210151 
1999.000000	99.204101 
1998.000000	99.197893 
1997.000000	99.193522 
1996.000000	99.191655 
1995.000000	99.191861 
1994.000000	99.194001 
1993.000000	99.198119 
1992.000000	99.202844 
1991.000000	99.205479 
1990.000000	99.204544 
1989.000000	99.201294 
1988.000000	99.198772 
1987.000000	99.199818 
1986.000000	99.205476 
1985.000000	99.214120 
1984.000000	99.221831 
1983.000000	99.225079 
1982.000000	99.223348 
1981.000000	99.218983 
1980.000000	99.215066 
1979.000000	99.213552 
1978.000000	99.214730 
1977.000000	99.217096 
1976.000000	99.217840 
1975.000000	99.214819 
1974.000000	99.208614 
1973.000000	99.202397 
1972.000000	99.199323 
1971.000000	99.200147 
1970.000000	99.203535 
1969.000000	99.208001 
1968.000000	99.212809 
1967.000000	99.217138 
1966.000000	99.219554 
1965.000000	99.219155 
1964.000000	99.216845 
1963.000000	99.214696 
1962.000000	99.213926 
1961.000000	99.213806 
1960.000000	99.212486 
1959.000000	99.208394 
1958.000000	99.201085 
1957.000000	99.191765 
1956.000000	99.182933 
1955.000000	99.176275 
1954.000000	99.170630 
1953.000000	99.163132 
1952.000000	99.152937 
1951.000000	99.143129 
1950.000000	99.138097 
1949.000000	99.139325 
1948.000000	99.144289 
1947.000000	99.148864 
1946.000000	99.150008 
1945.000000	99.146425 
1944.000000	99.138447 
1943.000000	99.128397 
1942.000000	99.119885 
1941.000000	99.115009 
1940.000000	99.113004 
1939.000000	99.112207 
1938.000000	99.112047 
1937.000000	99.112791 
1936.000000	99.114308 
1935.000000	99.115648 
1934.000000	99.115646 
1933.000000	99.113814 
1932.000000	99.110769 
1931.000000	99.108010 
1930.000000	99.106976 
1929.000000	99.107730 
1928.000000	99.108707 
1927.000000	99.108148 
1926.000000	99.105566 
1925.000000	99.101701 
1924.000000	99.097705 
1923.000000	99.094596 
1922.000000	99.092943 
1921.000000	99.092526 
1920.000000	99.092494 
1919.000000	99.091981 
1918.000000	99.090658 
1917.000000	99.088814 
1916.000000	99.086953 
1915.000000	99.085427 
1914.000000	99.084295 
1913.000000	99.083385 
1912.000000	99.082448 
1911.000000	99.081369 
1910.000000	99.080205 
1909.000000	99.079047 
1908.000000	99.077917 
1907.000000	99.076794 
1906.000000	99.075664 
1905.000000	99.074529 
1904.000000	99.073379 
1903.000000	99.072189 
1902.000000	99.070950 
1901.000000	99.069711 
1900.000000	99.068529 
1899.000000	99.067432 
1898.000000	99.066429 
1897.000000	99.065496 
1896.000000	99.064555 
1895.000000	99.063523 
1894.000000	99.062454 
1893.000000	99.061570 
1892.000000	99.060928 
1891.000000	99.060221 
1890.000000	99.059153 
1889.000000	99.057903 
1888.000000	99.056879 
1887.000000	99.056232 
1886.000000	99.055878 
1885.000000	99.055664 
1884.000000	99.055318 
1883.000000	99.054534 
1882.000000	99.053297 
1881.000000	99.051868 
1880.000000	99.050578 
1879.000000	99.049732 
1878.000000	99.049375 
1877.000000	99.048979 
1876.000000	99.047858 
1875.000000	99.046305 
1874.000000	99.045767 
1873.000000	99.047167 
1872.000000	99.049494 
1871.000000	99.050731 
1870.000000	99.049972 
1869.000000	99.047897 
1868.000000	99.045102 
1867.000000	99.041373 
1866.000000	99.037194 
1865.000000	99.034164 
1864.000000	99.033828 
1863.000000	99.036812 
1862.000000	99.042628 
1861.000000	99.049440 
1860.000000	99.054573 
1859.000000	99.056644 
1858.000000	99.056868 
1857.000000	99.057508 
1856.000000	99.059377 
1855.000000	99.061754 
1854.000000	99.063935 
1853.000000	99.065575 
1852.000000	99.066111 
1851.000000	99.065158 
1850.000000	99.063436 
1849.000000	99.062450 
1848.000000	99.063033 
1847.000000	99.064787 
1846.000000	99.066875 
1845.000000	99.068324 
1844.000000	99.068034 
1843.000000	99.065989 
1842.000000	99.063926 
1841.000000	99.063673 
1840.000000	99.065831 
1839.000000	99.069670 
1838.000000	99.073755 
1837.000000	99.077023 
1836.000000	99.079220 
1835.000000	99.080628 
1834.000000	99.081666 
1833.000000	99.082682 
1832.000000	99.083846 
1831.000000	99.084722 
1830.000000	99.084502 
1829.000000	99.083400 
1828.000000	99.082714 
1827.000000	99.083057 
1826.000000	99.083836 
1825.000000	99.084371 
1824.000000	99.084756 
1823.000000	99.085439 
1822.000000	99.086444 
1821.000000	99.087229 
1820.000000	99.087119 
1819.000000	99.085906 
1818.000000	99.084294 
1817.000000	99.083391 
1816.000000	99.083332 
1815.000000	99.083272 
1814.000000	99.082979 
1813.000000	99.083442 
1812.000000	99.085528 
1811.000000	99.088524 
1810.000000	99.091172 
1809.000000	99.093391 
1808.000000	99.095381 
1807.000000	99.096443 
1806.000000	99.095847 
1805.000000	99.093848 
1804.000000	99.091276 
1803.000000	99.088715 
1802.000000	99.086714 
1801.000000	99.086190 
1800.000000	99.087283 
1799.000000	99.088740 
1798.000000	99.089540 
1797.000000	99.089819 
1796.000000	99.090043 
1795.000000	99.090383 
1794.000000	99.090814 
1793.000000	99.091233 
1792.000000	99.091509 
1791.000000	99.091583 
1790.000000	99.091769 
1789.000000	99.092481 
1788.000000	99.093751 
1787.000000	99.095226 
1786.000000	99.096478 
1785.000000	99.097260 
1784.000000	99.097551 
1783.000000	99.097638 
1782.000000	99.097918 
1781.000000	99.098465 
1780.000000	99.098921 
1779.000000	99.098996 
1778.000000	99.098902 
1777.000000	99.099043 
1776.000000	99.099580 
1775.000000	99.100456 
1774.000000	99.101542 
1773.000000	99.102568 
1772.000000	99.103189 
1771.000000	99.103331 
1770.000000	99.103225 
1769.000000	99.103155 
1768.000000	99.103287 
1767.000000	99.103601 
1766.000000	99.103990 
1765.000000	99.104395 
1764.000000	99.104817 
1763.000000	99.105251 
1762.000000	99.105669 
1761.000000	99.106076 
1760.000000	99.106495 
1759.000000	99.106910 
1758.000000	99.107273 
1757.000000	99.107561 
1756.000000	99.107821 
1755.000000	99.108093 
1754.000000	99.108309 
1753.000000	99.108377 
1752.000000	99.108403 
1751.000000	99.108727 
1750.000000	99.109525 
1749.000000	99.110476 
1748.000000	99.111152 
1747.000000	99.111479 
1746.000000	99.111606 
1745.000000	99.111677 
1744.000000	99.111838 
1743.000000	99.112166 
1742.000000	99.112540 
1741.000000	99.112876 
1740.000000	99.113223 
1739.000000	99.113431 
1738.000000	99.113171 
1737.000000	99.112448 
1736.000000	99.111680 
1735.000000	99.111005 
1734.000000	99.110019 
1733.000000	99.108920 
1732.000000	99.108595 
1731.000000	99.109345 
1730.000000	99.110746 
1729.000000	99.111789 
1728.000000	99.111983 
1727.000000	99.111738 
1726.000000	99.111395 
1725.000000	99.110801 
1724.000000	99.110058 
1723.000000	99.109872 
1722.000000	99.110725 
1721.000000	99.112380 
1720.000000	99.114210 
1719.000000	99.115259 
1718.000000	99.114241 
1717.000000	99.111860 
1716.000000	99.109716 
1715.000000	99.107717 
1714.000000	99.105926 
1713.000000	99.104734 
1712.000000	99.103657 
1711.000000	99.102322 
1710.000000	99.101144 
1709.000000	99.100634 
1708.000000	99.100498 
1707.000000	99.099969 
1706.000000	99.099053 
1705.000000	99.098379 
1704.000000	99.097310 
1703.000000	99.094131 
1702.000000	99.088748 
1701.000000	99.083665 
1700.000000	99.081667 
1699.000000	99.080915 
1698.000000	99.079486 
1697.000000	99.078375 
1696.000000	99.078520 
1695.000000	99.078611 
1694.000000	99.077523 
1693.000000	99.075603 
1692.000000	99.073225 
1691.000000	99.070388 
1690.000000	99.067043 
1689.000000	99.063445 
1688.000000	99.059893 
1687.000000	99.056300 
1686.000000	99.053029 
1685.000000	99.050818 
1684.000000	99.049356 
1683.000000	99.047556 
1682.000000	99.045558 
1681.000000	99.042952 
1680.000000	99.040095 
1679.000000	99.037421 
1678.000000	99.034987 
1677.000000	99.032607 
1676.000000	99.030393 
1675.000000	99.028787 
1674.000000	99.027392 
1673.000000	99.025497 
1672.000000	99.023325 
1671.000000	99.021882 
1670.000000	99.021208 
1669.000000	99.019786 
1668.000000	99.017253 
1667.000000	99.014692 
1666.000000	99.011731 
1665.000000	99.007582 
1664.000000	99.002914 
1663.000000	98.999680 
1662.000000	98.998995 
1661.000000	98.999440 
1660.000000	98.999069 
1659.000000	98.998222 
1658.000000	98.997612 
1657.000000	98.996251 
1656.000000	98.991899 
1655.000000	98.985918 
1654.000000	98.982173 
1653.000000	98.981644 
1652.000000	98.980257 
1651.000000	98.978721 
1650.000000	98.974635 
1649.000000	98.968845 
1648.000000	98.961824 
1647.000000	98.954654 
1646.000000	98.950052 
1645.000000	98.950700 
1644.000000	98.954826 
1643.000000	98.959036 
1642.000000	98.961761 
1641.000000	98.962809 
1640.000000	98.962324 
1639.000000	98.960958 
1638.000000	98.960175 
1637.000000	98.961055 
1636.000000	98.961628 
1635.000000	98.960533 
1634.000000	98.960394 
1633.000000	98.962256 
1632.000000	98.964798 
1631.000000	98.967670 
1630.000000	98.970979 
1629.000000	98.973890 
1628.000000	98.974912 
1627.000000	98.974604 
1626.000000	98.975419 
1625.000000	98.978882 
1624.000000	98.984134 
1623.000000	98.989040 
1622.000000	98.992551 
1621.000000	98.994695 
1620.000000	98.995761 
1619.000000	98.997036 
1618.000000	99.000505 
1617.000000	99.005911 
1616.000000	99.010234 
1615.000000	99.012655 
1614.000000	99.014018 
1613.000000	99.014330 
1612.000000	99.014204 
1611.000000	99.015049 
1610.000000	99.017770 
1609.000000	99.021362 
1608.000000	99.024541 
1607.000000	99.027700 
1606.000000	99.031390 
1605.000000	99.034848 
1604.000000	99.037664 
1603.000000	99.041073 
1602.000000	99.045986 
1601.000000	99.051235 
1600.000000	99.055475 
1599.000000	99.059199 
1598.000000	99.063411 
1597.000000	99.068066 
1596.000000	99.072856 
1595.000000	99.078260 
1594.000000	99.084482 
1593.000000	99.089987 
1592.000000	99.093150 
1591.000000	99.094618 
1590.000000	99.096449 
1589.000000	99.099302 
1588.000000	99.102427 
1587.000000	99.105723 
1586.000000	99.109311 
1585.000000	99.111824 
1584.000000	99.111785 
1583.000000	99.110173 
1582.000000	99.109642 
1581.000000	99.111044 
1580.000000	99.113268 
1579.000000	99.115983 
1578.000000	99.120092 
1577.000000	99.124614 
1576.000000	99.126393 
1575.000000	99.126214 
1574.000000	99.127358 
1573.000000	99.129177 
1572.000000	99.130551 
1571.000000	99.132607 
1570.000000	99.136857 
1569.000000	99.141741 
1568.000000	99.144995 
1567.000000	99.146998 
1566.000000	99.148648 
1565.000000	99.150236 
1564.000000	99.151579 
1563.000000	99.152729 
1562.000000	99.153792 
1561.000000	99.154349 
1560.000000	99.154535 
1559.000000	99.153727 
1558.000000	99.152952 
1557.000000	99.153936 
1556.000000	99.154531 
1555.000000	99.154316 
1554.000000	99.153628 
1553.000000	99.152689 
1552.000000	99.152018 
1551.000000	99.152270 
1550.000000	99.153609 
1549.000000	99.154976 
1548.000000	99.155056 
1547.000000	99.153362 
1546.000000	99.150170 
1545.000000	99.146319 
1544.000000	99.142856 
1543.000000	99.140448 
1542.000000	99.139915 
1541.000000	99.141916 
1540.000000	99.143892 
1539.000000	99.143602 
1538.000000	99.143055 
1537.000000	99.142881 
1536.000000	99.142644 
1535.000000	99.142725 
1534.000000	99.143657 
1533.000000	99.144854 
1532.000000	99.144920 
1531.000000	99.143356 
1530.000000	99.141177 
1529.000000	99.139805 
1528.000000	99.139348 
1527.000000	99.138893 
1526.000000	99.137888 
1525.000000	99.136698 
1524.000000	99.135514 
1523.000000	99.134344 
1522.000000	99.133723 
1521.000000	99.134382 
1520.000000	99.135333 
1519.000000	99.134928 
1518.000000	99.132768 
1517.000000	99.129608 
1516.000000	99.126323 
1515.000000	99.123575 
1514.000000	99.121615 
1513.000000	99.120499 
1512.000000	99.120008 
1511.000000	99.119100 
1510.000000	99.116797 
1509.000000	99.113458 
1508.000000	99.111116 
1507.000000	99.110259 
1506.000000	99.109475 
1505.000000	99.109019 
1504.000000	99.108492 
1503.000000	99.107003 
1502.000000	99.105308 
1501.000000	99.104487 
1500.000000	99.104817 
1499.000000	99.104894 
1498.000000	99.102856 
1497.000000	99.099983 
1496.000000	99.099431 
1495.000000	99.100119 
1494.000000	99.098511 
1493.000000	99.093762 
1492.000000	99.087491 
1491.000000	99.081500 
1490.000000	99.076335 
1489.000000	99.072103 
1488.000000	99.068326 
1487.000000	99.064168 
1486.000000	99.060608 
1485.000000	99.058621 
1484.000000	99.057488 
1483.000000	99.055831 
1482.000000	99.052543 
1481.000000	99.047804 
1480.000000	99.042720 
1479.000000	99.037994 
1478.000000	99.033556 
1477.000000	99.029108 
1476.000000	99.024333 
1475.000000	99.018672 
1474.000000	99.012675 
1473.000000	99.008216 
1472.000000	99.006182 
1471.000000	99.004499 
1470.000000	99.001415 
1469.000000	98.997435 
1468.000000	98.993805 
1467.000000	98.990837 
1466.000000	98.988132 
1465.000000	98.985398 
1464.000000	98.982687 
1463.000000	98.980136 
1462.000000	98.977731 
1461.000000	98.975598 
1460.000000	98.973504 
1459.000000	98.970429 
1458.000000	98.964243 
1457.000000	98.954789 
1456.000000	98.946631 
1455.000000	98.942036 
1454.000000	98.939047 
1453.000000	98.936356 
1452.000000	98.933580 
1451.000000	98.930455 
1450.000000	98.927225 
1449.000000	98.925299 
1448.000000	98.925652 
1447.000000	98.926599 
1446.000000	98.925888 
1445.000000	98.923846 
1444.000000	98.922040 
1443.000000	98.920616 
1442.000000	98.918541 
1441.000000	98.915574 
1440.000000	98.912842 
1439.000000	98.911047 
1438.000000	98.908707 
1437.000000	98.904098 
1436.000000	98.898686 
1435.000000	98.893991 
1434.000000	98.889472 
1433.000000	98.885807 
1432.000000	98.884357 
1431.000000	98.885085 
1430.000000	98.885871 
1429.000000	98.885265 
1428.000000	98.884013 
1427.000000	98.882565 
1426.000000	98.880118 
1425.000000	98.875954 
1424.000000	98.871611 
1423.000000	98.868870 
1422.000000	98.866138 
1421.000000	98.861082 
1420.000000	98.854190 
1419.000000	98.847906 
1418.000000	98.841876 
1417.000000	98.835040 
1416.000000	98.828956 
1415.000000	98.824338 
1414.000000	98.819222 
1413.000000	98.811781 
1412.000000	98.803718 
1411.000000	98.798134 
1410.000000	98.794975 
1409.000000	98.792699 
1408.000000	98.791928 
1407.000000	98.793879 
1406.000000	98.798035 
1405.000000	98.803715 
1404.000000	98.812416 
1403.000000	98.824266 
1402.000000	98.835614 
1401.000000	98.843833 
1400.000000	98.850296 
1399.000000	98.857306 
1398.000000	98.862309 
1397.000000	98.859869 
1396.000000	98.849322 
1395.000000	98.838385 
1394.000000	98.837307 
1393.000000	98.849032 
1392.000000	98.869403 
1391.000000	98.891872 
1390.000000	98.910673 
1389.000000	98.922445 
1388.000000	98.926945 
1387.000000	98.926783 
1386.000000	98.925332 
1385.000000	98.924758 
1384.000000	98.925974 
1383.000000	98.929068 
1382.000000	98.933472 
1381.000000	98.938903 
1380.000000	98.945469 
1379.000000	98.952968 
1378.000000	98.960489 
1377.000000	98.967079 
1376.000000	98.972921 
1375.000000	98.979408 
1374.000000	98.987732 
1373.000000	98.997485 
1372.000000	99.007540 
1371.000000	99.017763 
1370.000000	99.028879 
1369.000000	99.040443 
1368.000000	99.051384 
1367.000000	99.061366 
1366.000000	99.070586 
1365.000000	99.078844 
1364.000000	99.085237 
1363.000000	99.089538 
1362.000000	99.093598 
1361.000000	99.099374 
1360.000000	99.106435 
1359.000000	99.113294 
1358.000000	99.119861 
1357.000000	99.127222 
1356.000000	99.135733 
1355.000000	99.144129 
1354.000000	99.150787 
1353.000000	99.155303 
1352.000000	99.157681 
1351.000000	99.157777 
1350.000000	99.157365 
1349.000000	99.158667 
1348.000000	99.162543 
1347.000000	99.168292 
1346.000000	99.174910 
1345.000000	99.181357 
1344.000000	99.186521 
1343.000000	99.189761 
1342.000000	99.191477 
1341.000000	99.192184 
1340.000000	99.191662 
1339.000000	99.190113 
1338.000000	99.189080 
1337.000000	99.190229 
1336.000000	99.193705 
1335.000000	99.198246 
1334.000000	99.202933 
1333.000000	99.207975 
1332.000000	99.213338 
1331.000000	99.217776 
1330.000000	99.219936 
1329.000000	99.219655 
1328.000000	99.217955 
1327.000000	99.216121 
1326.000000	99.214932 
1325.000000	99.214015 
1324.000000	99.213295 
1323.000000	99.213602 
1322.000000	99.215334 
1321.000000	99.217331 
1320.000000	99.218115 
1319.000000	99.217767 
1318.000000	99.217672 
1317.000000	99.218635 
1316.000000	99.219826 
1315.000000	99.219800 
1314.000000	99.218087 
1313.000000	99.215859 
1312.000000	99.214869 
1311.000000	99.215781 
1310.000000	99.217807 
1309.000000	99.219854 
1308.000000	99.221369 
1307.000000	99.221885 
1306.000000	99.220906 
1305.000000	99.218502 
1304.000000	99.216433 
1303.000000	99.216825 
1302.000000	99.219799 
1301.000000	99.223135 
1300.000000	99.224578 
1299.000000	99.223615 
1298.000000	99.221137 
1297.000000	99.218429 
1296.000000	99.216682 
1295.000000	99.216882 
1294.000000	99.219175 
1293.000000	99.222495 
1292.000000	99.224983 
1291.000000	99.224931 
1290.000000	99.222160 
1289.000000	99.218845 
1288.000000	99.217981 
1287.000000	99.220025 
1286.000000	99.221953 
1285.000000	99.220917 
1284.000000	99.217929 
1283.000000	99.216413 
1282.000000	99.217596 
1281.000000	99.219447 
1280.000000	99.220086 
1279.000000	99.219943 
1278.000000	99.219918 
1277.000000	99.219672 
1276.000000	99.218654 
1275.000000	99.217464 
1274.000000	99.217000 
1273.000000	99.217398 
1272.000000	99.218521 
1271.000000	99.220135 
1270.000000	99.220813 
1269.000000	99.218427 
1268.000000	99.213003 
1267.000000	99.207482 
1266.000000	99.204135 
1265.000000	99.202006 
1264.000000	99.199190 
1263.000000	99.195634 
1262.000000	99.192074 
1261.000000	99.188210 
1260.000000	99.184079 
1259.000000	99.181526 
1258.000000	99.181487 
1257.000000	99.181599 
1256.000000	99.179137 
1255.000000	99.175168 
1254.000000	99.172979 
1253.000000	99.173092 
1252.000000	99.172690 
1251.000000	99.170058 
1250.000000	99.166945 
1249.000000	99.166271 
1248.000000	99.169577 
1247.000000	99.176386 
1246.000000	99.183267 
1245.000000	99.183865 
1244.000000	99.173434 
1243.000000	99.155191 
1242.000000	99.140041 
1241.000000	99.137460 
1240.000000	99.146981 
1239.000000	99.159428 
1238.000000	99.165407 
1237.000000	99.161610 
1236.000000	99.150099 
1235.000000	99.134169 
1234.000000	99.115918 
1233.000000	99.096657 
1232.000000	99.077904 
1231.000000	99.060837 
1230.000000	99.044939 
1229.000000	99.028302 
1228.000000	99.009792 
1227.000000	98.990324 
1226.000000	98.971437 
1225.000000	98.952876 
1224.000000	98.932104 
1223.000000	98.906113 
1222.000000	98.873573 
1221.000000	98.835617 
1220.000000	98.794885 
1219.000000	98.753488 
1218.000000	98.711432 
1217.000000	98.667212 
1216.000000	98.619848 
1215.000000	98.569702 
1214.000000	98.517554 
1213.000000	98.463929 
1212.000000	98.409190 
1211.000000	98.352836 
1210.000000	98.293018 
1209.000000	98.228571 
1208.000000	98.161459 
1207.000000	98.095144 
1206.000000	98.030541 
1205.000000	97.965983 
1204.000000	97.901099 
1203.000000	97.837457 
1202.000000	97.774875 
1201.000000	97.710562 
1200.000000	97.643411 
1199.000000	97.576168 
1198.000000	97.511439 
1197.000000	97.448243 
1196.000000	97.384312 
1195.000000	97.319192 
1194.000000	97.253139 
1193.000000	97.185107 
1192.000000	97.113980 
1191.000000	97.040361 
1190.000000	96.965683 
1189.000000	96.891041 
1188.000000	96.817715 
1187.000000	96.746587 
1186.000000	96.675868 
1185.000000	96.601614 
1184.000000	96.521628 
1183.000000	96.436956 
1182.000000	96.349254 
1181.000000	96.259337 
1180.000000	96.168717 
1179.000000	96.078919 
1178.000000	95.987776 
1177.000000	95.889954 
1176.000000	95.783249 
1175.000000	95.671613 
1174.000000	95.560306 
1173.000000	95.450949 
1172.000000	95.343102 
1171.000000	95.237191 
1170.000000	95.133477 
1169.000000	95.031236 
1168.000000	94.931531 
1167.000000	94.838634 
1166.000000	94.757638 
1165.000000	94.693862 
1164.000000	94.655258 
1163.000000	94.650237 
1162.000000	94.679749 
1161.000000	94.733443 
1160.000000	94.794376 
1159.000000	94.845166 
1158.000000	94.871042 
1157.000000	94.863207 
1156.000000	94.822264 
1155.000000	94.756099 
1154.000000	94.672996 
1153.000000	94.578584 
1152.000000	94.478882 
1151.000000	94.381091 
1150.000000	94.288999 
1149.000000	94.201245 
1148.000000	94.115782 
1147.000000	94.032262 
1146.000000	93.949076 
1145.000000	93.863053 
1144.000000	93.774252 
1143.000000	93.686816 
1142.000000	93.602997 
1141.000000	93.520296 
1140.000000	93.436024 
1139.000000	93.350256 
1138.000000	93.262813 
1137.000000	93.172216 
1136.000000	93.079449 
1135.000000	92.987983 
1134.000000	92.898107 
1133.000000	92.805798 
1132.000000	92.708772 
1131.000000	92.608876 
1130.000000	92.507323 
1129.000000	92.403011 
1128.000000	92.297085 
1127.000000	92.193381 
1126.000000	92.092390 
1125.000000	91.990282 
1124.000000	91.885551 
1123.000000	91.780771 
1122.000000	91.676296 
1121.000000	91.568777 
1120.000000	91.457980 
1119.000000	91.348343 
1118.000000	91.241575 
1117.000000	91.134785 
1116.000000	91.028044 
1115.000000	90.926106 
1114.000000	90.829839 
1113.000000	90.733685 
1112.000000	90.634832 
1111.000000	90.537224 
1110.000000	90.443943 
1109.000000	90.353226 
1108.000000	90.263873 
1107.000000	90.176732 
1106.000000	90.089437 
1105.000000	89.997632 
1104.000000	89.902902 
1103.000000	89.811376 
1102.000000	89.723748 
1101.000000	89.635488 
1100.000000	89.547998 
1099.000000	89.467584 
1098.000000	89.394018 
1097.000000	89.319537 
1096.000000	89.241708 
1095.000000	89.166146 
1094.000000	89.094129 
1093.000000	89.019014 
1092.000000	88.938278 
1091.000000	88.858048 
1090.000000	88.781953 
1089.000000	88.706249 
1088.000000	88.629975 
1087.000000	88.559301 
1086.000000	88.497384 
1085.000000	88.439636 
1084.000000	88.382751 
1083.000000	88.328686 
1082.000000	88.276541 
1081.000000	88.220752 
1080.000000	88.160861 
1079.000000	88.103376 
1078.000000	88.050975 
1077.000000	87.999620 
1076.000000	87.948299 
1075.000000	87.900302 
1074.000000	87.852128 
1073.000000	87.792278 
1072.000000	87.713218 
1071.000000	87.613185 
1070.000000	87.485373 
1069.000000	87.320223 
1068.000000	87.123577 
1067.000000	86.920174 
1066.000000	86.731930 
1065.000000	86.561656 
1064.000000	86.402250 
1063.000000	86.248215 
1062.000000	86.091812 
1061.000000	85.921925 
1060.000000	85.736980 
1059.000000	85.550923 
1058.000000	85.379218 
1057.000000	85.224937 
1056.000000	85.081162 
1055.000000	84.937137 
1054.000000	84.779646 
1053.000000	84.600617 
1052.000000	84.408347 
1051.000000	84.220139 
1050.000000	84.040011 
1049.000000	83.856938 
1048.000000	83.666890 
1047.000000	83.478801 
1046.000000	83.295826 
1045.000000	83.109044 
1044.000000	82.914323 
1043.000000	82.719764 
1042.000000	82.531464 
1041.000000	82.345841 
1040.000000	82.161421 
1039.000000	81.985518 
1038.000000	81.824223 
1037.000000	81.677669 
1036.000000	81.548448 
1035.000000	81.441874 
1034.000000	81.354769 
1033.000000	81.276289 
1032.000000	81.201401 
1031.000000	81.131372 
1030.000000	81.062958 
1029.000000	80.993706 
1028.000000	80.936920 
1027.000000	80.911754 
1026.000000	80.915799 
1025.000000	80.924884 
1024.000000	80.922428 
1023.000000	80.911353 
1022.000000	80.895628 
1021.000000	80.870961 
1020.000000	80.838425 
1019.000000	80.808054 
1018.000000	80.782562 
1017.000000	80.753899 
1016.000000	80.720703 
1015.000000	80.692699 
1014.000000	80.673364 
1013.000000	80.654785 
1012.000000	80.633906 
1011.000000	80.617437 
1010.000000	80.606787 
1009.000000	80.595233 
1008.000000	80.584386 
1007.000000	80.586517 
1006.000000	80.605848 
1005.000000	80.633574 
1004.000000	80.665202 
1003.000000	80.706364 
1002.000000	80.757601 
1001.000000	80.810431 
1000.000000	80.863025 
999.000000	 80.923271 
998.000000	 80.991798 
997.000000	 81.058463 
996.000000	 81.120463 
995.000000	 81.187967 
994.000000	 81.266834 
993.000000	 81.351129 
992.000000	 81.437036 
991.000000	 81.528892 
990.000000	 81.627147 
989.000000	 81.725567 
988.000000	 81.824763 
987.000000	 81.933867 
986.000000	 82.055180 
985.000000	 82.182091 
984.000000	 82.315240 
983.000000	 82.464871 
982.000000	 82.633381 
981.000000	 82.810861 
980.000000	 82.991890 
979.000000	 83.181989 
978.000000	 83.383531 
977.000000	 83.590525 
976.000000	 83.801528 
975.000000	 84.022885 
974.000000	 84.254688 
973.000000	 84.487682 
972.000000	 84.718379 
971.000000	 84.953483 
970.000000	 85.195131 
969.000000	 85.435348 
968.000000	 85.669563 
967.000000	 85.902402 
966.000000	 86.135239 
965.000000	 86.360460 
964.000000	 86.573390 
963.000000	 86.779039 
962.000000	 86.982436 
961.000000	 87.182248 
960.000000	 87.377685 
959.000000	 87.571395 
958.000000	 87.761656 
957.000000	 87.941434 
956.000000	 88.108924 
955.000000	 88.270246 
954.000000	 88.428980 
953.000000	 88.581728 
952.000000	 88.726037 
951.000000	 88.863371 
950.000000	 88.992432 
949.000000	 89.109083 
948.000000	 89.215084 
947.000000	 89.317660 
946.000000	 89.418374 
945.000000	 89.511690 
944.000000	 89.596114 
943.000000	 89.676776 
942.000000	 89.755147 
941.000000	 89.826657 
940.000000	 89.891439 
939.000000	 89.957388 
938.000000	 90.029010 
937.000000	 90.102192 
936.000000	 90.173160 
935.000000	 90.243738 
934.000000	 90.315007 
933.000000	 90.384447 
932.000000	 90.452053 
931.000000	 90.521179 
930.000000	 90.591522 
929.000000	 90.659592 
928.000000	 90.727089 
927.000000	 90.799435 
926.000000	 90.874704 
925.000000	 90.943858 
924.000000	 91.003673 
923.000000	 91.059560 
922.000000	 91.113790 
921.000000	 91.161233 
920.000000	 91.199617 
919.000000	 91.234263 
918.000000	 91.269440 
917.000000	 91.303933 
916.000000	 91.338105 
915.000000	 91.376784 
914.000000	 91.422783 
913.000000	 91.476186 
912.000000	 91.541818 
911.000000	 91.627742 
910.000000	 91.733959 
909.000000	 91.852066 
908.000000	 91.978312 
907.000000	 92.117244 
906.000000	 92.270471 
905.000000	 92.432275 
904.000000	 92.599214 
903.000000	 92.774418 
902.000000	 92.959389 
901.000000	 93.149983 
900.000000	 93.342550 
899.000000	 93.535613 
898.000000	 93.724073 
897.000000	 93.900390 
896.000000	 94.063505 
895.000000	 94.219237 
894.000000	 94.371240 
893.000000	 94.519046 
892.000000	 94.664730 
891.000000	 94.812331 
890.000000	 94.959701 
889.000000	 95.099629 
888.000000	 95.229874 
887.000000	 95.353300 
886.000000	 95.467734 
885.000000	 95.566216 
884.000000	 95.650026 
883.000000	 95.731875 
882.000000	 95.821853 
881.000000	 95.918039 
880.000000	 96.014914 
879.000000	 96.112860 
878.000000	 96.214716 
877.000000	 96.319741 
876.000000	 96.425232 
875.000000	 96.528838 
874.000000	 96.627608 
873.000000	 96.721410 
872.000000	 96.818540 
871.000000	 96.930034 
870.000000	 97.055593 
869.000000	 97.181871 
868.000000	 97.297075 
867.000000	 97.401470 
866.000000	 97.502546 
865.000000	 97.606161 
864.000000	 97.714239 
863.000000	 97.825277 
862.000000	 97.934449 
861.000000	 98.037137 
860.000000	 98.133562 
859.000000	 98.226727 
858.000000	 98.316793 
857.000000	 98.402282 
856.000000	 98.485382 
855.000000	 98.569574 
854.000000	 98.652180 
853.000000	 98.725863 
852.000000	 98.787948 
851.000000	 98.842093 
850.000000	 98.890734 
849.000000	 98.932892 
848.000000	 98.970522 
847.000000	 99.009591 
846.000000	 99.051934 
845.000000	 99.091851 
844.000000	 99.123427 
843.000000	 99.145882 
842.000000	 99.159425 
841.000000	 99.161563 
840.000000	 99.151269 
839.000000	 99.132892 
838.000000	 99.112095 
837.000000	 99.089833 
836.000000	 99.062750 
835.000000	 99.028577 
834.000000	 98.990744 
833.000000	 98.958534 
832.000000	 98.940562 
831.000000	 98.935396 
830.000000	 98.932246 
829.000000	 98.926505 
828.000000	 98.930214 
827.000000	 98.957558 
826.000000	 99.002610 
825.000000	 99.044297 
824.000000	 99.073452 
823.000000	 99.100187 
822.000000	 99.132385 
821.000000	 99.162573 
820.000000	 99.180482 
819.000000	 99.184831 
818.000000	 99.177752 
817.000000	 99.157740 
816.000000	 99.122373 
815.000000	 99.069702 
814.000000	 98.992427 
813.000000	 98.877797 
812.000000	 98.718095 
811.000000	 98.514980 
810.000000	 98.268775 
809.000000	 97.970264 
808.000000	 97.609999 
807.000000	 97.190945 
806.000000	 96.726060 
805.000000	 96.229396 
804.000000	 95.718464 
803.000000	 95.220973 
802.000000	 94.768750 
801.000000	 94.385638 
800.000000	 94.085418 
799.000000	 93.874970 
798.000000	 93.753045 
797.000000	 93.711158 
796.000000	 93.739086 
795.000000	 93.823785 
794.000000	 93.943967 
793.000000	 94.075894 
792.000000	 94.204847 
791.000000	 94.321845 
790.000000	 94.411983 
789.000000	 94.459224 
788.000000	 94.462375 
787.000000	 94.432582 
786.000000	 94.373121 
785.000000	 94.274773 
784.000000	 94.134943 
783.000000	 93.968893 
782.000000	 93.797442 
781.000000	 93.636066 
780.000000	 93.501406 
779.000000	 93.414398 
778.000000	 93.387754 
777.000000	 93.420142 
776.000000	 93.507824 
775.000000	 93.649265 
774.000000	 93.832083 
773.000000	 94.029081 
772.000000	 94.216462 
771.000000	 94.387003 
770.000000	 94.539894 
769.000000	 94.669039 
768.000000	 94.770010 
767.000000	 94.849870 
766.000000	 94.920464 
765.000000	 94.986478 
764.000000	 95.046496 
763.000000	 95.100473 
762.000000	 95.150204 
761.000000	 95.197623 
760.000000	 95.248144 
759.000000	 95.310416 
758.000000	 95.387081 
757.000000	 95.470208 
756.000000	 95.550636 
755.000000	 95.627812 
754.000000	 95.706959 
753.000000	 95.791104 
752.000000	 95.879199 
751.000000	 95.967136 
750.000000	 96.047349 
749.000000	 96.112825 
748.000000	 96.166010 
747.000000	 96.220355 
746.000000	 96.289409 
745.000000	 96.376123 
744.000000	 96.473915 
743.000000	 96.574810 
742.000000	 96.675341 
741.000000	 96.777742 
740.000000	 96.886478 
739.000000	 97.001502 
738.000000	 97.115660 
737.000000	 97.221574 
736.000000	 97.319037 
735.000000	 97.412130 
734.000000	 97.502387 
733.000000	 97.589402 
732.000000	 97.673923 
731.000000	 97.753015 
730.000000	 97.815110 
729.000000	 97.848280 
728.000000	 97.855832 
727.000000	 97.856584 
726.000000	 97.867115 
725.000000	 97.892325 
724.000000	 97.932883 
723.000000	 97.990126 
722.000000	 98.059850 
721.000000	 98.130718 
720.000000	 98.194665 
719.000000	 98.253153 
718.000000	 98.309884 
717.000000	 98.364848 
716.000000	 98.417959 
715.000000	 98.470714 
714.000000	 98.520722 
713.000000	 98.560848 
712.000000	 98.588597 
711.000000	 98.610643 
710.000000	 98.634656 
709.000000	 98.660662 
708.000000	 98.682724 
707.000000	 98.695969 
706.000000	 98.696214 
705.000000	 98.679486 
704.000000	 98.645773 
703.000000	 98.595236 
702.000000	 98.519377 
701.000000	 98.401475 
700.000000	 98.226848 
699.000000	 97.993866 
698.000000	 97.716371 
697.000000	 97.425829 
696.000000	 97.171862 
695.000000	 97.003368 
694.000000	 96.943723 
693.000000	 96.984668 
692.000000	 97.099427 
691.000000	 97.257816 
690.000000	 97.429392 
689.000000	 97.588668 
688.000000	 97.725907 
687.000000	 97.845631 
686.000000	 97.954335 
685.000000	 98.052263 
684.000000	 98.135682 
683.000000	 98.203423 
682.000000	 98.259360 
681.000000	 98.312478 
680.000000	 98.372647 
679.000000	 98.442203 
678.000000	 98.511291 
677.000000	 98.562573 
676.000000	 98.593618 
675.000000	 98.625639 
674.000000	 98.678877 
673.000000	 98.751171 
672.000000	 98.833114 
671.000000	 98.930726 
670.000000	 99.060662 
669.000000	 99.212383 
668.000000	 99.303507 
667.000000	 99.283793 
666.000000	 99.237750 
665.000000	 99.216142 
664.000000	 99.210842 
663.000000	 99.209624 
662.000000	 99.209859 
661.000000	 99.215383 
660.000000	 99.233100 
659.000000	 99.262258 
658.000000	 99.283420 
657.000000	 99.271459 
656.000000	 99.234391 
655.000000	 99.212617 
654.000000	 99.221299 
653.000000	 99.228134 
652.000000	 99.207437 
651.000000	 99.176148 
650.000000	 99.163933 

