4000.000000	99.531747 
3999.000000	99.531651 
3998.000000	99.531483 
3997.000000	99.531198 
3996.000000	99.530765 
3995.000000	99.530262 
3994.000000	99.529905 
3993.000000	99.529898 
3992.000000	99.530201 
3991.000000	99.530484 
3990.000000	99.530386 
3989.000000	99.529892 
3988.000000	99.529452 
3987.000000	99.529605 
3986.000000	99.530448 
3985.000000	99.531446 
3984.000000	99.531838 
3983.000000	99.531215 
3982.000000	99.529736 
3981.000000	99.527973 
3980.000000	99.526520 
3979.000000	99.525671 
3978.000000	99.525464 
3977.000000	99.525876 
3976.000000	99.526876 
3975.000000	99.528323 
3974.000000	99.529913 
3973.000000	99.531212 
3972.000000	99.531822 
3971.000000	99.531592 
3970.000000	99.530654 
3969.000000	99.529332 
3968.000000	99.528006 
3967.000000	99.526929 
3966.000000	99.526178 
3965.000000	99.525756 
3964.000000	99.525619 
3963.000000	99.525581 
3962.000000	99.525315 
3961.000000	99.524586 
3960.000000	99.523499 
3959.000000	99.522497 
3958.000000	99.521993 
3957.000000	99.522000 
3956.000000	99.522206 
3955.000000	99.522333 
3954.000000	99.522394 
3953.000000	99.522544 
3952.000000	99.522789 
3951.000000	99.522973 
3950.000000	99.522965 
3949.000000	99.522827 
3948.000000	99.522767 
3947.000000	99.522886 
3946.000000	99.523075 
3945.000000	99.523146 
3944.000000	99.523009 
3943.000000	99.522659 
3942.000000	99.522154 
3941.000000	99.521645 
3940.000000	99.521267 
3939.000000	99.520944 
3938.000000	99.520400 
3937.000000	99.519439 
3936.000000	99.518301 
3935.000000	99.517630 
3934.000000	99.518028 
3933.000000	99.519559 
3932.000000	99.521548 
3931.000000	99.522928 
3930.000000	99.523006 
3929.000000	99.521901 
3928.000000	99.520433 
3927.000000	99.519531 
3926.000000	99.519641 
3925.000000	99.520492 
3924.000000	99.521332 
3923.000000	99.521642 
3922.000000	99.521489 
3921.000000	99.521284 
3920.000000	99.521330 
3919.000000	99.521638 
3918.000000	99.522096 
3917.000000	99.522595 
3916.000000	99.523007 
3915.000000	99.523218 
3914.000000	99.523300 
3913.000000	99.523466 
3912.000000	99.523795 
3911.000000	99.524184 
3910.000000	99.524524 
3909.000000	99.524784 
3908.000000	99.524899 
3907.000000	99.524495 
3906.000000	99.522945 
3905.000000	99.519791 
3904.000000	99.515231 
3903.000000	99.510513 
3902.000000	99.507409 
3901.000000	99.506945 
3900.000000	99.508892 
3899.000000	99.511925 
3898.000000	99.514546 
3897.000000	99.516057 
3896.000000	99.516465 
3895.000000	99.516026 
3894.000000	99.515066 
3893.000000	99.513883 
3892.000000	99.512710 
3891.000000	99.511674 
3890.000000	99.510855 
3889.000000	99.510226 
3888.000000	99.509760 
3887.000000	99.509621 
3886.000000	99.509857 
3885.000000	99.510102 
3884.000000	99.509955 
3883.000000	99.509502 
3882.000000	99.509204 
3881.000000	99.509327 
3880.000000	99.509708 
3879.000000	99.510074 
3878.000000	99.510426 
3877.000000	99.510968 
3876.000000	99.511860 
3875.000000	99.512897 
3874.000000	99.513541 
3873.000000	99.513476 
3872.000000	99.512992 
3871.000000	99.512713 
3870.000000	99.512964 
3869.000000	99.513588 
3868.000000	99.514273 
3867.000000	99.514877 
3866.000000	99.515460 
3865.000000	99.516063 
3864.000000	99.516598 
3863.000000	99.517008 
3862.000000	99.517363 
3861.000000	99.517779 
3860.000000	99.518291 
3859.000000	99.518847 
3858.000000	99.519367 
3857.000000	99.519808 
3856.000000	99.520170 
3855.000000	99.520503 
3854.000000	99.520901 
3853.000000	99.521398 
3852.000000	99.521965 
3851.000000	99.522555 
3850.000000	99.523129 
3849.000000	99.523674 
3848.000000	99.524188 
3847.000000	99.524674 
3846.000000	99.525137 
3845.000000	99.525580 
3844.000000	99.526013 
3843.000000	99.526443 
3842.000000	99.526872 
3841.000000	99.527288 
3840.000000	99.527674 
3839.000000	99.528022 
3838.000000	99.528336 
3837.000000	99.528625 
3836.000000	99.528900 
3835.000000	99.529168 
3834.000000	99.529438 
3833.000000	99.529717 
3832.000000	99.530007 
3831.000000	99.530291 
3830.000000	99.530541 
3829.000000	99.530736 
3828.000000	99.530881 
3827.000000	99.531003 
3826.000000	99.531119 
3825.000000	99.531224 
3824.000000	99.531301 
3823.000000	99.531348 
3822.000000	99.531380 
3821.000000	99.531408 
3820.000000	99.531437 
3819.000000	99.531475 
3818.000000	99.531522 
3817.000000	99.531574 
3816.000000	99.531616 
3815.000000	99.531627 
3814.000000	99.531599 
3813.000000	99.531549 
3812.000000	99.531502 
3811.000000	99.531455 
3810.000000	99.531392 
3809.000000	99.531299 
3808.000000	99.531180 
3807.000000	99.531048 
3806.000000	99.530910 
3805.000000	99.530755 
3804.000000	99.530572 
3803.000000	99.530363 
3802.000000	99.530149 
3801.000000	99.529933 
3800.000000	99.529696 
3799.000000	99.529425 
3798.000000	99.529133 
3797.000000	99.528858 
3796.000000	99.528629 
3795.000000	99.528437 
3794.000000	99.528221 
3793.000000	99.527913 
3792.000000	99.527532 
3791.000000	99.527190 
3790.000000	99.526968 
3789.000000	99.526865 
3788.000000	99.526831 
3787.000000	99.526786 
3786.000000	99.526646 
3785.000000	99.526384 
3784.000000	99.526043 
3783.000000	99.525700 
3782.000000	99.525466 
3781.000000	99.525519 
3780.000000	99.525908 
3779.000000	99.526308 
3778.000000	99.526282 
3777.000000	99.525686 
3776.000000	99.524754 
3775.000000	99.523935 
3774.000000	99.523453 
3773.000000	99.523119 
3772.000000	99.522621 
3771.000000	99.521920 
3770.000000	99.521187 
3769.000000	99.520579 
3768.000000	99.520185 
3767.000000	99.519973 
3766.000000	99.519807 
3765.000000	99.519529 
3764.000000	99.519028 
3763.000000	99.518322 
3762.000000	99.517666 
3761.000000	99.517439 
3760.000000	99.517711 
3759.000000	99.518155 
3758.000000	99.518548 
3757.000000	99.519061 
3756.000000	99.519875 
3755.000000	99.520886 
3754.000000	99.521773 
3753.000000	99.522166 
3752.000000	99.521606 
3751.000000	99.519726 
3750.000000	99.517167 
3749.000000	99.515377 
3748.000000	99.514833 
3747.000000	99.514805 
3746.000000	99.514553 
3745.000000	99.514084 
3744.000000	99.513836 
3743.000000	99.513907 
3742.000000	99.513800 
3741.000000	99.512975 
3740.000000	99.511214 
3739.000000	99.508549 
3738.000000	99.505777 
3737.000000	99.504547 
3736.000000	99.505658 
3735.000000	99.507517 
3734.000000	99.507636 
3733.000000	99.505773 
3732.000000	99.503880 
3731.000000	99.503365 
3730.000000	99.503637 
3729.000000	99.503345 
3728.000000	99.502300 
3727.000000	99.501480 
3726.000000	99.501355 
3725.000000	99.501193 
3724.000000	99.500302 
3723.000000	99.499091 
3722.000000	99.498396 
3721.000000	99.498646 
3720.000000	99.499354 
3719.000000	99.499346 
3718.000000	99.497887 
3717.000000	99.495237 
3716.000000	99.492097 
3715.000000	99.488971 
3714.000000	99.486159 
3713.000000	99.484124 
3712.000000	99.482889 
3711.000000	99.481939 
3710.000000	99.480928 
3709.000000	99.479625 
3708.000000	99.477646 
3707.000000	99.474705 
3706.000000	99.471068 
3705.000000	99.467580 
3704.000000	99.465119 
3703.000000	99.463565 
3702.000000	99.461321 
3701.000000	99.456744 
3700.000000	99.449968 
3699.000000	99.442572 
3698.000000	99.436208 
3697.000000	99.431661 
3696.000000	99.428450 
3695.000000	99.425508 
3694.000000	99.422557 
3693.000000	99.420447 
3692.000000	99.419760 
3691.000000	99.419596 
3690.000000	99.417864 
3689.000000	99.413601 
3688.000000	99.408300 
3687.000000	99.403597 
3686.000000	99.399555 
3685.000000	99.396247 
3684.000000	99.394528 
3683.000000	99.394863 
3682.000000	99.396351 
3681.000000	99.396966 
3680.000000	99.394699 
3679.000000	99.388240 
3678.000000	99.377988 
3677.000000	99.367692 
3676.000000	99.362388 
3675.000000	99.362621 
3674.000000	99.364405 
3673.000000	99.364209 
3672.000000	99.361992 
3671.000000	99.361391 
3670.000000	99.364845 
3669.000000	99.370231 
3668.000000	99.374552 
3667.000000	99.377295 
3666.000000	99.379427 
3665.000000	99.381659 
3664.000000	99.383693 
3663.000000	99.384865 
3662.000000	99.385014 
3661.000000	99.384270 
3660.000000	99.382530 
3659.000000	99.379838 
3658.000000	99.377348 
3657.000000	99.376801 
3656.000000	99.378399 
3655.000000	99.380252 
3654.000000	99.380380 
3653.000000	99.378627 
3652.000000	99.376559 
3651.000000	99.375836 
3650.000000	99.376368 
3649.000000	99.377370 
3648.000000	99.379722 
3647.000000	99.384236 
3646.000000	99.389844 
3645.000000	99.395298 
3644.000000	99.400769 
3643.000000	99.407265 
3642.000000	99.415317 
3641.000000	99.423951 
3640.000000	99.431301 
3639.000000	99.435947 
3638.000000	99.437635 
3637.000000	99.437227 
3636.000000	99.436080 
3635.000000	99.435173 
3634.000000	99.434328 
3633.000000	99.432601 
3632.000000	99.429819 
3631.000000	99.427607 
3630.000000	99.428495 
3629.000000	99.432308 
3628.000000	99.435756 
3627.000000	99.437514 
3626.000000	99.438989 
3625.000000	99.441509 
3624.000000	99.444977 
3623.000000	99.448254 
3622.000000	99.450558 
3621.000000	99.452510 
3620.000000	99.454851 
3619.000000	99.456607 
3618.000000	99.456241 
3617.000000	99.454023 
3616.000000	99.451854 
3615.000000	99.451615 
3614.000000	99.453530 
3613.000000	99.456071 
3612.000000	99.457724 
3611.000000	99.458463 
3610.000000	99.459162 
3609.000000	99.460258 
3608.000000	99.461278 
3607.000000	99.461852 
3606.000000	99.462599 
3605.000000	99.464347 
3604.000000	99.467177 
3603.000000	99.470430 
3602.000000	99.473347 
3601.000000	99.475652 
3600.000000	99.477267 
3599.000000	99.477935 
3598.000000	99.477512 
3597.000000	99.476347 
3596.000000	99.475203 
3595.000000	99.474879 
3594.000000	99.475624 
3593.000000	99.477076 
3592.000000	99.478558 
3591.000000	99.479428 
3590.000000	99.479503 
3589.000000	99.479224 
3588.000000	99.479207 
3587.000000	99.479511 
3586.000000	99.479871 
3585.000000	99.480300 
3584.000000	99.481095 
3583.000000	99.482331 
3582.000000	99.483692 
3581.000000	99.484694 
3580.000000	99.485106 
3579.000000	99.485052 
3578.000000	99.484767 
3577.000000	99.484448 
3576.000000	99.484298 
3575.000000	99.484575 
3574.000000	99.485387 
3573.000000	99.486478 
3572.000000	99.487415 
3571.000000	99.487976 
3570.000000	99.488255 
3569.000000	99.488518 
3568.000000	99.488947 
3567.000000	99.489436 
3566.000000	99.489810 
3565.000000	99.490154 
3564.000000	99.490702 
3563.000000	99.491597 
3562.000000	99.492762 
3561.000000	99.493871 
3560.000000	99.494596 
3559.000000	99.494867 
3558.000000	99.494920 
3557.000000	99.495070 
3556.000000	99.495489 
3555.000000	99.496133 
3554.000000	99.496849 
3553.000000	99.497444 
3552.000000	99.497759 
3551.000000	99.497802 
3550.000000	99.497727 
3549.000000	99.497673 
3548.000000	99.497745 
3547.000000	99.498015 
3546.000000	99.498502 
3545.000000	99.499020 
3544.000000	99.499268 
3543.000000	99.499231 
3542.000000	99.499387 
3541.000000	99.500276 
3540.000000	99.501971 
3539.000000	99.503943 
3538.000000	99.505510 
3537.000000	99.506400 
3536.000000	99.506810 
3535.000000	99.507075 
3534.000000	99.507323 
3533.000000	99.507547 
3532.000000	99.507810 
3531.000000	99.508265 
3530.000000	99.508858 
3529.000000	99.509213 
3528.000000	99.509006 
3527.000000	99.508423 
3526.000000	99.508046 
3525.000000	99.508244 
3524.000000	99.508823 
3523.000000	99.509333 
3522.000000	99.509628 
3521.000000	99.509947 
3520.000000	99.510530 
3519.000000	99.511346 
3518.000000	99.512220 
3517.000000	99.512999 
3516.000000	99.513530 
3515.000000	99.513661 
3514.000000	99.513355 
3513.000000	99.512816 
3512.000000	99.512393 
3511.000000	99.512301 
3510.000000	99.512496 
3509.000000	99.512807 
3508.000000	99.513152 
3507.000000	99.513594 
3506.000000	99.514202 
3505.000000	99.514895 
3504.000000	99.515461 
3503.000000	99.515747 
3502.000000	99.515821 
3501.000000	99.515908 
3500.000000	99.516172 
3499.000000	99.516575 
3498.000000	99.516963 
3497.000000	99.517221 
3496.000000	99.517358 
3495.000000	99.517455 
3494.000000	99.517595 
3493.000000	99.517814 
3492.000000	99.518102 
3491.000000	99.518440 
3490.000000	99.518815 
3489.000000	99.519217 
3488.000000	99.519635 
3487.000000	99.520048 
3486.000000	99.520436 
3485.000000	99.520798 
3484.000000	99.521148 
3483.000000	99.521497 
3482.000000	99.521850 
3481.000000	99.522210 
3480.000000	99.522578 
3479.000000	99.522948 
3478.000000	99.523308 
3477.000000	99.523650 
3476.000000	99.523979 
3475.000000	99.524311 
3474.000000	99.524655 
3473.000000	99.525012 
3472.000000	99.525376 
3471.000000	99.525737 
3470.000000	99.526088 
3469.000000	99.526427 
3468.000000	99.526765 
3467.000000	99.527106 
3466.000000	99.527445 
3465.000000	99.527781 
3464.000000	99.528115 
3463.000000	99.528439 
3462.000000	99.528721 
3461.000000	99.528929 
3460.000000	99.529077 
3459.000000	99.529231 
3458.000000	99.529464 
3457.000000	99.529786 
3456.000000	99.530103 
3455.000000	99.530287 
3454.000000	99.530281 
3453.000000	99.530171 
3452.000000	99.530111 
3451.000000	99.530182 
3450.000000	99.530348 
3449.000000	99.530530 
3448.000000	99.530685 
3447.000000	99.530813 
3446.000000	99.530900 
3445.000000	99.530933 
3444.000000	99.530945 
3443.000000	99.530982 
3442.000000	99.531006 
3441.000000	99.530882 
3440.000000	99.530536 
3439.000000	99.530089 
3438.000000	99.529768 
3437.000000	99.529667 
3436.000000	99.529659 
3435.000000	99.529602 
3434.000000	99.529564 
3433.000000	99.529769 
3432.000000	99.530287 
3431.000000	99.530881 
3430.000000	99.531197 
3429.000000	99.531136 
3428.000000	99.530941 
3427.000000	99.530895 
3426.000000	99.530960 
3425.000000	99.530790 
3424.000000	99.530130 
3423.000000	99.529086 
3422.000000	99.528038 
3421.000000	99.527315 
3420.000000	99.527029 
3419.000000	99.527175 
3418.000000	99.527724 
3417.000000	99.528558 
3416.000000	99.529418 
3415.000000	99.530007 
3414.000000	99.530171 
3413.000000	99.529954 
3412.000000	99.529569 
3411.000000	99.529322 
3410.000000	99.529403 
3409.000000	99.529684 
3408.000000	99.529769 
3407.000000	99.529377 
3406.000000	99.528663 
3405.000000	99.528118 
3404.000000	99.528096 
3403.000000	99.528522 
3402.000000	99.529036 
3401.000000	99.529399 
3400.000000	99.529697 
3399.000000	99.530159 
3398.000000	99.530839 
3397.000000	99.531501 
3396.000000	99.531807 
3395.000000	99.531580 
3394.000000	99.530894 
3393.000000	99.529969 
3392.000000	99.529044 
3391.000000	99.528346 
3390.000000	99.528078 
3389.000000	99.528347 
3388.000000	99.529086 
3387.000000	99.530088 
3386.000000	99.531127 
3385.000000	99.532032 
3384.000000	99.532644 
3383.000000	99.532790 
3382.000000	99.532385 
3381.000000	99.531553 
3380.000000	99.530616 
3379.000000	99.529941 
3378.000000	99.529735 
3377.000000	99.529967 
3376.000000	99.530417 
3375.000000	99.530807 
3374.000000	99.530979 
3373.000000	99.530965 
3372.000000	99.530899 
3371.000000	99.530873 
3370.000000	99.530859 
3369.000000	99.530761 
3368.000000	99.530547 
3367.000000	99.530316 
3366.000000	99.530218 
3365.000000	99.530285 
3364.000000	99.530356 
3363.000000	99.530238 
3362.000000	99.529922 
3361.000000	99.529560 
3360.000000	99.529265 
3359.000000	99.528988 
3358.000000	99.528645 
3357.000000	99.528279 
3356.000000	99.528009 
3355.000000	99.527873 
3354.000000	99.527785 
3353.000000	99.527635 
3352.000000	99.527387 
3351.000000	99.527082 
3350.000000	99.526790 
3349.000000	99.526566 
3348.000000	99.526419 
3347.000000	99.526308 
3346.000000	99.526155 
3345.000000	99.525903 
3344.000000	99.525551 
3343.000000	99.525179 
3342.000000	99.524876 
3341.000000	99.524640 
3340.000000	99.524365 
3339.000000	99.523962 
3338.000000	99.523493 
3337.000000	99.523160 
3336.000000	99.523090 
3335.000000	99.523191 
3334.000000	99.523242 
3333.000000	99.523145 
3332.000000	99.522995 
3331.000000	99.522903 
3330.000000	99.522842 
3329.000000	99.522684 
3328.000000	99.522373 
3327.000000	99.521993 
3326.000000	99.521657 
3325.000000	99.521358 
3324.000000	99.520981 
3323.000000	99.520458 
3322.000000	99.519909 
3321.000000	99.519553 
3320.000000	99.519477 
3319.000000	99.519541 
3318.000000	99.519520 
3317.000000	99.519336 
3316.000000	99.519081 
3315.000000	99.518852 
3314.000000	99.518689 
3313.000000	99.518634 
3312.000000	99.518726 
3311.000000	99.518855 
3310.000000	99.518752 
3309.000000	99.518253 
3308.000000	99.517461 
3307.000000	99.516614 
3306.000000	99.515869 
3305.000000	99.515265 
3304.000000	99.514817 
3303.000000	99.514521 
3302.000000	99.514299 
3301.000000	99.514010 
3300.000000	99.513554 
3299.000000	99.512942 
3298.000000	99.512273 
3297.000000	99.511681 
3296.000000	99.511236 
3295.000000	99.510898 
3294.000000	99.510564 
3293.000000	99.510183 
3292.000000	99.509803 
3291.000000	99.509480 
3290.000000	99.509170 
3289.000000	99.508767 
3288.000000	99.508240 
3287.000000	99.507665 
3286.000000	99.507147 
3285.000000	99.506712 
3284.000000	99.506305 
3283.000000	99.505852 
3282.000000	99.505334 
3281.000000	99.504805 
3280.000000	99.504352 
3279.000000	99.504021 
3278.000000	99.503779 
3277.000000	99.503524 
3276.000000	99.503161 
3275.000000	99.502656 
3274.000000	99.502053 
3273.000000	99.501468 
3272.000000	99.501014 
3271.000000	99.500718 
3270.000000	99.500480 
3269.000000	99.500149 
3268.000000	99.499656 
3267.000000	99.499050 
3266.000000	99.498411 
3265.000000	99.497801 
3264.000000	99.497339 
3263.000000	99.497230 
3262.000000	99.497586 
3261.000000	99.498249 
3260.000000	99.498877 
3259.000000	99.499215 
3258.000000	99.499200 
3257.000000	99.498846 
3256.000000	99.498137 
3255.000000	99.497089 
3254.000000	99.495896 
3253.000000	99.494971 
3252.000000	99.494762 
3251.000000	99.495464 
3250.000000	99.496782 
3249.000000	99.497989 
3248.000000	99.498421 
3247.000000	99.497917 
3246.000000	99.496799 
3245.000000	99.495533 
3244.000000	99.494438 
3243.000000	99.493690 
3242.000000	99.493400 
3241.000000	99.493536 
3240.000000	99.493920 
3239.000000	99.494428 
3238.000000	99.495201 
3237.000000	99.496523 
3236.000000	99.498447 
3235.000000	99.500517 
3234.000000	99.501916 
3233.000000	99.502004 
3232.000000	99.500791 
3231.000000	99.498915 
3230.000000	99.497216 
3229.000000	99.496234 
3228.000000	99.496005 
3227.000000	99.496135 
3226.000000	99.496015 
3225.000000	99.495192 
3224.000000	99.493705 
3223.000000	99.492098 
3222.000000	99.490965 
3221.000000	99.490457 
3220.000000	99.490246 
3219.000000	99.489905 
3218.000000	99.489345 
3217.000000	99.488917 
3216.000000	99.489150 
3215.000000	99.490298 
3214.000000	99.492008 
3213.000000	99.493421 
3212.000000	99.493796 
3211.000000	99.493038 
3210.000000	99.491655 
3209.000000	99.490321 
3208.000000	99.489424 
3207.000000	99.488918 
3206.000000	99.488419 
3205.000000	99.487510 
3204.000000	99.486176 
3203.000000	99.484932 
3202.000000	99.484347 
3201.000000	99.484436 
3200.000000	99.484663 
3199.000000	99.484541 
3198.000000	99.484050 
3197.000000	99.483478 
3196.000000	99.483101 
3195.000000	99.483101 
3194.000000	99.483511 
3193.000000	99.484035 
3192.000000	99.484071 
3191.000000	99.483162 
3190.000000	99.481417 
3189.000000	99.479487 
3188.000000	99.478050 
3187.000000	99.477382 
3186.000000	99.477405 
3185.000000	99.477920 
3184.000000	99.478710 
3183.000000	99.479539 
3182.000000	99.480228 
3181.000000	99.480755 
3180.000000	99.481240 
3179.000000	99.481793 
3178.000000	99.482321 
3177.000000	99.482466 
3176.000000	99.481880 
3175.000000	99.480690 
3174.000000	99.479580 
3173.000000	99.479129 
3172.000000	99.479064 
3171.000000	99.478524 
3170.000000	99.477156 
3169.000000	99.475669 
3168.000000	99.475071 
3167.000000	99.475609 
3166.000000	99.476698 
3165.000000	99.477636 
3164.000000	99.478117 
3163.000000	99.478094 
3162.000000	99.477549 
3161.000000	99.476626 
3160.000000	99.475780 
3159.000000	99.475512 
3158.000000	99.475887 
3157.000000	99.476398 
3156.000000	99.476330 
3155.000000	99.475270 
3154.000000	99.473294 
3153.000000	99.470793 
3152.000000	99.468226 
3151.000000	99.466050 
3150.000000	99.464711 
3149.000000	99.464496 
3148.000000	99.465315 
3147.000000	99.466728 
3146.000000	99.468284 
3145.000000	99.469734 
3144.000000	99.470930 
3143.000000	99.471727 
3142.000000	99.472069 
3141.000000	99.472054 
3140.000000	99.471832 
3139.000000	99.471494 
3138.000000	99.471093 
3137.000000	99.470722 
3136.000000	99.470519 
3135.000000	99.470628 
3134.000000	99.471119 
3133.000000	99.471805 
3132.000000	99.472166 
3131.000000	99.471704 
3130.000000	99.470481 
3129.000000	99.469233 
3128.000000	99.468747 
3127.000000	99.469184 
3126.000000	99.470139 
3125.000000	99.471122 
3124.000000	99.471845 
3123.000000	99.472108 
3122.000000	99.471767 
3121.000000	99.470972 
3120.000000	99.470208 
3119.000000	99.469888 
3118.000000	99.470002 
3117.000000	99.470276 
3116.000000	99.470550 
3115.000000	99.470862 
3114.000000	99.471228 
3113.000000	99.471476 
3112.000000	99.471367 
3111.000000	99.470822 
3110.000000	99.470032 
3109.000000	99.469367 
3108.000000	99.469095 
3107.000000	99.469138 
3106.000000	99.469135 
3105.000000	99.468792 
3104.000000	99.468190 
3103.000000	99.467699 
3102.000000	99.467589 
3101.000000	99.467803 
3100.000000	99.468086 
3099.000000	99.468274 
3098.000000	99.468425 
3097.000000	99.468700 
3096.000000	99.469182 
3095.000000	99.469765 
3094.000000	99.470217 
3093.000000	99.470393 
3092.000000	99.470378 
3091.000000	99.470374 
3090.000000	99.470443 
3089.000000	99.470412 
3088.000000	99.470031 
3087.000000	99.469165 
3086.000000	99.467914 
3085.000000	99.466646 
3084.000000	99.465802 
3083.000000	99.465444 
3082.000000	99.465072 
3081.000000	99.464176 
3080.000000	99.462997 
3079.000000	99.462507 
3078.000000	99.463524 
3077.000000	99.465954 
3076.000000	99.468871 
3075.000000	99.471097 
3074.000000	99.471681 
3073.000000	99.470335 
3072.000000	99.467846 
3071.000000	99.465708 
3070.000000	99.464836 
3069.000000	99.464698 
3068.000000	99.464031 
3067.000000	99.462379 
3066.000000	99.460714 
3065.000000	99.460576 
3064.000000	99.462647 
3063.000000	99.465898 
3062.000000	99.467992 
3061.000000	99.466852 
3060.000000	99.462301 
3059.000000	99.456327 
3058.000000	99.451670 
3057.000000	99.450149 
3056.000000	99.452034 
3055.000000	99.456178 
3054.000000	99.460350 
3053.000000	99.462119 
3052.000000	99.460274 
3051.000000	99.455535 
3050.000000	99.449847 
3049.000000	99.445200 
3048.000000	99.443035 
3047.000000	99.443729 
3046.000000	99.445731 
3045.000000	99.445879 
3044.000000	99.442019 
3043.000000	99.435504 
3042.000000	99.430257 
3041.000000	99.428972 
3040.000000	99.430749 
3039.000000	99.432555 
3038.000000	99.432031 
3037.000000	99.428493 
3036.000000	99.422141 
3035.000000	99.413456 
3034.000000	99.403278 
3033.000000	99.392762 
3032.000000	99.382986 
3031.000000	99.374671 
3030.000000	99.368064 
3029.000000	99.362873 
3028.000000	99.358457 
3027.000000	99.354184 
3026.000000	99.349510 
3025.000000	99.343735 
3024.000000	99.336162 
3023.000000	99.326813 
3022.000000	99.316665 
3021.000000	99.306682 
3020.000000	99.296658 
3019.000000	99.285497 
3018.000000	99.272754 
3017.000000	99.259435 
3016.000000	99.246906 
3015.000000	99.235224 
3014.000000	99.223196 
3013.000000	99.210243 
3012.000000	99.197627 
3011.000000	99.187178 
3010.000000	99.178896 
3009.000000	99.170597 
3008.000000	99.160103 
3007.000000	99.147228 
3006.000000	99.133286 
3005.000000	99.119273 
3004.000000	99.105312 
3003.000000	99.091577 
3002.000000	99.078781 
3001.000000	99.067417 
3000.000000	99.057068 
2999.000000	99.046957 
2998.000000	99.037082 
2997.000000	99.028519 
2996.000000	99.022396 
2995.000000	99.018127 
2994.000000	99.012488 
2993.000000	99.001021 
2992.000000	98.981482 
2991.000000	98.956460 
2990.000000	98.932345 
2989.000000	98.915292 
2988.000000	98.907935 
2987.000000	98.909246 
2986.000000	98.916189 
2985.000000	98.925246 
2984.000000	98.933300 
2983.000000	98.938471 
2982.000000	98.940636 
2981.000000	98.940978 
2980.000000	98.940796 
2979.000000	98.940696 
2978.000000	98.940627 
2977.000000	98.940270 
2976.000000	98.939297 
2975.000000	98.937591 
2974.000000	98.935583 
2973.000000	98.934397 
2972.000000	98.935415 
2971.000000	98.939397 
2970.000000	98.945915 
2969.000000	98.953719 
2968.000000	98.961795 
2967.000000	98.970063 
2966.000000	98.978980 
2965.000000	98.988617 
2964.000000	98.998316 
2963.000000	99.007276 
2962.000000	99.015250 
2961.000000	99.022584 
2960.000000	99.029666 
2959.000000	99.036459 
2958.000000	99.042528 
2957.000000	99.047434 
2956.000000	99.051073 
2955.000000	99.053859 
2954.000000	99.056823 
2953.000000	99.061437 
2952.000000	99.068781 
2951.000000	99.078347 
2950.000000	99.087852 
2949.000000	99.094873 
2948.000000	99.098806 
2947.000000	99.100895 
2946.000000	99.102539 
2945.000000	99.104298 
2944.000000	99.106525 
2943.000000	99.109871 
2942.000000	99.114270 
2941.000000	99.118105 
2940.000000	99.119627 
2939.000000	99.119389 
2938.000000	99.120370 
2937.000000	99.125080 
2936.000000	99.132801 
2935.000000	99.139962 
2934.000000	99.143209 
2933.000000	99.141989 
2932.000000	99.138559 
2931.000000	99.135652 
2930.000000	99.134209 
2929.000000	99.133454 
2928.000000	99.132716 
2927.000000	99.132183 
2926.000000	99.131690 
2925.000000	99.129945 
2924.000000	99.126009 
2923.000000	99.120838 
2922.000000	99.116097 
2921.000000	99.111703 
2920.000000	99.105954 
2919.000000	99.098207 
2918.000000	99.090247 
2917.000000	99.084438 
2916.000000	99.081334 
2915.000000	99.079527 
2914.000000	99.077211 
2913.000000	99.073406 
2912.000000	99.068354 
2911.000000	99.063372 
2910.000000	99.059949 
2909.000000	99.058453 
2908.000000	99.057685 
2907.000000	99.055901 
2906.000000	99.051895 
2905.000000	99.045159 
2904.000000	99.035829 
2903.000000	99.025379 
2902.000000	99.017030 
2901.000000	99.014808 
2900.000000	99.020647 
2899.000000	99.033041 
2898.000000	99.047366 
2897.000000	99.058416 
2896.000000	99.063682 
2895.000000	99.064763 
2894.000000	99.065535 
2893.000000	99.068667 
2892.000000	99.074021 
2891.000000	99.079908 
2890.000000	99.084916 
2889.000000	99.088188 
2888.000000	99.089083 
2887.000000	99.087838 
2886.000000	99.086311 
2885.000000	99.086997 
2884.000000	99.091134 
2883.000000	99.098287 
2882.000000	99.107563 
2881.000000	99.118393 
2880.000000	99.129956 
2879.000000	99.140787 
2878.000000	99.149617 
2877.000000	99.156406 
2876.000000	99.162171 
2875.000000	99.167958 
2874.000000	99.174149 
2873.000000	99.180492 
2872.000000	99.186416 
2871.000000	99.191392 
2870.000000	99.195316 
2869.000000	99.198847 
2868.000000	99.203346 
2867.000000	99.210197 
2866.000000	99.219713 
2865.000000	99.230527 
2864.000000	99.240337 
2863.000000	99.247609 
2862.000000	99.252489 
2861.000000	99.256129 
2860.000000	99.259608 
2859.000000	99.263859 
2858.000000	99.269926 
2857.000000	99.278217 
2856.000000	99.287444 
2855.000000	99.295254 
2854.000000	99.300371 
2853.000000	99.303809 
2852.000000	99.307701 
2851.000000	99.313273 
2850.000000	99.320247 
2849.000000	99.327593 
2848.000000	99.334236 
2847.000000	99.339352 
2846.000000	99.342749 
2845.000000	99.345147 
2844.000000	99.347669 
2843.000000	99.350847 
2842.000000	99.354365 
2841.000000	99.357901 
2840.000000	99.361849 
2839.000000	99.366849 
2838.000000	99.372601 
2837.000000	99.377467 
2836.000000	99.379627 
2835.000000	99.378764 
2834.000000	99.376560 
2833.000000	99.375326 
2832.000000	99.376047 
2831.000000	99.377940 
2830.000000	99.379739 
2829.000000	99.381030 
2828.000000	99.382253 
2827.000000	99.383876 
2826.000000	99.386033 
2825.000000	99.388704 
2824.000000	99.391669 
2823.000000	99.394230 
2822.000000	99.395520 
2821.000000	99.395405 
2820.000000	99.394819 
2819.000000	99.394908 
2818.000000	99.395997 
2817.000000	99.397677 
2816.000000	99.399665 
2815.000000	99.402059 
2814.000000	99.404637 
2813.000000	99.406435 
2812.000000	99.406552 
2811.000000	99.405315 
2810.000000	99.404295 
2809.000000	99.404899 
2808.000000	99.407092 
2807.000000	99.409589 
2806.000000	99.411163 
2805.000000	99.411568 
2804.000000	99.411318 
2803.000000	99.410984 
2802.000000	99.410864 
2801.000000	99.411097 
2800.000000	99.411742 
2799.000000	99.412662 
2798.000000	99.413475 
2797.000000	99.413795 
2796.000000	99.413548 
2795.000000	99.413072 
2794.000000	99.412892 
2793.000000	99.413345 
2792.000000	99.414358 
2791.000000	99.415518 
2790.000000	99.416363 
2789.000000	99.416763 
2788.000000	99.417000 
2787.000000	99.417436 
2786.000000	99.418149 
2785.000000	99.418893 
2784.000000	99.419363 
2783.000000	99.419460 
2782.000000	99.419323 
2781.000000	99.419227 
2780.000000	99.419418 
2779.000000	99.419985 
2778.000000	99.420809 
2777.000000	99.421666 
2776.000000	99.422418 
2775.000000	99.423089 
2774.000000	99.423734 
2773.000000	99.424337 
2772.000000	99.424873 
2771.000000	99.425420 
2770.000000	99.426102 
2769.000000	99.426911 
2768.000000	99.427655 
2767.000000	99.428150 
2766.000000	99.428421 
2765.000000	99.428665 
2764.000000	99.428965 
2763.000000	99.429127 
2762.000000	99.428888 
2761.000000	99.428256 
2760.000000	99.427564 
2759.000000	99.427173 
2758.000000	99.427193 
2757.000000	99.427566 
2756.000000	99.428280 
2755.000000	99.429299 
2754.000000	99.430329 
2753.000000	99.430934 
2752.000000	99.431025 
2751.000000	99.431040 
2750.000000	99.431486 
2749.000000	99.432406 
2748.000000	99.433443 
2747.000000	99.434297 
2746.000000	99.434912 
2745.000000	99.435267 
2744.000000	99.435282 
2743.000000	99.435003 
2742.000000	99.434695 
2741.000000	99.434661 
2740.000000	99.434991 
2739.000000	99.435548 
2738.000000	99.436157 
2737.000000	99.436754 
2736.000000	99.437357 
2735.000000	99.437955 
2734.000000	99.438460 
2733.000000	99.438791 
2732.000000	99.438982 
2731.000000	99.439160 
2730.000000	99.439418 
2729.000000	99.439739 
2728.000000	99.440068 
2727.000000	99.440404 
2726.000000	99.440793 
2725.000000	99.441252 
2724.000000	99.441768 
2723.000000	99.442350 
2722.000000	99.443022 
2721.000000	99.443752 
2720.000000	99.444411 
2719.000000	99.444861 
2718.000000	99.445093 
2717.000000	99.445245 
2716.000000	99.445469 
2715.000000	99.445802 
2714.000000	99.446180 
2713.000000	99.446536 
2712.000000	99.446871 
2711.000000	99.447233 
2710.000000	99.447659 
2709.000000	99.448143 
2708.000000	99.448647 
2707.000000	99.449104 
2706.000000	99.449442 
2705.000000	99.449639 
2704.000000	99.449761 
2703.000000	99.449940 
2702.000000	99.450269 
2701.000000	99.450736 
2700.000000	99.451241 
2699.000000	99.451711 
2698.000000	99.452161 
2697.000000	99.452626 
2696.000000	99.453065 
2695.000000	99.453380 
2694.000000	99.453524 
2693.000000	99.453563 
2692.000000	99.453630 
2691.000000	99.453801 
2690.000000	99.454045 
2689.000000	99.454294 
2688.000000	99.454544 
2687.000000	99.454867 
2686.000000	99.455286 
2685.000000	99.455726 
2684.000000	99.456115 
2683.000000	99.456473 
2682.000000	99.456857 
2681.000000	99.457239 
2680.000000	99.457518 
2679.000000	99.457644 
2678.000000	99.457699 
2677.000000	99.457845 
2676.000000	99.458192 
2675.000000	99.458725 
2674.000000	99.459324 
2673.000000	99.459843 
2672.000000	99.460213 
2671.000000	99.460452 
2670.000000	99.460610 
2669.000000	99.460729 
2668.000000	99.460865 
2667.000000	99.461106 
2666.000000	99.461509 
2665.000000	99.462030 
2664.000000	99.462549 
2663.000000	99.462980 
2662.000000	99.463333 
2661.000000	99.463690 
2660.000000	99.464132 
2659.000000	99.464677 
2658.000000	99.465270 
2657.000000	99.465821 
2656.000000	99.466278 
2655.000000	99.466665 
2654.000000	99.467041 
2653.000000	99.467433 
2652.000000	99.467842 
2651.000000	99.468291 
2650.000000	99.468801 
2649.000000	99.469300 
2648.000000	99.469649 
2647.000000	99.469803 
2646.000000	99.469890 
2645.000000	99.470129 
2644.000000	99.470621 
2643.000000	99.471271 
2642.000000	99.471816 
2641.000000	99.472066 
2640.000000	99.472092 
2639.000000	99.472212 
2638.000000	99.472704 
2637.000000	99.473538 
2636.000000	99.474425 
2635.000000	99.475158 
2634.000000	99.475764 
2633.000000	99.476247 
2632.000000	99.476417 
2631.000000	99.476202 
2630.000000	99.475999 
2629.000000	99.476351 
2628.000000	99.477263 
2627.000000	99.478127 
2626.000000	99.478394 
2625.000000	99.478044 
2624.000000	99.477400 
2623.000000	99.476776 
2622.000000	99.476409 
2621.000000	99.476423 
2620.000000	99.476655 
2619.000000	99.476689 
2618.000000	99.476265 
2617.000000	99.475564 
2616.000000	99.475084 
2615.000000	99.475355 
2614.000000	99.476716 
2613.000000	99.479046 
2612.000000	99.481651 
2611.000000	99.483769 
2610.000000	99.485269 
2609.000000	99.486580 
2608.000000	99.487905 
2607.000000	99.488928 
2606.000000	99.489498 
2605.000000	99.490139 
2604.000000	99.491410 
2603.000000	99.492948 
2602.000000	99.493691 
2601.000000	99.493170 
2600.000000	99.492101 
2599.000000	99.491523 
2598.000000	99.491605 
2597.000000	99.491450 
2596.000000	99.490032 
2595.000000	99.487228 
2594.000000	99.484030 
2593.000000	99.481746 
2592.000000	99.480917 
2591.000000	99.481220 
2590.000000	99.482177 
2589.000000	99.483609 
2588.000000	99.485307 
2587.000000	99.486651 
2586.000000	99.487015 
2585.000000	99.486522 
2584.000000	99.485992 
2583.000000	99.486047 
2582.000000	99.486458 
2581.000000	99.486566 
2580.000000	99.486114 
2579.000000	99.485418 
2578.000000	99.484882 
2577.000000	99.484576 
2576.000000	99.484316 
2575.000000	99.483960 
2574.000000	99.483544 
2573.000000	99.483192 
2572.000000	99.482969 
2571.000000	99.482806 
2570.000000	99.482566 
2569.000000	99.482173 
2568.000000	99.481682 
2567.000000	99.481201 
2566.000000	99.480764 
2565.000000	99.480330 
2564.000000	99.479874 
2563.000000	99.479415 
2562.000000	99.478966 
2561.000000	99.478488 
2560.000000	99.477932 
2559.000000	99.477292 
2558.000000	99.476604 
2557.000000	99.475919 
2556.000000	99.475281 
2555.000000	99.474710 
2554.000000	99.474207 
2553.000000	99.473741 
2552.000000	99.473237 
2551.000000	99.472642 
2550.000000	99.471958 
2549.000000	99.471229 
2548.000000	99.470501 
2547.000000	99.469790 
2546.000000	99.469108 
2545.000000	99.468463 
2544.000000	99.467864 
2543.000000	99.467299 
2542.000000	99.466730 
2541.000000	99.466098 
2540.000000	99.465360 
2539.000000	99.464548 
2538.000000	99.463764 
2537.000000	99.463088 
2536.000000	99.462495 
2535.000000	99.461896 
2534.000000	99.461262 
2533.000000	99.460649 
2532.000000	99.460095 
2531.000000	99.459547 
2530.000000	99.458956 
2529.000000	99.458388 
2528.000000	99.457954 
2527.000000	99.457641 
2526.000000	99.457267 
2525.000000	99.456682 
2524.000000	99.455993 
2523.000000	99.455528 
2522.000000	99.455467 
2521.000000	99.455687 
2520.000000	99.455898 
2519.000000	99.455889 
2518.000000	99.455563 
2517.000000	99.454863 
2516.000000	99.453848 
2515.000000	99.452844 
2514.000000	99.452296 
2513.000000	99.452426 
2512.000000	99.453061 
2511.000000	99.453798 
2510.000000	99.454338 
2509.000000	99.454613 
2508.000000	99.454726 
2507.000000	99.454833 
2506.000000	99.454954 
2505.000000	99.454881 
2504.000000	99.454399 
2503.000000	99.453592 
2502.000000	99.452792 
2501.000000	99.452237 
2500.000000	99.451929 
2499.000000	99.451836 
2498.000000	99.452010 
2497.000000	99.452396 
2496.000000	99.452709 
2495.000000	99.452668 
2494.000000	99.452260 
2493.000000	99.451678 
2492.000000	99.451132 
2491.000000	99.450825 
2490.000000	99.451019 
2489.000000	99.451915 
2488.000000	99.453474 
2487.000000	99.455361 
2486.000000	99.456997 
2485.000000	99.457700 
2484.000000	99.457041 
2483.000000	99.455206 
2482.000000	99.453047 
2481.000000	99.451514 
2480.000000	99.450928 
2479.000000	99.450984 
2478.000000	99.451165 
2477.000000	99.451162 
2476.000000	99.450988 
2475.000000	99.450832 
2474.000000	99.450874 
2473.000000	99.451116 
2472.000000	99.451343 
2471.000000	99.451306 
2470.000000	99.450961 
2469.000000	99.450500 
2468.000000	99.450128 
2467.000000	99.449901 
2466.000000	99.449747 
2465.000000	99.449582 
2464.000000	99.449372 
2463.000000	99.449122 
2462.000000	99.448867 
2461.000000	99.448639 
2460.000000	99.448435 
2459.000000	99.448223 
2458.000000	99.447984 
2457.000000	99.447730 
2456.000000	99.447485 
2455.000000	99.447259 
2454.000000	99.447048 
2453.000000	99.446844 
2452.000000	99.446624 
2451.000000	99.446358 
2450.000000	99.446032 
2449.000000	99.445666 
2448.000000	99.445294 
2447.000000	99.444950 
2446.000000	99.444642 
2445.000000	99.444359 
2444.000000	99.444084 
2443.000000	99.443812 
2442.000000	99.443550 
2441.000000	99.443301 
2440.000000	99.443061 
2439.000000	99.442835 
2438.000000	99.442627 
2437.000000	99.442435 
2436.000000	99.442242 
2435.000000	99.442037 
2434.000000	99.441818 
2433.000000	99.441592 
2432.000000	99.441370 
2431.000000	99.441151 
2430.000000	99.440921 
2429.000000	99.440650 
2428.000000	99.440323 
2427.000000	99.439954 
2426.000000	99.439579 
2425.000000	99.439230 
2424.000000	99.438915 
2423.000000	99.438628 
2422.000000	99.438357 
2421.000000	99.438092 
2420.000000	99.437819 
2419.000000	99.437506 
2418.000000	99.437133 
2417.000000	99.436715 
2416.000000	99.436291 
2415.000000	99.435887 
2414.000000	99.435503 
2413.000000	99.435128 
2412.000000	99.434757 
2411.000000	99.434382 
2410.000000	99.434003 
2409.000000	99.433622 
2408.000000	99.433249 
2407.000000	99.432894 
2406.000000	99.432561 
2405.000000	99.432250 
2404.000000	99.431953 
2403.000000	99.431660 
2402.000000	99.431359 
2401.000000	99.431042 
2400.000000	99.430708 
2399.000000	99.430356 
2398.000000	99.429992 
2397.000000	99.429621 
2396.000000	99.429258 
2395.000000	99.428927 
2394.000000	99.428630 
2393.000000	99.428334 
2392.000000	99.428014 
2391.000000	99.427674 
2390.000000	99.427334 
2389.000000	99.427010 
2388.000000	99.426713 
2387.000000	99.426452 
2386.000000	99.426231 
2385.000000	99.426032 
2384.000000	99.425828 
2383.000000	99.425603 
2382.000000	99.425367 
2381.000000	99.425148 
2380.000000	99.424963 
2379.000000	99.424811 
2378.000000	99.424686 
2377.000000	99.424585 
2376.000000	99.424509 
2375.000000	99.424450 
2374.000000	99.424397 
2373.000000	99.424344 
2372.000000	99.424295 
2371.000000	99.424259 
2370.000000	99.424244 
2369.000000	99.424260 
2368.000000	99.424308 
2367.000000	99.424386 
2366.000000	99.424490 
2365.000000	99.424610 
2364.000000	99.424733 
2363.000000	99.424841 
2362.000000	99.424932 
2361.000000	99.425012 
2360.000000	99.425100 
2359.000000	99.425209 
2358.000000	99.425354 
2357.000000	99.425545 
2356.000000	99.425779 
2355.000000	99.426052 
2354.000000	99.426352 
2353.000000	99.426665 
2352.000000	99.426978 
2351.000000	99.427291 
2350.000000	99.427619 
2349.000000	99.427975 
2348.000000	99.428368 
2347.000000	99.428793 
2346.000000	99.429242 
2345.000000	99.429703 
2344.000000	99.430174 
2343.000000	99.430660 
2342.000000	99.431170 
2341.000000	99.431709 
2340.000000	99.432276 
2339.000000	99.432872 
2338.000000	99.433491 
2337.000000	99.434126 
2336.000000	99.434765 
2335.000000	99.435405 
2334.000000	99.436055 
2333.000000	99.436730 
2332.000000	99.437436 
2331.000000	99.438173 
2330.000000	99.438939 
2329.000000	99.439734 
2328.000000	99.440560 
2327.000000	99.441416 
2326.000000	99.442291 
2325.000000	99.443168 
2324.000000	99.444029 
2323.000000	99.444870 
2322.000000	99.445702 
2321.000000	99.446542 
2320.000000	99.447398 
2319.000000	99.448269 
2318.000000	99.449149 
2317.000000	99.450037 
2316.000000	99.450944 
2315.000000	99.451869 
2314.000000	99.452794 
2313.000000	99.453710 
2312.000000	99.454647 
2311.000000	99.455635 
2310.000000	99.456648 
2309.000000	99.457585 
2308.000000	99.458379 
2307.000000	99.459072 
2306.000000	99.459815 
2305.000000	99.460727 
2304.000000	99.461818 
2303.000000	99.462998 
2302.000000	99.464171 
2301.000000	99.465235 
2300.000000	99.466194 
2299.000000	99.467200 
2298.000000	99.468434 
2297.000000	99.469760 
2296.000000	99.470737 
2295.000000	99.471110 
2294.000000	99.471208 
2293.000000	99.471682 
2292.000000	99.472842 
2291.000000	99.474484 
2290.000000	99.476213 
2289.000000	99.477708 
2288.000000	99.478750 
2287.000000	99.479293 
2286.000000	99.479490 
2285.000000	99.479394 
2284.000000	99.478813 
2283.000000	99.477840 
2282.000000	99.477271 
2281.000000	99.477891 
2280.000000	99.479384 
2279.000000	99.480618 
2278.000000	99.480976 
2277.000000	99.480917 
2276.000000	99.481167 
2275.000000	99.481847 
2274.000000	99.482643 
2273.000000	99.483419 
2272.000000	99.484321 
2271.000000	99.485383 
2270.000000	99.486325 
2269.000000	99.486806 
2268.000000	99.486733 
2267.000000	99.486318 
2266.000000	99.485946 
2265.000000	99.485897 
2264.000000	99.486143 
2263.000000	99.486418 
2262.000000	99.486529 
2261.000000	99.486590 
2260.000000	99.486911 
2259.000000	99.487664 
2258.000000	99.488643 
2257.000000	99.489518 
2256.000000	99.490168 
2255.000000	99.490754 
2254.000000	99.491448 
2253.000000	99.492138 
2252.000000	99.492521 
2251.000000	99.492461 
2250.000000	99.492121 
2249.000000	99.491780 
2248.000000	99.491630 
2247.000000	99.491740 
2246.000000	99.492063 
2245.000000	99.492456 
2244.000000	99.492738 
2243.000000	99.492832 
2242.000000	99.492801 
2241.000000	99.492783 
2240.000000	99.492885 
2239.000000	99.493119 
2238.000000	99.493428 
2237.000000	99.493710 
2236.000000	99.493872 
2235.000000	99.493905 
2234.000000	99.493865 
2233.000000	99.493831 
2232.000000	99.493845 
2231.000000	99.493905 
2230.000000	99.493995 
2229.000000	99.494092 
2228.000000	99.494186 
2227.000000	99.494283 
2226.000000	99.494400 
2225.000000	99.494555 
2224.000000	99.494740 
2223.000000	99.494943 
2222.000000	99.495146 
2221.000000	99.495334 
2220.000000	99.495496 
2219.000000	99.495632 
2218.000000	99.495758 
2217.000000	99.495892 
2216.000000	99.496039 
2215.000000	99.496186 
2214.000000	99.496307 
2213.000000	99.496386 
2212.000000	99.496433 
2211.000000	99.496481 
2210.000000	99.496563 
2209.000000	99.496705 
2208.000000	99.496934 
2207.000000	99.497272 
2206.000000	99.497640 
2205.000000	99.497782 
2204.000000	99.497471 
2203.000000	99.497048 
2202.000000	99.497373 
2201.000000	99.498814 
2200.000000	99.500491 
2199.000000	99.501352 
2198.000000	99.501429 
2197.000000	99.501513 
2196.000000	99.502113 
2195.000000	99.503272 
2194.000000	99.504944 
2193.000000	99.506816 
2192.000000	99.507988 
2191.000000	99.507769 
2190.000000	99.506913 
2189.000000	99.507300 
2188.000000	99.509666 
2187.000000	99.511800 
2186.000000	99.509892 
2185.000000	99.502352 
2184.000000	99.492331 
2183.000000	99.485470 
2182.000000	99.484413 
2181.000000	99.486450 
2180.000000	99.487084 
2179.000000	99.485383 
2178.000000	99.484307 
2177.000000	99.486385 
2176.000000	99.490830 
2175.000000	99.494835 
2174.000000	99.496146 
2173.000000	99.494471 
2172.000000	99.492259 
2171.000000	99.494166 
2170.000000	99.503428 
2169.000000	99.517589 
2168.000000	99.529547 
2167.000000	99.534437 
2166.000000	99.533884 
2165.000000	99.532827 
2164.000000	99.533934 
2163.000000	99.536570 
2162.000000	99.539090 
2161.000000	99.539110 
2160.000000	99.532801 
2159.000000	99.517559 
2158.000000	99.495632 
2157.000000	99.472827 
2156.000000	99.453671 
2155.000000	99.440118 
2154.000000	99.433877 
2153.000000	99.436322 
2152.000000	99.445766 
2151.000000	99.457134 
2150.000000	99.465726 
2149.000000	99.470787 
2148.000000	99.474785 
2147.000000	99.479513 
2146.000000	99.483287 
2145.000000	99.482159 
2144.000000	99.474161 
2143.000000	99.462175 
2142.000000	99.452185 
2141.000000	99.448145 
2140.000000	99.449112 
2139.000000	99.451484 
2138.000000	99.453058 
2137.000000	99.454062 
2136.000000	99.454869 
2135.000000	99.454527 
2134.000000	99.452245 
2133.000000	99.449340 
2132.000000	99.448345 
2131.000000	99.449939 
2130.000000	99.451578 
2129.000000	99.449961 
2128.000000	99.444898 
2127.000000	99.439981 
2126.000000	99.438983 
2125.000000	99.442330 
2124.000000	99.447580 
2123.000000	99.452428 
2122.000000	99.456228 
2121.000000	99.458939 
2120.000000	99.460291 
2119.000000	99.460446 
2118.000000	99.460450 
2117.000000	99.461315 
2116.000000	99.462978 
2115.000000	99.464576 
2114.000000	99.465495 
2113.000000	99.465714 
2112.000000	99.465432 
2111.000000	99.464813 
2110.000000	99.464145 
2109.000000	99.463869 
2108.000000	99.464120 
2107.000000	99.464370 
2106.000000	99.463835 
2105.000000	99.462416 
2104.000000	99.461087 
2103.000000	99.461118 
2102.000000	99.462752 
2101.000000	99.464930 
2100.000000	99.466378 
2099.000000	99.466791 
2098.000000	99.466752 
2097.000000	99.466901 
2096.000000	99.467454 
2095.000000	99.468350 
2094.000000	99.469428 
2093.000000	99.470453 
2092.000000	99.471242 
2091.000000	99.471855 
2090.000000	99.472533 
2089.000000	99.473352 
2088.000000	99.474056 
2087.000000	99.474317 
2086.000000	99.474099 
2085.000000	99.473779 
2084.000000	99.473904 
2083.000000	99.474796 
2082.000000	99.476323 
2081.000000	99.477955 
2080.000000	99.479207 
2079.000000	99.480078 
2078.000000	99.480978 
2077.000000	99.482205 
2076.000000	99.483537 
2075.000000	99.484402 
2074.000000	99.484409 
2073.000000	99.483618 
2072.000000	99.482526 
2071.000000	99.481819 
2070.000000	99.481910 
2069.000000	99.482656 
2068.000000	99.483471 
2067.000000	99.483874 
2066.000000	99.483906 
2065.000000	99.483999 
2064.000000	99.484534 
2063.000000	99.485558 
2062.000000	99.486761 
2061.000000	99.487654 
2060.000000	99.487967 
2059.000000	99.487880 
2058.000000	99.487892 
2057.000000	99.488279 
2056.000000	99.488831 
2055.000000	99.489199 
2054.000000	99.489372 
2053.000000	99.489619 
2052.000000	99.490043 
2051.000000	99.490394 
2050.000000	99.490381 
2049.000000	99.489995 
2048.000000	99.489486 
2047.000000	99.489111 
2046.000000	99.488949 
2045.000000	99.488888 
2044.000000	99.488701 
2043.000000	99.488260 
2042.000000	99.487674 
2041.000000	99.487161 
2040.000000	99.486766 
2039.000000	99.486326 
2038.000000	99.485674 
2037.000000	99.484825 
2036.000000	99.483965 
2035.000000	99.483231 
2034.000000	99.482535 
2033.000000	99.481685 
2032.000000	99.480703 
2031.000000	99.479905 
2030.000000	99.479562 
2029.000000	99.479517 
2028.000000	99.479194 
2027.000000	99.478232 
2026.000000	99.476848 
2025.000000	99.475618 
2024.000000	99.474947 
2023.000000	99.474908 
2022.000000	99.475340 
2021.000000	99.475826 
2020.000000	99.475769 
2019.000000	99.474900 
2018.000000	99.473588 
2017.000000	99.472315 
2016.000000	99.470957 
2015.000000	99.469270 
2014.000000	99.467787 
2013.000000	99.467288 
2012.000000	99.467553 
2011.000000	99.467520 
2010.000000	99.466817 
2009.000000	99.466291 
2008.000000	99.466750 
2007.000000	99.468026 
2006.000000	99.469555 
2005.000000	99.471111 
2004.000000	99.472407 
2003.000000	99.472658 
2002.000000	99.471161 
2001.000000	99.467971 
2000.000000	99.463732 
1999.000000	99.459121 
1998.000000	99.454809 
1997.000000	99.451723 
1996.000000	99.450852 
1995.000000	99.452638 
1994.000000	99.456432 
1993.000000	99.460531 
1992.000000	99.462978 
1991.000000	99.462768 
1990.000000	99.460284 
1989.000000	99.456773 
1988.000000	99.453807 
1987.000000	99.452975 
1986.000000	99.455237 
1985.000000	99.460115 
1984.000000	99.465689 
1983.000000	99.469929 
1982.000000	99.471718 
1981.000000	99.470598 
1980.000000	99.466736 
1979.000000	99.461610 
1978.000000	99.457683 
1977.000000	99.456028 
1976.000000	99.454939 
1975.000000	99.452095 
1974.000000	99.447583 
1973.000000	99.443705 
1972.000000	99.442222 
1971.000000	99.442982 
1970.000000	99.445045 
1969.000000	99.447875 
1968.000000	99.451043 
1967.000000	99.453565 
1966.000000	99.454388 
1965.000000	99.453311 
1964.000000	99.451009 
1963.000000	99.448342 
1962.000000	99.445983 
1961.000000	99.444435 
1960.000000	99.443796 
1959.000000	99.443304 
1958.000000	99.441653 
1957.000000	99.438293 
1956.000000	99.434289 
1955.000000	99.431241 
1954.000000	99.429180 
1953.000000	99.426333 
1952.000000	99.421505 
1951.000000	99.416253 
1950.000000	99.413706 
1949.000000	99.415235 
1948.000000	99.419114 
1947.000000	99.422355 
1946.000000	99.423301 
1945.000000	99.421818 
1944.000000	99.418284 
1943.000000	99.413552 
1942.000000	99.409256 
1941.000000	99.406799 
1940.000000	99.406194 
1939.000000	99.406573 
1938.000000	99.407389 
1937.000000	99.408701 
1936.000000	99.410576 
1935.000000	99.412539 
1934.000000	99.413690 
1933.000000	99.413463 
1932.000000	99.412244 
1931.000000	99.411239 
1930.000000	99.411522 
1929.000000	99.412986 
1928.000000	99.414369 
1927.000000	99.414536 
1926.000000	99.413452 
1925.000000	99.411800 
1924.000000	99.410206 
1923.000000	99.409017 
1922.000000	99.408506 
1921.000000	99.408752 
1920.000000	99.409419 
1919.000000	99.409957 
1918.000000	99.410054 
1917.000000	99.409846 
1916.000000	99.409704 
1915.000000	99.409933 
1914.000000	99.410602 
1913.000000	99.411457 
1912.000000	99.412058 
1911.000000	99.412189 
1910.000000	99.412039 
1909.000000	99.411936 
1908.000000	99.411995 
1907.000000	99.412182 
1906.000000	99.412532 
1905.000000	99.413065 
1904.000000	99.413540 
1903.000000	99.413527 
1902.000000	99.412825 
1901.000000	99.411644 
1900.000000	99.410508 
1899.000000	99.409886 
1898.000000	99.409966 
1897.000000	99.410570 
1896.000000	99.411197 
1895.000000	99.411467 
1894.000000	99.411561 
1893.000000	99.412026 
1892.000000	99.413071 
1891.000000	99.414224 
1890.000000	99.414771 
1889.000000	99.414462 
1888.000000	99.413692 
1887.000000	99.413101 
1886.000000	99.413066 
1885.000000	99.413420 
1884.000000	99.413557 
1883.000000	99.413010 
1882.000000	99.411940 
1881.000000	99.410880 
1880.000000	99.410250 
1879.000000	99.410231 
1878.000000	99.410745 
1877.000000	99.411272 
1876.000000	99.411216 
1875.000000	99.410932 
1874.000000	99.411826 
1873.000000	99.414633 
1872.000000	99.417938 
1871.000000	99.419328 
1870.000000	99.417982 
1869.000000	99.415353 
1868.000000	99.412744 
1867.000000	99.409646 
1866.000000	99.405634 
1865.000000	99.401592 
1864.000000	99.398872 
1863.000000	99.398408 
1862.000000	99.400544 
1861.000000	99.404808 
1860.000000	99.409669 
1859.000000	99.413589 
1858.000000	99.416599 
1857.000000	99.419627 
1856.000000	99.422768 
1855.000000	99.425478 
1854.000000	99.427611 
1853.000000	99.429108 
1852.000000	99.429443 
1851.000000	99.428285 
1850.000000	99.426422 
1849.000000	99.425125 
1848.000000	99.424714 
1847.000000	99.424606 
1846.000000	99.424566 
1845.000000	99.424549 
1844.000000	99.423686 
1843.000000	99.421641 
1842.000000	99.420317 
1841.000000	99.421574 
1840.000000	99.425173 
1839.000000	99.429295 
1838.000000	99.432318 
1837.000000	99.434022 
1836.000000	99.435081 
1835.000000	99.436021 
1834.000000	99.436852 
1833.000000	99.437424 
1832.000000	99.437984 
1831.000000	99.438866 
1830.000000	99.439923 
1829.000000	99.440671 
1828.000000	99.441151 
1827.000000	99.441643 
1826.000000	99.442187 
1825.000000	99.442864 
1824.000000	99.443578 
1823.000000	99.443882 
1822.000000	99.443372 
1821.000000	99.441955 
1820.000000	99.440014 
1819.000000	99.438349 
1818.000000	99.437853 
1817.000000	99.438811 
1816.000000	99.440379 
1815.000000	99.441421 
1814.000000	99.441908 
1813.000000	99.442805 
1812.000000	99.444742 
1811.000000	99.447224 
1810.000000	99.449501 
1809.000000	99.451502 
1808.000000	99.453147 
1807.000000	99.453869 
1806.000000	99.453442 
1805.000000	99.452500 
1804.000000	99.451937 
1803.000000	99.452094 
1802.000000	99.452803 
1801.000000	99.453804 
1800.000000	99.454647 
1799.000000	99.454900 
1798.000000	99.454704 
1797.000000	99.454641 
1796.000000	99.455066 
1795.000000	99.455892 
1794.000000	99.456840 
1793.000000	99.457655 
1792.000000	99.458205 
1791.000000	99.458503 
1790.000000	99.458724 
1789.000000	99.459066 
1788.000000	99.459588 
1787.000000	99.460235 
1786.000000	99.460907 
1785.000000	99.461500 
1784.000000	99.461951 
1783.000000	99.462305 
1782.000000	99.462675 
1781.000000	99.463130 
1780.000000	99.463634 
1779.000000	99.464130 
1778.000000	99.464629 
1777.000000	99.465167 
1776.000000	99.465735 
1775.000000	99.466298 
1774.000000	99.466833 
1773.000000	99.467348 
1772.000000	99.467848 
1771.000000	99.468331 
1770.000000	99.468791 
1769.000000	99.469230 
1768.000000	99.469659 
1767.000000	99.470088 
1766.000000	99.470526 
1765.000000	99.470979 
1764.000000	99.471450 
1763.000000	99.471940 
1762.000000	99.472448 
1761.000000	99.472970 
1760.000000	99.473501 
1759.000000	99.474033 
1758.000000	99.474561 
1757.000000	99.475083 
1756.000000	99.475599 
1755.000000	99.476106 
1754.000000	99.476605 
1753.000000	99.477094 
1752.000000	99.477584 
1751.000000	99.478086 
1750.000000	99.478604 
1749.000000	99.479129 
1748.000000	99.479644 
1747.000000	99.480142 
1746.000000	99.480622 
1745.000000	99.481088 
1744.000000	99.481545 
1743.000000	99.481991 
1742.000000	99.482430 
1741.000000	99.482868 
1740.000000	99.483307 
1739.000000	99.483746 
1738.000000	99.484180 
1737.000000	99.484602 
1736.000000	99.485009 
1735.000000	99.485406 
1734.000000	99.485802 
1733.000000	99.486210 
1732.000000	99.486632 
1731.000000	99.487058 
1730.000000	99.487476 
1729.000000	99.487880 
1728.000000	99.488269 
1727.000000	99.488648 
1726.000000	99.489022 
1725.000000	99.489393 
1724.000000	99.489757 
1723.000000	99.490113 
1722.000000	99.490457 
1721.000000	99.490787 
1720.000000	99.491096 
1719.000000	99.491378 
1718.000000	99.491630 
1717.000000	99.491860 
1716.000000	99.492076 
1715.000000	99.492286 
1714.000000	99.492492 
1713.000000	99.492700 
1712.000000	99.492911 
1711.000000	99.493126 
1710.000000	99.493342 
1709.000000	99.493550 
1708.000000	99.493744 
1707.000000	99.493922 
1706.000000	99.494091 
1705.000000	99.494257 
1704.000000	99.494422 
1703.000000	99.494578 
1702.000000	99.494728 
1701.000000	99.494881 
1700.000000	99.495052 
1699.000000	99.495245 
1698.000000	99.495452 
1697.000000	99.495663 
1696.000000	99.495878 
1695.000000	99.496096 
1694.000000	99.496317 
1693.000000	99.496537 
1692.000000	99.496748 
1691.000000	99.496942 
1690.000000	99.497114 
1689.000000	99.497265 
1688.000000	99.497398 
1687.000000	99.497518 
1686.000000	99.497634 
1685.000000	99.497752 
1684.000000	99.497875 
1683.000000	99.498002 
1682.000000	99.498130 
1681.000000	99.498260 
1680.000000	99.498394 
1679.000000	99.498530 
1678.000000	99.498675 
1677.000000	99.498822 
1676.000000	99.498953 
1675.000000	99.499073 
1674.000000	99.499194 
1673.000000	99.499333 
1672.000000	99.499499 
1671.000000	99.499760 
1670.000000	99.500191 
1669.000000	99.500646 
1668.000000	99.500917 
1667.000000	99.501040 
1666.000000	99.500987 
1665.000000	99.500656 
1664.000000	99.500223 
1663.000000	99.500231 
1662.000000	99.500971 
1661.000000	99.502017 
1660.000000	99.502684 
1659.000000	99.502891 
1658.000000	99.503238 
1657.000000	99.504071 
1656.000000	99.504805 
1655.000000	99.504979 
1654.000000	99.505351 
1653.000000	99.505392 
1652.000000	99.503653 
1651.000000	99.502970 
1650.000000	99.503029 
1649.000000	99.502446 
1648.000000	99.501035 
1647.000000	99.499356 
1646.000000	99.497671 
1645.000000	99.496738 
1644.000000	99.497155 
1643.000000	99.498474 
1642.000000	99.499919 
1641.000000	99.501117 
1640.000000	99.501961 
1639.000000	99.502372 
1638.000000	99.502414 
1637.000000	99.502394 
1636.000000	99.502141 
1635.000000	99.500906 
1634.000000	99.499815 
1633.000000	99.499924 
1632.000000	99.500521 
1631.000000	99.501006 
1630.000000	99.501324 
1629.000000	99.501262 
1628.000000	99.500425 
1627.000000	99.499263 
1626.000000	99.498971 
1625.000000	99.500200 
1624.000000	99.502380 
1623.000000	99.504228 
1622.000000	99.505147 
1621.000000	99.505619 
1620.000000	99.505732 
1619.000000	99.505310 
1618.000000	99.505076 
1617.000000	99.505666 
1616.000000	99.505977 
1615.000000	99.505443 
1614.000000	99.504246 
1613.000000	99.502072 
1612.000000	99.499451 
1611.000000	99.497458 
1610.000000	99.496192 
1609.000000	99.494655 
1608.000000	99.492452 
1607.000000	99.490603 
1606.000000	99.489860 
1605.000000	99.490040 
1604.000000	99.491038 
1603.000000	99.493196 
1602.000000	99.496099 
1601.000000	99.498162 
1600.000000	99.498541 
1599.000000	99.498172 
1598.000000	99.498261 
1597.000000	99.498980 
1596.000000	99.500039 
1595.000000	99.501535 
1594.000000	99.503447 
1593.000000	99.504937 
1592.000000	99.505337 
1591.000000	99.505213 
1590.000000	99.505566 
1589.000000	99.506384 
1588.000000	99.506991 
1587.000000	99.507302 
1586.000000	99.507586 
1585.000000	99.507611 
1584.000000	99.507101 
1583.000000	99.506394 
1582.000000	99.506208 
1581.000000	99.506674 
1580.000000	99.507331 
1579.000000	99.507839 
1578.000000	99.508297 
1577.000000	99.508791 
1576.000000	99.509131 
1575.000000	99.509396 
1574.000000	99.509778 
1573.000000	99.510117 
1572.000000	99.510379 
1571.000000	99.510686 
1570.000000	99.511054 
1569.000000	99.511413 
1568.000000	99.511755 
1567.000000	99.512085 
1566.000000	99.512399 
1565.000000	99.512694 
1564.000000	99.512971 
1563.000000	99.513230 
1562.000000	99.513470 
1561.000000	99.513692 
1560.000000	99.513898 
1559.000000	99.514093 
1558.000000	99.514278 
1557.000000	99.514452 
1556.000000	99.514611 
1555.000000	99.514746 
1554.000000	99.514855 
1553.000000	99.514939 
1552.000000	99.515005 
1551.000000	99.515055 
1550.000000	99.515091 
1549.000000	99.515112 
1548.000000	99.515115 
1547.000000	99.515094 
1546.000000	99.515050 
1545.000000	99.514988 
1544.000000	99.514912 
1543.000000	99.514824 
1542.000000	99.514723 
1541.000000	99.514612 
1540.000000	99.514488 
1539.000000	99.514352 
1538.000000	99.514215 
1537.000000	99.514083 
1536.000000	99.513955 
1535.000000	99.513825 
1534.000000	99.513687 
1533.000000	99.513540 
1532.000000	99.513384 
1531.000000	99.513191 
1530.000000	99.512937 
1529.000000	99.512673 
1528.000000	99.512465 
1527.000000	99.512302 
1526.000000	99.512134 
1525.000000	99.511969 
1524.000000	99.511817 
1523.000000	99.511642 
1522.000000	99.511529 
1521.000000	99.511540 
1520.000000	99.511340 
1519.000000	99.510652 
1518.000000	99.509547 
1517.000000	99.508426 
1516.000000	99.507548 
1515.000000	99.506789 
1514.000000	99.506019 
1513.000000	99.505281 
1512.000000	99.504686 
1511.000000	99.504194 
1510.000000	99.503566 
1509.000000	99.502804 
1508.000000	99.502645 
1507.000000	99.503421 
1506.000000	99.502923 
1505.000000	99.500975 
1504.000000	99.499553 
1503.000000	99.498795 
1502.000000	99.498330 
1501.000000	99.498231 
1500.000000	99.498731 
1499.000000	99.499665 
1498.000000	99.500432 
1497.000000	99.500940 
1496.000000	99.501424 
1495.000000	99.501279 
1494.000000	99.499727 
1493.000000	99.496818 
1492.000000	99.493265 
1491.000000	99.490303 
1490.000000	99.488819 
1489.000000	99.488377 
1488.000000	99.487463 
1487.000000	99.485284 
1486.000000	99.482947 
1485.000000	99.481664 
1484.000000	99.481380 
1483.000000	99.481302 
1482.000000	99.480636 
1481.000000	99.479126 
1480.000000	99.477020 
1479.000000	99.474775 
1478.000000	99.472958 
1477.000000	99.472063 
1476.000000	99.471822 
1475.000000	99.470868 
1474.000000	99.468859 
1473.000000	99.467802 
1472.000000	99.468962 
1471.000000	99.470392 
1470.000000	99.470512 
1469.000000	99.469946 
1468.000000	99.469904 
1467.000000	99.470691 
1466.000000	99.471753 
1465.000000	99.472482 
1464.000000	99.472431 
1463.000000	99.471763 
1462.000000	99.471254 
1461.000000	99.471711 
1460.000000	99.473191 
1459.000000	99.474666 
1458.000000	99.473849 
1457.000000	99.468872 
1456.000000	99.461430 
1455.000000	99.455384 
1454.000000	99.451632 
1453.000000	99.449449 
1452.000000	99.448113 
1451.000000	99.446781 
1450.000000	99.445373 
1449.000000	99.445646 
1448.000000	99.449161 
1447.000000	99.454009 
1446.000000	99.456770 
1445.000000	99.456849 
1444.000000	99.455436 
1443.000000	99.453220 
1442.000000	99.450696 
1441.000000	99.448912 
1440.000000	99.448858 
1439.000000	99.450307 
1438.000000	99.451506 
1437.000000	99.451070 
1436.000000	99.448957 
1435.000000	99.445350 
1434.000000	99.441190 
1433.000000	99.438296 
1432.000000	99.437661 
1431.000000	99.438766 
1430.000000	99.439394 
1429.000000	99.438014 
1428.000000	99.435477 
1427.000000	99.432944 
1426.000000	99.430138 
1425.000000	99.426323 
1424.000000	99.422483 
1423.000000	99.419846 
1422.000000	99.416811 
1421.000000	99.411050 
1420.000000	99.403094 
1419.000000	99.396107 
1418.000000	99.389650 
1417.000000	99.381447 
1416.000000	99.372625 
1415.000000	99.364718 
1414.000000	99.357045 
1413.000000	99.347989 
1412.000000	99.337979 
1411.000000	99.329281 
1410.000000	99.322568 
1409.000000	99.317215 
1408.000000	99.313806 
1407.000000	99.313235 
1406.000000	99.314885 
1405.000000	99.317805 
1404.000000	99.322509 
1403.000000	99.328667 
1402.000000	99.333485 
1401.000000	99.335346 
1400.000000	99.336319 
1399.000000	99.339261 
1398.000000	99.341711 
1397.000000	99.337667 
1396.000000	99.325566 
1395.000000	99.312026 
1394.000000	99.306410 
1393.000000	99.311780 
1392.000000	99.325177 
1391.000000	99.341479 
1390.000000	99.355794 
1389.000000	99.364875 
1388.000000	99.367819 
1387.000000	99.365950 
1386.000000	99.361520 
1385.000000	99.356966 
1384.000000	99.354372 
1383.000000	99.354642 
1382.000000	99.357193 
1381.000000	99.361113 
1380.000000	99.365861 
1379.000000	99.370925 
1378.000000	99.375458 
1377.000000	99.378917 
1376.000000	99.382188 
1375.000000	99.387302 
1374.000000	99.395074 
1373.000000	99.403383 
1372.000000	99.409813 
1371.000000	99.414818 
1370.000000	99.420894 
1369.000000	99.428984 
1368.000000	99.437889 
1367.000000	99.446077 
1366.000000	99.452963 
1365.000000	99.458681 
1364.000000	99.463239 
1363.000000	99.466765 
1362.000000	99.469907 
1361.000000	99.472979 
1360.000000	99.475659 
1359.000000	99.478079 
1358.000000	99.481336 
1357.000000	99.486188 
1356.000000	99.491866 
1355.000000	99.496824 
1354.000000	99.500482 
1353.000000	99.503439 
1352.000000	99.505442 
1351.000000	99.505058 
1350.000000	99.502957 
1349.000000	99.501440 
1348.000000	99.502257 
1347.000000	99.505586 
1346.000000	99.510793 
1345.000000	99.516564 
1344.000000	99.521107 
1343.000000	99.523367 
1342.000000	99.524032 
1341.000000	99.524362 
1340.000000	99.524476 
1339.000000	99.523769 
1338.000000	99.522527 
1337.000000	99.522049 
1336.000000	99.523008 
1335.000000	99.524661 
1334.000000	99.526265 
1333.000000	99.528144 
1332.000000	99.530551 
1331.000000	99.532531 
1330.000000	99.532800 
1329.000000	99.531170 
1328.000000	99.528867 
1327.000000	99.527546 
1326.000000	99.528153 
1325.000000	99.529925 
1324.000000	99.531690 
1323.000000	99.533057 
1322.000000	99.534002 
1321.000000	99.534049 
1320.000000	99.532783 
1319.000000	99.530762 
1318.000000	99.529089 
1317.000000	99.528253 
1316.000000	99.527826 
1315.000000	99.527213 
1314.000000	99.526245 
1313.000000	99.525284 
1312.000000	99.524977 
1311.000000	99.525759 
1310.000000	99.527419 
1309.000000	99.529061 
1308.000000	99.529689 
1307.000000	99.528835 
1306.000000	99.527033 
1305.000000	99.525354 
1304.000000	99.525096 
1303.000000	99.526966 
1302.000000	99.530422 
1301.000000	99.533903 
1300.000000	99.536011 
1299.000000	99.536295 
1298.000000	99.535039 
1297.000000	99.532860 
1296.000000	99.530559 
1295.000000	99.529214 
1294.000000	99.529690 
1293.000000	99.531902 
1292.000000	99.534478 
1291.000000	99.535356 
1290.000000	99.533409 
1289.000000	99.529822 
1288.000000	99.527294 
1287.000000	99.527206 
1286.000000	99.528070 
1285.000000	99.527645 
1284.000000	99.525823 
1283.000000	99.524280 
1282.000000	99.523743 
1281.000000	99.523199 
1280.000000	99.521860 
1279.000000	99.520237 
1278.000000	99.518634 
1277.000000	99.516121 
1276.000000	99.511782 
1275.000000	99.506286 
1274.000000	99.501412 
1273.000000	99.498443 
1272.000000	99.497423 
1271.000000	99.497296 
1270.000000	99.496371 
1269.000000	99.493494 
1268.000000	99.489328 
1267.000000	99.485743 
1266.000000	99.483313 
1265.000000	99.480485 
1264.000000	99.475833 
1263.000000	99.469999 
1262.000000	99.464567 
1261.000000	99.460021 
1260.000000	99.455990 
1259.000000	99.452758 
1258.000000	99.450889 
1257.000000	99.449922 
1256.000000	99.448694 
1255.000000	99.446844 
1254.000000	99.444956 
1253.000000	99.443381 
1252.000000	99.441926 
1251.000000	99.440825 
1250.000000	99.441010 
1249.000000	99.443111 
1248.000000	99.446851 
1247.000000	99.451337 
1246.000000	99.455011 
1245.000000	99.455592 
1244.000000	99.451497 
1243.000000	99.444190 
1242.000000	99.438393 
1241.000000	99.438505 
1240.000000	99.444813 
1239.000000	99.453255 
1238.000000	99.458834 
1237.000000	99.459226 
1236.000000	99.455268 
1235.000000	99.449169 
1234.000000	99.442666 
1233.000000	99.436511 
1232.000000	99.431145 
1231.000000	99.427110 
1230.000000	99.424496 
1229.000000	99.422450 
1228.000000	99.419956 
1227.000000	99.417193 
1226.000000	99.415598 
1225.000000	99.416082 
1224.000000	99.417456 
1223.000000	99.417203 
1222.000000	99.414001 
1221.000000	99.409247 
1220.000000	99.405876 
1219.000000	99.405671 
1218.000000	99.407638 
1217.000000	99.408956 
1216.000000	99.407415 
1215.000000	99.403013 
1214.000000	99.397599 
1213.000000	99.393154 
1212.000000	99.390112 
1211.000000	99.386898 
1210.000000	99.381347 
1209.000000	99.373024 
1208.000000	99.364034 
1207.000000	99.357062 
1206.000000	99.352626 
1205.000000	99.348769 
1204.000000	99.343189 
1203.000000	99.334859 
1202.000000	99.323752 
1201.000000	99.310349 
1200.000000	99.296100 
1199.000000	99.283416 
1198.000000	99.274012 
1197.000000	99.267415 
1196.000000	99.261677 
1195.000000	99.255101 
1194.000000	99.246845 
1193.000000	99.236371 
1192.000000	99.223370 
1191.000000	99.208421 
1190.000000	99.193187 
1189.000000	99.179731 
1188.000000	99.169549 
1187.000000	99.162669 
1186.000000	99.157185 
1185.000000	99.150132 
1184.000000	99.139432 
1183.000000	99.125011 
1182.000000	99.108271 
1181.000000	99.091131 
1180.000000	99.075649 
1179.000000	99.063375 
1178.000000	99.053880 
1177.000000	99.044419 
1176.000000	99.032210 
1175.000000	99.017049 
1174.000000	99.001057 
1173.000000	98.986088 
1172.000000	98.972415 
1171.000000	98.959729 
1170.000000	98.948030 
1169.000000	98.937078 
1168.000000	98.925979 
1167.000000	98.914058 
1166.000000	98.901858 
1165.000000	98.890980 
1164.000000	98.883221 
1163.000000	98.879854 
1162.000000	98.881078 
1161.000000	98.885635 
1160.000000	98.891147 
1159.000000	98.895422 
1158.000000	98.897465 
1157.000000	98.896958 
1156.000000	98.892935 
1155.000000	98.883722 
1154.000000	98.868677 
1153.000000	98.849649 
1152.000000	98.830127 
1151.000000	98.812765 
1150.000000	98.797944 
1149.000000	98.784571 
1148.000000	98.771379 
1147.000000	98.757009 
1146.000000	98.739898 
1145.000000	98.719543 
1144.000000	98.697907 
1143.000000	98.678546 
1142.000000	98.663740 
1141.000000	98.652833 
1140.000000	98.643266 
1139.000000	98.632365 
1138.000000	98.618264 
1137.000000	98.600552 
1136.000000	98.580889 
1135.000000	98.562220 
1134.000000	98.546330 
1133.000000	98.532292 
1132.000000	98.517705 
1131.000000	98.500996 
1130.000000	98.482205 
1129.000000	98.462168 
1128.000000	98.441635 
1127.000000	98.421000 
1126.000000	98.400461 
1125.000000	98.380430 
1124.000000	98.361627 
1123.000000	98.344239 
1122.000000	98.327084 
1121.000000	98.308517 
1120.000000	98.288389 
1119.000000	98.268184 
1118.000000	98.248789 
1117.000000	98.229082 
1116.000000	98.207473 
1115.000000	98.184075 
1114.000000	98.160428 
1113.000000	98.137514 
1112.000000	98.115123 
1111.000000	98.093178 
1110.000000	98.072532 
1109.000000	98.053733 
1108.000000	98.035475 
1107.000000	98.015175 
1106.000000	97.991720 
1105.000000	97.966986 
1104.000000	97.943894 
1103.000000	97.923274 
1102.000000	97.903888 
1101.000000	97.885219 
1100.000000	97.868808 
1099.000000	97.854955 
1098.000000	97.841449 
1097.000000	97.826089 
1096.000000	97.809458 
1095.000000	97.793233 
1094.000000	97.776692 
1093.000000	97.757103 
1092.000000	97.733181 
1091.000000	97.706020 
1090.000000	97.676581 
1089.000000	97.644355 
1088.000000	97.609282 
1087.000000	97.573510 
1086.000000	97.540177 
1085.000000	97.511017 
1084.000000	97.485535 
1083.000000	97.461607 
1082.000000	97.436716 
1081.000000	97.409722 
1080.000000	97.381799 
1079.000000	97.354857 
1078.000000	97.329205 
1077.000000	97.303999 
1076.000000	97.279767 
1075.000000	97.258673 
1074.000000	97.242056 
1073.000000	97.228929 
1072.000000	97.216126 
1071.000000	97.197616 
1070.000000	97.165046 
1069.000000	97.113847 
1068.000000	97.050881 
1067.000000	96.993182 
1066.000000	96.955304 
1065.000000	96.938356 
1064.000000	96.931735 
1063.000000	96.922643 
1062.000000	96.902776 
1061.000000	96.869236 
1060.000000	96.823876 
1059.000000	96.772934 
1058.000000	96.724822 
1057.000000	96.685852 
1056.000000	96.656773 
1055.000000	96.632294 
1054.000000	96.604320 
1053.000000	96.567937 
1052.000000	96.525344 
1051.000000	96.482990 
1050.000000	96.444885 
1049.000000	96.410645 
1048.000000	96.379432 
1047.000000	96.351870 
1046.000000	96.327179 
1045.000000	96.302006 
1044.000000	96.274068 
1043.000000	96.245184 
1042.000000	96.219165 
1041.000000	96.197730 
1040.000000	96.179622 
1039.000000	96.163144 
1038.000000	96.148830 
1037.000000	96.139630 
1036.000000	96.138287 
1035.000000	96.144535 
1034.000000	96.155598 
1033.000000	96.168917 
1032.000000	96.181879 
1031.000000	96.189077 
1030.000000	96.185003 
1029.000000	96.172819 
1028.000000	96.166330 
1027.000000	96.177904 
1026.000000	96.205552 
1025.000000	96.235733 
1024.000000	96.257688 
1023.000000	96.270851 
1022.000000	96.279786 
1021.000000	96.287618 
1020.000000	96.294991 
1019.000000	96.300994 
1018.000000	96.303808 
1017.000000	96.303213 
1016.000000	96.302816 
1015.000000	96.307273 
1014.000000	96.317447 
1013.000000	96.330664 
1012.000000	96.344794 
1011.000000	96.359040 
1010.000000	96.371939 
1009.000000	96.382603 
1008.000000	96.393505 
1007.000000	96.408380 
1006.000000	96.427714 
1005.000000	96.449657 
1004.000000	96.474307 
1003.000000	96.502824 
1002.000000	96.532877 
1001.000000	96.559788 
1000.000000	96.582637 
999.000000	 96.604887 
998.000000	 96.628251 
997.000000	 96.650218 
996.000000	 96.669165 
995.000000	 96.688347 
994.000000	 96.712790 
993.000000	 96.744323 
992.000000	 96.780450 
991.000000	 96.815818 
990.000000	 96.844694 
989.000000	 96.865023 
988.000000	 96.881001 
987.000000	 96.899504 
986.000000	 96.923663 
985.000000	 96.952087 
984.000000	 96.983503 
983.000000	 97.018577 
982.000000	 97.057227 
981.000000	 97.097625 
980.000000	 97.138614 
979.000000	 97.180167 
978.000000	 97.220897 
977.000000	 97.258547 
976.000000	 97.294010 
975.000000	 97.331645 
974.000000	 97.374239 
973.000000	 97.420227 
972.000000	 97.466922 
971.000000	 97.513736 
970.000000	 97.560994 
969.000000	 97.608138 
968.000000	 97.654536 
967.000000	 97.699731 
966.000000	 97.741559 
965.000000	 97.776512 
964.000000	 97.804070 
963.000000	 97.829120 
962.000000	 97.857969 
961.000000	 97.892469 
960.000000	 97.929056 
959.000000	 97.962472 
958.000000	 97.989492 
957.000000	 98.010530 
956.000000	 98.029444 
955.000000	 98.051327 
954.000000	 98.078852 
953.000000	 98.110279 
952.000000	 98.141143 
951.000000	 98.167533 
950.000000	 98.187966 
949.000000	 98.203301 
948.000000	 98.215791 
947.000000	 98.228220 
946.000000	 98.243336 
945.000000	 98.263052 
944.000000	 98.286694 
943.000000	 98.309528 
942.000000	 98.324917 
941.000000	 98.330153 
940.000000	 98.329926 
939.000000	 98.332320 
938.000000	 98.340914 
937.000000	 98.352055 
936.000000	 98.359863 
935.000000	 98.362412 
934.000000	 98.363186 
933.000000	 98.367987 
932.000000	 98.380307 
931.000000	 98.397879 
930.000000	 98.413460 
929.000000	 98.420862 
928.000000	 98.421162 
927.000000	 98.422195 
926.000000	 98.431366 
925.000000	 98.449242 
924.000000	 98.469563 
923.000000	 98.483975 
922.000000	 98.487385 
921.000000	 98.481245 
920.000000	 98.472625 
919.000000	 98.468553 
918.000000	 98.470129 
917.000000	 98.472937 
916.000000	 98.473168 
915.000000	 98.471746 
914.000000	 98.472100 
913.000000	 98.475966 
912.000000	 98.482836 
911.000000	 98.492077 
910.000000	 98.503633 
909.000000	 98.517153 
908.000000	 98.531794 
907.000000	 98.546899 
906.000000	 98.562392 
905.000000	 98.578714 
904.000000	 98.596589 
903.000000	 98.616914 
902.000000	 98.640898 
901.000000	 98.669873 
900.000000	 98.703888 
899.000000	 98.739825 
898.000000	 98.772136 
897.000000	 98.797009 
896.000000	 98.815380 
895.000000	 98.831210 
894.000000	 98.847593 
893.000000	 98.865546 
892.000000	 98.885550 
891.000000	 98.908109 
890.000000	 98.932626 
889.000000	 98.957430 
888.000000	 98.981299 
887.000000	 99.003597 
886.000000	 99.022691 
885.000000	 99.036030 
884.000000	 99.043049 
883.000000	 99.047299 
882.000000	 99.054313 
881.000000	 99.067008 
880.000000	 99.083940 
879.000000	 99.102113 
878.000000	 99.120509 
877.000000	 99.139870 
876.000000	 99.159116 
875.000000	 99.173653 
874.000000	 99.179183 
873.000000	 99.177286 
872.000000	 99.175857 
871.000000	 99.182522 
870.000000	 99.197659 
869.000000	 99.214540 
868.000000	 99.226350 
867.000000	 99.232993 
866.000000	 99.241201 
865.000000	 99.258044 
864.000000	 99.284167 
863.000000	 99.313016 
862.000000	 99.336522 
861.000000	 99.351223 
860.000000	 99.358955 
859.000000	 99.363937 
858.000000	 99.371012 
857.000000	 99.384961 
856.000000	 99.407479 
855.000000	 99.433665 
854.000000	 99.454771 
853.000000	 99.466544 
852.000000	 99.472565 
851.000000	 99.477989 
850.000000	 99.482835 
849.000000	 99.484378 
848.000000	 99.483746 
847.000000	 99.486032 
846.000000	 99.494288 
845.000000	 99.506671 
844.000000	 99.519619 
843.000000	 99.530801 
842.000000	 99.538393 
841.000000	 99.540243 
840.000000	 99.535699 
839.000000	 99.527499 
838.000000	 99.520386 
837.000000	 99.517213 
836.000000	 99.516597 
835.000000	 99.515178 
834.000000	 99.512661 
833.000000	 99.513245 
832.000000	 99.519715 
831.000000	 99.527204 
830.000000	 99.527459 
829.000000	 99.520641 
828.000000	 99.517533 
827.000000	 99.525635 
826.000000	 99.537315 
825.000000	 99.538822 
824.000000	 99.528636 
823.000000	 99.519049 
822.000000	 99.520162 
821.000000	 99.529980 
820.000000	 99.540723 
819.000000	 99.547141 
818.000000	 99.547356 
817.000000	 99.541617 
816.000000	 99.532336 
815.000000	 99.521706 
814.000000	 99.507783 
813.000000	 99.486340 
812.000000	 99.457872 
811.000000	 99.428954 
810.000000	 99.404231 
809.000000	 99.379763 
808.000000	 99.346756 
807.000000	 99.299512 
806.000000	 99.238002 
805.000000	 99.165933 
804.000000	 99.090053 
803.000000	 99.019853 
802.000000	 98.963414 
801.000000	 98.922572 
800.000000	 98.893623 
799.000000	 98.872619 
798.000000	 98.859360 
797.000000	 98.857055 
796.000000	 98.868743 
795.000000	 98.893323 
794.000000	 98.924941 
793.000000	 98.956808 
792.000000	 98.984275 
791.000000	 99.003012 
790.000000	 99.007493 
789.000000	 98.995962 
788.000000	 98.975893 
787.000000	 98.959131 
786.000000	 98.950140 
785.000000	 98.942954 
784.000000	 98.930936 
783.000000	 98.915037 
782.000000	 98.900035 
781.000000	 98.887288 
780.000000	 98.875574 
779.000000	 98.866333 
778.000000	 98.863781 
777.000000	 98.871049 
776.000000	 98.888811 
775.000000	 98.915746 
774.000000	 98.947628 
773.000000	 98.978171 
772.000000	 99.003972 
771.000000	 99.027092 
770.000000	 99.049901 
769.000000	 99.069157 
768.000000	 99.079279 
767.000000	 99.080923 
766.000000	 99.081884 
765.000000	 99.088227 
764.000000	 99.097939 
763.000000	 99.105130 
762.000000	 99.107870 
761.000000	 99.109577 
760.000000	 99.114218 
759.000000	 99.122451 
758.000000	 99.131976 
757.000000	 99.140179 
756.000000	 99.146686 
755.000000	 99.154337 
754.000000	 99.167178 
753.000000	 99.186319 
752.000000	 99.207996 
751.000000	 99.226303 
750.000000	 99.237688 
749.000000	 99.242534 
748.000000	 99.243689 
747.000000	 99.245221 
746.000000	 99.251728 
745.000000	 99.265651 
744.000000	 99.283830 
743.000000	 99.298758 
742.000000	 99.305645 
741.000000	 99.307409 
740.000000	 99.311456 
739.000000	 99.322512 
738.000000	 99.339732 
737.000000	 99.358939 
736.000000	 99.375361 
735.000000	 99.385866 
734.000000	 99.392276 
733.000000	 99.401980 
732.000000	 99.420866 
731.000000	 99.444429 
730.000000	 99.460246 
729.000000	 99.461302 
728.000000	 99.453675 
727.000000	 99.449073 
726.000000	 99.451970 
725.000000	 99.458705 
724.000000	 99.466470 
723.000000	 99.476906 
722.000000	 99.490869 
721.000000	 99.504590 
720.000000	 99.512828 
719.000000	 99.513438 
718.000000	 99.507914 
717.000000	 99.500178 
716.000000	 99.495239 
715.000000	 99.496098 
714.000000	 99.501291 
713.000000	 99.506828 
712.000000	 99.510456 
711.000000	 99.512077 
710.000000	 99.511207 
709.000000	 99.507032 
708.000000	 99.500870 
707.000000	 99.496504 
706.000000	 99.496011 
705.000000	 99.498080 
704.000000	 99.500377 
703.000000	 99.499836 
702.000000	 99.491954 
701.000000	 99.473813 
700.000000	 99.447507 
699.000000	 99.418653 
698.000000	 99.389942 
697.000000	 99.359860 
696.000000	 99.328610 
695.000000	 99.300790 
694.000000	 99.282763 
693.000000	 99.279689 
692.000000	 99.294203 
691.000000	 99.324756 
690.000000	 99.363054 
689.000000	 99.397629 
688.000000	 99.422430 
687.000000	 99.439060 
686.000000	 99.450974 
685.000000	 99.458515 
684.000000	 99.460896 
683.000000	 99.460760 
682.000000	 99.464104 
681.000000	 99.476002 
680.000000	 99.495776 
679.000000	 99.515444 
678.000000	 99.523821 
677.000000	 99.514634 
676.000000	 99.495551 
675.000000	 99.484586 
674.000000	 99.491177 
673.000000	 99.506223 
672.000000	 99.515739 
671.000000	 99.518628 
670.000000	 99.525803 
669.000000	 99.541910 
668.000000	 99.545314 
667.000000	 99.523553 
666.000000	 99.507223 
665.000000	 99.509104 
664.000000	 99.519748 
663.000000	 99.528300 
662.000000	 99.530482 
661.000000	 99.532261 
660.000000	 99.543388 
659.000000	 99.562798 
658.000000	 99.574471 
657.000000	 99.564128 
656.000000	 99.538264 
655.000000	 99.520355 
654.000000	 99.521762 
653.000000	 99.528567 
652.000000	 99.525137 
651.000000	 99.514167 
650.000000	 99.509089 

