4000.000000	99.540968 
3999.000000	99.541104 
3998.000000	99.541162 
3997.000000	99.540797 
3996.000000	99.539837 
3995.000000	99.538486 
3994.000000	99.537253 
3993.000000	99.536526 
3992.000000	99.536334 
3991.000000	99.536384 
3990.000000	99.536341 
3989.000000	99.536108 
3988.000000	99.535861 
3987.000000	99.535841 
3986.000000	99.536121 
3985.000000	99.536529 
3984.000000	99.536748 
3983.000000	99.536524 
3982.000000	99.535813 
3981.000000	99.534810 
3980.000000	99.533805 
3979.000000	99.532983 
3978.000000	99.532411 
3977.000000	99.532158 
3976.000000	99.532308 
3975.000000	99.532834 
3974.000000	99.533527 
3973.000000	99.534052 
3972.000000	99.534117 
3971.000000	99.533681 
3970.000000	99.532932 
3969.000000	99.532126 
3968.000000	99.531446 
3967.000000	99.530935 
3966.000000	99.530556 
3965.000000	99.530293 
3964.000000	99.530117 
3963.000000	99.529885 
3962.000000	99.529400 
3961.000000	99.528605 
3960.000000	99.527685 
3959.000000	99.526952 
3958.000000	99.526581 
3957.000000	99.526459 
3956.000000	99.526333 
3955.000000	99.526067 
3954.000000	99.525750 
3953.000000	99.525546 
3952.000000	99.525475 
3951.000000	99.525374 
3950.000000	99.525026 
3949.000000	99.524408 
3948.000000	99.523796 
3947.000000	99.523503 
3946.000000	99.523584 
3945.000000	99.523857 
3944.000000	99.524061 
3943.000000	99.523884 
3942.000000	99.523154 
3941.000000	99.522089 
3940.000000	99.521120 
3939.000000	99.520369 
3938.000000	99.519486 
3937.000000	99.518071 
3936.000000	99.516326 
3935.000000	99.515082 
3934.000000	99.515213 
3933.000000	99.516935 
3932.000000	99.519514 
3931.000000	99.521589 
3930.000000	99.522019 
3929.000000	99.520703 
3928.000000	99.518600 
3927.000000	99.516914 
3926.000000	99.516362 
3925.000000	99.516815 
3924.000000	99.517408 
3923.000000	99.517367 
3922.000000	99.516590 
3921.000000	99.515586 
3920.000000	99.514966 
3919.000000	99.515094 
3918.000000	99.516090 
3917.000000	99.517753 
3916.000000	99.519562 
3915.000000	99.521072 
3914.000000	99.522412 
3913.000000	99.524013 
3912.000000	99.525788 
3911.000000	99.527084 
3910.000000	99.527402 
3909.000000	99.526870 
3908.000000	99.525963 
3907.000000	99.524644 
3906.000000	99.522132 
3905.000000	99.517670 
3904.000000	99.511518 
3903.000000	99.505522 
3902.000000	99.502065 
3901.000000	99.502220 
3900.000000	99.505286 
3899.000000	99.509199 
3898.000000	99.511985 
3897.000000	99.513090 
3896.000000	99.513030 
3895.000000	99.512529 
3894.000000	99.512068 
3893.000000	99.511697 
3892.000000	99.511137 
3891.000000	99.510014 
3890.000000	99.508252 
3889.000000	99.506143 
3888.000000	99.504246 
3887.000000	99.503224 
3886.000000	99.503240 
3885.000000	99.503683 
3884.000000	99.503841 
3883.000000	99.503761 
3882.000000	99.504047 
3881.000000	99.504892 
3880.000000	99.505771 
3879.000000	99.506006 
3878.000000	99.505613 
3877.000000	99.505231 
3876.000000	99.505453 
3875.000000	99.506141 
3874.000000	99.506474 
3873.000000	99.505832 
3872.000000	99.504551 
3871.000000	99.503590 
3870.000000	99.503449 
3869.000000	99.503806 
3868.000000	99.504129 
3867.000000	99.504316 
3866.000000	99.504676 
3865.000000	99.505362 
3864.000000	99.505986 
3863.000000	99.506113 
3862.000000	99.505772 
3861.000000	99.505413 
3860.000000	99.505475 
3859.000000	99.506048 
3858.000000	99.506789 
3857.000000	99.507251 
3856.000000	99.507268 
3855.000000	99.507304 
3854.000000	99.507721 
3853.000000	99.508271 
3852.000000	99.508707 
3851.000000	99.509052 
3850.000000	99.509278 
3849.000000	99.509463 
3848.000000	99.509592 
3847.000000	99.509542 
3846.000000	99.509239 
3845.000000	99.508645 
3844.000000	99.507904 
3843.000000	99.507449 
3842.000000	99.507411 
3841.000000	99.507378 
3840.000000	99.507059 
3839.000000	99.506725 
3838.000000	99.506851 
3837.000000	99.507516 
3836.000000	99.508340 
3835.000000	99.509112 
3834.000000	99.509991 
3833.000000	99.511293 
3832.000000	99.513035 
3831.000000	99.514676 
3830.000000	99.515629 
3829.000000	99.515806 
3828.000000	99.515500 
3827.000000	99.515057 
3826.000000	99.514560 
3825.000000	99.513791 
3824.000000	99.512699 
3823.000000	99.511834 
3822.000000	99.511757 
3821.000000	99.512241 
3820.000000	99.512574 
3819.000000	99.512553 
3818.000000	99.512607 
3817.000000	99.513241 
3816.000000	99.514365 
3815.000000	99.515276 
3814.000000	99.515510 
3813.000000	99.515344 
3812.000000	99.515361 
3811.000000	99.515788 
3810.000000	99.516384 
3809.000000	99.516822 
3808.000000	99.517038 
3807.000000	99.517136 
3806.000000	99.517085 
3805.000000	99.516778 
3804.000000	99.516343 
3803.000000	99.516220 
3802.000000	99.516712 
3801.000000	99.517552 
3800.000000	99.518141 
3799.000000	99.518266 
3798.000000	99.518159 
3797.000000	99.518161 
3796.000000	99.518363 
3795.000000	99.518600 
3794.000000	99.518720 
3793.000000	99.518777 
3792.000000	99.518917 
3791.000000	99.519151 
3790.000000	99.519314 
3789.000000	99.519267 
3788.000000	99.519039 
3787.000000	99.518727 
3786.000000	99.518376 
3785.000000	99.517981 
3784.000000	99.517568 
3783.000000	99.517230 
3782.000000	99.517198 
3781.000000	99.517770 
3780.000000	99.518902 
3779.000000	99.519918 
3778.000000	99.520074 
3777.000000	99.519248 
3776.000000	99.517805 
3775.000000	99.516265 
3774.000000	99.514838 
3773.000000	99.513399 
3772.000000	99.512025 
3771.000000	99.511225 
3770.000000	99.511171 
3769.000000	99.511200 
3768.000000	99.510676 
3767.000000	99.509693 
3766.000000	99.508835 
3765.000000	99.508449 
3764.000000	99.508199 
3763.000000	99.507543 
3762.000000	99.506538 
3761.000000	99.505816 
3760.000000	99.505672 
3759.000000	99.505657 
3758.000000	99.505298 
3757.000000	99.504512 
3756.000000	99.503161 
3755.000000	99.501042 
3754.000000	99.498326 
3753.000000	99.495800 
3752.000000	99.494218 
3751.000000	99.493448 
3750.000000	99.493122 
3749.000000	99.493368 
3748.000000	99.494293 
3747.000000	99.495570 
3746.000000	99.496981 
3745.000000	99.498232 
3744.000000	99.498622 
3743.000000	99.497696 
3742.000000	99.495622 
3741.000000	99.492821 
3740.000000	99.489637 
3739.000000	99.485984 
3738.000000	99.482371 
3737.000000	99.480845 
3736.000000	99.483461 
3735.000000	99.489754 
3734.000000	99.496148 
3733.000000	99.499390 
3732.000000	99.499062 
3731.000000	99.496356 
3730.000000	99.492253 
3729.000000	99.487219 
3728.000000	99.482263 
3727.000000	99.478655 
3726.000000	99.476381 
3725.000000	99.474326 
3724.000000	99.472314 
3723.000000	99.471717 
3722.000000	99.473375 
3721.000000	99.476584 
3720.000000	99.479523 
3719.000000	99.480107 
3718.000000	99.477443 
3717.000000	99.472052 
3716.000000	99.465226 
3715.000000	99.458210 
3714.000000	99.451551 
3713.000000	99.445514 
3712.000000	99.440441 
3711.000000	99.437233 
3710.000000	99.436358 
3709.000000	99.436829 
3708.000000	99.437272 
3707.000000	99.436932 
3706.000000	99.436010 
3705.000000	99.435428 
3704.000000	99.436077 
3703.000000	99.437430 
3702.000000	99.436806 
3701.000000	99.431485 
3700.000000	99.421469 
3699.000000	99.409235 
3698.000000	99.397660 
3697.000000	99.388235 
3696.000000	99.380506 
3695.000000	99.373309 
3694.000000	99.366747 
3693.000000	99.362240 
3692.000000	99.360360 
3691.000000	99.359793 
3690.000000	99.358035 
3689.000000	99.353645 
3688.000000	99.347523 
3687.000000	99.341292 
3686.000000	99.335723 
3685.000000	99.331493 
3684.000000	99.329455 
3683.000000	99.329378 
3682.000000	99.329250 
3681.000000	99.326154 
3680.000000	99.318078 
3679.000000	99.304875 
3678.000000	99.289273 
3677.000000	99.278036 
3676.000000	99.277376 
3675.000000	99.284630 
3674.000000	99.290369 
3673.000000	99.289533 
3672.000000	99.284717 
3671.000000	99.282564 
3670.000000	99.286320 
3669.000000	99.292937 
3668.000000	99.298487 
3667.000000	99.302496 
3666.000000	99.306246 
3665.000000	99.310140 
3664.000000	99.313231 
3663.000000	99.314614 
3662.000000	99.314516 
3661.000000	99.313638 
3660.000000	99.312376 
3659.000000	99.311333 
3658.000000	99.312132 
3657.000000	99.316327 
3656.000000	99.323036 
3655.000000	99.329203 
3654.000000	99.332447 
3653.000000	99.332586 
3652.000000	99.330413 
3651.000000	99.326523 
3650.000000	99.321953 
3649.000000	99.320015 
3648.000000	99.323929 
3647.000000	99.332530 
3646.000000	99.341968 
3645.000000	99.350115 
3644.000000	99.357601 
3643.000000	99.365773 
3642.000000	99.375219 
3641.000000	99.385152 
3640.000000	99.394200 
3639.000000	99.401167 
3638.000000	99.405213 
3637.000000	99.406198 
3636.000000	99.405108 
3635.000000	99.403931 
3634.000000	99.404084 
3633.000000	99.405133 
3632.000000	99.405628 
3631.000000	99.405088 
3630.000000	99.405088 
3629.000000	99.407200 
3628.000000	99.410635 
3627.000000	99.413951 
3626.000000	99.417571 
3625.000000	99.423092 
3624.000000	99.431199 
3623.000000	99.440833 
3622.000000	99.450029 
3621.000000	99.457323 
3620.000000	99.461325 
3619.000000	99.460337 
3618.000000	99.454266 
3617.000000	99.445992 
3616.000000	99.439578 
3615.000000	99.437577 
3614.000000	99.439255 
3613.000000	99.441358 
3612.000000	99.441479 
3611.000000	99.440267 
3610.000000	99.440013 
3609.000000	99.442184 
3608.000000	99.446075 
3607.000000	99.450062 
3606.000000	99.453738 
3605.000000	99.457703 
3604.000000	99.462173 
3603.000000	99.466405 
3602.000000	99.469525 
3601.000000	99.471732 
3600.000000	99.473574 
3599.000000	99.474704 
3598.000000	99.474273 
3597.000000	99.472186 
3596.000000	99.469630 
3595.000000	99.468545 
3594.000000	99.469806 
3593.000000	99.472528 
3592.000000	99.475120 
3591.000000	99.476539 
3590.000000	99.476891 
3589.000000	99.477093 
3588.000000	99.477756 
3587.000000	99.478321 
3586.000000	99.478128 
3585.000000	99.477626 
3584.000000	99.478122 
3583.000000	99.480201 
3582.000000	99.483246 
3581.000000	99.486002 
3580.000000	99.487625 
3579.000000	99.488083 
3578.000000	99.487743 
3577.000000	99.487092 
3576.000000	99.486591 
3575.000000	99.486747 
3574.000000	99.487767 
3573.000000	99.489199 
3572.000000	99.490183 
3571.000000	99.489995 
3570.000000	99.488178 
3569.000000	99.484869 
3568.000000	99.481259 
3567.000000	99.479063 
3566.000000	99.479166 
3565.000000	99.481194 
3564.000000	99.484395 
3563.000000	99.488440 
3562.000000	99.493122 
3561.000000	99.497729 
3560.000000	99.501237 
3559.000000	99.503057 
3558.000000	99.503566 
3557.000000	99.503734 
3556.000000	99.504229 
3555.000000	99.504864 
3554.000000	99.505046 
3553.000000	99.504352 
3552.000000	99.502876 
3551.000000	99.501145 
3550.000000	99.499593 
3549.000000	99.498222 
3548.000000	99.496966 
3547.000000	99.496018 
3546.000000	99.495827 
3545.000000	99.496384 
3544.000000	99.497087 
3543.000000	99.497647 
3542.000000	99.498714 
3541.000000	99.501092 
3540.000000	99.504697 
3539.000000	99.508357 
3538.000000	99.510878 
3537.000000	99.512004 
3536.000000	99.512249 
3535.000000	99.512144 
3534.000000	99.511802 
3533.000000	99.511272 
3532.000000	99.510875 
3531.000000	99.511076 
3530.000000	99.511916 
3529.000000	99.512796 
3528.000000	99.513029 
3527.000000	99.512580 
3526.000000	99.512100 
3525.000000	99.512199 
3524.000000	99.512843 
3523.000000	99.513524 
3522.000000	99.513912 
3521.000000	99.514140 
3520.000000	99.514542 
3519.000000	99.515242 
3518.000000	99.516059 
3517.000000	99.516707 
3516.000000	99.517025 
3515.000000	99.517061 
3514.000000	99.516956 
3513.000000	99.516844 
3512.000000	99.516803 
3511.000000	99.516863 
3510.000000	99.517025 
3509.000000	99.517282 
3508.000000	99.517621 
3507.000000	99.518018 
3506.000000	99.518440 
3505.000000	99.518847 
3504.000000	99.519207 
3503.000000	99.519519 
3502.000000	99.519812 
3501.000000	99.520126 
3500.000000	99.520482 
3499.000000	99.520876 
3498.000000	99.521294 
3497.000000	99.521697 
3496.000000	99.522047 
3495.000000	99.522324 
3494.000000	99.522560 
3493.000000	99.522821 
3492.000000	99.523143 
3491.000000	99.523515 
3490.000000	99.523894 
3489.000000	99.524265 
3488.000000	99.524672 
3487.000000	99.525141 
3486.000000	99.525619 
3485.000000	99.526007 
3484.000000	99.526270 
3483.000000	99.526472 
3482.000000	99.526704 
3481.000000	99.526991 
3480.000000	99.527310 
3479.000000	99.527652 
3478.000000	99.527999 
3477.000000	99.528299 
3476.000000	99.528545 
3475.000000	99.528902 
3474.000000	99.529596 
3473.000000	99.530621 
3472.000000	99.531616 
3471.000000	99.532209 
3470.000000	99.532470 
3469.000000	99.532861 
3468.000000	99.533699 
3467.000000	99.534747 
3466.000000	99.535528 
3465.000000	99.535937 
3464.000000	99.536310 
3463.000000	99.536923 
3462.000000	99.537635 
3461.000000	99.538178 
3460.000000	99.538640 
3459.000000	99.539429 
3458.000000	99.540727 
3457.000000	99.542060 
3456.000000	99.542620 
3455.000000	99.541999 
3454.000000	99.540489 
3453.000000	99.538893 
3452.000000	99.537845 
3451.000000	99.537401 
3450.000000	99.537309 
3449.000000	99.537389 
3448.000000	99.537577 
3447.000000	99.537775 
3446.000000	99.537852 
3445.000000	99.537883 
3444.000000	99.538190 
3443.000000	99.539006 
3442.000000	99.540099 
3441.000000	99.540831 
3440.000000	99.540699 
3439.000000	99.539759 
3438.000000	99.538514 
3437.000000	99.537454 
3436.000000	99.536761 
3435.000000	99.536448 
3434.000000	99.536562 
3433.000000	99.537150 
3432.000000	99.538037 
3431.000000	99.538816 
3430.000000	99.539155 
3429.000000	99.539088 
3428.000000	99.538952 
3427.000000	99.538987 
3426.000000	99.539018 
3425.000000	99.538609 
3424.000000	99.537530 
3423.000000	99.536047 
3422.000000	99.534750 
3421.000000	99.534088 
3420.000000	99.534161 
3419.000000	99.534849 
3418.000000	99.535965 
3417.000000	99.537179 
3416.000000	99.538021 
3415.000000	99.538190 
3414.000000	99.537828 
3413.000000	99.537400 
3412.000000	99.537268 
3411.000000	99.537447 
3410.000000	99.537741 
3409.000000	99.537951 
3408.000000	99.537919 
3407.000000	99.537513 
3406.000000	99.536757 
3405.000000	99.535930 
3404.000000	99.535406 
3403.000000	99.535354 
3402.000000	99.535649 
3401.000000	99.536095 
3400.000000	99.536636 
3399.000000	99.537307 
3398.000000	99.538049 
3397.000000	99.538660 
3396.000000	99.538929 
3395.000000	99.538743 
3394.000000	99.538065 
3393.000000	99.536935 
3392.000000	99.535578 
3391.000000	99.534466 
3390.000000	99.534098 
3389.000000	99.534671 
3388.000000	99.535940 
3387.000000	99.537403 
3386.000000	99.538724 
3385.000000	99.539924 
3384.000000	99.541119 
3383.000000	99.542152 
3382.000000	99.542563 
3381.000000	99.542066 
3380.000000	99.540928 
3379.000000	99.539841 
3378.000000	99.539355 
3377.000000	99.539449 
3376.000000	99.539678 
3375.000000	99.539671 
3374.000000	99.539450 
3373.000000	99.539310 
3372.000000	99.539439 
3371.000000	99.539719 
3370.000000	99.539888 
3369.000000	99.539812 
3368.000000	99.539578 
3367.000000	99.539383 
3366.000000	99.539338 
3365.000000	99.539399 
3364.000000	99.539441 
3363.000000	99.539378 
3362.000000	99.539229 
3361.000000	99.539061 
3360.000000	99.538907 
3359.000000	99.538753 
3358.000000	99.538595 
3357.000000	99.538459 
3356.000000	99.538360 
3355.000000	99.538275 
3354.000000	99.538173 
3353.000000	99.538048 
3352.000000	99.537916 
3351.000000	99.537793 
3350.000000	99.537685 
3349.000000	99.537585 
3348.000000	99.537485 
3347.000000	99.537378 
3346.000000	99.537260 
3345.000000	99.537130 
3344.000000	99.536994 
3343.000000	99.536857 
3342.000000	99.536725 
3341.000000	99.536595 
3340.000000	99.536462 
3339.000000	99.536327 
3338.000000	99.536187 
3337.000000	99.536048 
3336.000000	99.535920 
3335.000000	99.535820 
3334.000000	99.535746 
3333.000000	99.535682 
3332.000000	99.535624 
3331.000000	99.535576 
3330.000000	99.535523 
3329.000000	99.535420 
3328.000000	99.535232 
3327.000000	99.534979 
3326.000000	99.534724 
3325.000000	99.534508 
3324.000000	99.534305 
3323.000000	99.534060 
3322.000000	99.533781 
3321.000000	99.533557 
3320.000000	99.533472 
3319.000000	99.533519 
3318.000000	99.533613 
3317.000000	99.533672 
3316.000000	99.533642 
3315.000000	99.533489 
3314.000000	99.533210 
3313.000000	99.532885 
3312.000000	99.532639 
3311.000000	99.532507 
3310.000000	99.532368 
3309.000000	99.532082 
3308.000000	99.531646 
3307.000000	99.531166 
3306.000000	99.530736 
3305.000000	99.530377 
3304.000000	99.530079 
3303.000000	99.529825 
3302.000000	99.529561 
3301.000000	99.529197 
3300.000000	99.528677 
3299.000000	99.528033 
3298.000000	99.527393 
3297.000000	99.526888 
3296.000000	99.526556 
3295.000000	99.526321 
3294.000000	99.526040 
3293.000000	99.525625 
3292.000000	99.525111 
3291.000000	99.524605 
3290.000000	99.524148 
3289.000000	99.523668 
3288.000000	99.523090 
3287.000000	99.522437 
3286.000000	99.521796 
3285.000000	99.521214 
3284.000000	99.520656 
3283.000000	99.520058 
3282.000000	99.519413 
3281.000000	99.518789 
3280.000000	99.518265 
3279.000000	99.517843 
3278.000000	99.517441 
3277.000000	99.516964 
3276.000000	99.516377 
3275.000000	99.515691 
3274.000000	99.514929 
3273.000000	99.514156 
3272.000000	99.513511 
3271.000000	99.513143 
3270.000000	99.513054 
3269.000000	99.513053 
3268.000000	99.512896 
3267.000000	99.512475 
3266.000000	99.511831 
3265.000000	99.511106 
3264.000000	99.510506 
3263.000000	99.510249 
3262.000000	99.510435 
3261.000000	99.510924 
3260.000000	99.511378 
3259.000000	99.511445 
3258.000000	99.510908 
3257.000000	99.509788 
3256.000000	99.508356 
3255.000000	99.506997 
3254.000000	99.505991 
3253.000000	99.505432 
3252.000000	99.505330 
3251.000000	99.505673 
3250.000000	99.506265 
3249.000000	99.506708 
3248.000000	99.506735 
3247.000000	99.506452 
3246.000000	99.506161 
3245.000000	99.505970 
3244.000000	99.505728 
3243.000000	99.505282 
3242.000000	99.504651 
3241.000000	99.503967 
3240.000000	99.503434 
3239.000000	99.503362 
3238.000000	99.504049 
3237.000000	99.505497 
3236.000000	99.507260 
3235.000000	99.508647 
3234.000000	99.509144 
3233.000000	99.508678 
3232.000000	99.507617 
3231.000000	99.506551 
3230.000000	99.505911 
3229.000000	99.505712 
3228.000000	99.505626 
3227.000000	99.505265 
3226.000000	99.504446 
3225.000000	99.503271 
3224.000000	99.502072 
3223.000000	99.501249 
3222.000000	99.501026 
3221.000000	99.501284 
3220.000000	99.501621 
3219.000000	99.501651 
3218.000000	99.501320 
3217.000000	99.500968 
3216.000000	99.501106 
3215.000000	99.501997 
3214.000000	99.503381 
3213.000000	99.504533 
3212.000000	99.504791 
3211.000000	99.504019 
3210.000000	99.502639 
3209.000000	99.501305 
3208.000000	99.500454 
3207.000000	99.500132 
3206.000000	99.500098 
3205.000000	99.500042 
3204.000000	99.499825 
3203.000000	99.499552 
3202.000000	99.499396 
3201.000000	99.499372 
3200.000000	99.499376 
3199.000000	99.499397 
3198.000000	99.499557 
3197.000000	99.499921 
3196.000000	99.500360 
3195.000000	99.500662 
3194.000000	99.500710 
3193.000000	99.500494 
3192.000000	99.500010 
3191.000000	99.499266 
3190.000000	99.498370 
3189.000000	99.497519 
3188.000000	99.496898 
3187.000000	99.496584 
3186.000000	99.496518 
3185.000000	99.496547 
3184.000000	99.496503 
3183.000000	99.496305 
3182.000000	99.496053 
3181.000000	99.496010 
3180.000000	99.496442 
3179.000000	99.497389 
3178.000000	99.498461 
3177.000000	99.498951 
3176.000000	99.498365 
3175.000000	99.496945 
3174.000000	99.495580 
3173.000000	99.494936 
3172.000000	99.494737 
3171.000000	99.494186 
3170.000000	99.493042 
3169.000000	99.491985 
3168.000000	99.491782 
3167.000000	99.492394 
3166.000000	99.493101 
3165.000000	99.493274 
3164.000000	99.492853 
3163.000000	99.492108 
3162.000000	99.491300 
3161.000000	99.490641 
3160.000000	99.490332 
3159.000000	99.490405 
3158.000000	99.490549 
3157.000000	99.490265 
3156.000000	99.489285 
3155.000000	99.487779 
3154.000000	99.486134 
3153.000000	99.484586 
3152.000000	99.483140 
3151.000000	99.481841 
3150.000000	99.480984 
3149.000000	99.480957 
3148.000000	99.481873 
3147.000000	99.483398 
3146.000000	99.484917 
3145.000000	99.485914 
3144.000000	99.486247 
3143.000000	99.486107 
3142.000000	99.485766 
3141.000000	99.485370 
3140.000000	99.484935 
3139.000000	99.484470 
3138.000000	99.484026 
3137.000000	99.483666 
3136.000000	99.483483 
3135.000000	99.483621 
3134.000000	99.484155 
3133.000000	99.484892 
3132.000000	99.485371 
3131.000000	99.485218 
3130.000000	99.484478 
3129.000000	99.483604 
3128.000000	99.483120 
3127.000000	99.483267 
3126.000000	99.483941 
3125.000000	99.484769 
3124.000000	99.485290 
3123.000000	99.485233 
3122.000000	99.484690 
3121.000000	99.484039 
3120.000000	99.483602 
3119.000000	99.483387 
3118.000000	99.483228 
3117.000000	99.483090 
3116.000000	99.483150 
3115.000000	99.483572 
3114.000000	99.484272 
3113.000000	99.484930 
3112.000000	99.485214 
3111.000000	99.485012 
3110.000000	99.484474 
3109.000000	99.483858 
3108.000000	99.483304 
3107.000000	99.482748 
3106.000000	99.482063 
3105.000000	99.481295 
3104.000000	99.480734 
3103.000000	99.480720 
3102.000000	99.481389 
3101.000000	99.482568 
3100.000000	99.483872 
3099.000000	99.484985 
3098.000000	99.485825 
3097.000000	99.486421 
3096.000000	99.486718 
3095.000000	99.486610 
3094.000000	99.486128 
3093.000000	99.485447 
3092.000000	99.484664 
3091.000000	99.483768 
3090.000000	99.482928 
3089.000000	99.482591 
3088.000000	99.482978 
3087.000000	99.483553 
3086.000000	99.483340 
3085.000000	99.481847 
3084.000000	99.479469 
3083.000000	99.476935 
3082.000000	99.474751 
3081.000000	99.473337 
3080.000000	99.473218 
3079.000000	99.474646 
3078.000000	99.477231 
3077.000000	99.480227 
3076.000000	99.483009 
3075.000000	99.484994 
3074.000000	99.485432 
3073.000000	99.483911 
3072.000000	99.481016 
3071.000000	99.477957 
3070.000000	99.475372 
3069.000000	99.472893 
3068.000000	99.470109 
3067.000000	99.467681 
3066.000000	99.467231 
3065.000000	99.470059 
3064.000000	99.475757 
3063.000000	99.481774 
3062.000000	99.484635 
3061.000000	99.482285 
3060.000000	99.475726 
3059.000000	99.468286 
3058.000000	99.463136 
3057.000000	99.461584 
3056.000000	99.463282 
3055.000000	99.466996 
3054.000000	99.470719 
3053.000000	99.472031 
3052.000000	99.469456 
3051.000000	99.463688 
3050.000000	99.457170 
3049.000000	99.452467 
3048.000000	99.450887 
3047.000000	99.451850 
3046.000000	99.452919 
3045.000000	99.451028 
3044.000000	99.444980 
3043.000000	99.436981 
3042.000000	99.430968 
3041.000000	99.428881 
3040.000000	99.428936 
3039.000000	99.427687 
3038.000000	99.423098 
3037.000000	99.415367 
3036.000000	99.405583 
3035.000000	99.394620 
3034.000000	99.383247 
3033.000000	99.372264 
3032.000000	99.361954 
3031.000000	99.351723 
3030.000000	99.340756 
3029.000000	99.329107 
3028.000000	99.318021 
3027.000000	99.308982 
3026.000000	99.302165 
3025.000000	99.295730 
3024.000000	99.286879 
3023.000000	99.273926 
3022.000000	99.257519 
3021.000000	99.239794 
3020.000000	99.222310 
3019.000000	99.204860 
3018.000000	99.186348 
3017.000000	99.166459 
3016.000000	99.146119 
3015.000000	99.126400 
3014.000000	99.107649 
3013.000000	99.089926 
3012.000000	99.073735 
3011.000000	99.059498 
3010.000000	99.046374 
3009.000000	99.032396 
3008.000000	99.016139 
3007.000000	98.997868 
3006.000000	98.978793 
3005.000000	98.959576 
3004.000000	98.940009 
3003.000000	98.919902 
3002.000000	98.899747 
3001.000000	98.880411 
3000.000000	98.862388 
2999.000000	98.845496 
2998.000000	98.829398 
2997.000000	98.814474 
2996.000000	98.801798 
2995.000000	98.791239 
2994.000000	98.779217 
2993.000000	98.759577 
2992.000000	98.728649 
2991.000000	98.690237 
2990.000000	98.654769 
2989.000000	98.632351 
2988.000000	98.626277 
2987.000000	98.632575 
2986.000000	98.644430 
2985.000000	98.656758 
2984.000000	98.667217 
2983.000000	98.674694 
2982.000000	98.678371 
2981.000000	98.678449 
2980.000000	98.676854 
2979.000000	98.676220 
2978.000000	98.677728 
2977.000000	98.679965 
2976.000000	98.680065 
2975.000000	98.676273 
2974.000000	98.669762 
2973.000000	98.664228 
2972.000000	98.663629 
2971.000000	98.669773 
2970.000000	98.681535 
2969.000000	98.696155 
2968.000000	98.711414 
2967.000000	98.726819 
2966.000000	98.742979 
2965.000000	98.760151 
2964.000000	98.777529 
2963.000000	98.793764 
2962.000000	98.807911 
2961.000000	98.819857 
2960.000000	98.829952 
2959.000000	98.838517 
2958.000000	98.845841 
2957.000000	98.852543 
2956.000000	98.859507 
2955.000000	98.867352 
2954.000000	98.876240 
2953.000000	98.886378 
2952.000000	98.898182 
2951.000000	98.911357 
2950.000000	98.924078 
2949.000000	98.933912 
2948.000000	98.939753 
2947.000000	98.942489 
2946.000000	98.944063 
2945.000000	98.946542 
2944.000000	98.951620 
2943.000000	98.959707 
2942.000000	98.968890 
2941.000000	98.975827 
2940.000000	98.978702 
2939.000000	98.979226 
2938.000000	98.981113 
2937.000000	98.986703 
2936.000000	98.995469 
2935.000000	99.005171 
2934.000000	99.013545 
2933.000000	99.019064 
2932.000000	99.021270 
2931.000000	99.020845 
2930.000000	99.019146 
2929.000000	99.017502 
2928.000000	99.016721 
2927.000000	99.016568 
2926.000000	99.015397 
2925.000000	99.011127 
2924.000000	99.003442 
2923.000000	98.994576 
2922.000000	98.987013 
2921.000000	98.980708 
2920.000000	98.973590 
2919.000000	98.964465 
2918.000000	98.954279 
2917.000000	98.944427 
2916.000000	98.934984 
2915.000000	98.925064 
2914.000000	98.914286 
2913.000000	98.903475 
2912.000000	98.894338 
2911.000000	98.888435 
2910.000000	98.885782 
2909.000000	98.884329 
2908.000000	98.881390 
2907.000000	98.875806 
2906.000000	98.867912 
2905.000000	98.857533 
2904.000000	98.843557 
2903.000000	98.826739 
2902.000000	98.812108 
2901.000000	98.807188 
2900.000000	98.815903 
2899.000000	98.835453 
2898.000000	98.857618 
2897.000000	98.874063 
2896.000000	98.881509 
2895.000000	98.882743 
2894.000000	98.883248 
2893.000000	98.886589 
2892.000000	98.892647 
2891.000000	98.899308 
2890.000000	98.904884 
2889.000000	98.908764 
2888.000000	98.910943 
2887.000000	98.912038 
2886.000000	98.913532 
2885.000000	98.917039 
2884.000000	98.923262 
2883.000000	98.932121 
2882.000000	98.943692 
2881.000000	98.958165 
2880.000000	98.974734 
2879.000000	98.991335 
2878.000000	99.006031 
2877.000000	99.018487 
2876.000000	99.029701 
2875.000000	99.040562 
2874.000000	99.051019 
2873.000000	99.060491 
2872.000000	99.068606 
2871.000000	99.075381 
2870.000000	99.081045 
2869.000000	99.086257 
2868.000000	99.092565 
2867.000000	99.102054 
2866.000000	99.115742 
2865.000000	99.132285 
2864.000000	99.148792 
2863.000000	99.163296 
2862.000000	99.176091 
2861.000000	99.188585 
2860.000000	99.201515 
2859.000000	99.214744 
2858.000000	99.228016 
2857.000000	99.240965 
2856.000000	99.252620 
2855.000000	99.261911 
2854.000000	99.269024 
2853.000000	99.275717 
2852.000000	99.283713 
2851.000000	99.293029 
2850.000000	99.302196 
2849.000000	99.309748 
2848.000000	99.315265 
2847.000000	99.319406 
2846.000000	99.323183 
2845.000000	99.326922 
2844.000000	99.329764 
2843.000000	99.330588 
2842.000000	99.329778 
2841.000000	99.329727 
2840.000000	99.332988 
2839.000000	99.339831 
2838.000000	99.347994 
2837.000000	99.354814 
2836.000000	99.359317 
2835.000000	99.362311 
2834.000000	99.364985 
2833.000000	99.367712 
2832.000000	99.369982 
2831.000000	99.371112 
2830.000000	99.370953 
2829.000000	99.370150 
2828.000000	99.369848 
2827.000000	99.371013 
2826.000000	99.373819 
2825.000000	99.377538 
2824.000000	99.380977 
2823.000000	99.383204 
2822.000000	99.384098 
2821.000000	99.384455 
2820.000000	99.385494 
2819.000000	99.387935 
2818.000000	99.391251 
2817.000000	99.393917 
2816.000000	99.394718 
2815.000000	99.393911 
2814.000000	99.392875 
2813.000000	99.392634 
2812.000000	99.393067 
2811.000000	99.393770 
2810.000000	99.395106 
2809.000000	99.397699 
2808.000000	99.401043 
2807.000000	99.403454 
2806.000000	99.403758 
2805.000000	99.402571 
2804.000000	99.401620 
2803.000000	99.402105 
2802.000000	99.404000 
2801.000000	99.406558 
2800.000000	99.408953 
2799.000000	99.410541 
2798.000000	99.411016 
2797.000000	99.410548 
2796.000000	99.409709 
2795.000000	99.409115 
2794.000000	99.409163 
2793.000000	99.409963 
2792.000000	99.411282 
2791.000000	99.412644 
2790.000000	99.413674 
2789.000000	99.414403 
2788.000000	99.415131 
2787.000000	99.416040 
2786.000000	99.416996 
2785.000000	99.417732 
2784.000000	99.418146 
2783.000000	99.418343 
2782.000000	99.418483 
2781.000000	99.418692 
2780.000000	99.419065 
2779.000000	99.419643 
2778.000000	99.420366 
2777.000000	99.421109 
2776.000000	99.421800 
2775.000000	99.422459 
2774.000000	99.423112 
2773.000000	99.423743 
2772.000000	99.424346 
2771.000000	99.424958 
2770.000000	99.425598 
2769.000000	99.426192 
2768.000000	99.426645 
2767.000000	99.426971 
2766.000000	99.427298 
2765.000000	99.427719 
2764.000000	99.428190 
2763.000000	99.428588 
2762.000000	99.428850 
2761.000000	99.429036 
2760.000000	99.429287 
2759.000000	99.429705 
2758.000000	99.430286 
2757.000000	99.430953 
2756.000000	99.431611 
2755.000000	99.432182 
2754.000000	99.432630 
2753.000000	99.432956 
2752.000000	99.433219 
2751.000000	99.433522 
2750.000000	99.433936 
2749.000000	99.434456 
2748.000000	99.435021 
2747.000000	99.435567 
2746.000000	99.436071 
2745.000000	99.436551 
2744.000000	99.437030 
2743.000000	99.437515 
2742.000000	99.438001 
2741.000000	99.438488 
2740.000000	99.438997 
2739.000000	99.439541 
2738.000000	99.440103 
2737.000000	99.440654 
2736.000000	99.441192 
2735.000000	99.441738 
2734.000000	99.442273 
2733.000000	99.442736 
2732.000000	99.443100 
2731.000000	99.443411 
2730.000000	99.443749 
2729.000000	99.444154 
2728.000000	99.444613 
2727.000000	99.445100 
2726.000000	99.445591 
2725.000000	99.446069 
2724.000000	99.446537 
2723.000000	99.447028 
2722.000000	99.447567 
2721.000000	99.448136 
2720.000000	99.448686 
2719.000000	99.449177 
2718.000000	99.449611 
2717.000000	99.450018 
2716.000000	99.450429 
2715.000000	99.450856 
2714.000000	99.451293 
2713.000000	99.451731 
2712.000000	99.452173 
2711.000000	99.452625 
2710.000000	99.453082 
2709.000000	99.453538 
2708.000000	99.453985 
2707.000000	99.454418 
2706.000000	99.454829 
2705.000000	99.455215 
2704.000000	99.455582 
2703.000000	99.455938 
2702.000000	99.456290 
2701.000000	99.456637 
2700.000000	99.456982 
2699.000000	99.457325 
2698.000000	99.457668 
2697.000000	99.458010 
2696.000000	99.458350 
2695.000000	99.458684 
2694.000000	99.459010 
2693.000000	99.459331 
2692.000000	99.459648 
2691.000000	99.459967 
2690.000000	99.460290 
2689.000000	99.460614 
2688.000000	99.460937 
2687.000000	99.461261 
2686.000000	99.461590 
2685.000000	99.461929 
2684.000000	99.462277 
2683.000000	99.462626 
2682.000000	99.462970 
2681.000000	99.463301 
2680.000000	99.463621 
2679.000000	99.463940 
2678.000000	99.464267 
2677.000000	99.464609 
2676.000000	99.464965 
2675.000000	99.465327 
2674.000000	99.465689 
2673.000000	99.466043 
2672.000000	99.466390 
2671.000000	99.466732 
2670.000000	99.467073 
2669.000000	99.467415 
2668.000000	99.467757 
2667.000000	99.468096 
2666.000000	99.468435 
2665.000000	99.468776 
2664.000000	99.469122 
2663.000000	99.469477 
2662.000000	99.469842 
2661.000000	99.470219 
2660.000000	99.470609 
2659.000000	99.471009 
2658.000000	99.471414 
2657.000000	99.471823 
2656.000000	99.472234 
2655.000000	99.472648 
2654.000000	99.473067 
2653.000000	99.473490 
2652.000000	99.473918 
2651.000000	99.474352 
2650.000000	99.474793 
2649.000000	99.475235 
2648.000000	99.475673 
2647.000000	99.476102 
2646.000000	99.476523 
2645.000000	99.476941 
2644.000000	99.477355 
2643.000000	99.477758 
2642.000000	99.478146 
2641.000000	99.478520 
2640.000000	99.478889 
2639.000000	99.479264 
2638.000000	99.479648 
2637.000000	99.480034 
2636.000000	99.480412 
2635.000000	99.480774 
2634.000000	99.481122 
2633.000000	99.481462 
2632.000000	99.481802 
2631.000000	99.482146 
2630.000000	99.482497 
2629.000000	99.482852 
2628.000000	99.483202 
2627.000000	99.483535 
2626.000000	99.483847 
2625.000000	99.484151 
2624.000000	99.484474 
2623.000000	99.484831 
2622.000000	99.485214 
2621.000000	99.485598 
2620.000000	99.485959 
2619.000000	99.486284 
2618.000000	99.486586 
2617.000000	99.486895 
2616.000000	99.487227 
2615.000000	99.487560 
2614.000000	99.487867 
2613.000000	99.488153 
2612.000000	99.488438 
2611.000000	99.488711 
2610.000000	99.488935 
2609.000000	99.489045 
2608.000000	99.488969 
2607.000000	99.488683 
2606.000000	99.488300 
2605.000000	99.488058 
2604.000000	99.488139 
2603.000000	99.488505 
2602.000000	99.488905 
2601.000000	99.489124 
2600.000000	99.489205 
2599.000000	99.489356 
2598.000000	99.489622 
2597.000000	99.489724 
2596.000000	99.489346 
2595.000000	99.488529 
2594.000000	99.487708 
2593.000000	99.487299 
2592.000000	99.487336 
2591.000000	99.487533 
2590.000000	99.487643 
2589.000000	99.487696 
2588.000000	99.487841 
2587.000000	99.488077 
2586.000000	99.488240 
2585.000000	99.488230 
2584.000000	99.488163 
2583.000000	99.488226 
2582.000000	99.488407 
2581.000000	99.488472 
2580.000000	99.488245 
2579.000000	99.487789 
2578.000000	99.487232 
2577.000000	99.486530 
2576.000000	99.485563 
2575.000000	99.484450 
2574.000000	99.483596 
2573.000000	99.483317 
2572.000000	99.483551 
2571.000000	99.483967 
2570.000000	99.484248 
2569.000000	99.484247 
2568.000000	99.483964 
2567.000000	99.483526 
2566.000000	99.483107 
2565.000000	99.482762 
2564.000000	99.482360 
2563.000000	99.481797 
2562.000000	99.481214 
2561.000000	99.480851 
2560.000000	99.480724 
2559.000000	99.480593 
2558.000000	99.480242 
2557.000000	99.479694 
2556.000000	99.479163 
2555.000000	99.478864 
2554.000000	99.478885 
2553.000000	99.479123 
2552.000000	99.479305 
2551.000000	99.479167 
2550.000000	99.478645 
2549.000000	99.477885 
2548.000000	99.477069 
2547.000000	99.476275 
2546.000000	99.475514 
2545.000000	99.474835 
2544.000000	99.474334 
2543.000000	99.474041 
2542.000000	99.473798 
2541.000000	99.473330 
2540.000000	99.472534 
2539.000000	99.471684 
2538.000000	99.471201 
2537.000000	99.471164 
2536.000000	99.471186 
2535.000000	99.470921 
2534.000000	99.470530 
2533.000000	99.470399 
2532.000000	99.470487 
2531.000000	99.470311 
2530.000000	99.469647 
2529.000000	99.468909 
2528.000000	99.468588 
2527.000000	99.468546 
2526.000000	99.468228 
2525.000000	99.467527 
2524.000000	99.467071 
2523.000000	99.467459 
2522.000000	99.468580 
2521.000000	99.469709 
2520.000000	99.470145 
2519.000000	99.469668 
2518.000000	99.468491 
2517.000000	99.467098 
2516.000000	99.465988 
2515.000000	99.465381 
2514.000000	99.465138 
2513.000000	99.465039 
2512.000000	99.465166 
2511.000000	99.465806 
2510.000000	99.466989 
2509.000000	99.468352 
2508.000000	99.469528 
2507.000000	99.470474 
2506.000000	99.471259 
2505.000000	99.471697 
2504.000000	99.471478 
2503.000000	99.470634 
2502.000000	99.469646 
2501.000000	99.469040 
2500.000000	99.468983 
2499.000000	99.469340 
2498.000000	99.469883 
2497.000000	99.470395 
2496.000000	99.470677 
2495.000000	99.470646 
2494.000000	99.470398 
2493.000000	99.470137 
2492.000000	99.470010 
2491.000000	99.470041 
2490.000000	99.470198 
2489.000000	99.470473 
2488.000000	99.470864 
2487.000000	99.471314 
2486.000000	99.471669 
2485.000000	99.471757 
2484.000000	99.471572 
2483.000000	99.471281 
2482.000000	99.471090 
2481.000000	99.471044 
2480.000000	99.471050 
2479.000000	99.471019 
2478.000000	99.470943 
2477.000000	99.470857 
2476.000000	99.470780 
2475.000000	99.470702 
2474.000000	99.470613 
2473.000000	99.470509 
2472.000000	99.470385 
2471.000000	99.470239 
2470.000000	99.470068 
2469.000000	99.469873 
2468.000000	99.469655 
2467.000000	99.469417 
2466.000000	99.469162 
2465.000000	99.468896 
2464.000000	99.468629 
2463.000000	99.468368 
2462.000000	99.468123 
2461.000000	99.467899 
2460.000000	99.467694 
2459.000000	99.467495 
2458.000000	99.467289 
2457.000000	99.467067 
2456.000000	99.466832 
2455.000000	99.466590 
2454.000000	99.466349 
2453.000000	99.466107 
2452.000000	99.465863 
2451.000000	99.465611 
2450.000000	99.465346 
2449.000000	99.465068 
2448.000000	99.464779 
2447.000000	99.464482 
2446.000000	99.464182 
2445.000000	99.463880 
2444.000000	99.463576 
2443.000000	99.463271 
2442.000000	99.462967 
2441.000000	99.462652 
2440.000000	99.462320 
2439.000000	99.461991 
2438.000000	99.461692 
2437.000000	99.461415 
2436.000000	99.461117 
2435.000000	99.460753 
2434.000000	99.460326 
2433.000000	99.459910 
2432.000000	99.459612 
2431.000000	99.459490 
2430.000000	99.459484 
2429.000000	99.459432 
2428.000000	99.459165 
2427.000000	99.458607 
2426.000000	99.457873 
2425.000000	99.457240 
2424.000000	99.456932 
2423.000000	99.456944 
2422.000000	99.457140 
2421.000000	99.457499 
2420.000000	99.458030 
2419.000000	99.458432 
2418.000000	99.458143 
2417.000000	99.456892 
2416.000000	99.455131 
2415.000000	99.453629 
2414.000000	99.452640 
2413.000000	99.451887 
2412.000000	99.451190 
2411.000000	99.450637 
2410.000000	99.450197 
2409.000000	99.449648 
2408.000000	99.448903 
2407.000000	99.448061 
2406.000000	99.447250 
2405.000000	99.446793 
2404.000000	99.447159 
2403.000000	99.448269 
2402.000000	99.449256 
2401.000000	99.449309 
2400.000000	99.448498 
2399.000000	99.447353 
2398.000000	99.446020 
2397.000000	99.444496 
2396.000000	99.443319 
2395.000000	99.443141 
2394.000000	99.443662 
2393.000000	99.443823 
2392.000000	99.443203 
2391.000000	99.442332 
2390.000000	99.441673 
2389.000000	99.441075 
2388.000000	99.440411 
2387.000000	99.440009 
2386.000000	99.440056 
2385.000000	99.440109 
2384.000000	99.439630 
2383.000000	99.438775 
2382.000000	99.438395 
2381.000000	99.439206 
2380.000000	99.441050 
2379.000000	99.442987 
2378.000000	99.444187 
2377.000000	99.444566 
2376.000000	99.444242 
2375.000000	99.442946 
2374.000000	99.440509 
2373.000000	99.437522 
2372.000000	99.434883 
2371.000000	99.432867 
2370.000000	99.431259 
2369.000000	99.430071 
2368.000000	99.429375 
2367.000000	99.428824 
2366.000000	99.428124 
2365.000000	99.427575 
2364.000000	99.427450 
2363.000000	99.427213 
2362.000000	99.426057 
2361.000000	99.424029 
2360.000000	99.421857 
2359.000000	99.420074 
2358.000000	99.418839 
2357.000000	99.418173 
2356.000000	99.418034 
2355.000000	99.418190 
2354.000000	99.418611 
2353.000000	99.418995 
2352.000000	99.418808 
2351.000000	99.417901 
2350.000000	99.416545 
2349.000000	99.415190 
2348.000000	99.414173 
2347.000000	99.413694 
2346.000000	99.413628 
2345.000000	99.413447 
2344.000000	99.412849 
2343.000000	99.412010 
2342.000000	99.411396 
2341.000000	99.411179 
2340.000000	99.411273 
2339.000000	99.411544 
2338.000000	99.411956 
2337.000000	99.412413 
2336.000000	99.412575 
2335.000000	99.412316 
2334.000000	99.411982 
2333.000000	99.412148 
2332.000000	99.412724 
2331.000000	99.413379 
2330.000000	99.413839 
2329.000000	99.414396 
2328.000000	99.414821 
2327.000000	99.415230 
2326.000000	99.415965 
2325.000000	99.417250 
2324.000000	99.418345 
2323.000000	99.418709 
2322.000000	99.418947 
2321.000000	99.419644 
2320.000000	99.419796 
2319.000000	99.418647 
2318.000000	99.417098 
2317.000000	99.417641 
2316.000000	99.420632 
2315.000000	99.425078 
2314.000000	99.428853 
2313.000000	99.431814 
2312.000000	99.433909 
2311.000000	99.436114 
2310.000000	99.438194 
2309.000000	99.439881 
2308.000000	99.440234 
2307.000000	99.440269 
2306.000000	99.441308 
2305.000000	99.444269 
2304.000000	99.448244 
2303.000000	99.453012 
2302.000000	99.458208 
2301.000000	99.463327 
2300.000000	99.467045 
2299.000000	99.470222 
2298.000000	99.473952 
2297.000000	99.478421 
2296.000000	99.481301 
2295.000000	99.481902 
2294.000000	99.481687 
2293.000000	99.483007 
2292.000000	99.485827 
2291.000000	99.488677 
2290.000000	99.490218 
2289.000000	99.490146 
2288.000000	99.489126 
2287.000000	99.488597 
2286.000000	99.489677 
2285.000000	99.491330 
2284.000000	99.491539 
2283.000000	99.490024 
2282.000000	99.489024 
2281.000000	99.490221 
2280.000000	99.492708 
2279.000000	99.494468 
2278.000000	99.494994 
2277.000000	99.495285 
2276.000000	99.496116 
2275.000000	99.497499 
2274.000000	99.499095 
2273.000000	99.500363 
2272.000000	99.500587 
2271.000000	99.499758 
2270.000000	99.498895 
2269.000000	99.498952 
2268.000000	99.499709 
2267.000000	99.500367 
2266.000000	99.500597 
2265.000000	99.500448 
2264.000000	99.499658 
2263.000000	99.497889 
2262.000000	99.495618 
2261.000000	99.494097 
2260.000000	99.494206 
2259.000000	99.495694 
2258.000000	99.497482 
2257.000000	99.498588 
2256.000000	99.498807 
2255.000000	99.498523 
2254.000000	99.498176 
2253.000000	99.497988 
2252.000000	99.498040 
2251.000000	99.498376 
2250.000000	99.498909 
2249.000000	99.499406 
2248.000000	99.499672 
2247.000000	99.499762 
2246.000000	99.499839 
2245.000000	99.499970 
2244.000000	99.500113 
2243.000000	99.500255 
2242.000000	99.500435 
2241.000000	99.500663 
2240.000000	99.500905 
2239.000000	99.501146 
2238.000000	99.501384 
2237.000000	99.501570 
2236.000000	99.501653 
2235.000000	99.501664 
2234.000000	99.501683 
2233.000000	99.501758 
2232.000000	99.501879 
2231.000000	99.502031 
2230.000000	99.502213 
2229.000000	99.502426 
2228.000000	99.502668 
2227.000000	99.502931 
2226.000000	99.503207 
2225.000000	99.503497 
2224.000000	99.503812 
2223.000000	99.504164 
2222.000000	99.504562 
2221.000000	99.504996 
2220.000000	99.505450 
2219.000000	99.505907 
2218.000000	99.506365 
2217.000000	99.506828 
2216.000000	99.507295 
2215.000000	99.507760 
2214.000000	99.508215 
2213.000000	99.508661 
2212.000000	99.509110 
2211.000000	99.509575 
2210.000000	99.510066 
2209.000000	99.510587 
2208.000000	99.511132 
2207.000000	99.511692 
2206.000000	99.512255 
2205.000000	99.512821 
2204.000000	99.513405 
2203.000000	99.514027 
2202.000000	99.514698 
2201.000000	99.515388 
2200.000000	99.516114 
2199.000000	99.516800 
2198.000000	99.517313 
2197.000000	99.517658 
2196.000000	99.518020 
2195.000000	99.518614 
2194.000000	99.519562 
2193.000000	99.520822 
2192.000000	99.522083 
2191.000000	99.522915 
2190.000000	99.523281 
2189.000000	99.523815 
2188.000000	99.525066 
2187.000000	99.526369 
2186.000000	99.526018 
2185.000000	99.523067 
2184.000000	99.518961 
2183.000000	99.516785 
2182.000000	99.518408 
2181.000000	99.522787 
2180.000000	99.526927 
2179.000000	99.528718 
2178.000000	99.528162 
2177.000000	99.526350 
2176.000000	99.524258 
2175.000000	99.522402 
2174.000000	99.520955 
2173.000000	99.520041 
2172.000000	99.520397 
2171.000000	99.523393 
2170.000000	99.529454 
2169.000000	99.536587 
2168.000000	99.541680 
2167.000000	99.543330 
2166.000000	99.542389 
2165.000000	99.540358 
2164.000000	99.538751 
2163.000000	99.539369 
2162.000000	99.542486 
2161.000000	99.544366 
2160.000000	99.539594 
2159.000000	99.527112 
2158.000000	99.511857 
2157.000000	99.498977 
2156.000000	99.489093 
2155.000000	99.481306 
2154.000000	99.477041 
2153.000000	99.478312 
2152.000000	99.484176 
2151.000000	99.491150 
2150.000000	99.496542 
2149.000000	99.500074 
2148.000000	99.502796 
2147.000000	99.505415 
2146.000000	99.507238 
2145.000000	99.506437 
2144.000000	99.502128 
2143.000000	99.496208 
2142.000000	99.491913 
2141.000000	99.490190 
2140.000000	99.489017 
2139.000000	99.486716 
2138.000000	99.484240 
2137.000000	99.483247 
2136.000000	99.483437 
2135.000000	99.483243 
2134.000000	99.482399 
2133.000000	99.482373 
2132.000000	99.484326 
2131.000000	99.487366 
2130.000000	99.488941 
2129.000000	99.487096 
2128.000000	99.482593 
2127.000000	99.478480 
2126.000000	99.477028 
2125.000000	99.477714 
2124.000000	99.478750 
2123.000000	99.479780 
2122.000000	99.481649 
2121.000000	99.484107 
2120.000000	99.485681 
2119.000000	99.485845 
2118.000000	99.485782 
2117.000000	99.486664 
2116.000000	99.488229 
2115.000000	99.489489 
2114.000000	99.490047 
2113.000000	99.490150 
2112.000000	99.490067 
2111.000000	99.489962 
2110.000000	99.490062 
2109.000000	99.490517 
2108.000000	99.491125 
2107.000000	99.491446 
2106.000000	99.491251 
2105.000000	99.490776 
2104.000000	99.490537 
2103.000000	99.490900 
2102.000000	99.491786 
2101.000000	99.492715 
2100.000000	99.493213 
2099.000000	99.493205 
2098.000000	99.493013 
2097.000000	99.493020 
2096.000000	99.493381 
2095.000000	99.494072 
2094.000000	99.495024 
2093.000000	99.496132 
2092.000000	99.497251 
2091.000000	99.498310 
2090.000000	99.499379 
2089.000000	99.500483 
2088.000000	99.501333 
2087.000000	99.501400 
2086.000000	99.500327 
2085.000000	99.498349 
2084.000000	99.496538 
2083.000000	99.496466 
2082.000000	99.499078 
2081.000000	99.503559 
2080.000000	99.507607 
2079.000000	99.509738 
2078.000000	99.510872 
2077.000000	99.513109 
2076.000000	99.517037 
2075.000000	99.520828 
2074.000000	99.521979 
2073.000000	99.519489 
2072.000000	99.514801 
2071.000000	99.510883 
2070.000000	99.509937 
2069.000000	99.511526 
2068.000000	99.513050 
2067.000000	99.512376 
2066.000000	99.509623 
2065.000000	99.506534 
2064.000000	99.504998 
2063.000000	99.506329 
2062.000000	99.510513 
2061.000000	99.515309 
2060.000000	99.517653 
2059.000000	99.517167 
2058.000000	99.516998 
2057.000000	99.519929 
2056.000000	99.524890 
2055.000000	99.528871 
2054.000000	99.531279 
2053.000000	99.534278 
2052.000000	99.539165 
2051.000000	99.544396 
2050.000000	99.547480 
2049.000000	99.547357 
2048.000000	99.544608 
2047.000000	99.540467 
2046.000000	99.536288 
2045.000000	99.533075 
2044.000000	99.530768 
2043.000000	99.528628 
2042.000000	99.526586 
2041.000000	99.525461 
2040.000000	99.525531 
2039.000000	99.525735 
2038.000000	99.524834 
2037.000000	99.522865 
2036.000000	99.520922 
2035.000000	99.519501 
2034.000000	99.517632 
2033.000000	99.514262 
2032.000000	99.510341 
2031.000000	99.508511 
2030.000000	99.510107 
2029.000000	99.513353 
2028.000000	99.514843 
2027.000000	99.513201 
2026.000000	99.509920 
2025.000000	99.507292 
2024.000000	99.506259 
2023.000000	99.506516 
2022.000000	99.507454 
2021.000000	99.508252 
2020.000000	99.507895 
2019.000000	99.506040 
2018.000000	99.503604 
2017.000000	99.501882 
2016.000000	99.501067 
2015.000000	99.500354 
2014.000000	99.499177 
2013.000000	99.497655 
2012.000000	99.496182 
2011.000000	99.495335 
2010.000000	99.495844 
2009.000000	99.497895 
2008.000000	99.500525 
2007.000000	99.502275 
2006.000000	99.502516 
2005.000000	99.501687 
2004.000000	99.500594 
2003.000000	99.499725 
2002.000000	99.499217 
2001.000000	99.498945 
2000.000000	99.498504 
1999.000000	99.497518 
1998.000000	99.495990 
1997.000000	99.494061 
1996.000000	99.491755 
1995.000000	99.489399 
1994.000000	99.487983 
1993.000000	99.488432 
1992.000000	99.490421 
1991.000000	99.492447 
1990.000000	99.493218 
1989.000000	99.492424 
1988.000000	99.490858 
1987.000000	99.490491 
1986.000000	99.493369 
1985.000000	99.499466 
1984.000000	99.505845 
1983.000000	99.509392 
1982.000000	99.509685 
1981.000000	99.508301 
1980.000000	99.506539 
1979.000000	99.504743 
1978.000000	99.502997 
1977.000000	99.500761 
1976.000000	99.496681 
1975.000000	99.490623 
1974.000000	99.485403 
1973.000000	99.484436 
1972.000000	99.487728 
1971.000000	99.491691 
1970.000000	99.493303 
1969.000000	99.493328 
1968.000000	99.494591 
1967.000000	99.497934 
1966.000000	99.501164 
1965.000000	99.501964 
1964.000000	99.500403 
1963.000000	99.498199 
1962.000000	99.496479 
1961.000000	99.495106 
1960.000000	99.493893 
1959.000000	99.493076 
1958.000000	99.492283 
1957.000000	99.490328 
1956.000000	99.486721 
1955.000000	99.482342 
1954.000000	99.477816 
1953.000000	99.472348 
1952.000000	99.465409 
1951.000000	99.458957 
1950.000000	99.456233 
1949.000000	99.458215 
1948.000000	99.462480 
1947.000000	99.465590 
1946.000000	99.465922 
1945.000000	99.463624 
1944.000000	99.459532 
1943.000000	99.455210 
1942.000000	99.452613 
1941.000000	99.452272 
1940.000000	99.452827 
1939.000000	99.453016 
1938.000000	99.453095 
1937.000000	99.453834 
1936.000000	99.455075 
1935.000000	99.455891 
1934.000000	99.455708 
1933.000000	99.454695 
1932.000000	99.453298 
1931.000000	99.452002 
1930.000000	99.451356 
1929.000000	99.451534 
1928.000000	99.452009 
1927.000000	99.452085 
1926.000000	99.451563 
1925.000000	99.450634 
1924.000000	99.449546 
1923.000000	99.448621 
1922.000000	99.448244 
1921.000000	99.448463 
1920.000000	99.448916 
1919.000000	99.449188 
1918.000000	99.449169 
1917.000000	99.449014 
1916.000000	99.448910 
1915.000000	99.448948 
1914.000000	99.449124 
1913.000000	99.449376 
1912.000000	99.449633 
1911.000000	99.449865 
1910.000000	99.450083 
1909.000000	99.450291 
1908.000000	99.450478 
1907.000000	99.450630 
1906.000000	99.450748 
1905.000000	99.450844 
1904.000000	99.450927 
1903.000000	99.450987 
1902.000000	99.451020 
1901.000000	99.451036 
1900.000000	99.451056 
1899.000000	99.451095 
1898.000000	99.451170 
1897.000000	99.451294 
1896.000000	99.451458 
1895.000000	99.451627 
1894.000000	99.451803 
1893.000000	99.452047 
1892.000000	99.452375 
1891.000000	99.452666 
1890.000000	99.452791 
1889.000000	99.452770 
1888.000000	99.452725 
1887.000000	99.452733 
1886.000000	99.452833 
1885.000000	99.453038 
1884.000000	99.453265 
1883.000000	99.453356 
1882.000000	99.453255 
1881.000000	99.453080 
1880.000000	99.453009 
1879.000000	99.453166 
1878.000000	99.453473 
1877.000000	99.453573 
1876.000000	99.453125 
1875.000000	99.452368 
1874.000000	99.452123 
1873.000000	99.452794 
1872.000000	99.453641 
1871.000000	99.453477 
1870.000000	99.452089 
1869.000000	99.450549 
1868.000000	99.449596 
1867.000000	99.448696 
1866.000000	99.447596 
1865.000000	99.447055 
1864.000000	99.447789 
1863.000000	99.449732 
1862.000000	99.452292 
1861.000000	99.454726 
1860.000000	99.456232 
1859.000000	99.456413 
1858.000000	99.455894 
1857.000000	99.455791 
1856.000000	99.456462 
1855.000000	99.457392 
1854.000000	99.458054 
1853.000000	99.458256 
1852.000000	99.457877 
1851.000000	99.456876 
1850.000000	99.455667 
1849.000000	99.454934 
1848.000000	99.454949 
1847.000000	99.455404 
1846.000000	99.455957 
1845.000000	99.456372 
1844.000000	99.456214 
1843.000000	99.455397 
1842.000000	99.454827 
1841.000000	99.455325 
1840.000000	99.456893 
1839.000000	99.458982 
1838.000000	99.460975 
1837.000000	99.462440 
1836.000000	99.463140 
1835.000000	99.463225 
1834.000000	99.463246 
1833.000000	99.463716 
1832.000000	99.464851 
1831.000000	99.466338 
1830.000000	99.467444 
1829.000000	99.467812 
1828.000000	99.467929 
1827.000000	99.468223 
1826.000000	99.468584 
1825.000000	99.468968 
1824.000000	99.469457 
1823.000000	99.469937 
1822.000000	99.470187 
1821.000000	99.469861 
1820.000000	99.468461 
1819.000000	99.465798 
1818.000000	99.463007 
1817.000000	99.462055 
1816.000000	99.463324 
1815.000000	99.465067 
1814.000000	99.465907 
1813.000000	99.466641 
1812.000000	99.468718 
1811.000000	99.471845 
1810.000000	99.474758 
1809.000000	99.477266 
1808.000000	99.479313 
1807.000000	99.480022 
1806.000000	99.479095 
1805.000000	99.477554 
1804.000000	99.476339 
1803.000000	99.475241 
1802.000000	99.474026 
1801.000000	99.473633 
1800.000000	99.474544 
1799.000000	99.475625 
1798.000000	99.476032 
1797.000000	99.476255 
1796.000000	99.476819 
1795.000000	99.477558 
1794.000000	99.478196 
1793.000000	99.478800 
1792.000000	99.479352 
1791.000000	99.479411 
1790.000000	99.479157 
1789.000000	99.479330 
1788.000000	99.480144 
1787.000000	99.481188 
1786.000000	99.482018 
1785.000000	99.482516 
1784.000000	99.482658 
1783.000000	99.482527 
1782.000000	99.482392 
1781.000000	99.482495 
1780.000000	99.482684 
1779.000000	99.482636 
1778.000000	99.482453 
1777.000000	99.482545 
1776.000000	99.483105 
1775.000000	99.484052 
1774.000000	99.485247 
1773.000000	99.486517 
1772.000000	99.487552 
1771.000000	99.488077 
1770.000000	99.488177 
1769.000000	99.488158 
1768.000000	99.488356 
1767.000000	99.488847 
1766.000000	99.489453 
1765.000000	99.490053 
1764.000000	99.490671 
1763.000000	99.491343 
1762.000000	99.492012 
1761.000000	99.492648 
1760.000000	99.493303 
1759.000000	99.493958 
1758.000000	99.494518 
1757.000000	99.494979 
1756.000000	99.495452 
1755.000000	99.495953 
1754.000000	99.496276 
1753.000000	99.496265 
1752.000000	99.496230 
1751.000000	99.496838 
1750.000000	99.498289 
1749.000000	99.500026 
1748.000000	99.501413 
1747.000000	99.502343 
1746.000000	99.502936 
1745.000000	99.503301 
1744.000000	99.503601 
1743.000000	99.503954 
1742.000000	99.504329 
1741.000000	99.504673 
1740.000000	99.505037 
1739.000000	99.505433 
1738.000000	99.505746 
1737.000000	99.505890 
1736.000000	99.505869 
1735.000000	99.505775 
1734.000000	99.505830 
1733.000000	99.506164 
1732.000000	99.506711 
1731.000000	99.507313 
1730.000000	99.507840 
1729.000000	99.508222 
1728.000000	99.508482 
1727.000000	99.508691 
1726.000000	99.508881 
1725.000000	99.509042 
1724.000000	99.509181 
1723.000000	99.509330 
1722.000000	99.509499 
1721.000000	99.509671 
1720.000000	99.509820 
1719.000000	99.509927 
1718.000000	99.509998 
1717.000000	99.510049 
1716.000000	99.510090 
1715.000000	99.510126 
1714.000000	99.510166 
1713.000000	99.510214 
1712.000000	99.510273 
1711.000000	99.510340 
1710.000000	99.510410 
1709.000000	99.510475 
1708.000000	99.510530 
1707.000000	99.510571 
1706.000000	99.510603 
1705.000000	99.510629 
1704.000000	99.510648 
1703.000000	99.510660 
1702.000000	99.510669 
1701.000000	99.510696 
1700.000000	99.510759 
1699.000000	99.510856 
1698.000000	99.510977 
1697.000000	99.511117 
1696.000000	99.511273 
1695.000000	99.511445 
1694.000000	99.511629 
1693.000000	99.511820 
1692.000000	99.512013 
1691.000000	99.512202 
1690.000000	99.512382 
1689.000000	99.512551 
1688.000000	99.512710 
1687.000000	99.512862 
1686.000000	99.513017 
1685.000000	99.513187 
1684.000000	99.513375 
1683.000000	99.513576 
1682.000000	99.513782 
1681.000000	99.513986 
1680.000000	99.514185 
1679.000000	99.514386 
1678.000000	99.514598 
1677.000000	99.514798 
1676.000000	99.514958 
1675.000000	99.515121 
1674.000000	99.515338 
1673.000000	99.515615 
1672.000000	99.515947 
1671.000000	99.516397 
1670.000000	99.516988 
1669.000000	99.517467 
1668.000000	99.517648 
1667.000000	99.517733 
1666.000000	99.517731 
1665.000000	99.517469 
1664.000000	99.517065 
1663.000000	99.517051 
1662.000000	99.517754 
1661.000000	99.518766 
1660.000000	99.519446 
1659.000000	99.519918 
1658.000000	99.520668 
1657.000000	99.521501 
1656.000000	99.521376 
1655.000000	99.520257 
1654.000000	99.520017 
1653.000000	99.521521 
1652.000000	99.521634 
1651.000000	99.521514 
1650.000000	99.520979 
1649.000000	99.519705 
1648.000000	99.517592 
1647.000000	99.515088 
1646.000000	99.512931 
1645.000000	99.512459 
1644.000000	99.513831 
1643.000000	99.515751 
1642.000000	99.517097 
1641.000000	99.517693 
1640.000000	99.517724 
1639.000000	99.517305 
1638.000000	99.516686 
1637.000000	99.516388 
1636.000000	99.516336 
1635.000000	99.516116 
1634.000000	99.516522 
1633.000000	99.517723 
1632.000000	99.518528 
1631.000000	99.518642 
1630.000000	99.518847 
1629.000000	99.519770 
1628.000000	99.520973 
1627.000000	99.522009 
1626.000000	99.523105 
1625.000000	99.524493 
1624.000000	99.525871 
1623.000000	99.526920 
1622.000000	99.527665 
1621.000000	99.527886 
1620.000000	99.527041 
1619.000000	99.525420 
1618.000000	99.524579 
1617.000000	99.525189 
1616.000000	99.525522 
1615.000000	99.525231 
1614.000000	99.524935 
1613.000000	99.523622 
1612.000000	99.520934 
1611.000000	99.518372 
1610.000000	99.517700 
1609.000000	99.518330 
1608.000000	99.518467 
1607.000000	99.518103 
1606.000000	99.518162 
1605.000000	99.518455 
1604.000000	99.518567 
1603.000000	99.519291 
1602.000000	99.521038 
1601.000000	99.522383 
1600.000000	99.522324 
1599.000000	99.522319 
1598.000000	99.524029 
1597.000000	99.526944 
1596.000000	99.529489 
1595.000000	99.531328 
1594.000000	99.533118 
1593.000000	99.534584 
1592.000000	99.534954 
1591.000000	99.534705 
1590.000000	99.535046 
1589.000000	99.535912 
1588.000000	99.536330 
1587.000000	99.536279 
1586.000000	99.536386 
1585.000000	99.536426 
1584.000000	99.535845 
1583.000000	99.535040 
1582.000000	99.535007 
1581.000000	99.535770 
1580.000000	99.536565 
1579.000000	99.537050 
1578.000000	99.537534 
1577.000000	99.538082 
1576.000000	99.538313 
1575.000000	99.538479 
1574.000000	99.539038 
1573.000000	99.539565 
1572.000000	99.539721 
1571.000000	99.539729 
1570.000000	99.539954 
1569.000000	99.540280 
1568.000000	99.540487 
1567.000000	99.540627 
1566.000000	99.540754 
1565.000000	99.540858 
1564.000000	99.540925 
1563.000000	99.540959 
1562.000000	99.540946 
1561.000000	99.540881 
1560.000000	99.540795 
1559.000000	99.540708 
1558.000000	99.540608 
1557.000000	99.540484 
1556.000000	99.540330 
1555.000000	99.540143 
1554.000000	99.539924 
1553.000000	99.539680 
1552.000000	99.539416 
1551.000000	99.539133 
1550.000000	99.538830 
1549.000000	99.538504 
1548.000000	99.538153 
1547.000000	99.537771 
1546.000000	99.537363 
1545.000000	99.536935 
1544.000000	99.536495 
1543.000000	99.536045 
1542.000000	99.535591 
1541.000000	99.535133 
1540.000000	99.534667 
1539.000000	99.534187 
1538.000000	99.533699 
1537.000000	99.533210 
1536.000000	99.532719 
1535.000000	99.532219 
1534.000000	99.531708 
1533.000000	99.531185 
1532.000000	99.530635 
1531.000000	99.530033 
1530.000000	99.529377 
1529.000000	99.528707 
1528.000000	99.528048 
1527.000000	99.527383 
1526.000000	99.526699 
1525.000000	99.526035 
1524.000000	99.525397 
1523.000000	99.524729 
1522.000000	99.524068 
1521.000000	99.523559 
1520.000000	99.523102 
1519.000000	99.522439 
1518.000000	99.521429 
1517.000000	99.520197 
1516.000000	99.518963 
1515.000000	99.517819 
1514.000000	99.516750 
1513.000000	99.515790 
1512.000000	99.515015 
1511.000000	99.514295 
1510.000000	99.513334 
1509.000000	99.512145 
1508.000000	99.511402 
1507.000000	99.511421 
1506.000000	99.510914 
1505.000000	99.509678 
1504.000000	99.508585 
1503.000000	99.507626 
1502.000000	99.506841 
1501.000000	99.506567 
1500.000000	99.507058 
1499.000000	99.507805 
1498.000000	99.507744 
1497.000000	99.507015 
1496.000000	99.506836 
1495.000000	99.506819 
1494.000000	99.505544 
1493.000000	99.502727 
1492.000000	99.499213 
1491.000000	99.496252 
1490.000000	99.494518 
1489.000000	99.493884 
1488.000000	99.493406 
1487.000000	99.492109 
1486.000000	99.490613 
1485.000000	99.489827 
1484.000000	99.489587 
1483.000000	99.489214 
1482.000000	99.488126 
1481.000000	99.486322 
1480.000000	99.484171 
1479.000000	99.481947 
1478.000000	99.479948 
1477.000000	99.478563 
1476.000000	99.477542 
1475.000000	99.475499 
1474.000000	99.472610 
1473.000000	99.471916 
1472.000000	99.475033 
1471.000000	99.478467 
1470.000000	99.479454 
1469.000000	99.479158 
1468.000000	99.479803 
1467.000000	99.481669 
1466.000000	99.483314 
1465.000000	99.483792 
1464.000000	99.483285 
1463.000000	99.482528 
1462.000000	99.482190 
1461.000000	99.482928 
1460.000000	99.484347 
1459.000000	99.484356 
1458.000000	99.478905 
1457.000000	99.467211 
1456.000000	99.456041 
1455.000000	99.449923 
1454.000000	99.446342 
1453.000000	99.443670 
1452.000000	99.442134 
1451.000000	99.441527 
1450.000000	99.441529 
1449.000000	99.443792 
1448.000000	99.449540 
1447.000000	99.455275 
1446.000000	99.456758 
1445.000000	99.455258 
1444.000000	99.454361 
1443.000000	99.454949 
1442.000000	99.455466 
1441.000000	99.455131 
1440.000000	99.455102 
1439.000000	99.456057 
1438.000000	99.456050 
1437.000000	99.453591 
1436.000000	99.450644 
1435.000000	99.447871 
1434.000000	99.444079 
1433.000000	99.440381 
1432.000000	99.438789 
1431.000000	99.439644 
1430.000000	99.440061 
1429.000000	99.437535 
1428.000000	99.433198 
1427.000000	99.428547 
1426.000000	99.422718 
1425.000000	99.414271 
1424.000000	99.405258 
1423.000000	99.398843 
1422.000000	99.393095 
1421.000000	99.383932 
1420.000000	99.371368 
1419.000000	99.359523 
1418.000000	99.347955 
1417.000000	99.334392 
1416.000000	99.321197 
1415.000000	99.310269 
1414.000000	99.299511 
1413.000000	99.285910 
1412.000000	99.270864 
1411.000000	99.258755 
1410.000000	99.250287 
1409.000000	99.243188 
1408.000000	99.237449 
1407.000000	99.234689 
1406.000000	99.234864 
1405.000000	99.237019 
1404.000000	99.242311 
1403.000000	99.250957 
1402.000000	99.258970 
1401.000000	99.262995 
1400.000000	99.264555 
1399.000000	99.267156 
1398.000000	99.267967 
1397.000000	99.259060 
1396.000000	99.238279 
1395.000000	99.215965 
1394.000000	99.207340 
1393.000000	99.217304 
1392.000000	99.239827 
1391.000000	99.265023 
1390.000000	99.284605 
1389.000000	99.294617 
1388.000000	99.295996 
1387.000000	99.293052 
1386.000000	99.289568 
1385.000000	99.286957 
1384.000000	99.285623 
1383.000000	99.285868 
1382.000000	99.287614 
1381.000000	99.290856 
1380.000000	99.295669 
1379.000000	99.301909 
1378.000000	99.309035 
1377.000000	99.316406 
1376.000000	99.324144 
1375.000000	99.333135 
1374.000000	99.343457 
1373.000000	99.353434 
1372.000000	99.361976 
1371.000000	99.370448 
1370.000000	99.381123 
1369.000000	99.393603 
1368.000000	99.405592 
1367.000000	99.415779 
1366.000000	99.424482 
1365.000000	99.432353 
1364.000000	99.439215 
1363.000000	99.444741 
1362.000000	99.449651 
1361.000000	99.454792 
1360.000000	99.460141 
1359.000000	99.465793 
1358.000000	99.472631 
1357.000000	99.480906 
1356.000000	99.489299 
1355.000000	99.496122 
1354.000000	99.501082 
1353.000000	99.505134 
1352.000000	99.507895 
1351.000000	99.507526 
1350.000000	99.505258 
1349.000000	99.504087 
1348.000000	99.505734 
1347.000000	99.510071 
1346.000000	99.516344 
1345.000000	99.522906 
1344.000000	99.527502 
1343.000000	99.529290 
1342.000000	99.530093 
1341.000000	99.531950 
1340.000000	99.534209 
1339.000000	99.534756 
1338.000000	99.533326 
1337.000000	99.532024 
1336.000000	99.532679 
1335.000000	99.534910 
1334.000000	99.537302 
1333.000000	99.539295 
1332.000000	99.541137 
1331.000000	99.542965 
1330.000000	99.544355 
1329.000000	99.544273 
1328.000000	99.542069 
1327.000000	99.538706 
1326.000000	99.536388 
1325.000000	99.535702 
1324.000000	99.535846 
1323.000000	99.536361 
1322.000000	99.537340 
1321.000000	99.538318 
1320.000000	99.538515 
1319.000000	99.538015 
1318.000000	99.537594 
1317.000000	99.537448 
1316.000000	99.536812 
1315.000000	99.535094 
1314.000000	99.532826 
1313.000000	99.531471 
1312.000000	99.532206 
1311.000000	99.534881 
1310.000000	99.538190 
1309.000000	99.540826 
1308.000000	99.542332 
1307.000000	99.542720 
1306.000000	99.542052 
1305.000000	99.540235 
1304.000000	99.538221 
1303.000000	99.537782 
1302.000000	99.539843 
1301.000000	99.543292 
1300.000000	99.545897 
1299.000000	99.545983 
1298.000000	99.543380 
1297.000000	99.539528 
1296.000000	99.536655 
1295.000000	99.536486 
1294.000000	99.539029 
1293.000000	99.542744 
1292.000000	99.545668 
1291.000000	99.546127 
1290.000000	99.543325 
1289.000000	99.538313 
1288.000000	99.533841 
1287.000000	99.531953 
1286.000000	99.531791 
1285.000000	99.531014 
1284.000000	99.528873 
1283.000000	99.526409 
1282.000000	99.524061 
1281.000000	99.521034 
1280.000000	99.517265 
1279.000000	99.513933 
1278.000000	99.511075 
1277.000000	99.506915 
1276.000000	99.500338 
1275.000000	99.492785 
1274.000000	99.486557 
1273.000000	99.482303 
1272.000000	99.479049 
1271.000000	99.475573 
1270.000000	99.470846 
1269.000000	99.464304 
1268.000000	99.456766 
1267.000000	99.450018 
1266.000000	99.444319 
1265.000000	99.437735 
1264.000000	99.428955 
1263.000000	99.419363 
1262.000000	99.411157 
1261.000000	99.404719 
1260.000000	99.399248 
1259.000000	99.394817 
1258.000000	99.391740 
1257.000000	99.389053 
1256.000000	99.385425 
1255.000000	99.381115 
1254.000000	99.377370 
1253.000000	99.374335 
1252.000000	99.371193 
1251.000000	99.368283 
1250.000000	99.367409 
1249.000000	99.369846 
1248.000000	99.375273 
1247.000000	99.382386 
1246.000000	99.388899 
1245.000000	99.391325 
1244.000000	99.387035 
1243.000000	99.377854 
1242.000000	99.370502 
1241.000000	99.371295 
1240.000000	99.380470 
1239.000000	99.391908 
1238.000000	99.398562 
1237.000000	99.398182 
1236.000000	99.393440 
1235.000000	99.387997 
1234.000000	99.383122 
1233.000000	99.377982 
1232.000000	99.372141 
1231.000000	99.366692 
1230.000000	99.362924 
1229.000000	99.360852 
1228.000000	99.359651 
1227.000000	99.359131 
1226.000000	99.360091 
1225.000000	99.363110 
1224.000000	99.367450 
1223.000000	99.371486 
1222.000000	99.374182 
1221.000000	99.375938 
1220.000000	99.377929 
1219.000000	99.380837 
1218.000000	99.384337 
1217.000000	99.387693 
1216.000000	99.390458 
1215.000000	99.392503 
1214.000000	99.393883 
1213.000000	99.394975 
1212.000000	99.396211 
1211.000000	99.397044 
1210.000000	99.395792 
1209.000000	99.391411 
1208.000000	99.385114 
1207.000000	99.379364 
1206.000000	99.375426 
1205.000000	99.372702 
1204.000000	99.370162 
1203.000000	99.367217 
1202.000000	99.363158 
1201.000000	99.357121 
1200.000000	99.349230 
1199.000000	99.340863 
1198.000000	99.333233 
1197.000000	99.326411 
1196.000000	99.319910 
1195.000000	99.313542 
1194.000000	99.307333 
1193.000000	99.300902 
1192.000000	99.293529 
1191.000000	99.284731 
1190.000000	99.274715 
1189.000000	99.264703 
1188.000000	99.256664 
1187.000000	99.251729 
1186.000000	99.248502 
1185.000000	99.243733 
1184.000000	99.234964 
1183.000000	99.222138 
1182.000000	99.207073 
1181.000000	99.192369 
1180.000000	99.180572 
1179.000000	99.172798 
1178.000000	99.167157 
1177.000000	99.159541 
1176.000000	99.147182 
1175.000000	99.131253 
1174.000000	99.115576 
1173.000000	99.103061 
1172.000000	99.094018 
1171.000000	99.087132 
1170.000000	99.080829 
1169.000000	99.073808 
1168.000000	99.065207 
1167.000000	99.054851 
1166.000000	99.043474 
1165.000000	99.032864 
1164.000000	99.025572 
1163.000000	99.023644 
1162.000000	99.026999 
1161.000000	99.033157 
1160.000000	99.038805 
1159.000000	99.041695 
1158.000000	99.041192 
1157.000000	99.037620 
1156.000000	99.031387 
1155.000000	99.022513 
1154.000000	99.010851 
1153.000000	98.996929 
1152.000000	98.982385 
1151.000000	98.969114 
1150.000000	98.957927 
1149.000000	98.948363 
1148.000000	98.939414 
1147.000000	98.929673 
1146.000000	98.917352 
1145.000000	98.901609 
1144.000000	98.884131 
1143.000000	98.868322 
1142.000000	98.856328 
1141.000000	98.847455 
1140.000000	98.839510 
1139.000000	98.830619 
1138.000000	98.819717 
1137.000000	98.806711 
1136.000000	98.792697 
1135.000000	98.778954 
1134.000000	98.765372 
1133.000000	98.751011 
1132.000000	98.736379 
1131.000000	98.723470 
1130.000000	98.712803 
1129.000000	98.701920 
1128.000000	98.687922 
1127.000000	98.670420 
1126.000000	98.651264 
1125.000000	98.632485 
1124.000000	98.615376 
1123.000000	98.600450 
1122.000000	98.586922 
1121.000000	98.572841 
1120.000000	98.556655 
1119.000000	98.538250 
1118.000000	98.518105 
1117.000000	98.496441 
1116.000000	98.473758 
1115.000000	98.451041 
1114.000000	98.428522 
1113.000000	98.405113 
1112.000000	98.380173 
1111.000000	98.355207 
1110.000000	98.332461 
1109.000000	98.312185 
1108.000000	98.292426 
1107.000000	98.270847 
1106.000000	98.246644 
1105.000000	98.221081 
1104.000000	98.196234 
1103.000000	98.172950 
1102.000000	98.150668 
1101.000000	98.129318 
1100.000000	98.110773 
1099.000000	98.095498 
1098.000000	98.081231 
1097.000000	98.065148 
1096.000000	98.047100 
1095.000000	98.028380 
1094.000000	98.007894 
1093.000000	97.982281 
1092.000000	97.950118 
1091.000000	97.913682 
1090.000000	97.875872 
1089.000000	97.837249 
1088.000000	97.797241 
1087.000000	97.756646 
1086.000000	97.717483 
1085.000000	97.681157 
1084.000000	97.647622 
1083.000000	97.615586 
1082.000000	97.583089 
1081.000000	97.548946 
1080.000000	97.514095 
1079.000000	97.480608 
1078.000000	97.449481 
1077.000000	97.420936 
1076.000000	97.396560 
1075.000000	97.378663 
1074.000000	97.367034 
1073.000000	97.358451 
1072.000000	97.349110 
1071.000000	97.334390 
1070.000000	97.306822 
1069.000000	97.260370 
1068.000000	97.200336 
1067.000000	97.145411 
1066.000000	97.114144 
1065.000000	97.109763 
1064.000000	97.119886 
1063.000000	97.127915 
1062.000000	97.122193 
1061.000000	97.097087 
1060.000000	97.053061 
1059.000000	96.999219 
1058.000000	96.951040 
1057.000000	96.919881 
1056.000000	96.904244 
1055.000000	96.892393 
1054.000000	96.873569 
1053.000000	96.846584 
1052.000000	96.818079 
1051.000000	96.794125 
1050.000000	96.775025 
1049.000000	96.757917 
1048.000000	96.741847 
1047.000000	96.728172 
1046.000000	96.717430 
1045.000000	96.708513 
1044.000000	96.700906 
1043.000000	96.695719 
1042.000000	96.693719 
1041.000000	96.693440 
1040.000000	96.692282 
1039.000000	96.689638 
1038.000000	96.688827 
1037.000000	96.695373 
1036.000000	96.712446 
1035.000000	96.737908 
1034.000000	96.766470 
1033.000000	96.793692 
1032.000000	96.815405 
1031.000000	96.824755 
1030.000000	96.816374 
1029.000000	96.796792 
1028.000000	96.785618 
1027.000000	96.799808 
1026.000000	96.837496 
1025.000000	96.880806 
1024.000000	96.913696 
1023.000000	96.932915 
1022.000000	96.943194 
1021.000000	96.948911 
1020.000000	96.952634 
1019.000000	96.956747 
1018.000000	96.962469 
1017.000000	96.969019 
1016.000000	96.975987 
1015.000000	96.985059 
1014.000000	96.997958 
1013.000000	97.014046 
1012.000000	97.030987 
1011.000000	97.046533 
1010.000000	97.059372 
1009.000000	97.069987 
1008.000000	97.081132 
1007.000000	97.095952 
1006.000000	97.115140 
1005.000000	97.136894 
1004.000000	97.159280 
1003.000000	97.181221 
1002.000000	97.201932 
1001.000000	97.221506 
1000.000000	97.241630 
999.000000	 97.263379 
998.000000	 97.284493 
997.000000	 97.301539 
996.000000	 97.315194 
995.000000	 97.330800 
994.000000	 97.352654 
993.000000	 97.379696 
992.000000	 97.407488 
991.000000	 97.432381 
990.000000	 97.453019 
989.000000	 97.470193 
988.000000	 97.486733 
987.000000	 97.505573 
986.000000	 97.526641 
985.000000	 97.547657 
984.000000	 97.568516 
983.000000	 97.592164 
982.000000	 97.620383 
981.000000	 97.651094 
980.000000	 97.681015 
979.000000	 97.709187 
978.000000	 97.736345 
977.000000	 97.763231 
976.000000	 97.791384 
975.000000	 97.823226 
974.000000	 97.859128 
973.000000	 97.895989 
972.000000	 97.930579 
971.000000	 97.962775 
970.000000	 97.993981 
969.000000	 98.024363 
968.000000	 98.053779 
967.000000	 98.083626 
966.000000	 98.114964 
965.000000	 98.145735 
964.000000	 98.172532 
963.000000	 98.194785 
962.000000	 98.215059 
961.000000	 98.235430 
960.000000	 98.255821 
959.000000	 98.275922 
958.000000	 98.296332 
957.000000	 98.317033 
956.000000	 98.336671 
955.000000	 98.354503 
954.000000	 98.371834 
953.000000	 98.390369 
952.000000	 98.409754 
951.000000	 98.427909 
950.000000	 98.443494 
949.000000	 98.456997 
948.000000	 98.469546 
947.000000	 98.481612 
946.000000	 98.493198 
945.000000	 98.504663 
944.000000	 98.516528 
943.000000	 98.528298 
942.000000	 98.538078 
941.000000	 98.544061 
940.000000	 98.546500 
939.000000	 98.547924 
938.000000	 98.551176 
937.000000	 98.557249 
936.000000	 98.564885 
935.000000	 98.571770 
934.000000	 98.575996 
933.000000	 98.577083 
932.000000	 98.576524 
931.000000	 98.577542 
930.000000	 98.583525 
929.000000	 98.595583 
928.000000	 98.611064 
927.000000	 98.624866 
926.000000	 98.633220 
925.000000	 98.636621 
924.000000	 98.638700 
923.000000	 98.642043 
922.000000	 98.645565 
921.000000	 98.646266 
920.000000	 98.643048 
919.000000	 98.638215 
918.000000	 98.635424 
917.000000	 98.636412 
916.000000	 98.639414 
915.000000	 98.640615 
914.000000	 98.637868 
913.000000	 98.633523 
912.000000	 98.632874 
911.000000	 98.639038 
910.000000	 98.649758 
909.000000	 98.659888 
908.000000	 98.666675 
907.000000	 98.671519 
906.000000	 98.677148 
905.000000	 98.684940 
904.000000	 98.695292 
903.000000	 98.708931 
902.000000	 98.726653 
901.000000	 98.748102 
900.000000	 98.771426 
899.000000	 98.794042 
898.000000	 98.813873 
897.000000	 98.830079 
896.000000	 98.842962 
895.000000	 98.853589 
894.000000	 98.863874 
893.000000	 98.876495 
892.000000	 98.893530 
891.000000	 98.914657 
890.000000	 98.937407 
889.000000	 98.959790 
888.000000	 98.981802 
887.000000	 99.003546 
886.000000	 99.022944 
885.000000	 99.036983 
884.000000	 99.045146 
883.000000	 99.050327 
882.000000	 99.056017 
881.000000	 99.063591 
880.000000	 99.073115 
879.000000	 99.085680 
878.000000	 99.103047 
877.000000	 99.124562 
876.000000	 99.145528 
875.000000	 99.159926 
874.000000	 99.165268 
873.000000	 99.164896 
872.000000	 99.165825 
871.000000	 99.173961 
870.000000	 99.190286 
869.000000	 99.210327 
868.000000	 99.227481 
867.000000	 99.238363 
866.000000	 99.245746 
865.000000	 99.255791 
864.000000	 99.271966 
863.000000	 99.292303 
862.000000	 99.312523 
861.000000	 99.330296 
860.000000	 99.345582 
859.000000	 99.358988 
858.000000	 99.372245 
857.000000	 99.388856 
856.000000	 99.410637 
855.000000	 99.433375 
854.000000	 99.449318 
853.000000	 99.455252 
852.000000	 99.455863 
851.000000	 99.458227 
850.000000	 99.464990 
849.000000	 99.474377 
848.000000	 99.484474 
847.000000	 99.494929 
846.000000	 99.505659 
845.000000	 99.516360 
844.000000	 99.527161 
843.000000	 99.538071 
842.000000	 99.547507 
841.000000	 99.552507 
840.000000	 99.551251 
839.000000	 99.545501 
838.000000	 99.540032 
837.000000	 99.538291 
836.000000	 99.538319 
835.000000	 99.534894 
834.000000	 99.526885 
833.000000	 99.519872 
832.000000	 99.518332 
831.000000	 99.517636 
830.000000	 99.509690 
829.000000	 99.496608 
828.000000	 99.491563 
827.000000	 99.502159 
826.000000	 99.519053 
825.000000	 99.527834 
824.000000	 99.527532 
823.000000	 99.528839 
822.000000	 99.537017 
821.000000	 99.546261 
820.000000	 99.550330 
819.000000	 99.549697 
818.000000	 99.547332 
817.000000	 99.544048 
816.000000	 99.539859 
815.000000	 99.535077 
814.000000	 99.527572 
813.000000	 99.512623 
812.000000	 99.488507 
811.000000	 99.459957 
810.000000	 99.433203 
809.000000	 99.408751 
808.000000	 99.381407 
807.000000	 99.345844 
806.000000	 99.299765 
805.000000	 99.243272 
804.000000	 99.179162 
803.000000	 99.114696 
802.000000	 99.059719 
801.000000	 99.020707 
800.000000	 98.996990 
799.000000	 98.983095 
798.000000	 98.974370 
797.000000	 98.970464 
796.000000	 98.973793 
795.000000	 98.985463 
794.000000	 99.003632 
793.000000	 99.025434 
792.000000	 99.047986 
791.000000	 99.066234 
790.000000	 99.072869 
789.000000	 99.064388 
788.000000	 99.046549 
787.000000	 99.030037 
786.000000	 99.019984 
785.000000	 99.012596 
784.000000	 99.002574 
783.000000	 98.990034 
782.000000	 98.978199 
781.000000	 98.968152 
780.000000	 98.959535 
779.000000	 98.954057 
778.000000	 98.954557 
777.000000	 98.961914 
776.000000	 98.975674 
775.000000	 98.995986 
774.000000	 99.021418 
773.000000	 99.046229 
772.000000	 99.064151 
771.000000	 99.075045 
770.000000	 99.084133 
769.000000	 99.094300 
768.000000	 99.103075 
767.000000	 99.108413 
766.000000	 99.113319 
765.000000	 99.121845 
764.000000	 99.133204 
763.000000	 99.142812 
762.000000	 99.147687 
761.000000	 99.148501 
760.000000	 99.147892 
759.000000	 99.149251 
758.000000	 99.155599 
757.000000	 99.166888 
756.000000	 99.179215 
755.000000	 99.188946 
754.000000	 99.196814 
753.000000	 99.206018 
752.000000	 99.217691 
751.000000	 99.230403 
750.000000	 99.242715 
749.000000	 99.253701 
748.000000	 99.261988 
747.000000	 99.267433 
746.000000	 99.273425 
745.000000	 99.283793 
744.000000	 99.296802 
743.000000	 99.305768 
742.000000	 99.306801 
741.000000	 99.303044 
740.000000	 99.300510 
739.000000	 99.302668 
738.000000	 99.310317 
737.000000	 99.323480 
736.000000	 99.340891 
735.000000	 99.359760 
734.000000	 99.378460 
733.000000	 99.397492 
732.000000	 99.415996 
731.000000	 99.429649 
730.000000	 99.434519 
729.000000	 99.430521 
728.000000	 99.421916 
727.000000	 99.415287 
726.000000	 99.414786 
725.000000	 99.420449 
724.000000	 99.430525 
723.000000	 99.444185 
722.000000	 99.460819 
721.000000	 99.476758 
720.000000	 99.485383 
719.000000	 99.482865 
718.000000	 99.472646 
717.000000	 99.462761 
716.000000	 99.458809 
715.000000	 99.461058 
714.000000	 99.467297 
713.000000	 99.474562 
712.000000	 99.479398 
711.000000	 99.478407 
710.000000	 99.472997 
709.000000	 99.470457 
708.000000	 99.472356 
707.000000	 99.475285 
706.000000	 99.475035 
705.000000	 99.470524 
704.000000	 99.464689 
703.000000	 99.459940 
702.000000	 99.455792 
701.000000	 99.450636 
700.000000	 99.442477 
699.000000	 99.430508 
698.000000	 99.414761 
697.000000	 99.396157 
696.000000	 99.377937 
695.000000	 99.363928 
694.000000	 99.358032 
693.000000	 99.362686 
692.000000	 99.375618 
691.000000	 99.391719 
690.000000	 99.406232 
689.000000	 99.417298 
688.000000	 99.425699 
687.000000	 99.432207 
686.000000	 99.438296 
685.000000	 99.445556 
684.000000	 99.452338 
683.000000	 99.455572 
682.000000	 99.456100 
681.000000	 99.458863 
680.000000	 99.466116 
679.000000	 99.474684 
678.000000	 99.480607 
677.000000	 99.480244 
676.000000	 99.473641 
675.000000	 99.467146 
674.000000	 99.468763 
673.000000	 99.481373 
672.000000	 99.504222 
671.000000	 99.539300 
670.000000	 99.593174 
669.000000	 99.657396 
668.000000	 99.681064 
667.000000	 99.638036 
666.000000	 99.581671 
665.000000	 99.545142 
664.000000	 99.525526 
663.000000	 99.518291 
662.000000	 99.520585 
661.000000	 99.527871 
660.000000	 99.537419 
659.000000	 99.548912 
658.000000	 99.558706 
657.000000	 99.557809 
656.000000	 99.545585 
655.000000	 99.535093 
654.000000	 99.535188 
653.000000	 99.538597 
652.000000	 99.536151 
651.000000	 99.528853 
650.000000	 99.522146 

