4000.000000	99.563372 
3999.000000	99.563517 
3998.000000	99.563478 
3997.000000	99.563130 
3996.000000	99.562479 
3995.000000	99.561721 
3994.000000	99.561135 
3993.000000	99.560898 
3992.000000	99.560965 
3991.000000	99.561060 
3990.000000	99.560881 
3989.000000	99.560376 
3988.000000	99.559799 
3987.000000	99.559502 
3986.000000	99.559633 
3985.000000	99.560043 
3984.000000	99.560395 
3983.000000	99.560382 
3982.000000	99.559865 
3981.000000	99.558921 
3980.000000	99.557778 
3979.000000	99.556687 
3978.000000	99.555861 
3977.000000	99.555488 
3976.000000	99.555676 
3975.000000	99.556376 
3974.000000	99.557360 
3973.000000	99.558293 
3972.000000	99.558857 
3971.000000	99.558900 
3970.000000	99.558461 
3969.000000	99.557717 
3968.000000	99.556921 
3967.000000	99.556291 
3966.000000	99.555942 
3965.000000	99.555862 
3964.000000	99.555880 
3963.000000	99.555693 
3962.000000	99.555068 
3961.000000	99.554051 
3960.000000	99.552979 
3959.000000	99.552259 
3958.000000	99.552066 
3957.000000	99.552240 
3956.000000	99.552514 
3955.000000	99.552763 
3954.000000	99.553029 
3953.000000	99.553310 
3952.000000	99.553449 
3951.000000	99.553289 
3950.000000	99.552840 
3949.000000	99.552320 
3948.000000	99.552036 
3947.000000	99.552129 
3946.000000	99.552502 
3945.000000	99.552985 
3944.000000	99.553437 
3943.000000	99.553629 
3942.000000	99.553347 
3941.000000	99.552599 
3940.000000	99.551621 
3939.000000	99.550626 
3938.000000	99.549655 
3937.000000	99.548687 
3936.000000	99.547889 
3935.000000	99.547595 
3934.000000	99.548046 
3933.000000	99.549114 
3932.000000	99.550274 
3931.000000	99.550879 
3930.000000	99.550563 
3929.000000	99.549538 
3928.000000	99.548496 
3927.000000	99.548011 
3926.000000	99.548143 
3925.000000	99.548423 
3924.000000	99.548240 
3923.000000	99.547455 
3922.000000	99.546475 
3921.000000	99.545848 
3920.000000	99.545774 
3919.000000	99.546033 
3918.000000	99.546325 
3917.000000	99.546526 
3916.000000	99.546646 
3915.000000	99.546738 
3914.000000	99.546934 
3913.000000	99.547318 
3912.000000	99.547717 
3911.000000	99.547863 
3910.000000	99.547745 
3909.000000	99.547612 
3908.000000	99.547637 
3907.000000	99.547554 
3906.000000	99.546727 
3905.000000	99.544715 
3904.000000	99.541681 
3903.000000	99.538577 
3902.000000	99.536588 
3901.000000	99.536160 
3900.000000	99.536913 
3899.000000	99.537908 
3898.000000	99.538377 
3897.000000	99.538259 
3896.000000	99.537886 
3895.000000	99.537543 
3894.000000	99.537298 
3893.000000	99.537010 
3892.000000	99.536498 
3891.000000	99.535725 
3890.000000	99.534828 
3889.000000	99.533984 
3888.000000	99.533367 
3887.000000	99.533097 
3886.000000	99.533078 
3885.000000	99.533046 
3884.000000	99.532857 
3883.000000	99.532599 
3882.000000	99.532403 
3881.000000	99.532245 
3880.000000	99.532029 
3879.000000	99.531735 
3878.000000	99.531428 
3877.000000	99.531160 
3876.000000	99.530929 
3875.000000	99.530700 
3874.000000	99.530459 
3873.000000	99.530226 
3872.000000	99.530011 
3871.000000	99.529826 
3870.000000	99.529680 
3869.000000	99.529576 
3868.000000	99.529511 
3867.000000	99.529481 
3866.000000	99.529484 
3865.000000	99.529516 
3864.000000	99.529573 
3863.000000	99.529654 
3862.000000	99.529760 
3861.000000	99.529892 
3860.000000	99.530040 
3859.000000	99.530189 
3858.000000	99.530332 
3857.000000	99.530465 
3856.000000	99.530595 
3855.000000	99.530730 
3854.000000	99.530875 
3853.000000	99.531034 
3852.000000	99.531212 
3851.000000	99.531411 
3850.000000	99.531633 
3849.000000	99.531877 
3848.000000	99.532136 
3847.000000	99.532402 
3846.000000	99.532664 
3845.000000	99.532914 
3844.000000	99.533151 
3843.000000	99.533380 
3842.000000	99.533610 
3841.000000	99.533836 
3840.000000	99.534057 
3839.000000	99.534281 
3838.000000	99.534527 
3837.000000	99.534808 
3836.000000	99.535114 
3835.000000	99.535437 
3834.000000	99.535779 
3833.000000	99.536143 
3832.000000	99.536521 
3831.000000	99.536891 
3830.000000	99.537232 
3829.000000	99.537544 
3828.000000	99.537837 
3827.000000	99.538119 
3826.000000	99.538395 
3825.000000	99.538664 
3824.000000	99.538929 
3823.000000	99.539197 
3822.000000	99.539472 
3821.000000	99.539754 
3820.000000	99.540038 
3819.000000	99.540320 
3818.000000	99.540605 
3817.000000	99.540898 
3816.000000	99.541199 
3815.000000	99.541501 
3814.000000	99.541794 
3813.000000	99.542075 
3812.000000	99.542346 
3811.000000	99.542607 
3810.000000	99.542853 
3809.000000	99.543078 
3808.000000	99.543277 
3807.000000	99.543451 
3806.000000	99.543600 
3805.000000	99.543727 
3804.000000	99.543836 
3803.000000	99.543936 
3802.000000	99.544030 
3801.000000	99.544112 
3800.000000	99.544174 
3799.000000	99.544213 
3798.000000	99.544235 
3797.000000	99.544243 
3796.000000	99.544236 
3795.000000	99.544208 
3794.000000	99.544152 
3793.000000	99.544065 
3792.000000	99.543946 
3791.000000	99.543800 
3790.000000	99.543639 
3789.000000	99.543467 
3788.000000	99.543278 
3787.000000	99.543065 
3786.000000	99.542816 
3785.000000	99.542527 
3784.000000	99.542196 
3783.000000	99.541824 
3782.000000	99.541441 
3781.000000	99.541128 
3780.000000	99.540908 
3779.000000	99.540614 
3778.000000	99.540085 
3777.000000	99.539381 
3776.000000	99.538666 
3775.000000	99.538075 
3774.000000	99.537562 
3773.000000	99.536939 
3772.000000	99.536130 
3771.000000	99.535324 
3770.000000	99.534612 
3769.000000	99.533780 
3768.000000	99.532796 
3767.000000	99.531930 
3766.000000	99.531387 
3765.000000	99.531009 
3764.000000	99.530340 
3763.000000	99.529121 
3762.000000	99.527671 
3761.000000	99.526631 
3760.000000	99.526213 
3759.000000	99.526011 
3758.000000	99.525754 
3757.000000	99.525559 
3756.000000	99.525257 
3755.000000	99.524418 
3754.000000	99.522892 
3753.000000	99.521049 
3752.000000	99.519167 
3751.000000	99.517068 
3750.000000	99.515279 
3749.000000	99.514712 
3748.000000	99.515125 
3747.000000	99.515361 
3746.000000	99.514843 
3745.000000	99.513871 
3744.000000	99.513017 
3743.000000	99.512428 
3742.000000	99.511542 
3741.000000	99.509907 
3740.000000	99.507614 
3739.000000	99.504555 
3738.000000	99.501330 
3737.000000	99.500323 
3736.000000	99.503812 
3735.000000	99.511219 
3734.000000	99.518588 
3733.000000	99.522294 
3732.000000	99.521686 
3731.000000	99.517765 
3730.000000	99.511486 
3729.000000	99.503729 
3728.000000	99.496550 
3727.000000	99.492319 
3726.000000	99.491273 
3725.000000	99.491569 
3724.000000	99.492073 
3723.000000	99.493618 
3722.000000	99.496828 
3721.000000	99.500860 
3720.000000	99.504046 
3719.000000	99.504817 
3718.000000	99.502725 
3717.000000	99.498147 
3716.000000	99.491667 
3715.000000	99.483794 
3714.000000	99.474897 
3713.000000	99.465606 
3712.000000	99.457059 
3711.000000	99.451363 
3710.000000	99.450136 
3709.000000	99.452412 
3708.000000	99.455816 
3707.000000	99.458528 
3706.000000	99.460167 
3705.000000	99.461753 
3704.000000	99.464313 
3703.000000	99.467143 
3702.000000	99.467059 
3701.000000	99.461435 
3700.000000	99.450973 
3699.000000	99.438684 
3698.000000	99.427294 
3697.000000	99.417632 
3696.000000	99.408397 
3695.000000	99.397931 
3694.000000	99.387209 
3693.000000	99.379911 
3692.000000	99.379020 
3691.000000	99.383590 
3690.000000	99.388205 
3689.000000	99.387065 
3688.000000	99.379573 
3687.000000	99.369368 
3686.000000	99.359843 
3685.000000	99.353125 
3684.000000	99.350054 
3683.000000	99.349813 
3682.000000	99.350090 
3681.000000	99.348300 
3680.000000	99.342207 
3679.000000	99.330323 
3678.000000	99.313730 
3677.000000	99.299186 
3676.000000	99.294398 
3675.000000	99.298222 
3674.000000	99.302353 
3673.000000	99.301880 
3672.000000	99.299498 
3671.000000	99.302077 
3670.000000	99.311080 
3669.000000	99.320816 
3668.000000	99.326982 
3667.000000	99.330233 
3666.000000	99.332682 
3665.000000	99.335041 
3664.000000	99.336652 
3663.000000	99.337046 
3662.000000	99.336765 
3661.000000	99.336248 
3660.000000	99.335168 
3659.000000	99.333827 
3658.000000	99.334393 
3657.000000	99.339185 
3656.000000	99.347434 
3655.000000	99.355508 
3654.000000	99.360460 
3653.000000	99.362385 
3652.000000	99.362930 
3651.000000	99.362516 
3650.000000	99.359965 
3649.000000	99.357239 
3648.000000	99.359567 
3647.000000	99.368252 
3646.000000	99.379663 
3645.000000	99.390298 
3644.000000	99.399435 
3643.000000	99.407919 
3642.000000	99.416899 
3641.000000	99.426671 
3640.000000	99.436708 
3639.000000	99.445854 
3638.000000	99.452561 
3637.000000	99.455857 
3636.000000	99.456260 
3635.000000	99.455817 
3634.000000	99.456190 
3633.000000	99.457090 
3632.000000	99.457190 
3631.000000	99.456316 
3630.000000	99.456202 
3629.000000	99.458015 
3628.000000	99.461190 
3627.000000	99.464939 
3626.000000	99.469494 
3625.000000	99.476183 
3624.000000	99.486105 
3623.000000	99.499034 
3622.000000	99.513430 
3621.000000	99.526776 
3620.000000	99.534857 
3619.000000	99.533501 
3618.000000	99.523214 
3617.000000	99.510027 
3616.000000	99.500649 
3615.000000	99.497980 
3614.000000	99.499834 
3613.000000	99.501237 
3612.000000	99.499346 
3611.000000	99.495656 
3610.000000	99.493502 
3609.000000	99.494858 
3608.000000	99.498952 
3607.000000	99.503897 
3606.000000	99.509051 
3605.000000	99.514702 
3604.000000	99.520642 
3603.000000	99.525826 
3602.000000	99.529251 
3601.000000	99.531281 
3600.000000	99.532775 
3599.000000	99.533581 
3598.000000	99.532825 
3597.000000	99.530235 
3596.000000	99.526854 
3595.000000	99.524684 
3594.000000	99.524953 
3593.000000	99.527096 
3592.000000	99.529651 
3591.000000	99.531497 
3590.000000	99.532691 
3589.000000	99.533957 
3588.000000	99.535290 
3587.000000	99.535533 
3586.000000	99.534207 
3585.000000	99.532306 
3584.000000	99.531459 
3583.000000	99.532409 
3582.000000	99.534630 
3581.000000	99.536857 
3580.000000	99.538052 
3579.000000	99.537987 
3578.000000	99.537062 
3577.000000	99.535959 
3576.000000	99.535314 
3575.000000	99.535500 
3574.000000	99.536351 
3573.000000	99.537082 
3572.000000	99.536932 
3571.000000	99.535882 
3570.000000	99.534568 
3569.000000	99.533821 
3568.000000	99.534016 
3567.000000	99.534656 
3566.000000	99.535017 
3565.000000	99.535011 
3564.000000	99.535243 
3563.000000	99.536498 
3562.000000	99.538997 
3561.000000	99.541997 
3560.000000	99.544350 
3559.000000	99.545424 
3558.000000	99.545516 
3557.000000	99.545411 
3556.000000	99.545683 
3555.000000	99.546268 
3554.000000	99.546642 
3553.000000	99.546140 
3552.000000	99.544530 
3551.000000	99.542424 
3550.000000	99.540816 
3549.000000	99.540181 
3548.000000	99.540288 
3547.000000	99.540597 
3546.000000	99.540888 
3545.000000	99.541112 
3544.000000	99.541058 
3543.000000	99.540716 
3542.000000	99.540806 
3541.000000	99.542260 
3540.000000	99.545202 
3539.000000	99.548495 
3538.000000	99.550698 
3537.000000	99.551296 
3536.000000	99.550889 
3535.000000	99.550444 
3534.000000	99.550396 
3533.000000	99.550665 
3532.000000	99.551114 
3531.000000	99.551737 
3530.000000	99.552328 
3529.000000	99.552323 
3528.000000	99.551299 
3527.000000	99.549522 
3526.000000	99.547813 
3525.000000	99.546851 
3524.000000	99.546699 
3523.000000	99.546982 
3522.000000	99.547383 
3521.000000	99.547803 
3520.000000	99.548272 
3519.000000	99.548811 
3518.000000	99.549430 
3517.000000	99.550082 
3516.000000	99.550568 
3515.000000	99.550671 
3514.000000	99.550332 
3513.000000	99.549729 
3512.000000	99.549148 
3511.000000	99.548774 
3510.000000	99.548607 
3509.000000	99.548587 
3508.000000	99.548737 
3507.000000	99.549121 
3506.000000	99.549700 
3505.000000	99.550245 
3504.000000	99.550494 
3503.000000	99.550410 
3502.000000	99.550256 
3501.000000	99.550365 
3500.000000	99.550829 
3499.000000	99.551491 
3498.000000	99.552075 
3497.000000	99.552385 
3496.000000	99.552385 
3495.000000	99.552157 
3494.000000	99.551853 
3493.000000	99.551646 
3492.000000	99.551664 
3491.000000	99.551942 
3490.000000	99.552407 
3489.000000	99.552933 
3488.000000	99.553430 
3487.000000	99.553843 
3486.000000	99.554131 
3485.000000	99.554293 
3484.000000	99.554402 
3483.000000	99.554562 
3482.000000	99.554794 
3481.000000	99.555012 
3480.000000	99.555130 
3479.000000	99.555145 
3478.000000	99.555111 
3477.000000	99.555080 
3476.000000	99.555141 
3475.000000	99.555463 
3474.000000	99.556201 
3473.000000	99.557284 
3472.000000	99.558337 
3471.000000	99.558955 
3470.000000	99.559078 
3469.000000	99.559021 
3468.000000	99.559131 
3467.000000	99.559402 
3466.000000	99.559570 
3465.000000	99.559549 
3464.000000	99.559593 
3463.000000	99.559979 
3462.000000	99.560644 
3461.000000	99.561300 
3460.000000	99.561861 
3459.000000	99.562552 
3458.000000	99.563520 
3457.000000	99.564445 
3456.000000	99.564794 
3455.000000	99.564352 
3454.000000	99.563425 
3453.000000	99.562610 
3452.000000	99.562242 
3451.000000	99.562236 
3450.000000	99.562338 
3449.000000	99.562388 
3448.000000	99.562323 
3447.000000	99.562068 
3446.000000	99.561593 
3445.000000	99.561055 
3444.000000	99.560783 
3443.000000	99.561004 
3442.000000	99.561576 
3441.000000	99.562023 
3440.000000	99.561928 
3439.000000	99.561281 
3438.000000	99.560431 
3437.000000	99.559757 
3436.000000	99.559444 
3435.000000	99.559542 
3434.000000	99.560045 
3433.000000	99.560855 
3432.000000	99.561688 
3431.000000	99.562213 
3430.000000	99.562316 
3429.000000	99.562173 
3428.000000	99.562071 
3427.000000	99.562129 
3426.000000	99.562160 
3425.000000	99.561836 
3424.000000	99.561008 
3423.000000	99.559888 
3422.000000	99.558881 
3421.000000	99.558240 
3420.000000	99.558001 
3419.000000	99.558178 
3418.000000	99.558826 
3417.000000	99.559799 
3416.000000	99.560615 
3415.000000	99.560792 
3414.000000	99.560249 
3413.000000	99.559334 
3412.000000	99.558512 
3411.000000	99.558073 
3410.000000	99.558046 
3409.000000	99.558198 
3408.000000	99.558108 
3407.000000	99.557438 
3406.000000	99.556289 
3405.000000	99.555219 
3404.000000	99.554810 
3403.000000	99.555191 
3402.000000	99.556012 
3401.000000	99.556822 
3400.000000	99.557450 
3399.000000	99.558034 
3398.000000	99.558742 
3397.000000	99.559504 
3396.000000	99.559968 
3395.000000	99.559728 
3394.000000	99.558606 
3393.000000	99.556787 
3392.000000	99.554804 
3391.000000	99.553332 
3390.000000	99.552892 
3389.000000	99.553657 
3388.000000	99.555373 
3387.000000	99.557430 
3386.000000	99.559176 
3385.000000	99.560293 
3384.000000	99.560854 
3383.000000	99.561044 
3382.000000	99.560830 
3381.000000	99.560035 
3380.000000	99.558741 
3379.000000	99.557492 
3378.000000	99.556932 
3377.000000	99.557216 
3376.000000	99.557881 
3375.000000	99.558268 
3374.000000	99.558110 
3373.000000	99.557648 
3372.000000	99.557267 
3371.000000	99.557111 
3370.000000	99.557059 
3369.000000	99.556932 
3368.000000	99.556657 
3367.000000	99.556295 
3366.000000	99.555982 
3365.000000	99.555824 
3364.000000	99.555801 
3363.000000	99.555784 
3362.000000	99.555668 
3361.000000	99.555446 
3360.000000	99.555159 
3359.000000	99.554814 
3358.000000	99.554419 
3357.000000	99.554036 
3356.000000	99.553747 
3355.000000	99.553557 
3354.000000	99.553380 
3353.000000	99.553142 
3352.000000	99.552849 
3351.000000	99.552560 
3350.000000	99.552327 
3349.000000	99.552141 
3348.000000	99.551966 
3347.000000	99.551771 
3346.000000	99.551545 
3345.000000	99.551285 
3344.000000	99.550998 
3343.000000	99.550701 
3342.000000	99.550417 
3341.000000	99.550156 
3340.000000	99.549899 
3339.000000	99.549605 
3338.000000	99.549263 
3337.000000	99.548944 
3336.000000	99.548760 
3335.000000	99.548729 
3334.000000	99.548725 
3333.000000	99.548629 
3332.000000	99.548469 
3331.000000	99.548352 
3330.000000	99.548294 
3329.000000	99.548178 
3328.000000	99.547904 
3327.000000	99.547521 
3326.000000	99.547147 
3325.000000	99.546800 
3324.000000	99.546358 
3323.000000	99.545754 
3322.000000	99.545142 
3321.000000	99.544791 
3320.000000	99.544818 
3319.000000	99.545080 
3318.000000	99.545346 
3317.000000	99.545533 
3316.000000	99.545673 
3315.000000	99.545722 
3314.000000	99.545561 
3313.000000	99.545232 
3312.000000	99.544995 
3311.000000	99.545015 
3310.000000	99.545076 
3309.000000	99.544788 
3308.000000	99.544040 
3307.000000	99.543078 
3306.000000	99.542236 
3305.000000	99.541693 
3304.000000	99.541471 
3303.000000	99.541481 
3302.000000	99.541498 
3301.000000	99.541223 
3300.000000	99.540484 
3299.000000	99.539357 
3298.000000	99.538122 
3297.000000	99.537110 
3296.000000	99.536516 
3295.000000	99.536271 
3294.000000	99.536091 
3293.000000	99.535734 
3292.000000	99.535242 
3291.000000	99.534827 
3290.000000	99.534516 
3289.000000	99.534087 
3288.000000	99.533372 
3287.000000	99.532482 
3286.000000	99.531651 
3285.000000	99.530934 
3284.000000	99.530194 
3283.000000	99.529345 
3282.000000	99.528498 
3281.000000	99.527862 
3280.000000	99.527539 
3279.000000	99.527443 
3278.000000	99.527365 
3277.000000	99.527098 
3276.000000	99.526542 
3275.000000	99.525729 
3274.000000	99.524773 
3273.000000	99.523820 
3272.000000	99.522988 
3271.000000	99.522338 
3270.000000	99.521863 
3269.000000	99.521492 
3268.000000	99.521129 
3267.000000	99.520692 
3266.000000	99.520138 
3265.000000	99.519486 
3264.000000	99.518849 
3263.000000	99.518398 
3262.000000	99.518243 
3261.000000	99.518336 
3260.000000	99.518480 
3259.000000	99.518452 
3258.000000	99.518131 
3257.000000	99.517557 
3256.000000	99.516899 
3255.000000	99.516306 
3254.000000	99.515805 
3253.000000	99.515371 
3252.000000	99.515061 
3251.000000	99.514986 
3250.000000	99.515114 
3249.000000	99.515189 
3248.000000	99.514942 
3247.000000	99.514346 
3246.000000	99.513632 
3245.000000	99.513063 
3244.000000	99.512721 
3243.000000	99.512509 
3242.000000	99.512254 
3241.000000	99.511830 
3240.000000	99.511269 
3239.000000	99.510813 
3238.000000	99.510770 
3237.000000	99.511244 
3236.000000	99.512003 
3235.000000	99.512595 
3234.000000	99.512675 
3233.000000	99.512211 
3232.000000	99.511474 
3231.000000	99.510830 
3230.000000	99.510470 
3229.000000	99.510307 
3228.000000	99.510094 
3227.000000	99.509642 
3226.000000	99.508948 
3225.000000	99.508147 
3224.000000	99.507384 
3223.000000	99.506749 
3222.000000	99.506269 
3221.000000	99.505922 
3220.000000	99.505630 
3219.000000	99.505289 
3218.000000	99.504858 
3217.000000	99.504447 
3216.000000	99.504288 
3215.000000	99.504522 
3214.000000	99.505024 
3213.000000	99.505424 
3212.000000	99.505386 
3211.000000	99.504854 
3210.000000	99.504043 
3209.000000	99.503271 
3208.000000	99.502742 
3207.000000	99.502477 
3206.000000	99.502351 
3205.000000	99.502177 
3204.000000	99.501866 
3203.000000	99.501513 
3202.000000	99.501289 
3201.000000	99.501234 
3200.000000	99.501202 
3199.000000	99.501026 
3198.000000	99.500699 
3197.000000	99.500364 
3196.000000	99.500181 
3195.000000	99.500207 
3194.000000	99.500375 
3193.000000	99.500530 
3192.000000	99.500512 
3191.000000	99.500228 
3190.000000	99.499694 
3189.000000	99.499016 
3188.000000	99.498345 
3187.000000	99.497825 
3186.000000	99.497545 
3185.000000	99.497486 
3184.000000	99.497539 
3183.000000	99.497595 
3182.000000	99.497653 
3181.000000	99.497806 
3180.000000	99.498122 
3179.000000	99.498545 
3178.000000	99.498859 
3177.000000	99.498782 
3176.000000	99.498189 
3175.000000	99.497345 
3174.000000	99.496804 
3173.000000	99.496879 
3172.000000	99.497220 
3171.000000	99.497101 
3170.000000	99.496231 
3169.000000	99.495119 
3168.000000	99.494537 
3167.000000	99.494643 
3166.000000	99.494903 
3165.000000	99.494781 
3164.000000	99.494343 
3163.000000	99.494064 
3162.000000	99.494219 
3161.000000	99.494627 
3160.000000	99.494941 
3159.000000	99.494984 
3158.000000	99.494721 
3157.000000	99.494062 
3156.000000	99.492919 
3155.000000	99.491450 
3154.000000	99.490020 
3153.000000	99.488764 
3152.000000	99.487400 
3151.000000	99.485739 
3150.000000	99.484259 
3149.000000	99.483774 
3148.000000	99.484526 
3147.000000	99.485905 
3146.000000	99.487110 
3145.000000	99.487855 
3144.000000	99.488242 
3143.000000	99.488282 
3142.000000	99.487873 
3141.000000	99.487137 
3140.000000	99.486467 
3139.000000	99.486189 
3138.000000	99.486294 
3137.000000	99.486522 
3136.000000	99.486635 
3135.000000	99.486577 
3134.000000	99.486454 
3133.000000	99.486360 
3132.000000	99.486220 
3131.000000	99.485864 
3130.000000	99.485297 
3129.000000	99.484796 
3128.000000	99.484665 
3127.000000	99.484961 
3126.000000	99.485487 
3125.000000	99.485896 
3124.000000	99.485817 
3123.000000	99.485040 
3122.000000	99.483760 
3121.000000	99.482573 
3120.000000	99.481968 
3119.000000	99.481874 
3118.000000	99.481844 
3117.000000	99.481623 
3116.000000	99.481407 
3115.000000	99.481512 
3114.000000	99.481949 
3113.000000	99.482355 
3112.000000	99.482312 
3111.000000	99.481743 
3110.000000	99.480989 
3109.000000	99.480471 
3108.000000	99.480228 
3107.000000	99.479904 
3106.000000	99.479236 
3105.000000	99.478432 
3104.000000	99.477976 
3103.000000	99.478089 
3102.000000	99.478556 
3101.000000	99.479042 
3100.000000	99.479425 
3099.000000	99.479788 
3098.000000	99.480213 
3097.000000	99.480655 
3096.000000	99.480961 
3095.000000	99.480946 
3094.000000	99.480512 
3093.000000	99.479702 
3092.000000	99.478613 
3091.000000	99.477351 
3090.000000	99.476149 
3089.000000	99.475458 
3088.000000	99.475558 
3087.000000	99.476030 
3086.000000	99.475986 
3085.000000	99.475100 
3084.000000	99.473977 
3083.000000	99.473103 
3082.000000	99.471925 
3081.000000	99.469712 
3080.000000	99.467125 
3079.000000	99.466024 
3078.000000	99.467549 
3077.000000	99.471000 
3076.000000	99.474792 
3075.000000	99.477868 
3074.000000	99.479757 
3073.000000	99.480063 
3072.000000	99.478656 
3071.000000	99.476175 
3070.000000	99.473555 
3069.000000	99.470960 
3068.000000	99.467795 
3067.000000	99.464038 
3066.000000	99.461233 
3065.000000	99.461594 
3064.000000	99.465787 
3063.000000	99.471533 
3062.000000	99.474748 
3061.000000	99.472548 
3060.000000	99.465510 
3059.000000	99.457161 
3058.000000	99.451355 
3057.000000	99.450105 
3056.000000	99.453218 
3055.000000	99.458890 
3054.000000	99.464251 
3053.000000	99.466341 
3052.000000	99.463692 
3051.000000	99.457328 
3050.000000	99.450079 
3049.000000	99.444805 
3048.000000	99.442865 
3047.000000	99.443407 
3046.000000	99.443692 
3045.000000	99.440868 
3044.000000	99.434448 
3043.000000	99.426989 
3042.000000	99.421647 
3041.000000	99.418985 
3040.000000	99.416749 
3039.000000	99.412553 
3038.000000	99.405951 
3037.000000	99.397800 
3036.000000	99.388537 
3035.000000	99.377867 
3034.000000	99.365750 
3033.000000	99.352907 
3032.000000	99.340300 
3031.000000	99.328454 
3030.000000	99.317284 
3029.000000	99.306453 
3028.000000	99.295921 
3027.000000	99.286083 
3026.000000	99.277046 
3025.000000	99.267627 
3024.000000	99.255541 
3023.000000	99.239209 
3022.000000	99.219410 
3021.000000	99.198563 
3020.000000	99.178160 
3019.000000	99.157362 
3018.000000	99.134751 
3017.000000	99.110938 
3016.000000	99.088433 
3015.000000	99.068732 
3014.000000	99.050612 
3013.000000	99.031980 
3012.000000	99.012636 
3011.000000	98.994060 
3010.000000	98.976757 
3009.000000	98.959186 
3008.000000	98.939667 
3007.000000	98.918312 
3006.000000	98.896480 
3005.000000	98.875045 
3004.000000	98.853998 
3003.000000	98.833305 
3002.000000	98.813329 
3001.000000	98.794425 
3000.000000	98.776635 
2999.000000	98.759872 
2998.000000	98.744253 
2997.000000	98.730277 
2996.000000	98.718436 
2995.000000	98.707684 
2994.000000	98.693989 
2993.000000	98.671814 
2992.000000	98.638845 
2991.000000	98.599632 
2990.000000	98.563611 
2989.000000	98.538926 
2988.000000	98.528176 
2987.000000	98.528998 
2986.000000	98.536830 
2985.000000	98.546909 
2984.000000	98.555072 
2983.000000	98.558495 
2982.000000	98.556391 
2981.000000	98.550091 
2980.000000	98.542342 
2979.000000	98.535965 
2978.000000	98.532144 
2977.000000	98.529381 
2976.000000	98.524484 
2975.000000	98.515177 
2974.000000	98.502041 
2973.000000	98.488183 
2972.000000	98.477381 
2971.000000	98.472233 
2970.000000	98.473002 
2969.000000	98.477516 
2968.000000	98.482624 
2967.000000	98.486532 
2966.000000	98.489826 
2965.000000	98.494046 
2964.000000	98.499555 
2963.000000	98.505099 
2962.000000	98.509192 
2961.000000	98.511526 
2960.000000	98.513111 
2959.000000	98.515445 
2958.000000	98.519532 
2957.000000	98.525459 
2956.000000	98.532843 
2955.000000	98.541708 
2954.000000	98.552763 
2953.000000	98.566492 
2952.000000	98.582010 
2951.000000	98.596988 
2950.000000	98.608809 
2949.000000	98.615844 
2948.000000	98.617695 
2947.000000	98.614646 
2946.000000	98.607459 
2945.000000	98.597803 
2944.000000	98.588002 
2943.000000	98.579346 
2942.000000	98.570448 
2941.000000	98.558107 
2940.000000	98.540477 
2939.000000	98.519212 
2938.000000	98.497921 
2937.000000	98.478779 
2936.000000	98.461153 
2935.000000	98.442984 
2934.000000	98.422459 
2933.000000	98.398474 
2932.000000	98.370761 
2931.000000	98.340194 
2930.000000	98.308600 
2929.000000	98.278009 
2928.000000	98.250120 
2927.000000	98.226030 
2926.000000	98.205797 
2925.000000	98.188610 
2924.000000	98.174451 
2923.000000	98.165446 
2922.000000	98.164372 
2921.000000	98.171619 
2920.000000	98.184747 
2919.000000	98.201259 
2918.000000	98.220633 
2917.000000	98.242957 
2916.000000	98.266850 
2915.000000	98.289902 
2914.000000	98.310797 
2913.000000	98.330138 
2912.000000	98.349444 
2911.000000	98.369685 
2910.000000	98.390323 
2909.000000	98.409298 
2908.000000	98.424241 
2907.000000	98.434099 
2906.000000	98.439107 
2905.000000	98.439271 
2904.000000	98.434221 
2903.000000	98.425800 
2902.000000	98.420015 
2901.000000	98.425059 
2900.000000	98.444846 
2899.000000	98.476069 
2898.000000	98.509912 
2897.000000	98.537620 
2896.000000	98.555449 
2895.000000	98.565607 
2894.000000	98.573324 
2893.000000	98.582750 
2892.000000	98.595054 
2891.000000	98.609229 
2890.000000	98.623525 
2889.000000	98.635989 
2888.000000	98.645040 
2887.000000	98.650874 
2886.000000	98.656016 
2885.000000	98.663550 
2884.000000	98.674718 
2883.000000	98.688673 
2882.000000	98.704168 
2881.000000	98.720610 
2880.000000	98.737470 
2879.000000	98.753617 
2878.000000	98.767712 
2877.000000	98.779004 
2876.000000	98.787648 
2875.000000	98.794589 
2874.000000	98.801153 
2873.000000	98.808236 
2872.000000	98.815663 
2871.000000	98.822522 
2870.000000	98.828268 
2869.000000	98.833397 
2868.000000	98.839068 
2867.000000	98.846110 
2866.000000	98.854085 
2865.000000	98.861051 
2864.000000	98.864593 
2863.000000	98.863584 
2862.000000	98.858865 
2861.000000	98.851978 
2860.000000	98.843665 
2859.000000	98.834170 
2858.000000	98.824378 
2857.000000	98.815544 
2856.000000	98.808104 
2855.000000	98.802089 
2854.000000	98.798986 
2853.000000	98.802069 
2852.000000	98.814294 
2851.000000	98.836231 
2850.000000	98.866217 
2849.000000	98.901817 
2848.000000	98.940673 
2847.000000	98.980339 
2846.000000	99.018195 
2845.000000	99.051939 
2844.000000	99.080325 
2843.000000	99.103583 
2842.000000	99.123321 
2841.000000	99.141769 
2840.000000	99.160562 
2839.000000	99.179819 
2838.000000	99.198285 
2837.000000	99.214481 
2836.000000	99.227923 
2835.000000	99.239372 
2834.000000	99.249944 
2833.000000	99.259998 
2832.000000	99.268939 
2831.000000	99.275974 
2830.000000	99.280812 
2829.000000	99.283781 
2828.000000	99.285844 
2827.000000	99.288603 
2826.000000	99.293614 
2825.000000	99.300984 
2824.000000	99.308923 
2823.000000	99.315253 
2822.000000	99.319352 
2821.000000	99.322351 
2820.000000	99.325738 
2819.000000	99.330226 
2818.000000	99.335667 
2817.000000	99.341340 
2816.000000	99.346259 
2815.000000	99.349757 
2814.000000	99.351917 
2813.000000	99.353218 
2812.000000	99.353959 
2811.000000	99.354556 
2810.000000	99.356061 
2809.000000	99.359499 
2808.000000	99.364438 
2807.000000	99.368935 
2806.000000	99.371239 
2805.000000	99.371221 
2804.000000	99.370196 
2803.000000	99.369856 
2802.000000	99.371328 
2801.000000	99.374481 
2800.000000	99.377849 
2799.000000	99.379805 
2798.000000	99.380044 
2797.000000	99.379463 
2796.000000	99.378691 
2795.000000	99.377664 
2794.000000	99.376848 
2793.000000	99.377648 
2792.000000	99.380686 
2791.000000	99.384494 
2790.000000	99.386988 
2789.000000	99.387916 
2788.000000	99.388920 
2787.000000	99.391292 
2786.000000	99.394533 
2785.000000	99.397130 
2784.000000	99.398051 
2783.000000	99.397336 
2782.000000	99.395889 
2781.000000	99.394948 
2780.000000	99.395356 
2779.000000	99.397034 
2778.000000	99.399218 
2777.000000	99.401249 
2776.000000	99.402993 
2775.000000	99.404578 
2774.000000	99.406051 
2773.000000	99.407398 
2772.000000	99.408681 
2771.000000	99.409960 
2770.000000	99.411113 
2769.000000	99.411862 
2768.000000	99.412051 
2767.000000	99.411908 
2766.000000	99.411977 
2765.000000	99.412635 
2764.000000	99.413649 
2763.000000	99.414336 
2762.000000	99.414256 
2761.000000	99.413602 
2760.000000	99.412910 
2759.000000	99.412488 
2758.000000	99.412360 
2757.000000	99.412655 
2756.000000	99.413629 
2755.000000	99.415187 
2754.000000	99.416666 
2753.000000	99.417392 
2752.000000	99.417407 
2751.000000	99.417431 
2750.000000	99.418101 
2749.000000	99.419380 
2748.000000	99.420729 
2747.000000	99.421702 
2746.000000	99.422284 
2745.000000	99.422690 
2744.000000	99.423054 
2743.000000	99.423354 
2742.000000	99.423599 
2741.000000	99.423948 
2740.000000	99.424583 
2739.000000	99.425499 
2738.000000	99.426506 
2737.000000	99.427437 
2736.000000	99.428292 
2735.000000	99.429111 
2734.000000	99.429798 
2733.000000	99.430197 
2732.000000	99.430323 
2731.000000	99.430390 
2730.000000	99.430606 
2729.000000	99.431000 
2728.000000	99.431508 
2727.000000	99.432104 
2726.000000	99.432788 
2725.000000	99.433506 
2724.000000	99.434173 
2723.000000	99.434781 
2722.000000	99.435415 
2721.000000	99.436132 
2720.000000	99.436885 
2719.000000	99.437569 
2718.000000	99.438136 
2717.000000	99.438625 
2716.000000	99.439116 
2715.000000	99.439663 
2714.000000	99.440269 
2713.000000	99.440910 
2712.000000	99.441548 
2711.000000	99.442145 
2710.000000	99.442692 
2709.000000	99.443211 
2708.000000	99.443725 
2707.000000	99.444221 
2706.000000	99.444668 
2705.000000	99.445063 
2704.000000	99.445454 
2703.000000	99.445896 
2702.000000	99.446398 
2701.000000	99.446917 
2700.000000	99.447398 
2699.000000	99.447832 
2698.000000	99.448255 
2697.000000	99.448702 
2696.000000	99.449161 
2695.000000	99.449594 
2694.000000	99.449983 
2693.000000	99.450352 
2692.000000	99.450736 
2691.000000	99.451150 
2690.000000	99.451586 
2689.000000	99.452026 
2688.000000	99.452465 
2687.000000	99.452899 
2686.000000	99.453334 
2685.000000	99.453772 
2684.000000	99.454208 
2683.000000	99.454630 
2682.000000	99.455019 
2681.000000	99.455364 
2680.000000	99.455675 
2679.000000	99.455987 
2678.000000	99.456355 
2677.000000	99.456810 
2676.000000	99.457341 
2675.000000	99.457895 
2674.000000	99.458403 
2673.000000	99.458821 
2672.000000	99.459141 
2671.000000	99.459405 
2670.000000	99.459673 
2669.000000	99.459972 
2668.000000	99.460292 
2667.000000	99.460628 
2666.000000	99.461010 
2665.000000	99.461474 
2664.000000	99.462002 
2663.000000	99.462531 
2662.000000	99.463017 
2661.000000	99.463469 
2660.000000	99.463914 
2659.000000	99.464346 
2658.000000	99.464751 
2657.000000	99.465154 
2656.000000	99.465614 
2655.000000	99.466153 
2654.000000	99.466704 
2653.000000	99.467161 
2652.000000	99.467496 
2651.000000	99.467808 
2650.000000	99.468225 
2649.000000	99.468761 
2648.000000	99.469298 
2647.000000	99.469723 
2646.000000	99.470074 
2645.000000	99.470522 
2644.000000	99.471181 
2643.000000	99.471944 
2642.000000	99.472536 
2641.000000	99.472797 
2640.000000	99.472865 
2639.000000	99.473052 
2638.000000	99.473468 
2637.000000	99.473912 
2636.000000	99.474122 
2635.000000	99.474067 
2634.000000	99.473946 
2633.000000	99.473976 
2632.000000	99.474265 
2631.000000	99.474821 
2630.000000	99.475550 
2629.000000	99.476235 
2628.000000	99.476631 
2627.000000	99.476691 
2626.000000	99.476685 
2625.000000	99.477002 
2624.000000	99.477762 
2623.000000	99.478684 
2622.000000	99.479373 
2621.000000	99.479759 
2620.000000	99.480142 
2619.000000	99.480785 
2618.000000	99.481566 
2617.000000	99.482186 
2616.000000	99.482653 
2615.000000	99.483347 
2614.000000	99.484454 
2613.000000	99.485479 
2612.000000	99.485634 
2611.000000	99.484763 
2610.000000	99.483694 
2609.000000	99.483474 
2608.000000	99.484325 
2607.000000	99.485616 
2606.000000	99.486798 
2605.000000	99.488038 
2604.000000	99.489718 
2603.000000	99.491562 
2602.000000	99.492655 
2601.000000	99.492431 
2600.000000	99.491384 
2599.000000	99.490547 
2598.000000	99.490315 
2597.000000	99.489955 
2596.000000	99.488464 
2595.000000	99.485789 
2594.000000	99.483107 
2593.000000	99.481737 
2592.000000	99.481908 
2591.000000	99.482831 
2590.000000	99.483745 
2589.000000	99.484631 
2588.000000	99.485726 
2587.000000	99.486716 
2586.000000	99.486910 
2585.000000	99.486152 
2584.000000	99.485100 
2583.000000	99.484492 
2582.000000	99.484378 
2581.000000	99.484338 
2580.000000	99.484177 
2579.000000	99.484057 
2578.000000	99.484052 
2577.000000	99.483919 
2576.000000	99.483413 
2575.000000	99.482605 
2574.000000	99.481759 
2573.000000	99.481059 
2572.000000	99.480581 
2571.000000	99.480421 
2570.000000	99.480659 
2569.000000	99.481196 
2568.000000	99.481737 
2567.000000	99.482026 
2566.000000	99.482012 
2565.000000	99.481799 
2564.000000	99.481526 
2563.000000	99.481302 
2562.000000	99.481196 
2561.000000	99.481177 
2560.000000	99.481091 
2559.000000	99.480767 
2558.000000	99.480188 
2557.000000	99.479548 
2556.000000	99.479131 
2555.000000	99.479114 
2554.000000	99.479446 
2553.000000	99.479819 
2552.000000	99.479856 
2551.000000	99.479401 
2550.000000	99.478587 
2549.000000	99.477695 
2548.000000	99.476917 
2547.000000	99.476292 
2546.000000	99.475816 
2545.000000	99.475521 
2544.000000	99.475454 
2543.000000	99.475573 
2542.000000	99.475668 
2541.000000	99.475483 
2540.000000	99.474949 
2539.000000	99.474291 
2538.000000	99.473841 
2537.000000	99.473667 
2536.000000	99.473511 
2535.000000	99.473126 
2534.000000	99.472578 
2533.000000	99.472132 
2532.000000	99.471895 
2531.000000	99.471733 
2530.000000	99.471540 
2529.000000	99.471401 
2528.000000	99.471389 
2527.000000	99.471357 
2526.000000	99.471042 
2525.000000	99.470459 
2524.000000	99.470103 
2523.000000	99.470521 
2522.000000	99.471649 
2521.000000	99.472859 
2520.000000	99.473593 
2519.000000	99.473654 
2518.000000	99.473078 
2517.000000	99.472057 
2516.000000	99.470972 
2515.000000	99.470238 
2514.000000	99.470010 
2513.000000	99.470221 
2512.000000	99.470893 
2511.000000	99.472155 
2510.000000	99.473846 
2509.000000	99.475386 
2508.000000	99.476314 
2507.000000	99.476768 
2506.000000	99.477148 
2505.000000	99.477413 
2504.000000	99.477069 
2503.000000	99.475861 
2502.000000	99.474235 
2501.000000	99.473046 
2500.000000	99.472954 
2499.000000	99.474132 
2498.000000	99.476215 
2497.000000	99.478392 
2496.000000	99.479777 
2495.000000	99.480003 
2494.000000	99.479424 
2493.000000	99.478692 
2492.000000	99.478223 
2491.000000	99.478149 
2490.000000	99.478628 
2489.000000	99.479984 
2488.000000	99.482560 
2487.000000	99.486454 
2486.000000	99.491050 
2485.000000	99.494671 
2484.000000	99.495389 
2483.000000	99.492582 
2482.000000	99.487664 
2481.000000	99.483276 
2480.000000	99.481046 
2479.000000	99.480715 
2478.000000	99.481121 
2477.000000	99.481361 
2476.000000	99.481193 
2475.000000	99.480791 
2474.000000	99.480523 
2473.000000	99.480730 
2472.000000	99.481349 
2471.000000	99.481835 
2470.000000	99.481708 
2469.000000	99.481095 
2468.000000	99.480509 
2467.000000	99.480199 
2466.000000	99.479985 
2465.000000	99.479681 
2464.000000	99.479364 
2463.000000	99.479173 
2462.000000	99.479079 
2461.000000	99.478958 
2460.000000	99.478745 
2459.000000	99.478447 
2458.000000	99.478115 
2457.000000	99.477849 
2456.000000	99.477724 
2455.000000	99.477667 
2454.000000	99.477523 
2453.000000	99.477249 
2452.000000	99.476951 
2451.000000	99.476672 
2450.000000	99.476298 
2449.000000	99.475747 
2448.000000	99.475169 
2447.000000	99.474858 
2446.000000	99.474950 
2445.000000	99.475257 
2444.000000	99.475425 
2443.000000	99.475301 
2442.000000	99.475008 
2441.000000	99.474696 
2440.000000	99.474451 
2439.000000	99.474339 
2438.000000	99.474429 
2437.000000	99.474672 
2436.000000	99.474895 
2435.000000	99.474945 
2434.000000	99.474777 
2433.000000	99.474520 
2432.000000	99.474422 
2431.000000	99.474626 
2430.000000	99.475029 
2429.000000	99.475335 
2428.000000	99.475301 
2427.000000	99.474890 
2426.000000	99.474275 
2425.000000	99.473682 
2424.000000	99.473226 
2423.000000	99.472933 
2422.000000	99.472905 
2421.000000	99.473337 
2420.000000	99.474181 
2419.000000	99.474890 
2418.000000	99.474778 
2417.000000	99.473681 
2416.000000	99.472275 
2415.000000	99.471229 
2414.000000	99.470413 
2413.000000	99.469382 
2412.000000	99.468130 
2411.000000	99.466991 
2410.000000	99.466150 
2409.000000	99.465606 
2408.000000	99.465358 
2407.000000	99.465213 
2406.000000	99.464732 
2405.000000	99.463911 
2404.000000	99.463542 
2403.000000	99.464208 
2402.000000	99.465270 
2401.000000	99.465512 
2400.000000	99.464500 
2399.000000	99.462705 
2398.000000	99.460670 
2397.000000	99.458688 
2396.000000	99.457159 
2395.000000	99.456361 
2394.000000	99.455919 
2393.000000	99.455046 
2392.000000	99.453423 
2391.000000	99.451480 
2390.000000	99.449613 
2389.000000	99.447917 
2388.000000	99.446526 
2387.000000	99.445464 
2386.000000	99.444377 
2385.000000	99.442721 
2384.000000	99.440391 
2383.000000	99.438046 
2382.000000	99.436746 
2381.000000	99.437193 
2380.000000	99.439154 
2379.000000	99.441527 
2378.000000	99.443224 
2377.000000	99.443945 
2376.000000	99.443562 
2375.000000	99.441198 
2374.000000	99.436174 
2373.000000	99.429467 
2372.000000	99.423312 
2371.000000	99.418886 
2370.000000	99.415734 
2369.000000	99.413522 
2368.000000	99.412770 
2367.000000	99.413270 
2366.000000	99.413862 
2365.000000	99.414415 
2364.000000	99.415979 
2363.000000	99.417600 
2362.000000	99.416995 
2361.000000	99.414241 
2360.000000	99.410624 
2359.000000	99.406882 
2358.000000	99.403303 
2357.000000	99.400696 
2356.000000	99.400871 
2355.000000	99.403365 
2354.000000	99.409331 
2353.000000	99.418400 
2352.000000	99.428001 
2351.000000	99.434467 
2350.000000	99.433468 
2349.000000	99.423821 
2348.000000	99.407459 
2347.000000	99.392039 
2346.000000	99.384614 
2345.000000	99.383766 
2344.000000	99.385195 
2343.000000	99.384880 
2342.000000	99.385444 
2341.000000	99.387901 
2340.000000	99.390930 
2339.000000	99.393685 
2338.000000	99.396716 
2337.000000	99.400984 
2336.000000	99.403175 
2335.000000	99.401909 
2334.000000	99.398902 
2333.000000	99.399027 
2332.000000	99.400485 
2331.000000	99.402132 
2330.000000	99.400716 
2329.000000	99.399784 
2328.000000	99.397239 
2327.000000	99.394413 
2326.000000	99.391744 
2325.000000	99.390343 
2324.000000	99.389608 
2323.000000	99.388482 
2322.000000	99.389008 
2321.000000	99.392008 
2320.000000	99.394765 
2319.000000	99.395969 
2318.000000	99.395506 
2317.000000	99.397834 
2316.000000	99.401591 
2315.000000	99.407564 
2314.000000	99.412469 
2313.000000	99.418522 
2312.000000	99.422788 
2311.000000	99.426843 
2310.000000	99.428661 
2309.000000	99.430403 
2308.000000	99.430081 
2307.000000	99.430457 
2306.000000	99.432303 
2305.000000	99.437895 
2304.000000	99.444192 
2303.000000	99.451031 
2302.000000	99.456244 
2301.000000	99.460866 
2300.000000	99.462770 
2299.000000	99.465094 
2298.000000	99.468706 
2297.000000	99.474552 
2296.000000	99.477583 
2295.000000	99.477039 
2294.000000	99.475439 
2293.000000	99.478173 
2292.000000	99.485374 
2291.000000	99.493704 
2290.000000	99.499778 
2289.000000	99.502612 
2288.000000	99.503057 
2287.000000	99.502469 
2286.000000	99.502795 
2285.000000	99.503996 
2284.000000	99.504885 
2283.000000	99.504499 
2282.000000	99.504321 
2281.000000	99.505567 
2280.000000	99.507496 
2279.000000	99.508135 
2278.000000	99.507148 
2277.000000	99.506024 
2276.000000	99.505938 
2275.000000	99.507175 
2274.000000	99.509194 
2273.000000	99.511139 
2272.000000	99.511797 
2271.000000	99.511338 
2270.000000	99.511607 
2269.000000	99.513983 
2268.000000	99.517110 
2267.000000	99.518529 
2266.000000	99.517593 
2265.000000	99.515692 
2264.000000	99.513891 
2263.000000	99.512131 
2262.000000	99.510579 
2261.000000	99.509910 
2260.000000	99.510514 
2259.000000	99.511697 
2258.000000	99.512744 
2257.000000	99.513657 
2256.000000	99.515012 
2255.000000	99.517184 
2254.000000	99.519746 
2253.000000	99.521679 
2252.000000	99.522174 
2251.000000	99.521563 
2250.000000	99.520761 
2249.000000	99.520291 
2248.000000	99.519894 
2247.000000	99.519429 
2246.000000	99.519089 
2245.000000	99.519032 
2244.000000	99.519155 
2243.000000	99.519325 
2242.000000	99.519513 
2241.000000	99.519695 
2240.000000	99.519830 
2239.000000	99.519913 
2238.000000	99.519954 
2237.000000	99.519949 
2236.000000	99.519914 
2235.000000	99.519891 
2234.000000	99.519874 
2233.000000	99.519863 
2232.000000	99.519863 
2231.000000	99.519875 
2230.000000	99.519898 
2229.000000	99.519935 
2228.000000	99.519989 
2227.000000	99.520061 
2226.000000	99.520153 
2225.000000	99.520265 
2224.000000	99.520399 
2223.000000	99.520548 
2222.000000	99.520702 
2221.000000	99.520845 
2220.000000	99.520967 
2219.000000	99.521068 
2218.000000	99.521167 
2217.000000	99.521284 
2216.000000	99.521426 
2215.000000	99.521578 
2214.000000	99.521723 
2213.000000	99.521860 
2212.000000	99.522004 
2211.000000	99.522182 
2210.000000	99.522415 
2209.000000	99.522717 
2208.000000	99.523086 
2207.000000	99.523510 
2206.000000	99.523971 
2205.000000	99.524465 
2204.000000	99.525003 
2203.000000	99.525508 
2202.000000	99.526056 
2201.000000	99.526959 
2200.000000	99.528069 
2199.000000	99.528759 
2198.000000	99.528643 
2197.000000	99.528140 
2196.000000	99.528193 
2195.000000	99.529465 
2194.000000	99.531851 
2193.000000	99.534516 
2192.000000	99.536303 
2191.000000	99.536503 
2190.000000	99.535756 
2189.000000	99.535898 
2188.000000	99.537994 
2187.000000	99.540466 
2186.000000	99.540180 
2185.000000	99.535879 
2184.000000	99.529960 
2183.000000	99.526116 
2182.000000	99.525470 
2181.000000	99.525994 
2180.000000	99.525511 
2179.000000	99.524223 
2178.000000	99.523882 
2177.000000	99.525516 
2176.000000	99.528591 
2175.000000	99.531651 
2174.000000	99.533201 
2173.000000	99.533010 
2172.000000	99.533405 
2171.000000	99.538082 
2170.000000	99.548105 
2169.000000	99.559650 
2168.000000	99.567360 
2167.000000	99.569561 
2166.000000	99.568487 
2165.000000	99.566491 
2164.000000	99.564471 
2163.000000	99.563550 
2162.000000	99.564573 
2161.000000	99.564702 
2160.000000	99.557943 
2159.000000	99.541561 
2158.000000	99.520140 
2157.000000	99.501458 
2156.000000	99.489774 
2155.000000	99.485438 
2154.000000	99.487770 
2153.000000	99.495167 
2152.000000	99.504212 
2151.000000	99.511420 
2150.000000	99.515655 
2149.000000	99.518042 
2148.000000	99.520303 
2147.000000	99.523468 
2146.000000	99.526835 
2145.000000	99.527645 
2144.000000	99.523423 
2143.000000	99.515527 
2142.000000	99.508923 
2141.000000	99.507015 
2140.000000	99.508043 
2139.000000	99.508033 
2138.000000	99.506072 
2137.000000	99.504678 
2136.000000	99.505481 
2135.000000	99.506945 
2134.000000	99.506960 
2133.000000	99.506050 
2132.000000	99.506609 
2131.000000	99.509481 
2130.000000	99.512420 
2129.000000	99.512257 
2128.000000	99.508206 
2127.000000	99.502617 
2126.000000	99.498571 
2125.000000	99.497356 
2124.000000	99.498515 
2123.000000	99.501443 
2122.000000	99.505830 
2121.000000	99.510775 
2120.000000	99.514846 
2119.000000	99.517368 
2118.000000	99.518870 
2117.000000	99.519973 
2116.000000	99.520588 
2115.000000	99.520570 
2114.000000	99.520396 
2113.000000	99.520649 
2112.000000	99.521174 
2111.000000	99.521336 
2110.000000	99.520915 
2109.000000	99.520264 
2108.000000	99.519675 
2107.000000	99.518965 
2106.000000	99.517854 
2105.000000	99.516584 
2104.000000	99.516018 
2103.000000	99.516974 
2102.000000	99.519309 
2101.000000	99.521793 
2100.000000	99.523154 
2099.000000	99.523192 
2098.000000	99.522763 
2097.000000	99.522875 
2096.000000	99.523961 
2095.000000	99.525870 
2094.000000	99.528085 
2093.000000	99.529953 
2092.000000	99.531055 
2091.000000	99.531557 
2090.000000	99.532080 
2089.000000	99.533094 
2088.000000	99.534429 
2087.000000	99.535444 
2086.000000	99.535613 
2085.000000	99.535019 
2084.000000	99.534454 
2083.000000	99.534933 
2082.000000	99.536862 
2081.000000	99.539668 
2080.000000	99.542267 
2079.000000	99.544170 
2078.000000	99.545810 
2077.000000	99.547721 
2076.000000	99.549660 
2075.000000	99.550808 
2074.000000	99.550591 
2073.000000	99.549090 
2072.000000	99.547129 
2071.000000	99.545865 
2070.000000	99.546037 
2069.000000	99.547349 
2068.000000	99.548705 
2067.000000	99.549288 
2066.000000	99.549188 
2065.000000	99.549107 
2064.000000	99.549769 
2063.000000	99.551499 
2062.000000	99.553884 
2061.000000	99.555737 
2060.000000	99.556079 
2059.000000	99.555254 
2058.000000	99.554756 
2057.000000	99.555543 
2056.000000	99.557020 
2055.000000	99.558060 
2054.000000	99.558615 
2053.000000	99.559598 
2052.000000	99.561448 
2051.000000	99.563482 
2050.000000	99.564675 
2049.000000	99.564655 
2048.000000	99.563863 
2047.000000	99.563096 
2046.000000	99.562939 
2045.000000	99.563349 
2044.000000	99.563675 
2043.000000	99.563303 
2042.000000	99.562349 
2041.000000	99.561478 
2040.000000	99.561083 
2039.000000	99.560890 
2038.000000	99.560394 
2037.000000	99.559426 
2036.000000	99.558256 
2035.000000	99.557190 
2034.000000	99.556178 
2033.000000	99.554968 
2032.000000	99.553686 
2031.000000	99.552973 
2030.000000	99.553231 
2029.000000	99.554093 
2028.000000	99.554539 
2027.000000	99.553994 
2026.000000	99.552693 
2025.000000	99.551251 
2024.000000	99.550098 
2023.000000	99.549355 
2022.000000	99.549098 
2021.000000	99.549234 
2020.000000	99.549270 
2019.000000	99.548799 
2018.000000	99.548158 
2017.000000	99.547988 
2016.000000	99.548140 
2015.000000	99.547886 
2014.000000	99.547130 
2013.000000	99.546514 
2012.000000	99.546397 
2011.000000	99.546548 
2010.000000	99.546852 
2009.000000	99.547423 
2008.000000	99.548026 
2007.000000	99.548294 
2006.000000	99.548449 
2005.000000	99.548859 
2004.000000	99.549083 
2003.000000	99.548432 
2002.000000	99.547195 
2001.000000	99.546110 
2000.000000	99.544872 
1999.000000	99.542523 
1998.000000	99.539058 
1997.000000	99.535566 
1996.000000	99.533147 
1995.000000	99.532671 
1994.000000	99.534830 
1993.000000	99.538908 
1992.000000	99.542044 
1991.000000	99.541765 
1990.000000	99.538902 
1989.000000	99.536165 
1988.000000	99.535092 
1987.000000	99.536287 
1986.000000	99.541199 
1985.000000	99.550840 
1984.000000	99.562690 
1983.000000	99.571812 
1982.000000	99.575377 
1981.000000	99.573798 
1980.000000	99.568640 
1979.000000	99.561555 
1978.000000	99.554781 
1977.000000	99.550019 
1976.000000	99.546444 
1975.000000	99.541991 
1974.000000	99.536743 
1973.000000	99.532995 
1972.000000	99.532054 
1971.000000	99.533167 
1970.000000	99.535813 
1969.000000	99.540850 
1968.000000	99.548254 
1967.000000	99.555082 
1966.000000	99.557599 
1965.000000	99.555052 
1964.000000	99.550277 
1963.000000	99.546993 
1962.000000	99.546749 
1961.000000	99.548244 
1960.000000	99.549090 
1959.000000	99.547919 
1958.000000	99.544737 
1957.000000	99.540011 
1956.000000	99.534145 
1955.000000	99.527542 
1954.000000	99.520453 
1953.000000	99.512952 
1952.000000	99.505754 
1951.000000	99.500931 
1950.000000	99.500757 
1949.000000	99.505187 
1948.000000	99.511209 
1947.000000	99.515657 
1946.000000	99.517765 
1945.000000	99.518041 
1944.000000	99.516253 
1943.000000	99.512019 
1942.000000	99.506595 
1941.000000	99.502100 
1940.000000	99.499349 
1939.000000	99.498003 
1938.000000	99.497994 
1937.000000	99.499665 
1936.000000	99.502863 
1935.000000	99.506567 
1934.000000	99.509397 
1933.000000	99.510450 
1932.000000	99.509839 
1931.000000	99.508785 
1930.000000	99.508991 
1929.000000	99.510923 
1928.000000	99.512993 
1927.000000	99.513251 
1926.000000	99.511384 
1925.000000	99.508534 
1924.000000	99.505864 
1923.000000	99.504002 
1922.000000	99.503465 
1921.000000	99.504357 
1920.000000	99.505864 
1919.000000	99.506794 
1918.000000	99.506672 
1917.000000	99.506008 
1916.000000	99.505535 
1915.000000	99.505737 
1914.000000	99.506813 
1913.000000	99.508502 
1912.000000	99.510017 
1911.000000	99.510665 
1910.000000	99.510496 
1909.000000	99.510064 
1908.000000	99.509775 
1907.000000	99.509720 
1906.000000	99.509915 
1905.000000	99.510284 
1904.000000	99.510498 
1903.000000	99.510222 
1902.000000	99.509509 
1901.000000	99.508718 
1900.000000	99.508206 
1899.000000	99.508166 
1898.000000	99.508607 
1897.000000	99.509343 
1896.000000	99.510025 
1895.000000	99.510415 
1894.000000	99.510578 
1893.000000	99.510728 
1892.000000	99.510933 
1891.000000	99.511095 
1890.000000	99.511182 
1889.000000	99.511298 
1888.000000	99.511489 
1887.000000	99.511716 
1886.000000	99.512011 
1885.000000	99.512397 
1884.000000	99.512693 
1883.000000	99.512674 
1882.000000	99.512418 
1881.000000	99.512209 
1880.000000	99.512187 
1879.000000	99.512278 
1878.000000	99.512388 
1877.000000	99.512466 
1876.000000	99.512449 
1875.000000	99.512367 
1874.000000	99.512465 
1873.000000	99.512938 
1872.000000	99.513577 
1871.000000	99.513936 
1870.000000	99.513887 
1869.000000	99.513695 
1868.000000	99.513427 
1867.000000	99.512876 
1866.000000	99.512214 
1865.000000	99.511985 
1864.000000	99.512497 
1863.000000	99.513606 
1862.000000	99.514924 
1861.000000	99.516068 
1860.000000	99.516739 
1859.000000	99.516893 
1858.000000	99.516910 
1857.000000	99.517234 
1856.000000	99.517843 
1855.000000	99.518415 
1854.000000	99.518807 
1853.000000	99.519033 
1852.000000	99.518954 
1851.000000	99.518446 
1850.000000	99.517705 
1849.000000	99.517150 
1848.000000	99.517004 
1847.000000	99.517210 
1846.000000	99.517700 
1845.000000	99.518354 
1844.000000	99.518731 
1843.000000	99.518491 
1842.000000	99.518056 
1841.000000	99.518083 
1840.000000	99.518748 
1839.000000	99.519725 
1838.000000	99.520565 
1837.000000	99.521078 
1836.000000	99.521280 
1835.000000	99.521289 
1834.000000	99.521361 
1833.000000	99.521791 
1832.000000	99.522709 
1831.000000	99.523773 
1830.000000	99.524265 
1829.000000	99.523975 
1828.000000	99.523558 
1827.000000	99.523538 
1826.000000	99.523741 
1825.000000	99.523899 
1824.000000	99.524065 
1823.000000	99.524325 
1822.000000	99.524539 
1821.000000	99.524400 
1820.000000	99.523636 
1819.000000	99.522187 
1818.000000	99.520634 
1817.000000	99.520073 
1816.000000	99.520777 
1815.000000	99.521789 
1814.000000	99.522308 
1813.000000	99.522811 
1812.000000	99.524272 
1811.000000	99.526464 
1810.000000	99.528399 
1809.000000	99.530014 
1808.000000	99.531367 
1807.000000	99.531595 
1806.000000	99.530124 
1805.000000	99.527718 
1804.000000	99.525467 
1803.000000	99.523539 
1802.000000	99.521981 
1801.000000	99.521836 
1800.000000	99.523500 
1799.000000	99.525057 
1798.000000	99.525008 
1797.000000	99.524315 
1796.000000	99.524415 
1795.000000	99.525320 
1794.000000	99.526196 
1793.000000	99.526680 
1792.000000	99.526879 
1791.000000	99.526116 
1790.000000	99.524498 
1789.000000	99.523508 
1788.000000	99.523988 
1787.000000	99.525350 
1786.000000	99.526580 
1785.000000	99.527052 
1784.000000	99.526004 
1783.000000	99.523443 
1782.000000	99.520927 
1781.000000	99.519741 
1780.000000	99.518979 
1779.000000	99.516602 
1778.000000	99.512982 
1777.000000	99.510390 
1776.000000	99.510212 
1775.000000	99.512836 
1774.000000	99.518142 
1773.000000	99.524120 
1772.000000	99.526845 
1771.000000	99.523961 
1770.000000	99.517401 
1769.000000	99.510942 
1768.000000	99.507553 
1767.000000	99.507117 
1766.000000	99.507432 
1765.000000	99.507582 
1764.000000	99.508094 
1763.000000	99.508764 
1762.000000	99.507793 
1761.000000	99.504758 
1760.000000	99.501990 
1759.000000	99.500219 
1758.000000	99.497413 
1757.000000	99.491146 
1756.000000	99.481947 
1755.000000	99.472312 
1754.000000	99.462108 
1753.000000	99.449503 
1752.000000	99.436402 
1751.000000	99.429435 
1750.000000	99.430784 
1749.000000	99.434242 
1748.000000	99.434238 
1747.000000	99.431093 
1746.000000	99.426589 
1745.000000	99.421140 
1744.000000	99.416166 
1743.000000	99.413579 
1742.000000	99.412977 
1741.000000	99.413068 
1740.000000	99.413864 
1739.000000	99.415309 
1738.000000	99.416386 
1737.000000	99.416770 
1736.000000	99.416853 
1735.000000	99.416488 
1734.000000	99.416431 
1733.000000	99.419147 
1732.000000	99.426859 
1731.000000	99.438406 
1730.000000	99.449913 
1729.000000	99.457012 
1728.000000	99.459094 
1727.000000	99.459196 
1726.000000	99.459276 
1725.000000	99.458938 
1724.000000	99.458086 
1723.000000	99.457871 
1722.000000	99.459406 
1721.000000	99.462866 
1720.000000	99.467079 
1719.000000	99.468791 
1718.000000	99.464040 
1717.000000	99.455934 
1716.000000	99.450167 
1715.000000	99.446144 
1714.000000	99.443328 
1713.000000	99.443520 
1712.000000	99.446554 
1711.000000	99.450611 
1710.000000	99.454366 
1709.000000	99.457819 
1708.000000	99.461640 
1707.000000	99.466148 
1706.000000	99.471652 
1705.000000	99.477959 
1704.000000	99.482832 
1703.000000	99.483844 
1702.000000	99.481629 
1701.000000	99.480279 
1700.000000	99.483146 
1699.000000	99.486258 
1698.000000	99.487859 
1697.000000	99.490467 
1696.000000	99.494794 
1695.000000	99.498043 
1694.000000	99.499305 
1693.000000	99.500213 
1692.000000	99.501377 
1691.000000	99.502496 
1690.000000	99.503486 
1689.000000	99.504629 
1688.000000	99.505943 
1687.000000	99.506941 
1686.000000	99.507616 
1685.000000	99.508831 
1684.000000	99.510754 
1683.000000	99.512074 
1682.000000	99.513150 
1681.000000	99.514110 
1680.000000	99.515036 
1679.000000	99.516034 
1678.000000	99.517154 
1677.000000	99.518282 
1676.000000	99.519313 
1675.000000	99.520354 
1674.000000	99.521348 
1673.000000	99.522252 
1672.000000	99.523228 
1671.000000	99.524480 
1670.000000	99.525975 
1669.000000	99.527174 
1668.000000	99.527793 
1667.000000	99.528224 
1666.000000	99.528654 
1665.000000	99.529042 
1664.000000	99.529476 
1663.000000	99.530160 
1662.000000	99.531165 
1661.000000	99.532184 
1660.000000	99.532880 
1659.000000	99.533482 
1658.000000	99.534263 
1657.000000	99.534926 
1656.000000	99.534807 
1655.000000	99.534402 
1654.000000	99.535331 
1653.000000	99.537516 
1652.000000	99.537676 
1651.000000	99.537068 
1650.000000	99.536244 
1649.000000	99.535555 
1648.000000	99.534834 
1647.000000	99.533721 
1646.000000	99.532077 
1645.000000	99.531223 
1644.000000	99.531826 
1643.000000	99.533163 
1642.000000	99.534542 
1641.000000	99.535650 
1640.000000	99.536239 
1639.000000	99.536264 
1638.000000	99.536165 
1637.000000	99.536497 
1636.000000	99.536651 
1635.000000	99.535986 
1634.000000	99.535594 
1633.000000	99.536199 
1632.000000	99.536997 
1631.000000	99.537621 
1630.000000	99.538423 
1629.000000	99.539477 
1628.000000	99.540031 
1627.000000	99.540009 
1626.000000	99.540501 
1625.000000	99.542121 
1624.000000	99.544085 
1623.000000	99.545314 
1622.000000	99.545887 
1621.000000	99.546123 
1620.000000	99.545821 
1619.000000	99.545177 
1618.000000	99.545098 
1617.000000	99.545400 
1616.000000	99.544286 
1615.000000	99.542259 
1614.000000	99.541028 
1613.000000	99.540373 
1612.000000	99.539618 
1611.000000	99.538964 
1610.000000	99.539038 
1609.000000	99.539228 
1608.000000	99.538486 
1607.000000	99.537346 
1606.000000	99.537003 
1605.000000	99.537404 
1604.000000	99.537886 
1603.000000	99.538441 
1602.000000	99.539113 
1601.000000	99.539303 
1600.000000	99.538711 
1599.000000	99.538071 
1598.000000	99.538110 
1597.000000	99.538662 
1596.000000	99.539185 
1595.000000	99.539554 
1594.000000	99.539883 
1593.000000	99.539921 
1592.000000	99.539397 
1591.000000	99.538611 
1590.000000	99.538107 
1589.000000	99.537888 
1588.000000	99.537586 
1587.000000	99.537107 
1586.000000	99.536570 
1585.000000	99.535905 
1584.000000	99.535000 
1583.000000	99.534025 
1582.000000	99.533275 
1581.000000	99.532766 
1580.000000	99.532338 
1579.000000	99.531936 
1578.000000	99.531619 
1577.000000	99.531287 
1576.000000	99.530686 
1575.000000	99.529893 
1574.000000	99.529278 
1573.000000	99.528819 
1572.000000	99.528325 
1571.000000	99.527806 
1570.000000	99.527441 
1569.000000	99.527091 
1568.000000	99.526514 
1567.000000	99.525912 
1566.000000	99.525473 
1565.000000	99.525119 
1564.000000	99.524718 
1563.000000	99.524398 
1562.000000	99.524283 
1561.000000	99.523954 
1560.000000	99.522748 
1559.000000	99.521015 
1558.000000	99.519861 
1557.000000	99.519538 
1556.000000	99.519374 
1555.000000	99.519014 
1554.000000	99.518408 
1553.000000	99.517504 
1552.000000	99.516644 
1551.000000	99.516314 
1550.000000	99.516629 
1549.000000	99.516899 
1548.000000	99.516393 
1547.000000	99.515178 
1546.000000	99.513872 
1545.000000	99.513196 
1544.000000	99.513073 
1543.000000	99.512451 
1542.000000	99.511207 
1541.000000	99.511361 
1540.000000	99.512842 
1539.000000	99.512974 
1538.000000	99.512933 
1537.000000	99.513942 
1536.000000	99.515460 
1535.000000	99.517212 
1534.000000	99.519406 
1533.000000	99.521523 
1532.000000	99.522395 
1531.000000	99.521704 
1530.000000	99.520657 
1529.000000	99.520909 
1528.000000	99.522165 
1527.000000	99.522781 
1526.000000	99.522212 
1525.000000	99.521941 
1524.000000	99.522697 
1523.000000	99.523644 
1522.000000	99.524791 
1521.000000	99.527393 
1520.000000	99.530091 
1519.000000	99.530856 
1518.000000	99.529243 
1517.000000	99.526341 
1516.000000	99.522874 
1515.000000	99.519192 
1514.000000	99.515876 
1513.000000	99.513737 
1512.000000	99.513773 
1511.000000	99.514771 
1510.000000	99.513999 
1509.000000	99.511028 
1508.000000	99.510230 
1507.000000	99.513330 
1506.000000	99.514102 
1505.000000	99.513099 
1504.000000	99.513709 
1503.000000	99.514884 
1502.000000	99.516608 
1501.000000	99.519431 
1500.000000	99.523502 
1499.000000	99.526980 
1498.000000	99.526514 
1497.000000	99.523511 
1496.000000	99.522914 
1495.000000	99.522757 
1494.000000	99.518032 
1493.000000	99.508883 
1492.000000	99.499438 
1491.000000	99.493582 
1490.000000	99.491709 
1489.000000	99.492335 
1488.000000	99.493112 
1487.000000	99.491034 
1486.000000	99.487911 
1485.000000	99.486755 
1484.000000	99.486885 
1483.000000	99.486100 
1482.000000	99.482262 
1481.000000	99.475505 
1480.000000	99.467642 
1479.000000	99.459931 
1478.000000	99.452853 
1477.000000	99.447121 
1476.000000	99.442377 
1475.000000	99.435288 
1474.000000	99.425125 
1473.000000	99.416324 
1472.000000	99.412095 
1471.000000	99.407839 
1470.000000	99.400417 
1469.000000	99.392440 
1468.000000	99.387616 
1467.000000	99.386235 
1466.000000	99.386540 
1465.000000	99.387607 
1464.000000	99.388943 
1463.000000	99.389781 
1462.000000	99.389639 
1461.000000	99.389509 
1460.000000	99.389765 
1459.000000	99.388669 
1458.000000	99.380793 
1457.000000	99.364860 
1456.000000	99.351101 
1455.000000	99.346195 
1454.000000	99.346251 
1453.000000	99.348468 
1452.000000	99.352273 
1451.000000	99.356554 
1450.000000	99.360702 
1449.000000	99.367182 
1448.000000	99.377876 
1447.000000	99.388452 
1446.000000	99.393867 
1445.000000	99.395210 
1444.000000	99.396284 
1443.000000	99.397800 
1442.000000	99.397754 
1441.000000	99.395454 
1440.000000	99.393164 
1439.000000	99.392970 
1438.000000	99.393113 
1437.000000	99.391714 
1436.000000	99.390641 
1435.000000	99.390224 
1434.000000	99.388298 
1433.000000	99.385740 
1432.000000	99.385025 
1431.000000	99.387353 
1430.000000	99.390040 
1429.000000	99.389937 
1428.000000	99.387649 
1427.000000	99.384772 
1426.000000	99.381038 
1425.000000	99.374640 
1424.000000	99.366916 
1423.000000	99.361151 
1422.000000	99.355788 
1421.000000	99.346449 
1420.000000	99.332301 
1419.000000	99.317358 
1418.000000	99.302162 
1417.000000	99.286150 
1416.000000	99.272468 
1415.000000	99.262196 
1414.000000	99.252162 
1413.000000	99.239098 
1412.000000	99.224818 
1411.000000	99.213684 
1410.000000	99.205615 
1409.000000	99.198184 
1408.000000	99.192117 
1407.000000	99.189172 
1406.000000	99.188763 
1405.000000	99.189696 
1404.000000	99.194296 
1403.000000	99.204082 
1402.000000	99.214819 
1401.000000	99.222044 
1400.000000	99.226134 
1399.000000	99.229733 
1398.000000	99.229868 
1397.000000	99.219626 
1396.000000	99.198132 
1395.000000	99.176127 
1394.000000	99.168177 
1393.000000	99.178458 
1392.000000	99.201237 
1391.000000	99.227139 
1390.000000	99.247610 
1389.000000	99.257768 
1388.000000	99.257723 
1387.000000	99.251725 
1386.000000	99.244548 
1385.000000	99.238865 
1384.000000	99.235731 
1383.000000	99.235265 
1382.000000	99.236634 
1381.000000	99.239513 
1380.000000	99.244475 
1379.000000	99.251905 
1378.000000	99.260815 
1377.000000	99.269478 
1376.000000	99.277737 
1375.000000	99.287629 
1374.000000	99.300468 
1373.000000	99.314012 
1372.000000	99.325359 
1371.000000	99.334787 
1370.000000	99.345128 
1369.000000	99.357190 
1368.000000	99.369602 
1367.000000	99.381200 
1366.000000	99.391660 
1365.000000	99.400704 
1364.000000	99.407563 
1363.000000	99.412127 
1362.000000	99.416283 
1361.000000	99.421977 
1360.000000	99.428966 
1359.000000	99.436159 
1358.000000	99.443606 
1357.000000	99.451674 
1356.000000	99.459830 
1355.000000	99.467053 
1354.000000	99.473177 
1353.000000	99.479011 
1352.000000	99.483965 
1351.000000	99.485713 
1350.000000	99.484963 
1349.000000	99.484113 
1348.000000	99.484890 
1347.000000	99.487914 
1346.000000	99.493577 
1345.000000	99.501092 
1344.000000	99.508238 
1343.000000	99.513080 
1342.000000	99.515594 
1341.000000	99.516520 
1340.000000	99.515982 
1339.000000	99.514458 
1338.000000	99.513323 
1337.000000	99.513588 
1336.000000	99.515053 
1335.000000	99.516836 
1334.000000	99.518578 
1333.000000	99.520584 
1332.000000	99.522772 
1331.000000	99.524447 
1330.000000	99.525022 
1329.000000	99.524140 
1328.000000	99.521996 
1327.000000	99.519742 
1326.000000	99.518877 
1325.000000	99.518963 
1324.000000	99.519140 
1323.000000	99.519910 
1322.000000	99.521802 
1321.000000	99.523376 
1320.000000	99.522783 
1319.000000	99.520679 
1318.000000	99.519635 
1317.000000	99.520754 
1316.000000	99.522298 
1315.000000	99.521930 
1314.000000	99.519161 
1313.000000	99.515693 
1312.000000	99.513729 
1311.000000	99.514036 
1310.000000	99.515587 
1309.000000	99.516904 
1308.000000	99.517469 
1307.000000	99.517494 
1306.000000	99.517204 
1305.000000	99.516364 
1304.000000	99.515715 
1303.000000	99.516778 
1302.000000	99.519883 
1301.000000	99.523146 
1300.000000	99.524216 
1299.000000	99.522135 
1298.000000	99.517338 
1297.000000	99.511135 
1296.000000	99.505533 
1295.000000	99.502749 
1294.000000	99.503517 
1293.000000	99.506348 
1292.000000	99.508886 
1291.000000	99.509457 
1290.000000	99.507555 
1289.000000	99.503974 
1288.000000	99.500557 
1287.000000	99.498508 
1286.000000	99.496706 
1285.000000	99.493158 
1284.000000	99.488106 
1283.000000	99.483879 
1282.000000	99.481269 
1281.000000	99.478254 
1280.000000	99.473259 
1279.000000	99.467542 
1278.000000	99.462696 
1277.000000	99.458035 
1276.000000	99.452065 
1275.000000	99.445281 
1274.000000	99.439526 
1273.000000	99.435427 
1272.000000	99.431992 
1271.000000	99.427912 
1270.000000	99.421932 
1269.000000	99.413038 
1268.000000	99.401948 
1267.000000	99.391517 
1266.000000	99.383764 
1265.000000	99.377525 
1264.000000	99.370296 
1263.000000	99.361225 
1262.000000	99.350959 
1261.000000	99.340039 
1260.000000	99.329356 
1259.000000	99.321160 
1258.000000	99.316915 
1257.000000	99.315080 
1256.000000	99.312867 
1255.000000	99.309606 
1254.000000	99.306500 
1253.000000	99.303892 
1252.000000	99.301042 
1251.000000	99.298462 
1250.000000	99.298123 
1249.000000	99.301086 
1248.000000	99.306737 
1247.000000	99.314105 
1246.000000	99.321493 
1245.000000	99.325106 
1244.000000	99.321128 
1243.000000	99.310920 
1242.000000	99.302366 
1241.000000	99.303322 
1240.000000	99.314153 
1239.000000	99.327522 
1238.000000	99.335382 
1237.000000	99.335557 
1236.000000	99.331132 
1235.000000	99.325610 
1234.000000	99.320074 
1233.000000	99.314430 
1232.000000	99.309461 
1231.000000	99.306377 
1230.000000	99.305057 
1229.000000	99.304234 
1228.000000	99.303609 
1227.000000	99.304714 
1226.000000	99.309179 
1225.000000	99.316704 
1224.000000	99.325136 
1223.000000	99.332199 
1222.000000	99.337070 
1221.000000	99.340740 
1220.000000	99.345194 
1219.000000	99.351899 
1218.000000	99.360571 
1217.000000	99.369495 
1216.000000	99.377111 
1215.000000	99.383143 
1214.000000	99.388414 
1213.000000	99.394029 
1212.000000	99.400507 
1211.000000	99.406930 
1210.000000	99.411201 
1209.000000	99.412079 
1208.000000	99.410941 
1207.000000	99.410710 
1206.000000	99.412927 
1205.000000	99.416805 
1204.000000	99.421074 
1203.000000	99.425278 
1202.000000	99.428702 
1201.000000	99.429678 
1200.000000	99.427436 
1199.000000	99.423779 
1198.000000	99.421633 
1197.000000	99.422140 
1196.000000	99.423957 
1195.000000	99.425110 
1194.000000	99.424665 
1193.000000	99.422666 
1192.000000	99.419613 
1191.000000	99.416407 
1190.000000	99.414187 
1189.000000	99.413879 
1188.000000	99.415894 
1187.000000	99.419819 
1186.000000	99.424099 
1185.000000	99.426509 
1184.000000	99.425510 
1183.000000	99.421207 
1182.000000	99.415160 
1181.000000	99.409500 
1180.000000	99.406048 
1179.000000	99.405586 
1178.000000	99.407280 
1177.000000	99.409014 
1176.000000	99.408892 
1175.000000	99.406632 
1174.000000	99.403496 
1173.000000	99.401017 
1172.000000	99.399949 
1171.000000	99.400095 
1170.000000	99.400686 
1169.000000	99.400974 
1168.000000	99.400600 
1167.000000	99.399244 
1166.000000	99.396127 
1165.000000	99.390689 
1164.000000	99.384151 
1163.000000	99.379460 
1162.000000	99.378604 
1161.000000	99.380432 
1160.000000	99.382077 
1159.000000	99.382401 
1158.000000	99.382816 
1157.000000	99.384647 
1156.000000	99.386997 
1155.000000	99.387766 
1154.000000	99.385902 
1153.000000	99.382044 
1152.000000	99.377560 
1151.000000	99.373592 
1150.000000	99.370702 
1149.000000	99.368816 
1148.000000	99.367280 
1147.000000	99.364969 
1146.000000	99.360669 
1145.000000	99.354109 
1144.000000	99.346977 
1143.000000	99.342308 
1142.000000	99.341876 
1141.000000	99.344270 
1140.000000	99.346114 
1139.000000	99.344981 
1138.000000	99.340747 
1137.000000	99.334825 
1136.000000	99.329047 
1135.000000	99.324870 
1134.000000	99.322471 
1133.000000	99.320454 
1132.000000	99.317229 
1131.000000	99.312691 
1130.000000	99.307865 
1129.000000	99.303094 
1128.000000	99.297501 
1127.000000	99.290274 
1126.000000	99.281629 
1125.000000	99.272325 
1124.000000	99.262933 
1123.000000	99.253742 
1122.000000	99.244626 
1121.000000	99.234908 
1120.000000	99.224047 
1119.000000	99.212497 
1118.000000	99.201054 
1117.000000	99.189303 
1116.000000	99.175760 
1115.000000	99.159796 
1114.000000	99.142345 
1113.000000	99.124174 
1112.000000	99.104763 
1111.000000	99.084156 
1110.000000	99.064626 
1109.000000	99.048756 
1108.000000	99.036314 
1107.000000	99.023694 
1106.000000	99.007451 
1105.000000	98.987696 
1104.000000	98.967242 
1103.000000	98.948114 
1102.000000	98.930435 
1101.000000	98.914239 
1100.000000	98.901220 
1099.000000	98.891294 
1098.000000	98.882092 
1097.000000	98.871468 
1096.000000	98.860242 
1095.000000	98.849988 
1094.000000	98.838633 
1093.000000	98.820923 
1092.000000	98.793821 
1091.000000	98.759508 
1090.000000	98.722366 
1089.000000	98.684678 
1088.000000	98.646516 
1087.000000	98.608258 
1086.000000	98.571222 
1085.000000	98.536263 
1084.000000	98.503101 
1083.000000	98.470874 
1082.000000	98.438702 
1081.000000	98.406309 
1080.000000	98.374758 
1079.000000	98.346025 
1078.000000	98.321465 
1077.000000	98.301490 
1076.000000	98.286842 
1075.000000	98.278828 
1074.000000	98.277896 
1073.000000	98.282893 
1072.000000	98.290898 
1071.000000	98.295473 
1070.000000	98.286179 
1069.000000	98.255469 
1068.000000	98.209616 
1067.000000	98.169831 
1066.000000	98.157028 
1065.000000	98.175157 
1064.000000	98.210316 
1063.000000	98.243257 
1062.000000	98.260762 
1061.000000	98.257354 
1060.000000	98.233958 
1059.000000	98.199734 
1058.000000	98.170828 
1057.000000	98.160152 
1056.000000	98.167001 
1055.000000	98.178538 
1054.000000	98.182267 
1053.000000	98.176500 
1052.000000	98.168648 
1051.000000	98.165774 
1050.000000	98.168907 
1049.000000	98.175438 
1048.000000	98.183830 
1047.000000	98.194443 
1046.000000	98.207281 
1045.000000	98.220938 
1044.000000	98.234188 
1043.000000	98.247947 
1042.000000	98.264679 
1041.000000	98.285186 
1040.000000	98.306725 
1039.000000	98.325957 
1038.000000	98.344010 
1037.000000	98.366536 
1036.000000	98.397572 
1035.000000	98.434978 
1034.000000	98.473113 
1033.000000	98.507618 
1032.000000	98.534833 
1031.000000	98.549271 
1030.000000	98.547733 
1029.000000	98.537326 
1028.000000	98.534636 
1027.000000	98.552509 
1026.000000	98.588865 
1025.000000	98.630142 
1024.000000	98.664091 
1023.000000	98.687030 
1022.000000	98.701308 
1021.000000	98.710574 
1020.000000	98.718170 
1019.000000	98.726957 
1018.000000	98.737950 
1017.000000	98.749860 
1016.000000	98.761310 
1015.000000	98.772981 
1014.000000	98.786860 
1013.000000	98.803671 
1012.000000	98.821618 
1011.000000	98.837764 
1010.000000	98.850727 
1009.000000	98.862038 
1008.000000	98.874592 
1007.000000	98.889827 
1006.000000	98.906899 
1005.000000	98.924495 
1004.000000	98.942307 
1003.000000	98.960139 
1002.000000	98.976761 
1001.000000	98.991024 
1000.000000	99.003634 
999.000000	 99.016422 
998.000000	 99.029787 
997.000000	 99.042160 
996.000000	 99.052510 
995.000000	 99.062356 
994.000000	 99.074416 
993.000000	 99.089585 
992.000000	 99.105726 
991.000000	 99.119259 
990.000000	 99.127850 
989.000000	 99.132133 
988.000000	 99.135165 
987.000000	 99.139733 
986.000000	 99.146095 
985.000000	 99.153064 
984.000000	 99.160896 
983.000000	 99.171365 
982.000000	 99.184706 
981.000000	 99.198369 
980.000000	 99.209356 
979.000000	 99.216611 
978.000000	 99.220769 
977.000000	 99.223311 
976.000000	 99.226612 
975.000000	 99.233056 
974.000000	 99.242735 
973.000000	 99.253042 
972.000000	 99.261679 
971.000000	 99.269108 
970.000000	 99.277003 
969.000000	 99.285541 
968.000000	 99.293827 
967.000000	 99.301927 
966.000000	 99.310382 
965.000000	 99.318124 
964.000000	 99.323221 
963.000000	 99.325953 
962.000000	 99.329092 
961.000000	 99.334333 
960.000000	 99.340144 
959.000000	 99.344271 
958.000000	 99.346918 
957.000000	 99.350039 
956.000000	 99.354441 
955.000000	 99.359265 
954.000000	 99.363912 
953.000000	 99.368718 
952.000000	 99.373430 
951.000000	 99.376456 
950.000000	 99.376581 
949.000000	 99.374799 
948.000000	 99.373756 
947.000000	 99.375661 
946.000000	 99.381077 
945.000000	 99.389257 
944.000000	 99.398652 
943.000000	 99.406936 
942.000000	 99.411586 
941.000000	 99.411475 
940.000000	 99.408118 
939.000000	 99.404848 
938.000000	 99.404178 
937.000000	 99.405960 
936.000000	 99.408149 
935.000000	 99.408735 
934.000000	 99.406707 
933.000000	 99.402027 
932.000000	 99.395839 
931.000000	 99.390742 
930.000000	 99.389543 
929.000000	 99.392787 
928.000000	 99.398048 
927.000000	 99.402317 
926.000000	 99.404704 
925.000000	 99.406124 
924.000000	 99.406798 
923.000000	 99.405258 
922.000000	 99.400141 
921.000000	 99.392224 
920.000000	 99.384198 
919.000000	 99.378647 
918.000000	 99.376399 
917.000000	 99.376302 
916.000000	 99.376115 
915.000000	 99.374009 
914.000000	 99.369924 
913.000000	 99.365618 
912.000000	 99.362911 
911.000000	 99.361607 
910.000000	 99.359446 
909.000000	 99.354434 
908.000000	 99.347044 
907.000000	 99.339678 
906.000000	 99.333909 
905.000000	 99.328874 
904.000000	 99.322887 
903.000000	 99.316297 
902.000000	 99.311855 
901.000000	 99.312002 
900.000000	 99.316469 
899.000000	 99.322769 
898.000000	 99.328570 
897.000000	 99.332759 
896.000000	 99.334473 
895.000000	 99.332568 
894.000000	 99.327331 
893.000000	 99.322215 
892.000000	 99.322205 
891.000000	 99.329661 
890.000000	 99.342167 
889.000000	 99.354727 
888.000000	 99.363987 
887.000000	 99.369652 
886.000000	 99.372515 
885.000000	 99.372838 
884.000000	 99.371085 
883.000000	 99.368890 
882.000000	 99.368019 
881.000000	 99.368915 
880.000000	 99.371477 
879.000000	 99.376694 
878.000000	 99.385720 
877.000000	 99.396932 
876.000000	 99.405592 
875.000000	 99.407829 
874.000000	 99.404295 
873.000000	 99.399367 
872.000000	 99.397304 
871.000000	 99.399653 
870.000000	 99.405450 
869.000000	 99.412063 
868.000000	 99.416504 
867.000000	 99.417602 
866.000000	 99.417443 
865.000000	 99.419762 
864.000000	 99.426468 
863.000000	 99.436419 
862.000000	 99.447261 
861.000000	 99.457330 
860.000000	 99.465631 
859.000000	 99.471469 
858.000000	 99.475348 
857.000000	 99.479468 
856.000000	 99.485973 
855.000000	 99.494605 
854.000000	 99.502773 
853.000000	 99.508066 
852.000000	 99.510219 
851.000000	 99.510789 
850.000000	 99.511495 
849.000000	 99.512951 
848.000000	 99.514673 
847.000000	 99.516120 
846.000000	 99.517663 
845.000000	 99.520376 
844.000000	 99.524885 
843.000000	 99.530694 
842.000000	 99.536492 
841.000000	 99.540727 
840.000000	 99.542289 
839.000000	 99.541586 
838.000000	 99.540792 
837.000000	 99.541698 
836.000000	 99.543250 
835.000000	 99.542925 
834.000000	 99.540906 
833.000000	 99.540602 
832.000000	 99.543465 
831.000000	 99.545478 
830.000000	 99.541952 
829.000000	 99.534710 
828.000000	 99.531251 
827.000000	 99.535515 
826.000000	 99.542564 
825.000000	 99.544435 
824.000000	 99.539632 
823.000000	 99.533808 
822.000000	 99.532120 
821.000000	 99.533730 
820.000000	 99.534564 
819.000000	 99.532686 
818.000000	 99.529684 
817.000000	 99.528103 
816.000000	 99.528557 
815.000000	 99.529136 
814.000000	 99.527181 
813.000000	 99.521772 
812.000000	 99.514732 
811.000000	 99.509140 
810.000000	 99.506623 
809.000000	 99.506225 
808.000000	 99.505893 
807.000000	 99.504432 
806.000000	 99.501464 
805.000000	 99.495978 
804.000000	 99.486437 
803.000000	 99.473213 
802.000000	 99.459997 
801.000000	 99.451173 
800.000000	 99.447829 
799.000000	 99.447422 
798.000000	 99.447112 
797.000000	 99.446426 
796.000000	 99.446204 
795.000000	 99.446589 
794.000000	 99.447571 
793.000000	 99.450375 
792.000000	 99.456082 
791.000000	 99.462608 
790.000000	 99.464997 
789.000000	 99.460261 
788.000000	 99.451223 
787.000000	 99.444435 
786.000000	 99.443653 
785.000000	 99.446714 
784.000000	 99.448891 
783.000000	 99.448414 
782.000000	 99.447396 
781.000000	 99.448077 
780.000000	 99.450185 
779.000000	 99.451930 
778.000000	 99.452000 
777.000000	 99.450371 
776.000000	 99.448349 
775.000000	 99.448112 
774.000000	 99.450994 
773.000000	 99.455849 
772.000000	 99.460033 
771.000000	 99.462380 
770.000000	 99.463881 
769.000000	 99.465302 
768.000000	 99.466014 
767.000000	 99.465981 
766.000000	 99.466945 
765.000000	 99.470140 
764.000000	 99.474171 
763.000000	 99.476652 
762.000000	 99.477063 
761.000000	 99.476614 
760.000000	 99.476218 
759.000000	 99.475976 
758.000000	 99.476043 
757.000000	 99.476611 
756.000000	 99.477428 
755.000000	 99.478339 
754.000000	 99.479856 
753.000000	 99.482408 
752.000000	 99.485402 
751.000000	 99.487693 
750.000000	 99.488828 
749.000000	 99.489140 
748.000000	 99.488922 
747.000000	 99.488337 
746.000000	 99.488035 
745.000000	 99.488624 
744.000000	 99.489538 
743.000000	 99.489614 
742.000000	 99.488684 
741.000000	 99.487732 
740.000000	 99.487579 
739.000000	 99.487950 
738.000000	 99.488092 
737.000000	 99.487731 
736.000000	 99.487002 
735.000000	 99.485975 
734.000000	 99.485141 
733.000000	 99.485926 
732.000000	 99.489190 
731.000000	 99.493018 
730.000000	 99.494243 
729.000000	 99.491445 
728.000000	 99.486126 
727.000000	 99.481767 
726.000000	 99.480654 
725.000000	 99.482490 
724.000000	 99.485506 
723.000000	 99.488339 
722.000000	 99.490728 
721.000000	 99.492367 
720.000000	 99.492014 
719.000000	 99.488760 
718.000000	 99.483579 
717.000000	 99.479192 
716.000000	 99.477744 
715.000000	 99.479154 
714.000000	 99.481853 
713.000000	 99.483407 
712.000000	 99.482386 
711.000000	 99.479576 
710.000000	 99.479136 
709.000000	 99.481270 
708.000000	 99.483890 
707.000000	 99.485962 
706.000000	 99.487979 
705.000000	 99.490807 
704.000000	 99.494335 
703.000000	 99.497180 
702.000000	 99.498785 
701.000000	 99.500400 
700.000000	 99.502478 
699.000000	 99.504749 
698.000000	 99.507088 
697.000000	 99.509335 
696.000000	 99.510895 
695.000000	 99.510121 
694.000000	 99.507705 
693.000000	 99.507585 
692.000000	 99.511888 
691.000000	 99.519297 
690.000000	 99.527063 
689.000000	 99.534049 
688.000000	 99.540698 
687.000000	 99.546466 
686.000000	 99.551427 
685.000000	 99.556783 
684.000000	 99.561251 
683.000000	 99.561957 
682.000000	 99.559700 
681.000000	 99.559518 
680.000000	 99.563889 
679.000000	 99.570114 
678.000000	 99.575494 
677.000000	 99.577394 
676.000000	 99.576258 
675.000000	 99.576063 
674.000000	 99.582074 
673.000000	 99.597248 
672.000000	 99.622700 
671.000000	 99.661621 
670.000000	 99.722189 
669.000000	 99.799176 
668.000000	 99.834030 
667.000000	 99.786074 
666.000000	 99.711981 
665.000000	 99.656645 
664.000000	 99.619634 
663.000000	 99.597724 
662.000000	 99.588647 
661.000000	 99.586271 
660.000000	 99.586302 
659.000000	 99.588638 
658.000000	 99.590674 
657.000000	 99.583660 
656.000000	 99.568270 
655.000000	 99.557791 
654.000000	 99.558773 
653.000000	 99.561935 
652.000000	 99.558934 
651.000000	 99.552861 
650.000000	 99.548688 

