4000.000000	99.394200 
3999.000000	99.395027 
3998.000000	99.397388 
3997.000000	99.399600 
3996.000000	99.399453 
3995.000000	99.396266 
3994.000000	99.391894 
3993.000000	99.389388 
3992.000000	99.390332 
3991.000000	99.393360 
3990.000000	99.395395 
3989.000000	99.394576 
3988.000000	99.392069 
3987.000000	99.390900 
3986.000000	99.392951 
3985.000000	99.397194 
3984.000000	99.400697 
3983.000000	99.401144 
3982.000000	99.398412 
3981.000000	99.394152 
3980.000000	99.390188 
3979.000000	99.387358 
3978.000000	99.385748 
3977.000000	99.385547 
3976.000000	99.387320 
3975.000000	99.391340 
3974.000000	99.396850 
3973.000000	99.402167 
3972.000000	99.405583 
3971.000000	99.406350 
3970.000000	99.405027 
3969.000000	99.402954 
3968.000000	99.401498 
3967.000000	99.401432 
3966.000000	99.402717 
3965.000000	99.404792 
3964.000000	99.406792 
3963.000000	99.407464 
3962.000000	99.405411 
3961.000000	99.400152 
3960.000000	99.393079 
3959.000000	99.387070 
3958.000000	99.384578 
3957.000000	99.385719 
3956.000000	99.388609 
3955.000000	99.391300 
3954.000000	99.393210 
3953.000000	99.394797 
3952.000000	99.396394 
3951.000000	99.398030 
3950.000000	99.399666 
3949.000000	99.401152 
3948.000000	99.402024 
3947.000000	99.401653 
3946.000000	99.399906 
3945.000000	99.397485 
3944.000000	99.395457 
3943.000000	99.394109 
3942.000000	99.392991 
3941.000000	99.392031 
3940.000000	99.391385 
3939.000000	99.390159 
3938.000000	99.386678 
3937.000000	99.380432 
3936.000000	99.373897 
3935.000000	99.371524 
3934.000000	99.376398 
3933.000000	99.387324 
3932.000000	99.398913 
3931.000000	99.405145 
3930.000000	99.403382 
3929.000000	99.395816 
3928.000000	99.387856 
3927.000000	99.384541 
3926.000000	99.387332 
3925.000000	99.392957 
3924.000000	99.396059 
3923.000000	99.394313 
3922.000000	99.389982 
3921.000000	99.387131 
3920.000000	99.388186 
3919.000000	99.392546 
3918.000000	99.397613 
3917.000000	99.400827 
3916.000000	99.401377 
3915.000000	99.400505 
3914.000000	99.400292 
3913.000000	99.401977 
3912.000000	99.405185 
3911.000000	99.408765 
3910.000000	99.412177 
3909.000000	99.415550 
3908.000000	99.418929 
3907.000000	99.421253 
3906.000000	99.420243 
3905.000000	99.413351 
3904.000000	99.399732 
3903.000000	99.382915 
3902.000000	99.370081 
3901.000000	99.366574 
3900.000000	99.371830 
3899.000000	99.380463 
3898.000000	99.387273 
3897.000000	99.390831 
3896.000000	99.392345 
3895.000000	99.393420 
3894.000000	99.395196 
3893.000000	99.397459 
3892.000000	99.398069 
3891.000000	99.394577 
3890.000000	99.387775 
3889.000000	99.381039 
3888.000000	99.377280 
3887.000000	99.377969 
3886.000000	99.382084 
3885.000000	99.386096 
3884.000000	99.387720 
3883.000000	99.388298 
3882.000000	99.390463 
3881.000000	99.394163 
3880.000000	99.396064 
3879.000000	99.394025 
3878.000000	99.390425 
3877.000000	99.389647 
3876.000000	99.394606 
3875.000000	99.403230 
3874.000000	99.408282 
3873.000000	99.404068 
3872.000000	99.392926 
3871.000000	99.382702 
3870.000000	99.378405 
3869.000000	99.378922 
3868.000000	99.381532 
3867.000000	99.385030 
3866.000000	99.389212 
3865.000000	99.393418 
3864.000000	99.395426 
3863.000000	99.394376 
3862.000000	99.392794 
3861.000000	99.393862 
3860.000000	99.398436 
3859.000000	99.404611 
3858.000000	99.409021 
3857.000000	99.408805 
3856.000000	99.403558 
3855.000000	99.398132 
3854.000000	99.397911 
3853.000000	99.399799 
3852.000000	99.400265 
3851.000000	99.401860 
3850.000000	99.405509 
3849.000000	99.409996 
3848.000000	99.413636 
3847.000000	99.415229 
3846.000000	99.414625 
3845.000000	99.412422 
3844.000000	99.409580 
3843.000000	99.407697 
3842.000000	99.408237 
3841.000000	99.411031 
3840.000000	99.414045 
3839.000000	99.414092 
3838.000000	99.409069 
3837.000000	99.400175 
3836.000000	99.391204 
3835.000000	99.386221 
3834.000000	99.387546 
3833.000000	99.394795 
3832.000000	99.404928 
3831.000000	99.413719 
3830.000000	99.418461 
3829.000000	99.419145 
3828.000000	99.417264 
3827.000000	99.413930 
3826.000000	99.409192 
3825.000000	99.402890 
3824.000000	99.396062 
3823.000000	99.391878 
3822.000000	99.392738 
3821.000000	99.395225 
3820.000000	99.395133 
3819.000000	99.395200 
3818.000000	99.399939 
3817.000000	99.409895 
3816.000000	99.420321 
3815.000000	99.424832 
3814.000000	99.421878 
3813.000000	99.415110 
3812.000000	99.409007 
3811.000000	99.405863 
3810.000000	99.405457 
3809.000000	99.406790 
3808.000000	99.409097 
3807.000000	99.411020 
3806.000000	99.410870 
3805.000000	99.408827 
3804.000000	99.407322 
3803.000000	99.409601 
3802.000000	99.415927 
3801.000000	99.421310 
3800.000000	99.422047 
3799.000000	99.419609 
3798.000000	99.416673 
3797.000000	99.414399 
3796.000000	99.412138 
3795.000000	99.409112 
3794.000000	99.405533 
3793.000000	99.402207 
3792.000000	99.399955 
3791.000000	99.399299 
3790.000000	99.400246 
3789.000000	99.402561 
3788.000000	99.406133 
3787.000000	99.410689 
3786.000000	99.415222 
3785.000000	99.418025 
3784.000000	99.417929 
3783.000000	99.415336 
3782.000000	99.411947 
3781.000000	99.409702 
3780.000000	99.409350 
3779.000000	99.409817 
3778.000000	99.409832 
3777.000000	99.408991 
3776.000000	99.406908 
3775.000000	99.403309 
3774.000000	99.398852 
3773.000000	99.395387 
3772.000000	99.395162 
3771.000000	99.398702 
3770.000000	99.403063 
3769.000000	99.404279 
3768.000000	99.402117 
3767.000000	99.399510 
3766.000000	99.398489 
3765.000000	99.398394 
3764.000000	99.397468 
3763.000000	99.395292 
3762.000000	99.393370 
3761.000000	99.393862 
3760.000000	99.397531 
3759.000000	99.402973 
3758.000000	99.408674 
3757.000000	99.414353 
3756.000000	99.419715 
3755.000000	99.423818 
3754.000000	99.425771 
3753.000000	99.425712 
3752.000000	99.424311 
3751.000000	99.420859 
3750.000000	99.415354 
3749.000000	99.410943 
3748.000000	99.409899 
3747.000000	99.411139 
3746.000000	99.412486 
3745.000000	99.412541 
3744.000000	99.411020 
3743.000000	99.410097 
3742.000000	99.411614 
3741.000000	99.413981 
3740.000000	99.414261 
3739.000000	99.410196 
3738.000000	99.403111 
3737.000000	99.398550 
3736.000000	99.400555 
3735.000000	99.406155 
3734.000000	99.408801 
3733.000000	99.406316 
3732.000000	99.401615 
3731.000000	99.398018 
3730.000000	99.396261 
3729.000000	99.395552 
3728.000000	99.396326 
3727.000000	99.399906 
3726.000000	99.405537 
3725.000000	99.410260 
3724.000000	99.412062 
3723.000000	99.411919 
3722.000000	99.411856 
3721.000000	99.412851 
3720.000000	99.413888 
3719.000000	99.412288 
3718.000000	99.406021 
3717.000000	99.395356 
3716.000000	99.382630 
3715.000000	99.370453 
3714.000000	99.360725 
3713.000000	99.355526 
3712.000000	99.355849 
3711.000000	99.359833 
3710.000000	99.364253 
3709.000000	99.367024 
3708.000000	99.367585 
3707.000000	99.366079 
3706.000000	99.363167 
3705.000000	99.359876 
3704.000000	99.357185 
3703.000000	99.354746 
3702.000000	99.349963 
3701.000000	99.340258 
3700.000000	99.326642 
3699.000000	99.312956 
3698.000000	99.302392 
3697.000000	99.295637 
3696.000000	99.291197 
3695.000000	99.287476 
3694.000000	99.285056 
3693.000000	99.286580 
3692.000000	99.293488 
3691.000000	99.302968 
3690.000000	99.308022 
3689.000000	99.303493 
3688.000000	99.292288 
3687.000000	99.281465 
3686.000000	99.274410 
3685.000000	99.270824 
3684.000000	99.269666 
3683.000000	99.269973 
3682.000000	99.270759 
3681.000000	99.270215 
3680.000000	99.265610 
3679.000000	99.254939 
3678.000000	99.239966 
3677.000000	99.228085 
3676.000000	99.225617 
3675.000000	99.227743 
3674.000000	99.226694 
3673.000000	99.221635 
3672.000000	99.215398 
3671.000000	99.212764 
3670.000000	99.215512 
3669.000000	99.220211 
3668.000000	99.225035 
3667.000000	99.230939 
3666.000000	99.237409 
3665.000000	99.242103 
3664.000000	99.242758 
3663.000000	99.238567 
3662.000000	99.230077 
3661.000000	99.217900 
3660.000000	99.202607 
3659.000000	99.186317 
3658.000000	99.173400 
3657.000000	99.167579 
3656.000000	99.167500 
3655.000000	99.168209 
3654.000000	99.166381 
3653.000000	99.162025 
3652.000000	99.156889 
3651.000000	99.152869 
3650.000000	99.150305 
3649.000000	99.148617 
3648.000000	99.148567 
3647.000000	99.150317 
3646.000000	99.151930 
3645.000000	99.152061 
3644.000000	99.151835 
3643.000000	99.153349 
3642.000000	99.157835 
3641.000000	99.164199 
3640.000000	99.169594 
3639.000000	99.170976 
3638.000000	99.166788 
3637.000000	99.158471 
3636.000000	99.149876 
3635.000000	99.144293 
3634.000000	99.141098 
3633.000000	99.136215 
3632.000000	99.126504 
3631.000000	99.113624 
3630.000000	99.103905 
3629.000000	99.100345 
3628.000000	99.098476 
3627.000000	99.096036 
3626.000000	99.094933 
3625.000000	99.096332 
3624.000000	99.099813 
3623.000000	99.104723 
3622.000000	99.111642 
3621.000000	99.122388 
3620.000000	99.135864 
3619.000000	99.145045 
3618.000000	99.143701 
3617.000000	99.134623 
3616.000000	99.126255 
3615.000000	99.124676 
3614.000000	99.128477 
3613.000000	99.130445 
3612.000000	99.125936 
3611.000000	99.118408 
3610.000000	99.115305 
3609.000000	99.120640 
3608.000000	99.131172 
3607.000000	99.140796 
3606.000000	99.147695 
3605.000000	99.153954 
3604.000000	99.161177 
3603.000000	99.168986 
3602.000000	99.176542 
3601.000000	99.183934 
3600.000000	99.190497 
3599.000000	99.193425 
3598.000000	99.189886 
3597.000000	99.180859 
3596.000000	99.171478 
3595.000000	99.167458 
3594.000000	99.169840 
3593.000000	99.174699 
3592.000000	99.177446 
3591.000000	99.176481 
3590.000000	99.174263 
3589.000000	99.175337 
3588.000000	99.180779 
3587.000000	99.185001 
3586.000000	99.182974 
3585.000000	99.176522 
3584.000000	99.171225 
3583.000000	99.170447 
3582.000000	99.173278 
3581.000000	99.175917 
3580.000000	99.175043 
3579.000000	99.170390 
3578.000000	99.164149 
3577.000000	99.159100 
3576.000000	99.157024 
3575.000000	99.158330 
3574.000000	99.161861 
3573.000000	99.165168 
3572.000000	99.165980 
3571.000000	99.163902 
3570.000000	99.160491 
3569.000000	99.158158 
3568.000000	99.158034 
3567.000000	99.158081 
3566.000000	99.155766 
3565.000000	99.152122 
3564.000000	99.150354 
3563.000000	99.152621 
3562.000000	99.158584 
3561.000000	99.165235 
3560.000000	99.168740 
3559.000000	99.167335 
3558.000000	99.162675 
3557.000000	99.158037 
3556.000000	99.155647 
3555.000000	99.155485 
3554.000000	99.155847 
3553.000000	99.154178 
3552.000000	99.148559 
3551.000000	99.139648 
3550.000000	99.130620 
3549.000000	99.124719 
3548.000000	99.123271 
3547.000000	99.125114 
3546.000000	99.127564 
3545.000000	99.127968 
3544.000000	99.125458 
3543.000000	99.121747 
3542.000000	99.120168 
3541.000000	99.122887 
3540.000000	99.128917 
3539.000000	99.134679 
3538.000000	99.136880 
3537.000000	99.134713 
3536.000000	99.129616 
3535.000000	99.123816 
3534.000000	99.119035 
3533.000000	99.116402 
3532.000000	99.116514 
3531.000000	99.119382 
3530.000000	99.123846 
3529.000000	99.127432 
3528.000000	99.127694 
3527.000000	99.124508 
3526.000000	99.120523 
3525.000000	99.118545 
3524.000000	99.118524 
3523.000000	99.117736 
3522.000000	99.114277 
3521.000000	99.109300 
3520.000000	99.105623 
3519.000000	99.104939 
3518.000000	99.106896 
3517.000000	99.110023 
3516.000000	99.112559 
3515.000000	99.112911 
3514.000000	99.110207 
3513.000000	99.105108 
3512.000000	99.099659 
3511.000000	99.095946 
3510.000000	99.094527 
3509.000000	99.094436 
3508.000000	99.094660 
3507.000000	99.095278 
3506.000000	99.096940 
3505.000000	99.099243 
3504.000000	99.100130 
3503.000000	99.097878 
3502.000000	99.093949 
3501.000000	99.092439 
3500.000000	99.095700 
3499.000000	99.101368 
3498.000000	99.104345 
3497.000000	99.101592 
3496.000000	99.094507 
3495.000000	99.086852 
3494.000000	99.081310 
3493.000000	99.078200 
3492.000000	99.076568 
3491.000000	99.075522 
3490.000000	99.074790 
3489.000000	99.074663 
3488.000000	99.075446 
3487.000000	99.076769 
3486.000000	99.077760 
3485.000000	99.078124 
3484.000000	99.078466 
3483.000000	99.079136 
3482.000000	99.079022 
3481.000000	99.076495 
3480.000000	99.071658 
3479.000000	99.066692 
3478.000000	99.063564 
3477.000000	99.062116 
3476.000000	99.061028 
3475.000000	99.060084 
3474.000000	99.060422 
3473.000000	99.062319 
3472.000000	99.064029 
3471.000000	99.063865 
3470.000000	99.062729 
3469.000000	99.063134 
3468.000000	99.065738 
3467.000000	99.068058 
3466.000000	99.067348 
3465.000000	99.063742 
3464.000000	99.059753 
3463.000000	99.057329 
3462.000000	99.056286 
3461.000000	99.055406 
3460.000000	99.053993 
3459.000000	99.052188 
3458.000000	99.050444 
3457.000000	99.048949 
3456.000000	99.047487 
3455.000000	99.045933 
3454.000000	99.044701 
3453.000000	99.044438 
3452.000000	99.044821 
3451.000000	99.044462 
3450.000000	99.042506 
3449.000000	99.039876 
3448.000000	99.037986 
3447.000000	99.036556 
3446.000000	99.033954 
3445.000000	99.029926 
3444.000000	99.026575 
3443.000000	99.025951 
3442.000000	99.027382 
3441.000000	99.028026 
3440.000000	99.026037 
3439.000000	99.022364 
3438.000000	99.019081 
3437.000000	99.016619 
3436.000000	99.013552 
3435.000000	99.009305 
3434.000000	99.005950 
3433.000000	99.006482 
3432.000000	99.011128 
3431.000000	99.016492 
3430.000000	99.018779 
3429.000000	99.017370 
3428.000000	99.014766 
3427.000000	99.013362 
3426.000000	99.013198 
3425.000000	99.012801 
3424.000000	99.011313 
3423.000000	99.009205 
3422.000000	99.007302 
3421.000000	99.005840 
3420.000000	99.004731 
3419.000000	99.004209 
3418.000000	99.004649 
3417.000000	99.005847 
3416.000000	99.006898 
3415.000000	99.006907 
3414.000000	99.005649 
3413.000000	99.003456 
3412.000000	99.000825 
3411.000000	98.998428 
3410.000000	98.997142 
3409.000000	98.997367 
3408.000000	98.998137 
3407.000000	98.997511 
3406.000000	98.994465 
3405.000000	98.990166 
3404.000000	98.986947 
3403.000000	98.986059 
3402.000000	98.986782 
3401.000000	98.987779 
3400.000000	98.988640 
3399.000000	98.989864 
3398.000000	98.991761 
3397.000000	98.993866 
3396.000000	98.995231 
3395.000000	98.994835 
3394.000000	98.991864 
3393.000000	98.986247 
3392.000000	98.979296 
3391.000000	98.973505 
3390.000000	98.971352 
3389.000000	98.973976 
3388.000000	98.980579 
3387.000000	98.988784 
3386.000000	98.995827 
3385.000000	99.000146 
3384.000000	99.002052 
3383.000000	99.002682 
3382.000000	99.002180 
3381.000000	98.999455 
3380.000000	98.993995 
3379.000000	98.987631 
3378.000000	98.983744 
3377.000000	98.984421 
3376.000000	98.988606 
3375.000000	98.993246 
3374.000000	98.996121 
3373.000000	98.997374 
3372.000000	98.998511 
3371.000000	99.000308 
3370.000000	99.001867 
3369.000000	99.001559 
3368.000000	98.998873 
3367.000000	98.995425 
3366.000000	98.994015 
3365.000000	98.996206 
3364.000000	99.000671 
3363.000000	99.004251 
3362.000000	99.004831 
3361.000000	99.002875 
3360.000000	99.000084 
3359.000000	98.997340 
3358.000000	98.994738 
3357.000000	98.993176 
3356.000000	98.994413 
3355.000000	98.998758 
3354.000000	99.003441 
3353.000000	99.004513 
3352.000000	99.000650 
3351.000000	98.994714 
3350.000000	98.991343 
3349.000000	98.993143 
3348.000000	98.999141 
3347.000000	99.006159 
3346.000000	99.011075 
3345.000000	99.012201 
3344.000000	99.009786 
3343.000000	99.005942 
3342.000000	99.003317 
3341.000000	99.002813 
3340.000000	99.002633 
3339.000000	99.000474 
3338.000000	98.996802 
3337.000000	98.994959 
3336.000000	98.997470 
3335.000000	99.003114 
3334.000000	99.008592 
3333.000000	99.012406 
3332.000000	99.015811 
3331.000000	99.019936 
3330.000000	99.023343 
3329.000000	99.023372 
3328.000000	99.019486 
3327.000000	99.014383 
3326.000000	99.011448 
3325.000000	99.011424 
3324.000000	99.011806 
3323.000000	99.009681 
3322.000000	99.005010 
3321.000000	99.000957 
3320.000000	99.001078 
3319.000000	99.006432 
3318.000000	99.015232 
3317.000000	99.024414 
3316.000000	99.031032 
3315.000000	99.033200 
3314.000000	99.031326 
3313.000000	99.028565 
3312.000000	99.028650 
3311.000000	99.032340 
3310.000000	99.036491 
3309.000000	99.037283 
3308.000000	99.033931 
3307.000000	99.028829 
3306.000000	99.024798 
3305.000000	99.023198 
3304.000000	99.024348 
3303.000000	99.028253 
3302.000000	99.034076 
3301.000000	99.039463 
3300.000000	99.041440 
3299.000000	99.038708 
3298.000000	99.033143 
3297.000000	99.028781 
3296.000000	99.028595 
3295.000000	99.031890 
3294.000000	99.035083 
3293.000000	99.035361 
3292.000000	99.033442 
3291.000000	99.032332 
3290.000000	99.033577 
3289.000000	99.035619 
3288.000000	99.036045 
3287.000000	99.034645 
3286.000000	99.033497 
3285.000000	99.034270 
3284.000000	99.036226 
3283.000000	99.037106 
3282.000000	99.035640 
3281.000000	99.032955 
3280.000000	99.031768 
3279.000000	99.034246 
3278.000000	99.040177 
3277.000000	99.046731 
3276.000000	99.050103 
3275.000000	99.048088 
3274.000000	99.041654 
3273.000000	99.034235 
3272.000000	99.029468 
3271.000000	99.029246 
3270.000000	99.033137 
3269.000000	99.038953 
3268.000000	99.043871 
3267.000000	99.045829 
3266.000000	99.044675 
3265.000000	99.042207 
3264.000000	99.040876 
3263.000000	99.042153 
3262.000000	99.045846 
3261.000000	99.050452 
3260.000000	99.054031 
3259.000000	99.055147 
3258.000000	99.053713 
3257.000000	99.051150 
3256.000000	99.049396 
3255.000000	99.049448 
3254.000000	99.050894 
3253.000000	99.052956 
3252.000000	99.055709 
3251.000000	99.060015 
3250.000000	99.066193 
3249.000000	99.072946 
3248.000000	99.077833 
3247.000000	99.078999 
3246.000000	99.076600 
3245.000000	99.072614 
3244.000000	99.069204 
3243.000000	99.067243 
3242.000000	99.066255 
3241.000000	99.065499 
3240.000000	99.065090 
3239.000000	99.066335 
3238.000000	99.071047 
3237.000000	99.079965 
3236.000000	99.091279 
3235.000000	99.100936 
3234.000000	99.105252 
3233.000000	99.103770 
3232.000000	99.099412 
3231.000000	99.095790 
3230.000000	99.094462 
3229.000000	99.094605 
3228.000000	99.094562 
3227.000000	99.093267 
3226.000000	99.090704 
3225.000000	99.087842 
3224.000000	99.086185 
3223.000000	99.086783 
3222.000000	99.089284 
3221.000000	99.092061 
3220.000000	99.093459 
3219.000000	99.092979 
3218.000000	99.091540 
3217.000000	99.090986 
3216.000000	99.093289 
3215.000000	99.099428 
3214.000000	99.108321 
3213.000000	99.116992 
3212.000000	99.122344 
3211.000000	99.123104 
3210.000000	99.120210 
3209.000000	99.115708 
3208.000000	99.111635 
3207.000000	99.109455 
3206.000000	99.109565 
3205.000000	99.110949 
3204.000000	99.111959 
3203.000000	99.111893 
3202.000000	99.111490 
3201.000000	99.111582 
3200.000000	99.111883 
3199.000000	99.111701 
3198.000000	99.111371 
3197.000000	99.112136 
3196.000000	99.114709 
3195.000000	99.118685 
3194.000000	99.123339 
3193.000000	99.128247 
3192.000000	99.132947 
3191.000000	99.136606 
3190.000000	99.138287 
3189.000000	99.137350 
3188.000000	99.133803 
3187.000000	99.128838 
3186.000000	99.124787 
3185.000000	99.123511 
3184.000000	99.124658 
3183.000000	99.126333 
3182.000000	99.127809 
3181.000000	99.130640 
3180.000000	99.136522 
3179.000000	99.144645 
3178.000000	99.151798 
3177.000000	99.154891 
3176.000000	99.153319 
3175.000000	99.149557 
3174.000000	99.147607 
3173.000000	99.149770 
3172.000000	99.154108 
3171.000000	99.155952 
3170.000000	99.152873 
3169.000000	99.147632 
3168.000000	99.145207 
3167.000000	99.147450 
3166.000000	99.151806 
3165.000000	99.154917 
3164.000000	99.156136 
3163.000000	99.157307 
3162.000000	99.160327 
3161.000000	99.165504 
3160.000000	99.171589 
3159.000000	99.176660 
3158.000000	99.179100 
3157.000000	99.178185 
3156.000000	99.174105 
3155.000000	99.167726 
3154.000000	99.160407 
3153.000000	99.153543 
3152.000000	99.147846 
3151.000000	99.143239 
3150.000000	99.139855 
3149.000000	99.138812 
3148.000000	99.141516 
3147.000000	99.148208 
3146.000000	99.157454 
3145.000000	99.166822 
3144.000000	99.173949 
3143.000000	99.177563 
3142.000000	99.178195 
3141.000000	99.177675 
3140.000000	99.177346 
3139.000000	99.176916 
3138.000000	99.175443 
3137.000000	99.173164 
3136.000000	99.171732 
3135.000000	99.172881 
3134.000000	99.177262 
3133.000000	99.184065 
3132.000000	99.191010 
3131.000000	99.195243 
3130.000000	99.195459 
3129.000000	99.193371 
3128.000000	99.192276 
3127.000000	99.193925 
3126.000000	99.197128 
3125.000000	99.199160 
3124.000000	99.197950 
3123.000000	99.193250 
3122.000000	99.186835 
3121.000000	99.181756 
3120.000000	99.180381 
3119.000000	99.182574 
3118.000000	99.186047 
3117.000000	99.188760 
3116.000000	99.190721 
3115.000000	99.193435 
3114.000000	99.197929 
3113.000000	99.203237 
3112.000000	99.206562 
3111.000000	99.205362 
3110.000000	99.200008 
3109.000000	99.194196 
3108.000000	99.191836 
3107.000000	99.193472 
3106.000000	99.196220 
3105.000000	99.197097 
3104.000000	99.195712 
3103.000000	99.193915 
3102.000000	99.193930 
3101.000000	99.197008 
3100.000000	99.202981 
3099.000000	99.210434 
3098.000000	99.217526 
3097.000000	99.222886 
3096.000000	99.225726 
3095.000000	99.225507 
3094.000000	99.222224 
3093.000000	99.216956 
3092.000000	99.211411 
3091.000000	99.206937 
3090.000000	99.204512 
3089.000000	99.205260 
3088.000000	99.209655 
3087.000000	99.216045 
3086.000000	99.221247 
3085.000000	99.223269 
3084.000000	99.222629 
3083.000000	99.220606 
3082.000000	99.217438 
3081.000000	99.213048 
3080.000000	99.208563 
3079.000000	99.205829 
3078.000000	99.205825 
3077.000000	99.208439 
3076.000000	99.213288 
3075.000000	99.219641 
3074.000000	99.225710 
3073.000000	99.229313 
3072.000000	99.229720 
3071.000000	99.228271 
3070.000000	99.226778 
3069.000000	99.225635 
3068.000000	99.223846 
3067.000000	99.220890 
3066.000000	99.218258 
3065.000000	99.218663 
3064.000000	99.223187 
3063.000000	99.229293 
3062.000000	99.232397 
3061.000000	99.229785 
3060.000000	99.222785 
3059.000000	99.215194 
3058.000000	99.210429 
3057.000000	99.210446 
3056.000000	99.215846 
3055.000000	99.225366 
3054.000000	99.235447 
3053.000000	99.241899 
3052.000000	99.242763 
3051.000000	99.239305 
3050.000000	99.234355 
3049.000000	99.230269 
3048.000000	99.228131 
3047.000000	99.227556 
3046.000000	99.226694 
3045.000000	99.223415 
3044.000000	99.217640 
3043.000000	99.212319 
3042.000000	99.211263 
3041.000000	99.215592 
3040.000000	99.222475 
3039.000000	99.227453 
3038.000000	99.227934 
3037.000000	99.224572 
3036.000000	99.219584 
3035.000000	99.214224 
3034.000000	99.208156 
3033.000000	99.200943 
3032.000000	99.193325 
3031.000000	99.186555 
3030.000000	99.181024 
3029.000000	99.176345 
3028.000000	99.172653 
3027.000000	99.170964 
3026.000000	99.171786 
3025.000000	99.173750 
3024.000000	99.174204 
3023.000000	99.171260 
3022.000000	99.165044 
3021.000000	99.156807 
3020.000000	99.147159 
3019.000000	99.135667 
3018.000000	99.122390 
3017.000000	99.109128 
3016.000000	99.098169 
3015.000000	99.089735 
3014.000000	99.081736 
3013.000000	99.072681 
3012.000000	99.064047 
3011.000000	99.058673 
3010.000000	99.057057 
3009.000000	99.056341 
3008.000000	99.053079 
3007.000000	99.046182 
3006.000000	99.036960 
3005.000000	99.027146 
3004.000000	99.017502 
3003.000000	99.007896 
3002.000000	98.998048 
3001.000000	98.988142 
3000.000000	98.979022 
2999.000000	98.971785 
2998.000000	98.967132 
2997.000000	98.964995 
2996.000000	98.964457 
2995.000000	98.963531 
2994.000000	98.959267 
2993.000000	98.949134 
2992.000000	98.933068 
2991.000000	98.913943 
2990.000000	98.895712 
2989.000000	98.881295 
2988.000000	98.872268 
2987.000000	98.869607 
2986.000000	98.873416 
2985.000000	98.881802 
2984.000000	98.890886 
2983.000000	98.896747 
2982.000000	98.897624 
2981.000000	98.894564 
2980.000000	98.890381 
2979.000000	98.887836 
2978.000000	98.887881 
2977.000000	98.888796 
2976.000000	98.887208 
2975.000000	98.880771 
2974.000000	98.870420 
2973.000000	98.859930 
2972.000000	98.853007 
2971.000000	98.850664 
2970.000000	98.851235 
2969.000000	98.852487 
2968.000000	98.853435 
2967.000000	98.854483 
2966.000000	98.856496 
2965.000000	98.859971 
2964.000000	98.864629 
2963.000000	98.869331 
2962.000000	98.872606 
2961.000000	98.873794 
2960.000000	98.873736 
2959.000000	98.873996 
2958.000000	98.875220 
2957.000000	98.876523 
2956.000000	98.876733 
2955.000000	98.876218 
2954.000000	98.877353 
2953.000000	98.882920 
2952.000000	98.893650 
2951.000000	98.907016 
2950.000000	98.918588 
2949.000000	98.925086 
2948.000000	98.926390 
2947.000000	98.924780 
2946.000000	98.922538 
2945.000000	98.920585 
2944.000000	98.918893 
2943.000000	98.917041 
2942.000000	98.913848 
2941.000000	98.907387 
2940.000000	98.896655 
2939.000000	98.883539 
2938.000000	98.872347 
2937.000000	98.866678 
2936.000000	98.866566 
2935.000000	98.868645 
2934.000000	98.868906 
2933.000000	98.865106 
2932.000000	98.857037 
2931.000000	98.845364 
2930.000000	98.831041 
2929.000000	98.815776 
2928.000000	98.801991 
2927.000000	98.791144 
2926.000000	98.782177 
2925.000000	98.772672 
2924.000000	98.762154 
2923.000000	98.753481 
2922.000000	98.750115 
2921.000000	98.752362 
2920.000000	98.757249 
2919.000000	98.761910 
2918.000000	98.766210 
2917.000000	98.771873 
2916.000000	98.780085 
2915.000000	98.790481 
2914.000000	98.801883 
2913.000000	98.813228 
2912.000000	98.823943 
2911.000000	98.833838 
2910.000000	98.842690 
2909.000000	98.849920 
2908.000000	98.854907 
2907.000000	98.857800 
2906.000000	98.859480 
2905.000000	98.860414 
2904.000000	98.860053 
2903.000000	98.858179 
2902.000000	98.856682 
2901.000000	98.859445 
2900.000000	98.868773 
2899.000000	98.883164 
2898.000000	98.897865 
2897.000000	98.908208 
2896.000000	98.912698 
2895.000000	98.913451 
2894.000000	98.914098 
2893.000000	98.917164 
2892.000000	98.923073 
2891.000000	98.930888 
2890.000000	98.939402 
2889.000000	98.947512 
2888.000000	98.954278 
2887.000000	98.959321 
2886.000000	98.963041 
2885.000000	98.966064 
2884.000000	98.968618 
2883.000000	98.970859 
2882.000000	98.973642 
2881.000000	98.978176 
2880.000000	98.984626 
2879.000000	98.991520 
2878.000000	98.997026 
2877.000000	99.000785 
2876.000000	99.004241 
2875.000000	99.009190 
2874.000000	99.016072 
2873.000000	99.023536 
2872.000000	99.029517 
2871.000000	99.032819 
2870.000000	99.033798 
2869.000000	99.033836 
2868.000000	99.034373 
2867.000000	99.036332 
2866.000000	99.039796 
2865.000000	99.043720 
2864.000000	99.046279 
2863.000000	99.046209 
2862.000000	99.043949 
2861.000000	99.041123 
2860.000000	99.038987 
2859.000000	99.037836 
2858.000000	99.037547 
2857.000000	99.037690 
2856.000000	99.036902 
2855.000000	99.033352 
2854.000000	99.026867 
2853.000000	99.020341 
2852.000000	99.018248 
2851.000000	99.023468 
2850.000000	99.035693 
2849.000000	99.052466 
2848.000000	99.071244 
2847.000000	99.090446 
2846.000000	99.109154 
2845.000000	99.126396 
2844.000000	99.141078 
2843.000000	99.152737 
2842.000000	99.162190 
2841.000000	99.171015 
2840.000000	99.180152 
2839.000000	99.189175 
2838.000000	99.197022 
2837.000000	99.203125 
2836.000000	99.207627 
2835.000000	99.210899 
2834.000000	99.213339 
2833.000000	99.215568 
2832.000000	99.218307 
2831.000000	99.221870 
2830.000000	99.225911 
2829.000000	99.229793 
2828.000000	99.233197 
2827.000000	99.236442 
2826.000000	99.240202 
2825.000000	99.244701 
2824.000000	99.249097 
2823.000000	99.251889 
2822.000000	99.252135 
2821.000000	99.250203 
2820.000000	99.247354 
2819.000000	99.244860 
2818.000000	99.243585 
2817.000000	99.243909 
2816.000000	99.245616 
2815.000000	99.247961 
2814.000000	99.250097 
2813.000000	99.251499 
2812.000000	99.252233 
2811.000000	99.253279 
2810.000000	99.256380 
2809.000000	99.262449 
2808.000000	99.269558 
2807.000000	99.273468 
2806.000000	99.271348 
2805.000000	99.264832 
2804.000000	99.258660 
2803.000000	99.256507 
2802.000000	99.258697 
2801.000000	99.263379 
2800.000000	99.268477 
2799.000000	99.272387 
2798.000000	99.274169 
2797.000000	99.273925 
2796.000000	99.272563 
2795.000000	99.270826 
2794.000000	99.268962 
2793.000000	99.267411 
2792.000000	99.266898 
2791.000000	99.267433 
2790.000000	99.267978 
2789.000000	99.267791 
2788.000000	99.267628 
2787.000000	99.268988 
2786.000000	99.272420 
2785.000000	99.276933 
2784.000000	99.280713 
2783.000000	99.282115 
2782.000000	99.280617 
2781.000000	99.277508 
2780.000000	99.275278 
2779.000000	99.275620 
2778.000000	99.278057 
2777.000000	99.280869 
2776.000000	99.282850 
2775.000000	99.283625 
2774.000000	99.282896 
2773.000000	99.280724 
2772.000000	99.278550 
2771.000000	99.278644 
2770.000000	99.281818 
2769.000000	99.286290 
2768.000000	99.289505 
2767.000000	99.290780 
2766.000000	99.291616 
2765.000000	99.293463 
2764.000000	99.295646 
2763.000000	99.295677 
2762.000000	99.291622 
2761.000000	99.284231 
2760.000000	99.276775 
2759.000000	99.272669 
2758.000000	99.273111 
2757.000000	99.276811 
2756.000000	99.281451 
2755.000000	99.285102 
2754.000000	99.286714 
2753.000000	99.286351 
2752.000000	99.285350 
2751.000000	99.285614 
2750.000000	99.288066 
2749.000000	99.291764 
2748.000000	99.294776 
2747.000000	99.295834 
2746.000000	99.295072 
2745.000000	99.293410 
2744.000000	99.291476 
2743.000000	99.289148 
2742.000000	99.286178 
2741.000000	99.283335 
2740.000000	99.282602 
2739.000000	99.285551 
2738.000000	99.291463 
2737.000000	99.297706 
2736.000000	99.302249 
2735.000000	99.305044 
2734.000000	99.306582 
2733.000000	99.306168 
2732.000000	99.302841 
2731.000000	99.297453 
2730.000000	99.292404 
2729.000000	99.289108 
2728.000000	99.286846 
2727.000000	99.284494 
2726.000000	99.282317 
2725.000000	99.281486 
2724.000000	99.282701 
2723.000000	99.286081 
2722.000000	99.291659 
2721.000000	99.298801 
2720.000000	99.305337 
2719.000000	99.308462 
2718.000000	99.307065 
2717.000000	99.302766 
2716.000000	99.298486 
2715.000000	99.296172 
2714.000000	99.295914 
2713.000000	99.296661 
2712.000000	99.297420 
2711.000000	99.297976 
2710.000000	99.298933 
2709.000000	99.301225 
2708.000000	99.305399 
2707.000000	99.310909 
2706.000000	99.315920 
2705.000000	99.318239 
2704.000000	99.317228 
2703.000000	99.314772 
2702.000000	99.313543 
2701.000000	99.313923 
2700.000000	99.313545 
2699.000000	99.310642 
2698.000000	99.307010 
2697.000000	99.306202 
2696.000000	99.308983 
2695.000000	99.312122 
2694.000000	99.312406 
2693.000000	99.310591 
2692.000000	99.310270 
2691.000000	99.313348 
2690.000000	99.317836 
2689.000000	99.320225 
2688.000000	99.319171 
2687.000000	99.316356 
2686.000000	99.314236 
2685.000000	99.313594 
2684.000000	99.313383 
2683.000000	99.312368 
2682.000000	99.310225 
2681.000000	99.307034 
2680.000000	99.302650 
2679.000000	99.297538 
2678.000000	99.293976 
2677.000000	99.295191 
2676.000000	99.302568 
2675.000000	99.313987 
2674.000000	99.325184 
2673.000000	99.332456 
2672.000000	99.334193 
2671.000000	99.330911 
2670.000000	99.324653 
2669.000000	99.317876 
2668.000000	99.311963 
2667.000000	99.306847 
2666.000000	99.302462 
2665.000000	99.299919 
2664.000000	99.300283 
2663.000000	99.302677 
2662.000000	99.305089 
2661.000000	99.307248 
2660.000000	99.311056 
2659.000000	99.317208 
2658.000000	99.322782 
2657.000000	99.323954 
2656.000000	99.320620 
2655.000000	99.316399 
2654.000000	99.313887 
2653.000000	99.311909 
2652.000000	99.308604 
2651.000000	99.305349 
2650.000000	99.305280 
2649.000000	99.308462 
2648.000000	99.311400 
2647.000000	99.312328 
2646.000000	99.314845 
2645.000000	99.324017 
2644.000000	99.339393 
2643.000000	99.353852 
2642.000000	99.359657 
2641.000000	99.354703 
2640.000000	99.343041 
2639.000000	99.330977 
2638.000000	99.323187 
2637.000000	99.320713 
2636.000000	99.320869 
2635.000000	99.319508 
2634.000000	99.314879 
2633.000000	99.309670 
2632.000000	99.308564 
2631.000000	99.313545 
2630.000000	99.321953 
2629.000000	99.329055 
2628.000000	99.332055 
2627.000000	99.331691 
2626.000000	99.330558 
2625.000000	99.330297 
2624.000000	99.330249 
2623.000000	99.328576 
2622.000000	99.324615 
2621.000000	99.320045 
2620.000000	99.317840 
2619.000000	99.320210 
2618.000000	99.327221 
2617.000000	99.336623 
2616.000000	99.344897 
2615.000000	99.349397 
2614.000000	99.350344 
2613.000000	99.350510 
2612.000000	99.352420 
2611.000000	99.355935 
2610.000000	99.358610 
2609.000000	99.357735 
2608.000000	99.351831 
2607.000000	99.341599 
2606.000000	99.330767 
2605.000000	99.325086 
2604.000000	99.328222 
2603.000000	99.338035 
2602.000000	99.348236 
2601.000000	99.354318 
2600.000000	99.356928 
2599.000000	99.359041 
2598.000000	99.361308 
2597.000000	99.361562 
2596.000000	99.358293 
2595.000000	99.353033 
2594.000000	99.348785 
2593.000000	99.346735 
2592.000000	99.345159 
2591.000000	99.341784 
2590.000000	99.336980 
2589.000000	99.333958 
2588.000000	99.335266 
2587.000000	99.339585 
2586.000000	99.343018 
2585.000000	99.343587 
2584.000000	99.343449 
2583.000000	99.346326 
2582.000000	99.353600 
2581.000000	99.363113 
2580.000000	99.370456 
2579.000000	99.370807 
2578.000000	99.361314 
2577.000000	99.343958 
2576.000000	99.325910 
2575.000000	99.315073 
2574.000000	99.314278 
2573.000000	99.320113 
2572.000000	99.327130 
2571.000000	99.332292 
2570.000000	99.335888 
2569.000000	99.340158 
2568.000000	99.347632 
2567.000000	99.358787 
2566.000000	99.369619 
2565.000000	99.372793 
2564.000000	99.363768 
2563.000000	99.346362 
2562.000000	99.330916 
2561.000000	99.325907 
2560.000000	99.331260 
2559.000000	99.339475 
2558.000000	99.342606 
2557.000000	99.338643 
2556.000000	99.332713 
2555.000000	99.332700 
2554.000000	99.342504 
2553.000000	99.358222 
2552.000000	99.370948 
2551.000000	99.374036 
2550.000000	99.367970 
2549.000000	99.358535 
2548.000000	99.350987 
2547.000000	99.346202 
2546.000000	99.341679 
2545.000000	99.335414 
2544.000000	99.328810 
2543.000000	99.325907 
2542.000000	99.329442 
2541.000000	99.337750 
2540.000000	99.346251 
2539.000000	99.351774 
2538.000000	99.354114 
2537.000000	99.353551 
2536.000000	99.349646 
2535.000000	99.344030 
2534.000000	99.341579 
2533.000000	99.345099 
2532.000000	99.349831 
2531.000000	99.347521 
2530.000000	99.336918 
2529.000000	99.326574 
2528.000000	99.325073 
2527.000000	99.331260 
2526.000000	99.337146 
2525.000000	99.338579 
2524.000000	99.339384 
2523.000000	99.345182 
2522.000000	99.356341 
2521.000000	99.367901 
2520.000000	99.373946 
2519.000000	99.370886 
2518.000000	99.358838 
2517.000000	99.342312 
2516.000000	99.328555 
2515.000000	99.322417 
2514.000000	99.322189 
2513.000000	99.322050 
2512.000000	99.319410 
2511.000000	99.318487 
2510.000000	99.325353 
2509.000000	99.340313 
2508.000000	99.356969 
2507.000000	99.368518 
2506.000000	99.372993 
2505.000000	99.372089 
2504.000000	99.367544 
2503.000000	99.360684 
2502.000000	99.353712 
2501.000000	99.348363 
2500.000000	99.343510 
2499.000000	99.336944 
2498.000000	99.330076 
2497.000000	99.328205 
2496.000000	99.334332 
2495.000000	99.344567 
2494.000000	99.351717 
2493.000000	99.352754 
2492.000000	99.351097 
2491.000000	99.352021 
2490.000000	99.357416 
2489.000000	99.365032 
2488.000000	99.371324 
2487.000000	99.374096 
2486.000000	99.372879 
2485.000000	99.367889 
2484.000000	99.359801 
2483.000000	99.350869 
2482.000000	99.344967 
2481.000000	99.344634 
2480.000000	99.348202 
2479.000000	99.351693 
2478.000000	99.353757 
2477.000000	99.356667 
2476.000000	99.361791 
2475.000000	99.366620 
2474.000000	99.368010 
2473.000000	99.366260 
2472.000000	99.363626 
2471.000000	99.360399 
2470.000000	99.355380 
2469.000000	99.349413 
2468.000000	99.345216 
2467.000000	99.343532 
2466.000000	99.342431 
2465.000000	99.341341 
2464.000000	99.343245 
2463.000000	99.351038 
2462.000000	99.363027 
2461.000000	99.373538 
2460.000000	99.377496 
2459.000000	99.373641 
2458.000000	99.364235 
2457.000000	99.352956 
2456.000000	99.342940 
2455.000000	99.335815 
2454.000000	99.331871 
2453.000000	99.330651 
2452.000000	99.331091 
2451.000000	99.331640 
2450.000000	99.331279 
2449.000000	99.330681 
2448.000000	99.331889 
2447.000000	99.336675 
2446.000000	99.345172 
2445.000000	99.355284 
2444.000000	99.362827 
2443.000000	99.363317 
2442.000000	99.355469 
2441.000000	99.343148 
2440.000000	99.332548 
2439.000000	99.327059 
2438.000000	99.325557 
2437.000000	99.325432 
2436.000000	99.325851 
2435.000000	99.327844 
2434.000000	99.332667 
2433.000000	99.340940 
2432.000000	99.352434 
2431.000000	99.365563 
2430.000000	99.377120 
2429.000000	99.383242 
2428.000000	99.381407 
2427.000000	99.372183 
2426.000000	99.359155 
2425.000000	99.346477 
2424.000000	99.336283 
2423.000000	99.329351 
2422.000000	99.327993 
2421.000000	99.335429 
2420.000000	99.350222 
2419.000000	99.363731 
2418.000000	99.366964 
2417.000000	99.359945 
2416.000000	99.351373 
2415.000000	99.348707 
2414.000000	99.351453 
2413.000000	99.354387 
2412.000000	99.353746 
2411.000000	99.348573 
2410.000000	99.339351 
2409.000000	99.328478 
2408.000000	99.320514 
2407.000000	99.318914 
2406.000000	99.322713 
2405.000000	99.328114 
2404.000000	99.332719 
2403.000000	99.336685 
2402.000000	99.340515 
2401.000000	99.343695 
2400.000000	99.345386 
2399.000000	99.345052 
2398.000000	99.342548 
2397.000000	99.338671 
2396.000000	99.335154 
2395.000000	99.332802 
2394.000000	99.329975 
2393.000000	99.324441 
2392.000000	99.316796 
2391.000000	99.310662 
2390.000000	99.309194 
2389.000000	99.312404 
2388.000000	99.318124 
2387.000000	99.324391 
2386.000000	99.330188 
2385.000000	99.334678 
2384.000000	99.337142 
2383.000000	99.337934 
2382.000000	99.338717 
2381.000000	99.340682 
2380.000000	99.342375 
2379.000000	99.340469 
2378.000000	99.334115 
2377.000000	99.327435 
2376.000000	99.325682 
2375.000000	99.329348 
2374.000000	99.334561 
2373.000000	99.338707 
2372.000000	99.342457 
2371.000000	99.347022 
2370.000000	99.353095 
2369.000000	99.361761 
2368.000000	99.371434 
2367.000000	99.375547 
2366.000000	99.369635 
2365.000000	99.358887 
2364.000000	99.351643 
2363.000000	99.347223 
2362.000000	99.337047 
2361.000000	99.319573 
2360.000000	99.304436 
2359.000000	99.299364 
2358.000000	99.304392 
2357.000000	99.315866 
2356.000000	99.330904 
2355.000000	99.347305 
2354.000000	99.364722 
2353.000000	99.378406 
2352.000000	99.379382 
2351.000000	99.365841 
2350.000000	99.346491 
2349.000000	99.331319 
2348.000000	99.324776 
2347.000000	99.326378 
2346.000000	99.330228 
2345.000000	99.327962 
2344.000000	99.318777 
2343.000000	99.310408 
2342.000000	99.308338 
2341.000000	99.309835 
2340.000000	99.311469 
2339.000000	99.314689 
2338.000000	99.324154 
2337.000000	99.338599 
2336.000000	99.347094 
2335.000000	99.341361 
2334.000000	99.326253 
2333.000000	99.314139 
2332.000000	99.308728 
2331.000000	99.306693 
2330.000000	99.304265 
2329.000000	99.301968 
2328.000000	99.300422 
2327.000000	99.302660 
2326.000000	99.310111 
2325.000000	99.319481 
2324.000000	99.323533 
2323.000000	99.321590 
2322.000000	99.319342 
2321.000000	99.319796 
2320.000000	99.317259 
2319.000000	99.307971 
2318.000000	99.296053 
2317.000000	99.290017 
2316.000000	99.291602 
2315.000000	99.297808 
2314.000000	99.305476 
2313.000000	99.315716 
2312.000000	99.328483 
2311.000000	99.341873 
2310.000000	99.352133 
2309.000000	99.357151 
2308.000000	99.356610 
2307.000000	99.353105 
2306.000000	99.349796 
2305.000000	99.348834 
2304.000000	99.349868 
2303.000000	99.351818 
2302.000000	99.352886 
2301.000000	99.352084 
2300.000000	99.350133 
2299.000000	99.350770 
2298.000000	99.356294 
2297.000000	99.364879 
2296.000000	99.371264 
2295.000000	99.373587 
2294.000000	99.374741 
2293.000000	99.378545 
2292.000000	99.384394 
2291.000000	99.388947 
2290.000000	99.390052 
2289.000000	99.388069 
2288.000000	99.384321 
2287.000000	99.380225 
2286.000000	99.376977 
2285.000000	99.373802 
2284.000000	99.368256 
2283.000000	99.360100 
2282.000000	99.354747 
2281.000000	99.359236 
2280.000000	99.374564 
2279.000000	99.393663 
2278.000000	99.407869 
2277.000000	99.413293 
2276.000000	99.410676 
2275.000000	99.402313 
2274.000000	99.391193 
2273.000000	99.381207 
2272.000000	99.375176 
2271.000000	99.373366 
2270.000000	99.374912 
2269.000000	99.379805 
2268.000000	99.387923 
2267.000000	99.397531 
2266.000000	99.406144 
2265.000000	99.411940 
2264.000000	99.412982 
2263.000000	99.406857 
2262.000000	99.394192 
2261.000000	99.381752 
2260.000000	99.378306 
2259.000000	99.385748 
2258.000000	99.396398 
2257.000000	99.400498 
2256.000000	99.395458 
2255.000000	99.386904 
2254.000000	99.382658 
2253.000000	99.387282 
2252.000000	99.400136 
2251.000000	99.415540 
2250.000000	99.425404 
2249.000000	99.425693 
2248.000000	99.420833 
2247.000000	99.419574 
2246.000000	99.424450 
2245.000000	99.428699 
2244.000000	99.424785 
2243.000000	99.412987 
2242.000000	99.399011 
2241.000000	99.386676 
2240.000000	99.377586 
2239.000000	99.375819 
2238.000000	99.385992 
2237.000000	99.404979 
2236.000000	99.421434 
2235.000000	99.427554 
2234.000000	99.427899 
2233.000000	99.432452 
2232.000000	99.443166 
2231.000000	99.451623 
2230.000000	99.449042 
2229.000000	99.434716 
2228.000000	99.414512 
2227.000000	99.394617 
2226.000000	99.378201 
2225.000000	99.366080 
2224.000000	99.359061 
2223.000000	99.359675 
2222.000000	99.370397 
2221.000000	99.388726 
2220.000000	99.406324 
2219.000000	99.416831 
2218.000000	99.423586 
2217.000000	99.435178 
2216.000000	99.452610 
2215.000000	99.465323 
2214.000000	99.462234 
2213.000000	99.443737 
2212.000000	99.420306 
2211.000000	99.402209 
2210.000000	99.394139 
2209.000000	99.397096 
2208.000000	99.409434 
2207.000000	99.424949 
2206.000000	99.434500 
2205.000000	99.433714 
2204.000000	99.428793 
2203.000000	99.431584 
2202.000000	99.447173 
2201.000000	99.466973 
2200.000000	99.475911 
2199.000000	99.466974 
2198.000000	99.447195 
2197.000000	99.428736 
2196.000000	99.416252 
2195.000000	99.405506 
2194.000000	99.392744 
2193.000000	99.380904 
2192.000000	99.376182 
2191.000000	99.382977 
2190.000000	99.403889 
2189.000000	99.439288 
2188.000000	99.481955 
2187.000000	99.514919 
2186.000000	99.521198 
2185.000000	99.498439 
2184.000000	99.461751 
2183.000000	99.430340 
2182.000000	99.412695 
2181.000000	99.404365 
2180.000000	99.397023 
2179.000000	99.388180 
2178.000000	99.383314 
2177.000000	99.389883 
2176.000000	99.409066 
2175.000000	99.433679 
2174.000000	99.455000 
2173.000000	99.470908 
2172.000000	99.486020 
2171.000000	99.504527 
2170.000000	99.524897 
2169.000000	99.541211 
2168.000000	99.547476 
2167.000000	99.540506 
2166.000000	99.521790 
2165.000000	99.498777 
2164.000000	99.482306 
2163.000000	99.479888 
2162.000000	99.490876 
2161.000000	99.507405 
2160.000000	99.518744 
2159.000000	99.516306 
2158.000000	99.498635 
2157.000000	99.473196 
2156.000000	99.450654 
2155.000000	99.436510 
2154.000000	99.429522 
2153.000000	99.426299 
2152.000000	99.423937 
2151.000000	99.418665 
2150.000000	99.407223 
2149.000000	99.393140 
2148.000000	99.387939 
2147.000000	99.400353 
2146.000000	99.424700 
2145.000000	99.444591 
2144.000000	99.449510 
2143.000000	99.444092 
2142.000000	99.439647 
2141.000000	99.440518 
2140.000000	99.441335 
2139.000000	99.435086 
2138.000000	99.420352 
2137.000000	99.401319 
2136.000000	99.383656 
2135.000000	99.371356 
2134.000000	99.366320 
2133.000000	99.369263 
2132.000000	99.379639 
2131.000000	99.393988 
2130.000000	99.405629 
2129.000000	99.408913 
2128.000000	99.404993 
2127.000000	99.401203 
2126.000000	99.403088 
2125.000000	99.408803 
2124.000000	99.413026 
2123.000000	99.414083 
2122.000000	99.413792 
2121.000000	99.411698 
2120.000000	99.404277 
2119.000000	99.391068 
2118.000000	99.378098 
2117.000000	99.372975 
2116.000000	99.378270 
2115.000000	99.390999 
2114.000000	99.406231 
2113.000000	99.419130 
2112.000000	99.425805 
2111.000000	99.425630 
2110.000000	99.422509 
2109.000000	99.421270 
2108.000000	99.421973 
2107.000000	99.419039 
2106.000000	99.406681 
2105.000000	99.385040 
2104.000000	99.361432 
2103.000000	99.345929 
2102.000000	99.344583 
2101.000000	99.355187 
2100.000000	99.369683 
2099.000000	99.381620 
2098.000000	99.390855 
2097.000000	99.400701 
2096.000000	99.412077 
2095.000000	99.422215 
2094.000000	99.427962 
2093.000000	99.428047 
2092.000000	99.422608 
2091.000000	99.413048 
2090.000000	99.402752 
2089.000000	99.395404 
2088.000000	99.391028 
2087.000000	99.385504 
2086.000000	99.376181 
2085.000000	99.367595 
2084.000000	99.369301 
2083.000000	99.386470 
2082.000000	99.413152 
2081.000000	99.436285 
2080.000000	99.447373 
2079.000000	99.449490 
2078.000000	99.451836 
2077.000000	99.458402 
2076.000000	99.463458 
2075.000000	99.457979 
2074.000000	99.438793 
2073.000000	99.411719 
2072.000000	99.387821 
2071.000000	99.376679 
2070.000000	99.380878 
2069.000000	99.394704 
2068.000000	99.408787 
2067.000000	99.417380 
2066.000000	99.421312 
2065.000000	99.425178 
2064.000000	99.433179 
2063.000000	99.446014 
2062.000000	99.457901 
2061.000000	99.457139 
2060.000000	99.435962 
2059.000000	99.402571 
2058.000000	99.378128 
2057.000000	99.377115 
2056.000000	99.393726 
2055.000000	99.411941 
2054.000000	99.425180 
2053.000000	99.439745 
2052.000000	99.461595 
2051.000000	99.487669 
2050.000000	99.510838 
2049.000000	99.526950 
2048.000000	99.534747 
2047.000000	99.533357 
2046.000000	99.523178 
2045.000000	99.506241 
2044.000000	99.483385 
2043.000000	99.454951 
2042.000000	99.426916 
2041.000000	99.411556 
2040.000000	99.416795 
2039.000000	99.437671 
2038.000000	99.462111 
2037.000000	99.482420 
2036.000000	99.498032 
2035.000000	99.509140 
2034.000000	99.512328 
2033.000000	99.504127 
2032.000000	99.487015 
2031.000000	99.469713 
2030.000000	99.460507 
2029.000000	99.459359 
2028.000000	99.456962 
2027.000000	99.443649 
2026.000000	99.419442 
2025.000000	99.394636 
2024.000000	99.382127 
2023.000000	99.390916 
2022.000000	99.423461 
2021.000000	99.472134 
2020.000000	99.518201 
2019.000000	99.541419 
2018.000000	99.534372 
2017.000000	99.506476 
2016.000000	99.473162 
2015.000000	99.444014 
2014.000000	99.422088 
2013.000000	99.407307 
2012.000000	99.396258 
2011.000000	99.384663 
2010.000000	99.375787 
2009.000000	99.382595 
2008.000000	99.414871 
2007.000000	99.465120 
2006.000000	99.512113 
2005.000000	99.538627 
2004.000000	99.543535 
2003.000000	99.536897 
2002.000000	99.527094 
2001.000000	99.513355 
2000.000000	99.488384 
1999.000000	99.447840 
1998.000000	99.397843 
1997.000000	99.353674 
1996.000000	99.330260 
1995.000000	99.333242 
1994.000000	99.357672 
1993.000000	99.392139 
1992.000000	99.424440 
1991.000000	99.447209 
1990.000000	99.459848 
1989.000000	99.465236 
1988.000000	99.466634 
1987.000000	99.467998 
1986.000000	99.473412 
1985.000000	99.482219 
1984.000000	99.486216 
1983.000000	99.476549 
1982.000000	99.454336 
1981.000000	99.431028 
1980.000000	99.417379 
1979.000000	99.415499 
1978.000000	99.421976 
1977.000000	99.434161 
1976.000000	99.450583 
1975.000000	99.468637 
1974.000000	99.485302 
1973.000000	99.497953 
1972.000000	99.502417 
1971.000000	99.493583 
1970.000000	99.471587 
1969.000000	99.445599 
1968.000000	99.427248 
1967.000000	99.420160 
1966.000000	99.419267 
1965.000000	99.419190 
1964.000000	99.419135 
1963.000000	99.420739 
1962.000000	99.426271 
1961.000000	99.439269 
1960.000000	99.461952 
1959.000000	99.489390 
1958.000000	99.509226 
1957.000000	99.510117 
1956.000000	99.489747 
1955.000000	99.453777 
1954.000000	99.409880 
1953.000000	99.365271 
1952.000000	99.327655 
1951.000000	99.304409 
1950.000000	99.299183 
1949.000000	99.309432 
1948.000000	99.328788 
1947.000000	99.352389 
1946.000000	99.378137 
1945.000000	99.402734 
1944.000000	99.419545 
1943.000000	99.422896 
1942.000000	99.413762 
1941.000000	99.397700 
1940.000000	99.377994 
1939.000000	99.355414 
1938.000000	99.333657 
1937.000000	99.319857 
1936.000000	99.317823 
1935.000000	99.323637 
1934.000000	99.330043 
1933.000000	99.333508 
1932.000000	99.335932 
1931.000000	99.342030 
1930.000000	99.356711 
1929.000000	99.380513 
1928.000000	99.405649 
1927.000000	99.419878 
1926.000000	99.416071 
1925.000000	99.397070 
1924.000000	99.371070 
1923.000000	99.345991 
1922.000000	99.328286 
1921.000000	99.321107 
1920.000000	99.321277 
1919.000000	99.321487 
1918.000000	99.318419 
1917.000000	99.317691 
1916.000000	99.326465 
1915.000000	99.345101 
1914.000000	99.368680 
1913.000000	99.391639 
1912.000000	99.408679 
1911.000000	99.414481 
1910.000000	99.406855 
1909.000000	99.389807 
1908.000000	99.370509 
1907.000000	99.353145 
1906.000000	99.337984 
1905.000000	99.325225 
1904.000000	99.315849 
1903.000000	99.310330 
1902.000000	99.308987 
1901.000000	99.312619 
1900.000000	99.321940 
1899.000000	99.336093 
1898.000000	99.351495 
1897.000000	99.362756 
1896.000000	99.365253 
1895.000000	99.358908 
1894.000000	99.349254 
1893.000000	99.341868 
1892.000000	99.336059 
1891.000000	99.326725 
1890.000000	99.312689 
1889.000000	99.301083 
1888.000000	99.300164 
1887.000000	99.310865 
1886.000000	99.327775 
1885.000000	99.344174 
1884.000000	99.355289 
1883.000000	99.360005 
1882.000000	99.360850 
1881.000000	99.360878 
1880.000000	99.360233 
1879.000000	99.355763 
1878.000000	99.343829 
1877.000000	99.324239 
1876.000000	99.301982 
1875.000000	99.285370 
1874.000000	99.281573 
1873.000000	99.290909 
1872.000000	99.305215 
1871.000000	99.314626 
1870.000000	99.316799 
1869.000000	99.318709 
1868.000000	99.326390 
1867.000000	99.336104 
1866.000000	99.340153 
1865.000000	99.335139 
1864.000000	99.323722 
1863.000000	99.312371 
1862.000000	99.307568 
1861.000000	99.310860 
1860.000000	99.316235 
1859.000000	99.315685 
1858.000000	99.308714 
1857.000000	99.303363 
1856.000000	99.307357 
1855.000000	99.321242 
1854.000000	99.339999 
1853.000000	99.357411 
1852.000000	99.368341 
1851.000000	99.370313 
1850.000000	99.364252 
1849.000000	99.354050 
1848.000000	99.343383 
1847.000000	99.332837 
1846.000000	99.320994 
1845.000000	99.306647 
1844.000000	99.290450 
1843.000000	99.276738 
1842.000000	99.271912 
1841.000000	99.279737 
1840.000000	99.299747 
1839.000000	99.326430 
1838.000000	99.350838 
1837.000000	99.366664 
1836.000000	99.373132 
1835.000000	99.372240 
1834.000000	99.365881 
1833.000000	99.356418 
1832.000000	99.347261 
1831.000000	99.339500 
1830.000000	99.330211 
1829.000000	99.318671 
1828.000000	99.309313 
1827.000000	99.305452 
1826.000000	99.306582 
1825.000000	99.312335 
1824.000000	99.323575 
1823.000000	99.338105 
1822.000000	99.349626 
1821.000000	99.352483 
1820.000000	99.346357 
1819.000000	99.335383 
1818.000000	99.324241 
1817.000000	99.315923 
1816.000000	99.310354 
1815.000000	99.305495 
1814.000000	99.300770 
1813.000000	99.299167 
1812.000000	99.304995 
1811.000000	99.317968 
1810.000000	99.333798 
1809.000000	99.349231 
1808.000000	99.361628 
1807.000000	99.367550 
1806.000000	99.365751 
1805.000000	99.359654 
1804.000000	99.354069 
1803.000000	99.350044 
1802.000000	99.344680 
1801.000000	99.335752 
1800.000000	99.323996 
1799.000000	99.311210 
1798.000000	99.300666 
1797.000000	99.296156 
1796.000000	99.298964 
1795.000000	99.307572 
1794.000000	99.319516 
1793.000000	99.331778 
1792.000000	99.341565 
1791.000000	99.347707 
1790.000000	99.351533 
1789.000000	99.354776 
1788.000000	99.357545 
1787.000000	99.357685 
1786.000000	99.351913 
1785.000000	99.339237 
1784.000000	99.323252 
1783.000000	99.310647 
1782.000000	99.306258 
1781.000000	99.309348 
1780.000000	99.315317 
1779.000000	99.320102 
1778.000000	99.323972 
1777.000000	99.328661 
1776.000000	99.334733 
1775.000000	99.343242 
1774.000000	99.354726 
1773.000000	99.363551 
1772.000000	99.360054 
1771.000000	99.343555 
1770.000000	99.322624 
1769.000000	99.304675 
1768.000000	99.294398 
1767.000000	99.293382 
1766.000000	99.299066 
1765.000000	99.307458 
1764.000000	99.316536 
1763.000000	99.325732 
1762.000000	99.333602 
1761.000000	99.339032 
1760.000000	99.342827 
1759.000000	99.344864 
1758.000000	99.343465 
1757.000000	99.336279 
1756.000000	99.323920 
1755.000000	99.309896 
1754.000000	99.295480 
1753.000000	99.280257 
1752.000000	99.267480 
1751.000000	99.265256 
1750.000000	99.277649 
1749.000000	99.297816 
1748.000000	99.314685 
1747.000000	99.322881 
1746.000000	99.323414 
1745.000000	99.319560 
1744.000000	99.314778 
1743.000000	99.310966 
1742.000000	99.307711 
1741.000000	99.303331 
1740.000000	99.295408 
1739.000000	99.282516 
1738.000000	99.266968 
1737.000000	99.252573 
1736.000000	99.243620 
1735.000000	99.242583 
1734.000000	99.246527 
1733.000000	99.255120 
1732.000000	99.272525 
1731.000000	99.295279 
1730.000000	99.314818 
1729.000000	99.324694 
1728.000000	99.325012 
1727.000000	99.319950 
1726.000000	99.311407 
1725.000000	99.298866 
1724.000000	99.284363 
1723.000000	99.273055 
1722.000000	99.268641 
1721.000000	99.270207 
1720.000000	99.274793 
1719.000000	99.279871 
1718.000000	99.283032 
1717.000000	99.287292 
1716.000000	99.295796 
1715.000000	99.303610 
1714.000000	99.306185 
1713.000000	99.304633 
1712.000000	99.301232 
1711.000000	99.297120 
1710.000000	99.292513 
1709.000000	99.287233 
1708.000000	99.280773 
1707.000000	99.272866 
1706.000000	99.266107 
1705.000000	99.265474 
1704.000000	99.269846 
1703.000000	99.271521 
1702.000000	99.268546 
1701.000000	99.264982 
1700.000000	99.261702 
1699.000000	99.256809 
1698.000000	99.253144 
1697.000000	99.252583 
1696.000000	99.253947 
1695.000000	99.253187 
1694.000000	99.251864 
1693.000000	99.251684 
1692.000000	99.249765 
1691.000000	99.245463 
1690.000000	99.240971 
1689.000000	99.236764 
1688.000000	99.230152 
1687.000000	99.219734 
1686.000000	99.211964 
1685.000000	99.215580 
1684.000000	99.226073 
1683.000000	99.232129 
1682.000000	99.231786 
1681.000000	99.222811 
1680.000000	99.206861 
1679.000000	99.189646 
1678.000000	99.175948 
1677.000000	99.167068 
1676.000000	99.162514 
1675.000000	99.161123 
1674.000000	99.161398 
1673.000000	99.162905 
1672.000000	99.166700 
1671.000000	99.174826 
1670.000000	99.185714 
1669.000000	99.191303 
1668.000000	99.187609 
1667.000000	99.178147 
1666.000000	99.164596 
1665.000000	99.147270 
1664.000000	99.129128 
1663.000000	99.115062 
1662.000000	99.108301 
1661.000000	99.106688 
1660.000000	99.106493 
1659.000000	99.108071 
1658.000000	99.112339 
1657.000000	99.115313 
1656.000000	99.110702 
1655.000000	99.102734 
1654.000000	99.101047 
1653.000000	99.100413 
1652.000000	99.093716 
1651.000000	99.094430 
1650.000000	99.094670 
1649.000000	99.084271 
1648.000000	99.062584 
1647.000000	99.037754 
1646.000000	99.021623 
1645.000000	99.022236 
1644.000000	99.035524 
1643.000000	99.051804 
1642.000000	99.065677 
1641.000000	99.076551 
1640.000000	99.084846 
1639.000000	99.090459 
1638.000000	99.094557 
1637.000000	99.098353 
1636.000000	99.096108 
1635.000000	99.083979 
1634.000000	99.071973 
1633.000000	99.067567 
1632.000000	99.066830 
1631.000000	99.066513 
1630.000000	99.067936 
1629.000000	99.072979 
1628.000000	99.080677 
1627.000000	99.089726 
1626.000000	99.101108 
1625.000000	99.116553 
1624.000000	99.134643 
1623.000000	99.149246 
1622.000000	99.155369 
1621.000000	99.152693 
1620.000000	99.142325 
1619.000000	99.126535 
1618.000000	99.110840 
1617.000000	99.100267 
1616.000000	99.096302 
1615.000000	99.100300 
1614.000000	99.110349 
1613.000000	99.121782 
1612.000000	99.133212 
1611.000000	99.145820 
1610.000000	99.159622 
1609.000000	99.171542 
1608.000000	99.178242 
1607.000000	99.179456 
1606.000000	99.177118 
1605.000000	99.172437 
1604.000000	99.165945 
1603.000000	99.158480 
1602.000000	99.150949 
1601.000000	99.144137 
1600.000000	99.139843 
1599.000000	99.140884 
1598.000000	99.148323 
1597.000000	99.160405 
1596.000000	99.174734 
1595.000000	99.189899 
1594.000000	99.204375 
1593.000000	99.214968 
1592.000000	99.218824 
1591.000000	99.216374 
1590.000000	99.210808 
1589.000000	99.204583 
1588.000000	99.198391 
1587.000000	99.192730 
1586.000000	99.187845 
1585.000000	99.182499 
1584.000000	99.175844 
1583.000000	99.170811 
1582.000000	99.172347 
1581.000000	99.181229 
1580.000000	99.192480 
1579.000000	99.201192 
1578.000000	99.207057 
1577.000000	99.210612 
1576.000000	99.208621 
1575.000000	99.202959 
1574.000000	99.199550 
1573.000000	99.195392 
1572.000000	99.186674 
1571.000000	99.176146 
1570.000000	99.169528 
1569.000000	99.169406 
1568.000000	99.175494 
1567.000000	99.186687 
1566.000000	99.199818 
1565.000000	99.211636 
1564.000000	99.219770 
1563.000000	99.223404 
1562.000000	99.223386 
1561.000000	99.223117 
1560.000000	99.220991 
1559.000000	99.201343 
1558.000000	99.170909 
1557.000000	99.156364 
1556.000000	99.154704 
1555.000000	99.154598 
1554.000000	99.153804 
1553.000000	99.156329 
1552.000000	99.165664 
1551.000000	99.180632 
1550.000000	99.197474 
1549.000000	99.212636 
1548.000000	99.224299 
1547.000000	99.231398 
1546.000000	99.231246 
1545.000000	99.221525 
1544.000000	99.203398 
1543.000000	99.179924 
1542.000000	99.153901 
1541.000000	99.130092 
1540.000000	99.113292 
1539.000000	99.110300 
1538.000000	99.125275 
1537.000000	99.149819 
1536.000000	99.174293 
1535.000000	99.198345 
1534.000000	99.223535 
1533.000000	99.244049 
1532.000000	99.254318 
1531.000000	99.256063 
1530.000000	99.254034 
1529.000000	99.251101 
1528.000000	99.245486 
1527.000000	99.234042 
1526.000000	99.217262 
1525.000000	99.200360 
1524.000000	99.188115 
1523.000000	99.183684 
1522.000000	99.190457 
1521.000000	99.208435 
1520.000000	99.230788 
1519.000000	99.250871 
1518.000000	99.264906 
1517.000000	99.271503 
1516.000000	99.270987 
1515.000000	99.266010 
1514.000000	99.259259 
1513.000000	99.251673 
1512.000000	99.243327 
1511.000000	99.232028 
1510.000000	99.214899 
1509.000000	99.193274 
1508.000000	99.177238 
1507.000000	99.176574 
1506.000000	99.188277 
1505.000000	99.206512 
1504.000000	99.228416 
1503.000000	99.247230 
1502.000000	99.259551 
1501.000000	99.266734 
1500.000000	99.270820 
1499.000000	99.270298 
1498.000000	99.261251 
1497.000000	99.245960 
1496.000000	99.233606 
1495.000000	99.227154 
1494.000000	99.221108 
1493.000000	99.212013 
1492.000000	99.204170 
1491.000000	99.205050 
1490.000000	99.216336 
1489.000000	99.232442 
1488.000000	99.245574 
1487.000000	99.250922 
1486.000000	99.250816 
1485.000000	99.249553 
1484.000000	99.248733 
1483.000000	99.247322 
1482.000000	99.240956 
1481.000000	99.226512 
1480.000000	99.206241 
1479.000000	99.186029 
1478.000000	99.170754 
1477.000000	99.162641 
1476.000000	99.160792 
1475.000000	99.161584 
1474.000000	99.163539 
1473.000000	99.167134 
1472.000000	99.171652 
1471.000000	99.174021 
1470.000000	99.172829 
1469.000000	99.168203 
1468.000000	99.160672 
1467.000000	99.149953 
1466.000000	99.136199 
1465.000000	99.121638 
1464.000000	99.110673 
1463.000000	99.106423 
1462.000000	99.107461 
1461.000000	99.110388 
1460.000000	99.112287 
1459.000000	99.113591 
1458.000000	99.115974 
1457.000000	99.119557 
1456.000000	99.123949 
1455.000000	99.127787 
1454.000000	99.126285 
1453.000000	99.117312 
1452.000000	99.104451 
1451.000000	99.093013 
1450.000000	99.085785 
1449.000000	99.082830 
1448.000000	99.081824 
1447.000000	99.079462 
1446.000000	99.076732 
1445.000000	99.078668 
1444.000000	99.088355 
1443.000000	99.102444 
1442.000000	99.114147 
1441.000000	99.119343 
1440.000000	99.119003 
1439.000000	99.116153 
1438.000000	99.111205 
1437.000000	99.101412 
1436.000000	99.085992 
1435.000000	99.068420 
1434.000000	99.051608 
1433.000000	99.038358 
1432.000000	99.032838 
1431.000000	99.037525 
1430.000000	99.048822 
1429.000000	99.060881 
1428.000000	99.071265 
1427.000000	99.080153 
1426.000000	99.087973 
1425.000000	99.093613 
1424.000000	99.095726 
1423.000000	99.092240 
1422.000000	99.079861 
1421.000000	99.058157 
1420.000000	99.031930 
1419.000000	99.008856 
1418.000000	98.992652 
1417.000000	98.983197 
1416.000000	98.980463 
1415.000000	98.983312 
1414.000000	98.988262 
1413.000000	98.992126 
1412.000000	98.995610 
1411.000000	99.000124 
1410.000000	99.002435 
1409.000000	98.998919 
1408.000000	98.991034 
1407.000000	98.981775 
1406.000000	98.971508 
1405.000000	98.960265 
1404.000000	98.952476 
1403.000000	98.951532 
1402.000000	98.954468 
1401.000000	98.958963 
1400.000000	98.968760 
1399.000000	98.987907 
1398.000000	99.009920 
1397.000000	99.022009 
1396.000000	99.018414 
1395.000000	99.005844 
1394.000000	98.997320 
1393.000000	99.000041 
1392.000000	99.012148 
1391.000000	99.025383 
1390.000000	99.030614 
1389.000000	99.023639 
1388.000000	99.008323 
1387.000000	98.994151 
1386.000000	98.988136 
1385.000000	98.990543 
1384.000000	98.998590 
1383.000000	99.009526 
1382.000000	99.020897 
1381.000000	99.032330 
1380.000000	99.045000 
1379.000000	99.058315 
1378.000000	99.067839 
1377.000000	99.068161 
1376.000000	99.057935 
1375.000000	99.041724 
1374.000000	99.027106 
1373.000000	99.019003 
1372.000000	99.017995 
1371.000000	99.023546 
1370.000000	99.035617 
1369.000000	99.051818 
1368.000000	99.069275 
1367.000000	99.087916 
1366.000000	99.109267 
1365.000000	99.132063 
1364.000000	99.149616 
1363.000000	99.153877 
1362.000000	99.144137 
1361.000000	99.128110 
1360.000000	99.113653 
1359.000000	99.104257 
1358.000000	99.100858 
1357.000000	99.102880 
1356.000000	99.108194 
1355.000000	99.114679 
1354.000000	99.122610 
1353.000000	99.133873 
1352.000000	99.147552 
1351.000000	99.159157 
1350.000000	99.165967 
1349.000000	99.168089 
1348.000000	99.167297 
1347.000000	99.165322 
1346.000000	99.163798 
1345.000000	99.163184 
1344.000000	99.161731 
1343.000000	99.157106 
1342.000000	99.149887 
1341.000000	99.143825 
1340.000000	99.142436 
1339.000000	99.146459 
1338.000000	99.154855 
1337.000000	99.167027 
1336.000000	99.182186 
1335.000000	99.197604 
1334.000000	99.210101 
1333.000000	99.218474 
1332.000000	99.222558 
1331.000000	99.221177 
1330.000000	99.213133 
1329.000000	99.199539 
1328.000000	99.183936 
1327.000000	99.170174 
1326.000000	99.160982 
1325.000000	99.157437 
1324.000000	99.160556 
1323.000000	99.171349 
1322.000000	99.189133 
1321.000000	99.210329 
1320.000000	99.229384 
1319.000000	99.241240 
1318.000000	99.243971 
1317.000000	99.239299 
1316.000000	99.229897 
1315.000000	99.217064 
1314.000000	99.201775 
1313.000000	99.186836 
1312.000000	99.175713 
1311.000000	99.169550 
1310.000000	99.167676 
1309.000000	99.170917 
1308.000000	99.181529 
1307.000000	99.198824 
1306.000000	99.217645 
1305.000000	99.232282 
1304.000000	99.241353 
1303.000000	99.246685 
1302.000000	99.249293 
1301.000000	99.247873 
1300.000000	99.240441 
1299.000000	99.226237 
1298.000000	99.207244 
1297.000000	99.188914 
1296.000000	99.177908 
1295.000000	99.177729 
1294.000000	99.186551 
1293.000000	99.199757 
1292.000000	99.213177 
1291.000000	99.223667 
1290.000000	99.229598 
1289.000000	99.232586 
1288.000000	99.236178 
1287.000000	99.240419 
1286.000000	99.239553 
1285.000000	99.227958 
1284.000000	99.207110 
1283.000000	99.184271 
1282.000000	99.165633 
1281.000000	99.153187 
1280.000000	99.146822 
1279.000000	99.145829 
1278.000000	99.147939 
1277.000000	99.150360 
1276.000000	99.152721 
1275.000000	99.157188 
1274.000000	99.164801 
1273.000000	99.173274 
1272.000000	99.178672 
1271.000000	99.177675 
1270.000000	99.168303 
1269.000000	99.150706 
1268.000000	99.128094 
1267.000000	99.105061 
1266.000000	99.083895 
1265.000000	99.064379 
1264.000000	99.047689 
1263.000000	99.037953 
1262.000000	99.038409 
1261.000000	99.047642 
1260.000000	99.060895 
1259.000000	99.073780 
1258.000000	99.083256 
1257.000000	99.086922 
1256.000000	99.083282 
1255.000000	99.072504 
1254.000000	99.055775 
1253.000000	99.034363 
1252.000000	99.010182 
1251.000000	98.986906 
1250.000000	98.969091 
1249.000000	98.960082 
1248.000000	98.961291 
1247.000000	98.972509 
1246.000000	98.991128 
1245.000000	99.011402 
1244.000000	99.026234 
1243.000000	99.031233 
1242.000000	99.027323 
1241.000000	99.018749 
1240.000000	99.008229 
1239.000000	98.994609 
1238.000000	98.975616 
1237.000000	98.952056 
1236.000000	98.928125 
1235.000000	98.907831 
1234.000000	98.892571 
1233.000000	98.882559 
1232.000000	98.878851 
1231.000000	98.882141 
1230.000000	98.890158 
1229.000000	98.898019 
1228.000000	98.901286 
1227.000000	98.898071 
1226.000000	98.888718 
1225.000000	98.874215 
1224.000000	98.854622 
1223.000000	98.828761 
1222.000000	98.796251 
1221.000000	98.760330 
1220.000000	98.727626 
1219.000000	98.703906 
1218.000000	98.690025 
1217.000000	98.682473 
1216.000000	98.676956 
1215.000000	98.670568 
1214.000000	98.661968 
1213.000000	98.651229 
1212.000000	98.638849 
1211.000000	98.623348 
1210.000000	98.600626 
1209.000000	98.567094 
1208.000000	98.522930 
1207.000000	98.471707 
1206.000000	98.418506 
1205.000000	98.369455 
1204.000000	98.330548 
1203.000000	98.303540 
1202.000000	98.283748 
1201.000000	98.264971 
1200.000000	98.246132 
1199.000000	98.230214 
1198.000000	98.217325 
1197.000000	98.202562 
1196.000000	98.180876 
1195.000000	98.150471 
1194.000000	98.110955 
1193.000000	98.061804 
1192.000000	98.004537 
1191.000000	97.943935 
1190.000000	97.885274 
1189.000000	97.832115 
1188.000000	97.787850 
1187.000000	97.756442 
1186.000000	97.738940 
1185.000000	97.730465 
1184.000000	97.722314 
1183.000000	97.706473 
1182.000000	97.678415 
1181.000000	97.637989 
1180.000000	97.588829 
1179.000000	97.535354 
1178.000000	97.478834 
1177.000000	97.417202 
1176.000000	97.349432 
1175.000000	97.278846 
1174.000000	97.211492 
1173.000000	97.152541 
1172.000000	97.104822 
1171.000000	97.068623 
1170.000000	97.041303 
1169.000000	97.018546 
1168.000000	96.997181 
1167.000000	96.975778 
1166.000000	96.952644 
1165.000000	96.925953 
1164.000000	96.897340 
1163.000000	96.873289 
1162.000000	96.860631 
1161.000000	96.860604 
1160.000000	96.867842 
1159.000000	96.874584 
1158.000000	96.875631 
1157.000000	96.870163 
1156.000000	96.859652 
1155.000000	96.844738 
1154.000000	96.824922 
1153.000000	96.800828 
1152.000000	96.774419 
1151.000000	96.745632 
1150.000000	96.710790 
1149.000000	96.666459 
1148.000000	96.613389 
1147.000000	96.554358 
1146.000000	96.489828 
1145.000000	96.419404 
1144.000000	96.347439 
1143.000000	96.283630 
1142.000000	96.236458 
1141.000000	96.207273 
1140.000000	96.190314 
1139.000000	96.175972 
1138.000000	96.154764 
1137.000000	96.122038 
1136.000000	96.080242 
1135.000000	96.035040 
1134.000000	95.988777 
1133.000000	95.938617 
1132.000000	95.879848 
1131.000000	95.809160 
1130.000000	95.726779 
1129.000000	95.639081 
1128.000000	95.558210 
1127.000000	95.494730 
1126.000000	95.449629 
1125.000000	95.415959 
1124.000000	95.387253 
1123.000000	95.360301 
1122.000000	95.330711 
1121.000000	95.291733 
1120.000000	95.239405 
1119.000000	95.175388 
1118.000000	95.103712 
1117.000000	95.027916 
1116.000000	94.951902 
1115.000000	94.879517 
1114.000000	94.811530 
1113.000000	94.746152 
1112.000000	94.684317 
1111.000000	94.632066 
1110.000000	94.596127 
1109.000000	94.578165 
1108.000000	94.572907 
1107.000000	94.569208 
1106.000000	94.554439 
1105.000000	94.521562 
1104.000000	94.472124 
1103.000000	94.411311 
1102.000000	94.342707 
1101.000000	94.270049 
1100.000000	94.200629 
1099.000000	94.139906 
1098.000000	94.086787 
1097.000000	94.038347 
1096.000000	93.997656 
1095.000000	93.970497 
1094.000000	93.955943 
1093.000000	93.946975 
1092.000000	93.939042 
1091.000000	93.930459 
1090.000000	93.914966 
1089.000000	93.882254 
1088.000000	93.827751 
1087.000000	93.756331 
1086.000000	93.676103 
1085.000000	93.594545 
1084.000000	93.520626 
1083.000000	93.462528 
1082.000000	93.420203 
1081.000000	93.385975 
1080.000000	93.354734 
1079.000000	93.328368 
1078.000000	93.309098 
1077.000000	93.294481 
1076.000000	93.280624 
1075.000000	93.264382 
1074.000000	93.240270 
1073.000000	93.200175 
1072.000000	93.137940 
1071.000000	93.050840 
1070.000000	92.937636 
1069.000000	92.801599 
1068.000000	92.656481 
1067.000000	92.522979 
1066.000000	92.415644 
1065.000000	92.336134 
1064.000000	92.278425 
1063.000000	92.233131 
1062.000000	92.185946 
1061.000000	92.121373 
1060.000000	92.033797 
1059.000000	91.931135 
1058.000000	91.824824 
1057.000000	91.719371 
1056.000000	91.612222 
1055.000000	91.498165 
1054.000000	91.372110 
1053.000000	91.233629 
1052.000000	91.092250 
1051.000000	90.963560 
1050.000000	90.856475 
1049.000000	90.767775 
1048.000000	90.689649 
1047.000000	90.616094 
1046.000000	90.541139 
1045.000000	90.458043 
1044.000000	90.362848 
1043.000000	90.255029 
1042.000000	90.134678 
1041.000000	90.003193 
1040.000000	89.866317 
1039.000000	89.732147 
1038.000000	89.606818 
1037.000000	89.496404 
1036.000000	89.410274 
1035.000000	89.355245 
1034.000000	89.327088 
1033.000000	89.314465 
1032.000000	89.309948 
1031.000000	89.310757 
1030.000000	89.311832 
1029.000000	89.307347 
1028.000000	89.298079 
1027.000000	89.288721 
1026.000000	89.278004 
1025.000000	89.259067 
1024.000000	89.229471 
1023.000000	89.194230 
1022.000000	89.159851 
1021.000000	89.131723 
1020.000000	89.115572 
1019.000000	89.114058 
1018.000000	89.122821 
1017.000000	89.136011 
1016.000000	89.153001 
1015.000000	89.172984 
1014.000000	89.187507 
1013.000000	89.187519 
1012.000000	89.174409 
1011.000000	89.154862 
1010.000000	89.128736 
1009.000000	89.093025 
1008.000000	89.055240 
1007.000000	89.030926 
1006.000000	89.028139 
1005.000000	89.044580 
1004.000000	89.078783 
1003.000000	89.132044 
1002.000000	89.198723 
1001.000000	89.266676 
1000.000000	89.330053 
999.000000	 89.392341 
998.000000	 89.454895 
997.000000	 89.511161 
996.000000	 89.554427 
995.000000	 89.584204 
994.000000	 89.603970 
993.000000	 89.619357 
992.000000	 89.638949 
991.000000	 89.670194 
990.000000	 89.714144 
989.000000	 89.769721 
988.000000	 89.840929 
987.000000	 89.932219 
986.000000	 90.038948 
985.000000	 90.151147 
984.000000	 90.264686 
983.000000	 90.379318 
982.000000	 90.488037 
981.000000	 90.579946 
980.000000	 90.654495 
979.000000	 90.723231 
978.000000	 90.796279 
977.000000	 90.875650 
976.000000	 90.962629 
975.000000	 91.062361 
974.000000	 91.178560 
973.000000	 91.311039 
972.000000	 91.460020 
971.000000	 91.625102 
970.000000	 91.797725 
969.000000	 91.961809 
968.000000	 92.105066 
967.000000	 92.225615 
966.000000	 92.327064 
965.000000	 92.412415 
964.000000	 92.484193 
963.000000	 92.546148 
962.000000	 92.603045 
961.000000	 92.661142 
960.000000	 92.728323 
959.000000	 92.809974 
958.000000	 92.904738 
957.000000	 93.007360 
956.000000	 93.114567 
955.000000	 93.224833 
954.000000	 93.334449 
953.000000	 93.437862 
952.000000	 93.529579 
951.000000	 93.601754 
950.000000	 93.644067 
949.000000	 93.653383 
948.000000	 93.642705 
947.000000	 93.634399 
946.000000	 93.643400 
945.000000	 93.670243 
944.000000	 93.708714 
943.000000	 93.754111 
942.000000	 93.804008 
941.000000	 93.857169 
940.000000	 93.914002 
939.000000	 93.974629 
938.000000	 94.034948 
937.000000	 94.086415 
936.000000	 94.120079 
935.000000	 94.130725 
934.000000	 94.119696 
933.000000	 94.095153 
932.000000	 94.066991 
931.000000	 94.040551 
930.000000	 94.019336 
929.000000	 94.014410 
928.000000	 94.042531 
927.000000	 94.108018 
926.000000	 94.191683 
925.000000	 94.266023 
924.000000	 94.318479 
923.000000	 94.353549 
922.000000	 94.377353 
921.000000	 94.389754 
920.000000	 94.389203 
919.000000	 94.374716 
918.000000	 94.342169 
917.000000	 94.287961 
916.000000	 94.220385 
915.000000	 94.162074 
914.000000	 94.136936 
913.000000	 94.155582 
912.000000	 94.212724 
911.000000	 94.294209 
910.000000	 94.386274 
909.000000	 94.482235 
908.000000	 94.581300 
907.000000	 94.680145 
906.000000	 94.768755 
905.000000	 94.837239 
904.000000	 94.883510 
903.000000	 94.912529 
902.000000	 94.933425 
901.000000	 94.960104 
900.000000	 95.007155 
899.000000	 95.078000 
898.000000	 95.161809 
897.000000	 95.249189 
896.000000	 95.346372 
895.000000	 95.465645 
894.000000	 95.604591 
893.000000	 95.742798 
892.000000	 95.857832 
891.000000	 95.939117 
890.000000	 95.989923 
889.000000	 96.022653 
888.000000	 96.049854 
887.000000	 96.073242 
886.000000	 96.082503 
885.000000	 96.069961 
884.000000	 96.045397 
883.000000	 96.033115 
882.000000	 96.056666 
881.000000	 96.127957 
880.000000	 96.242872 
879.000000	 96.378502 
878.000000	 96.501270 
877.000000	 96.590210 
876.000000	 96.649974 
875.000000	 96.692860 
874.000000	 96.714657 
873.000000	 96.701641 
872.000000	 96.657906 
871.000000	 96.610098 
870.000000	 96.582607 
869.000000	 96.579993 
868.000000	 96.597203 
867.000000	 96.634813 
866.000000	 96.697062 
865.000000	 96.783101 
864.000000	 96.887639 
863.000000	 97.004761 
862.000000	 97.123843 
861.000000	 97.224816 
860.000000	 97.285490 
859.000000	 97.297022 
858.000000	 97.271454 
857.000000	 97.232817 
856.000000	 97.200231 
855.000000	 97.178001 
854.000000	 97.159963 
853.000000	 97.143003 
852.000000	 97.136402 
851.000000	 97.157074 
850.000000	 97.214772 
849.000000	 97.302232 
848.000000	 97.399178 
847.000000	 97.483882 
846.000000	 97.541691 
845.000000	 97.567033 
844.000000	 97.561623 
843.000000	 97.531203 
842.000000	 97.480527 
841.000000	 97.409546 
840.000000	 97.317989 
839.000000	 97.217220 
838.000000	 97.133444 
837.000000	 97.091263 
836.000000	 97.093729 
835.000000	 97.124416 
834.000000	 97.169230 
833.000000	 97.227558 
832.000000	 97.297703 
831.000000	 97.361642 
830.000000	 97.396603 
829.000000	 97.397762 
828.000000	 97.375959 
827.000000	 97.334922 
826.000000	 97.267848 
825.000000	 97.181083 
824.000000	 97.104366 
823.000000	 97.065995 
822.000000	 97.067955 
821.000000	 97.094849 
820.000000	 97.137040 
819.000000	 97.195135 
818.000000	 97.269579 
817.000000	 97.354596 
816.000000	 97.436804 
815.000000	 97.492563 
814.000000	 97.492670 
813.000000	 97.420107 
812.000000	 97.283920 
811.000000	 97.111115 
810.000000	 96.924179 
809.000000	 96.728484 
808.000000	 96.520364 
807.000000	 96.302476 
806.000000	 96.088526 
805.000000	 95.894994 
804.000000	 95.732060 
803.000000	 95.603059 
802.000000	 95.508924 
801.000000	 95.448643 
800.000000	 95.413671 
799.000000	 95.386018 
798.000000	 95.348673 
797.000000	 95.298509 
796.000000	 95.244122 
795.000000	 95.193136 
794.000000	 95.150033 
793.000000	 95.125347 
792.000000	 95.134445 
791.000000	 95.181205 
790.000000	 95.250646 
789.000000	 95.323692 
788.000000	 95.392589 
787.000000	 95.456165 
786.000000	 95.507225 
785.000000	 95.532277 
784.000000	 95.519849 
783.000000	 95.463936 
782.000000	 95.364053 
781.000000	 95.227782 
780.000000	 95.071517 
779.000000	 94.917098 
778.000000	 94.790701 
777.000000	 94.722857 
776.000000	 94.737353 
775.000000	 94.831530 
774.000000	 94.973763 
773.000000	 95.128806 
772.000000	 95.281078 
771.000000	 95.428054 
770.000000	 95.560531 
769.000000	 95.660674 
768.000000	 95.714232 
767.000000	 95.714765 
766.000000	 95.660876 
765.000000	 95.560867 
764.000000	 95.440055 
763.000000	 95.333565 
762.000000	 95.266409 
761.000000	 95.243190 
760.000000	 95.258121 
759.000000	 95.309792 
758.000000	 95.401885 
757.000000	 95.530859 
756.000000	 95.676838 
755.000000	 95.809979 
754.000000	 95.907646 
753.000000	 95.963825 
752.000000	 95.981289 
751.000000	 95.960906 
750.000000	 95.904012 
749.000000	 95.819426 
748.000000	 95.720423 
747.000000	 95.620723 
746.000000	 95.543160 
745.000000	 95.524795 
744.000000	 95.595178 
743.000000	 95.744826 
742.000000	 95.926320 
741.000000	 96.091775 
740.000000	 96.222396 
739.000000	 96.323348 
738.000000	 96.403627 
737.000000	 96.463713 
736.000000	 96.490831 
735.000000	 96.463616 
734.000000	 96.374159 
733.000000	 96.249015 
732.000000	 96.138343 
731.000000	 96.081398 
730.000000	 96.088175 
729.000000	 96.147944 
728.000000	 96.241550 
727.000000	 96.345151 
726.000000	 96.439904 
725.000000	 96.528507 
724.000000	 96.626288 
723.000000	 96.725001 
722.000000	 96.780312 
721.000000	 96.749890 
720.000000	 96.637042 
719.000000	 96.486945 
718.000000	 96.347489 
717.000000	 96.244913 
716.000000	 96.184688 
715.000000	 96.158949 
714.000000	 96.160526 
713.000000	 96.201336 
712.000000	 96.307940 
711.000000	 96.484247 
710.000000	 96.686025 
709.000000	 96.845406 
708.000000	 96.916579 
707.000000	 96.894350 
706.000000	 96.800910 
705.000000	 96.671322 
704.000000	 96.538930 
703.000000	 96.409122 
702.000000	 96.255042 
701.000000	 96.059394 
700.000000	 95.854224 
699.000000	 95.705092 
698.000000	 95.652154 
697.000000	 95.682609 
696.000000	 95.760496 
695.000000	 95.859357 
694.000000	 95.968026 
693.000000	 96.081108 
692.000000	 96.189195 
691.000000	 96.271859 
690.000000	 96.292338 
689.000000	 96.215322 
688.000000	 96.042381 
687.000000	 95.825731 
686.000000	 95.644812 
685.000000	 95.562768 
684.000000	 95.594729 
683.000000	 95.711309 
682.000000	 95.872892 
681.000000	 96.064332 
680.000000	 96.293528 
679.000000	 96.555898 
678.000000	 96.803469 
677.000000	 96.951848 
676.000000	 96.939848 
675.000000	 96.782279 
674.000000	 96.552882 
673.000000	 96.327638 
672.000000	 96.150281 
671.000000	 96.031517 
670.000000	 95.972734 
669.000000	 95.976588 
668.000000	 96.017857 
667.000000	 96.090161 
666.000000	 96.254840 
665.000000	 96.519684 
664.000000	 96.840855 
663.000000	 97.124185 
662.000000	 97.259661 
661.000000	 97.226064 
660.000000	 97.097289 
659.000000	 96.925452 
658.000000	 96.685669 
657.000000	 96.348479 
656.000000	 95.969166 
655.000000	 95.663718 
654.000000	 95.506987 
653.000000	 95.506392 
652.000000	 95.668954 
651.000000	 96.003505 
650.000000	 96.448277 

