4000.000000	99.309578  
3999.000000	99.309646  
3998.000000	99.310095  
3997.000000	99.310575  
3996.000000	99.310739  
3995.000000	99.310526  
3994.000000	99.310191  
3993.000000	99.310087  
3992.000000	99.310307  
3991.000000	99.310563  
3990.000000	99.310484  
3989.000000	99.310042  
3988.000000	99.309647  
3987.000000	99.309773  
3986.000000	99.310486  
3985.000000	99.311331  
3984.000000	99.311686  
3983.000000	99.311240  
3982.000000	99.310177  
3981.000000	99.309020  
3980.000000	99.308231  
3979.000000	99.307946  
3978.000000	99.308091  
3977.000000	99.308623  
3976.000000	99.309577  
3975.000000	99.310856  
3974.000000	99.312036  
3973.000000	99.312486  
3972.000000	99.311787  
3971.000000	99.310031  
3970.000000	99.307776  
3969.000000	99.305755  
3968.000000	99.304515  
3967.000000	99.304188  
3966.000000	99.304572  
3965.000000	99.305367  
3964.000000	99.306281  
3963.000000	99.306947  
3962.000000	99.306949  
3961.000000	99.306103  
3960.000000	99.304689  
3959.000000	99.303319  
3958.000000	99.302445  
3957.000000	99.301957  
3956.000000	99.301352  
3955.000000	99.300226  
3954.000000	99.298612  
3953.000000	99.296915  
3952.000000	99.295596  
3951.000000	99.295020  
3950.000000	99.295360  
3949.000000	99.296503  
3948.000000	99.298000  
3947.000000	99.299247  
3946.000000	99.299907  
3945.000000	99.300111  
3944.000000	99.300187  
3943.000000	99.300118  
3942.000000	99.299528  
3941.000000	99.298212  
3940.000000	99.296345  
3939.000000	99.294172  
3938.000000	99.291822  
3937.000000	99.289498  
3936.000000	99.287806  
3935.000000	99.287566  
3934.000000	99.289265  
3933.000000	99.292587  
3932.000000	99.296347  
3931.000000	99.299033  
3930.000000	99.299695  
3929.000000	99.298507  
3928.000000	99.296655  
3927.000000	99.295527  
3926.000000	99.295809  
3925.000000	99.297042  
3924.000000	99.298020  
3923.000000	99.297891  
3922.000000	99.296632  
3921.000000	99.294775  
3920.000000	99.292979  
3919.000000	99.291896  
3918.000000	99.292108  
3917.000000	99.293761  
3916.000000	99.296291  
3915.000000	99.298728  
3914.000000	99.300436  
3913.000000	99.301430  
3912.000000	99.302074  
3911.000000	99.302700  
3910.000000	99.303416  
3909.000000	99.304058  
3908.000000	99.304351  
3907.000000	99.303856  
3906.000000	99.302000  
3905.000000	99.298263  
3904.000000	99.292621  
3903.000000	99.286331  
3902.000000	99.281726  
3901.000000	99.280592  
3900.000000	99.283021  
3899.000000	99.287364  
3898.000000	99.291474  
3897.000000	99.294190  
3896.000000	99.295405  
3895.000000	99.295512  
3894.000000	99.295001  
3893.000000	99.293992  
3892.000000	99.292039  
3891.000000	99.288678  
3890.000000	99.284457  
3889.000000	99.280514  
3888.000000	99.277626  
3887.000000	99.276078  
3886.000000	99.275651  
3885.000000	99.275795  
3884.000000	99.276341  
3883.000000	99.277639  
3882.000000	99.279908  
3881.000000	99.282589  
3880.000000	99.284619  
3879.000000	99.285527  
3878.000000	99.285875  
3877.000000	99.286415  
3876.000000	99.287533  
3875.000000	99.288800  
3874.000000	99.289065  
3873.000000	99.287545  
3872.000000	99.284735  
3871.000000	99.281778  
3870.000000	99.279320  
3869.000000	99.277650  
3868.000000	99.277266  
3867.000000	99.278456  
3866.000000	99.281014  
3865.000000	99.284238  
3864.000000	99.287046  
3863.000000	99.288938  
3862.000000	99.290266  
3861.000000	99.291470  
3860.000000	99.292527  
3859.000000	99.293019  
3858.000000	99.292453  
3857.000000	99.290640  
3856.000000	99.287917  
3855.000000	99.285570  
3854.000000	99.284798  
3853.000000	99.285463  
3852.000000	99.287215  
3851.000000	99.289751  
3850.000000	99.292015  
3849.000000	99.293235  
3848.000000	99.293445  
3847.000000	99.293241  
3846.000000	99.293176  
3845.000000	99.293308  
3844.000000	99.293409  
3843.000000	99.293533  
3842.000000	99.293968  
3841.000000	99.294735  
3840.000000	99.295331  
3839.000000	99.294979  
3838.000000	99.293393  
3837.000000	99.291232  
3836.000000	99.289596  
3835.000000	99.289230  
3834.000000	99.290343  
3833.000000	99.292820  
3832.000000	99.296230  
3831.000000	99.299730  
3830.000000	99.302365  
3829.000000	99.303514  
3828.000000	99.303124  
3827.000000	99.301674  
3826.000000	99.299843  
3825.000000	99.298074  
3824.000000	99.296549  
3823.000000	99.295598  
3822.000000	99.295540  
3821.000000	99.295981  
3820.000000	99.296394  
3819.000000	99.297034  
3818.000000	99.298280  
3817.000000	99.300129  
3816.000000	99.302051  
3815.000000	99.303299  
3814.000000	99.303665  
3813.000000	99.303589  
3812.000000	99.303665  
3811.000000	99.304175  
3810.000000	99.304900  
3809.000000	99.305373  
3808.000000	99.305179  
3807.000000	99.304006  
3806.000000	99.301804  
3805.000000	99.299026  
3804.000000	99.296599  
3803.000000	99.295766  
3802.000000	99.297124  
3801.000000	99.299637  
3800.000000	99.301789  
3799.000000	99.303018  
3798.000000	99.303392  
3797.000000	99.303124  
3796.000000	99.302429  
3795.000000	99.301697  
3794.000000	99.301395  
3793.000000	99.301720  
3792.000000	99.302455  
3791.000000	99.303141  
3790.000000	99.303378  
3789.000000	99.303118  
3788.000000	99.302667  
3787.000000	99.302391  
3786.000000	99.302476  
3785.000000	99.302909  
3784.000000	99.303656  
3783.000000	99.304755  
3782.000000	99.306235  
3781.000000	99.307924  
3780.000000	99.309175  
3779.000000	99.309159  
3778.000000	99.307802  
3777.000000	99.305793  
3776.000000	99.303692  
3775.000000	99.301570  
3774.000000	99.299300  
3773.000000	99.296977  
3772.000000	99.295082  
3771.000000	99.293959  
3770.000000	99.293120  
3769.000000	99.291771  
3768.000000	99.290156  
3767.000000	99.289358  
3766.000000	99.289975  
3765.000000	99.291394  
3764.000000	99.292347  
3763.000000	99.292138  
3762.000000	99.291172  
3761.000000	99.290356  
3760.000000	99.290006  
3759.000000	99.289592  
3758.000000	99.288730  
3757.000000	99.287683  
3756.000000	99.286684  
3755.000000	99.285582  
3754.000000	99.284352  
3753.000000	99.283664  
3752.000000	99.284193  
3751.000000	99.285031  
3750.000000	99.284728  
3749.000000	99.283805  
3748.000000	99.283734  
3747.000000	99.284940  
3746.000000	99.286661  
3745.000000	99.287024  
3744.000000	99.284427  
3743.000000	99.280142  
3742.000000	99.276390  
3741.000000	99.273216  
3740.000000	99.269441  
3739.000000	99.264481  
3738.000000	99.259863  
3737.000000	99.258525  
3736.000000	99.261543  
3735.000000	99.266310  
3734.000000	99.269490  
3733.000000	99.270958  
3732.000000	99.272567  
3731.000000	99.274763  
3730.000000	99.275980  
3729.000000	99.274758  
3728.000000	99.271750  
3727.000000	99.268919  
3726.000000	99.266919  
3725.000000	99.264515  
3724.000000	99.260747  
3723.000000	99.256664  
3722.000000	99.254254  
3721.000000	99.254616  
3720.000000	99.256723  
3719.000000	99.257978  
3718.000000	99.256474  
3717.000000	99.252225  
3716.000000	99.246434  
3715.000000	99.240250  
3714.000000	99.234481  
3713.000000	99.230033  
3712.000000	99.227317  
3711.000000	99.225723  
3710.000000	99.224187  
3709.000000	99.221545  
3708.000000	99.216895  
3707.000000	99.210161  
3706.000000	99.202438  
3705.000000	99.195637  
3704.000000	99.191205  
3703.000000	99.188882  
3702.000000	99.186487  
3701.000000	99.182068  
3700.000000	99.175969  
3699.000000	99.169924  
3698.000000	99.164973  
3697.000000	99.160782  
3696.000000	99.156279  
3695.000000	99.150704  
3694.000000	99.144202  
3693.000000	99.137472  
3692.000000	99.131036  
3691.000000	99.125035  
3690.000000	99.119464  
3689.000000	99.114549  
3688.000000	99.110861  
3687.000000	99.108570  
3686.000000	99.107193  
3685.000000	99.106497  
3684.000000	99.106582  
3683.000000	99.107178  
3682.000000	99.107234  
3681.000000	99.105207  
3680.000000	99.099713  
3679.000000	99.090136  
3678.000000	99.077560  
3677.000000	99.065852  
3676.000000	99.059305  
3675.000000	99.057788  
3674.000000	99.057373  
3673.000000	99.054980  
3672.000000	99.050326  
3671.000000	99.045898  
3670.000000	99.043872  
3669.000000	99.043784  
3668.000000	99.044575  
3667.000000	99.046114  
3666.000000	99.048323  
3665.000000	99.050368  
3664.000000	99.050726  
3663.000000	99.048181  
3662.000000	99.042757  
3661.000000	99.035442  
3660.000000	99.027378  
3659.000000	99.019546  
3658.000000	99.012997  
3657.000000	99.008356  
3656.000000	99.004883  
3655.000000	99.001289  
3654.000000	98.997130  
3653.000000	98.993035  
3652.000000	98.990113  
3651.000000	98.989223  
3650.000000	98.990041  
3649.000000	98.991743  
3648.000000	98.994471  
3647.000000	98.998082  
3646.000000	99.001282  
3645.000000	99.003180  
3644.000000	99.004195  
3643.000000	99.005076  
3642.000000	99.005956  
3641.000000	99.006016  
3640.000000	99.004531  
3639.000000	99.001744  
3638.000000	98.998651  
3637.000000	98.996263  
3636.000000	98.994959  
3635.000000	98.994389  
3634.000000	98.993683  
3633.000000	98.992103  
3632.000000	98.989675  
3631.000000	98.987324  
3630.000000	98.986114  
3629.000000	98.984689  
3628.000000	98.980519  
3627.000000	98.974983  
3626.000000	98.971124  
3625.000000	98.970062  
3624.000000	98.971355  
3623.000000	98.974083  
3622.000000	98.977837  
3621.000000	98.983532  
3620.000000	98.991698  
3619.000000	99.000030  
3618.000000	99.005341  
3617.000000	99.007801  
3616.000000	99.010554  
3615.000000	99.016237  
3614.000000	99.023597  
3613.000000	99.028068  
3612.000000	99.026979  
3611.000000	99.022985  
3610.000000	99.021188  
3609.000000	99.023845  
3608.000000	99.028545  
3607.000000	99.032241  
3606.000000	99.035594  
3605.000000	99.041278  
3604.000000	99.050110  
3603.000000	99.060280  
3602.000000	99.069359  
3601.000000	99.076562  
3600.000000	99.082241  
3599.000000	99.086269  
3598.000000	99.087981  
3597.000000	99.087321  
3596.000000	99.085384  
3595.000000	99.084099  
3594.000000	99.084603  
3593.000000	99.086402  
3592.000000	99.088026  
3591.000000	99.088297  
3590.000000	99.087814  
3589.000000	99.088777  
3588.000000	99.092285  
3587.000000	99.096083  
3586.000000	99.097697  
3585.000000	99.097772  
3584.000000	99.098745  
3583.000000	99.101750  
3582.000000	99.105927  
3581.000000	99.109659  
3580.000000	99.111911  
3579.000000	99.112321  
3578.000000	99.110584  
3577.000000	99.106753  
3576.000000	99.101927  
3575.000000	99.097965  
3574.000000	99.096009  
3573.000000	99.095522  
3572.000000	99.095321  
3571.000000	99.095042  
3570.000000	99.095342  
3569.000000	99.097102  
3568.000000	99.100573  
3567.000000	99.104928  
3566.000000	99.109013  
3565.000000	99.112281  
3564.000000	99.114528  
3563.000000	99.115708  
3562.000000	99.116117  
3561.000000	99.115995  
3560.000000	99.115036  
3559.000000	99.112695  
3558.000000	99.109350  
3557.000000	99.106671  
3556.000000	99.106386  
3555.000000	99.108672  
3554.000000	99.111892  
3553.000000	99.113831  
3552.000000	99.113547  
3551.000000	99.111905  
3550.000000	99.110362  
3549.000000	99.109550  
3548.000000	99.109240  
3547.000000	99.108990  
3546.000000	99.108549  
3545.000000	99.107705  
3544.000000	99.106349  
3543.000000	99.104844  
3542.000000	99.104023  
3541.000000	99.104524  
3540.000000	99.106351  
3539.000000	99.108977  
3538.000000	99.111823  
3537.000000	99.114403  
3536.000000	99.116244  
3535.000000	99.117134  
3534.000000	99.117349  
3533.000000	99.117538  
3532.000000	99.118100  
3531.000000	99.118831  
3530.000000	99.119024  
3529.000000	99.117953  
3528.000000	99.115410  
3527.000000	99.112043  
3526.000000	99.109083  
3525.000000	99.107533  
3524.000000	99.107506  
3523.000000	99.108303  
3522.000000	99.109221  
3521.000000	99.110113  
3520.000000	99.111261  
3519.000000	99.112920  
3518.000000	99.115150  
3517.000000	99.117770  
3516.000000	99.120137  
3515.000000	99.121194  
3514.000000	99.119999  
3513.000000	99.116517  
3512.000000	99.111846  
3511.000000	99.107491  
3510.000000	99.104290  
3509.000000	99.102173  
3508.000000	99.100807  
3507.000000	99.100304  
3506.000000	99.101208  
3505.000000	99.103804  
3504.000000	99.107622  
3503.000000	99.111726  
3502.000000	99.115593  
3501.000000	99.119410  
3500.000000	99.123280  
3499.000000	99.126382  
3498.000000	99.127267  
3497.000000	99.125120  
3496.000000	99.120631  
3495.000000	99.115572  
3494.000000	99.111446  
3493.000000	99.108531  
3492.000000	99.106308  
3491.000000	99.104575  
3490.000000	99.104035  
3489.000000	99.105699  
3488.000000	99.109719  
3487.000000	99.114891  
3486.000000	99.119418  
3485.000000	99.122196  
3484.000000	99.123131  
3483.000000	99.122507  
3482.000000	99.120478  
3481.000000	99.117353  
3480.000000	99.113969  
3479.000000	99.111263  
3478.000000	99.109390  
3477.000000	99.107659  
3476.000000	99.105573  
3475.000000	99.103812  
3474.000000	99.103792  
3473.000000	99.106084  
3472.000000	99.109556  
3471.000000	99.112346  
3470.000000	99.113679  
3469.000000	99.114294  
3468.000000	99.115122  
3467.000000	99.116003  
3466.000000	99.116099  
3465.000000	99.115204  
3464.000000	99.114041  
3463.000000	99.113291  
3462.000000	99.112748  
3461.000000	99.111757  
3460.000000	99.110129  
3459.000000	99.108359  
3458.000000	99.107072  
3457.000000	99.106475  
3456.000000	99.106346  
3455.000000	99.106292  
3454.000000	99.105990  
3453.000000	99.105431  
3452.000000	99.104974  
3451.000000	99.105096  
3450.000000	99.105884  
3449.000000	99.106740  
3448.000000	99.106675  
3447.000000	99.105040  
3446.000000	99.102045  
3445.000000	99.098665  
3444.000000	99.095967  
3443.000000	99.094430  
3442.000000	99.093772  
3441.000000	99.093282  
3440.000000	99.092489  
3439.000000	99.091586  
3438.000000	99.091123  
3437.000000	99.091333  
3436.000000	99.091921  
3435.000000	99.092552  
3434.000000	99.093267  
3433.000000	99.094210  
3432.000000	99.094988  
3431.000000	99.094722  
3430.000000	99.092937  
3429.000000	99.090236  
3428.000000	99.087925  
3427.000000	99.086782  
3426.000000	99.086372  
3425.000000	99.085635  
3424.000000	99.084073  
3423.000000	99.082258  
3422.000000	99.081152  
3421.000000	99.081132  
3420.000000	99.081855  
3419.000000	99.082892  
3418.000000	99.084151  
3417.000000	99.085571  
3416.000000	99.086712  
3415.000000	99.086942  
3414.000000	99.085945  
3413.000000	99.083978  
3412.000000	99.081687  
3411.000000	99.079756  
3410.000000	99.078603  
3409.000000	99.078217  
3408.000000	99.078212  
3407.000000	99.078126  
3406.000000	99.077784  
3405.000000	99.077405  
3404.000000	99.077391  
3403.000000	99.078031  
3402.000000	99.079350  
3401.000000	99.081171  
3400.000000	99.083257  
3399.000000	99.085334  
3398.000000	99.086979  
3397.000000	99.087630  
3396.000000	99.086877  
3395.000000	99.084821  
3394.000000	99.082072  
3393.000000	99.079322  
3392.000000	99.077007  
3391.000000	99.075440  
3390.000000	99.075096  
3389.000000	99.076470  
3388.000000	99.079556  
3387.000000	99.083579  
3386.000000	99.087386  
3385.000000	99.090172  
3384.000000	99.091726  
3383.000000	99.092072  
3382.000000	99.091088  
3381.000000	99.088692  
3380.000000	99.085355  
3379.000000	99.082299  
3378.000000	99.080835  
3377.000000	99.081349  
3376.000000	99.082983  
3375.000000	99.084369  
3374.000000	99.084903  
3373.000000	99.085184  
3372.000000	99.086165  
3371.000000	99.088010  
3370.000000	99.089916  
3369.000000	99.090977  
3368.000000	99.091081  
3367.000000	99.090899  
3366.000000	99.091100  
3365.000000	99.091591  
3364.000000	99.091583  
3363.000000	99.090422  
3362.000000	99.088340  
3361.000000	99.086330  
3360.000000	99.085211  
3359.000000	99.084971  
3358.000000	99.085171  
3357.000000	99.085811  
3356.000000	99.087415  
3355.000000	99.090159  
3354.000000	99.093207  
3353.000000	99.095251  
3352.000000	99.095693  
3351.000000	99.095023  
3350.000000	99.094160  
3349.000000	99.093515  
3348.000000	99.092793  
3347.000000	99.091555  
3346.000000	99.089791  
3345.000000	99.087993  
3344.000000	99.086813  
3343.000000	99.086699  
3342.000000	99.087660  
3341.000000	99.089153  
3340.000000	99.090303  
3339.000000	99.090528  
3338.000000	99.090116  
3337.000000	99.090037  
3336.000000	99.091019  
3335.000000	99.092898  
3334.000000	99.094980  
3333.000000	99.096851  
3332.000000	99.098511  
3331.000000	99.099772  
3330.000000	99.100034  
3329.000000	99.098849  
3328.000000	99.096507  
3327.000000	99.093881  
3326.000000	99.091747  
3325.000000	99.090383  
3324.000000	99.089722  
3323.000000	99.089750  
3322.000000	99.090631  
3321.000000	99.092492  
3320.000000	99.095085  
3319.000000	99.097730  
3318.000000	99.099705  
3317.000000	99.100687  
3316.000000	99.100695  
3315.000000	99.099772  
3314.000000	99.098046  
3313.000000	99.096121  
3312.000000	99.094976  
3311.000000	99.095153  
3310.000000	99.096240  
3309.000000	99.097291  
3308.000000	99.097750  
3307.000000	99.097783  
3306.000000	99.097816  
3305.000000	99.098072  
3304.000000	99.098587  
3303.000000	99.099367  
3302.000000	99.100303  
3301.000000	99.101027  
3300.000000	99.101067  
3299.000000	99.100226  
3298.000000	99.098814  
3297.000000	99.097498  
3296.000000	99.096806  
3295.000000	99.096692  
3294.000000	99.096651  
3293.000000	99.096323  
3292.000000	99.095974  
3291.000000	99.096197  
3290.000000	99.097223  
3289.000000	99.098681  
3288.000000	99.100010  
3287.000000	99.100942  
3286.000000	99.101466  
3285.000000	99.101527  
3284.000000	99.100964  
3283.000000	99.099763  
3282.000000	99.098253  
3281.000000	99.096989  
3280.000000	99.096403  
3279.000000	99.096571  
3278.000000	99.097205  
3277.000000	99.097814  
3276.000000	99.097983  
3275.000000	99.097583  
3274.000000	99.096852  
3273.000000	99.096327  
3272.000000	99.096528  
3271.000000	99.097544  
3270.000000	99.098887  
3269.000000	99.099895  
3268.000000	99.100321  
3267.000000	99.100409  
3266.000000	99.100368  
3265.000000	99.099974  
3264.000000	99.098891  
3263.000000	99.097265  
3262.000000	99.095815  
3261.000000	99.095237  
3260.000000	99.095627  
3259.000000	99.096488  
3258.000000	99.097267  
3257.000000	99.097880  
3256.000000	99.098664  
3255.000000	99.099783  
3254.000000	99.100808  
3253.000000	99.101110  
3252.000000	99.100670  
3251.000000	99.100249  
3250.000000	99.100568  
3249.000000	99.101484  
3248.000000	99.102156  
3247.000000	99.101938  
3246.000000	99.100939  
3245.000000	99.099832  
3244.000000	99.099283  
3243.000000	99.099497  
3242.000000	99.100139  
3241.000000	99.100756  
3240.000000	99.101454  
3239.000000	99.103001  
3238.000000	99.106013  
3237.000000	99.110085  
3236.000000	99.113961  
3235.000000	99.116570  
3234.000000	99.117541  
3233.000000	99.116856  
3232.000000	99.114637  
3231.000000	99.111486  
3230.000000	99.108599  
3229.000000	99.107028  
3228.000000	99.106863  
3227.000000	99.107348  
3226.000000	99.107715  
3225.000000	99.107796  
3224.000000	99.107894  
3223.000000	99.108310  
3222.000000	99.109085  
3221.000000	99.110035  
3220.000000	99.110886  
3219.000000	99.111402  
3218.000000	99.111506  
3217.000000	99.111357  
3216.000000	99.111273  
3215.000000	99.111491  
3214.000000	99.111945  
3213.000000	99.112290  
3212.000000	99.112194  
3211.000000	99.111591  
3210.000000	99.110721  
3209.000000	99.110023  
3208.000000	99.109942  
3207.000000	99.110688  
3206.000000	99.112043  
3205.000000	99.113401  
3204.000000	99.114199  
3203.000000	99.114358  
3202.000000	99.114231  
3201.000000	99.114219  
3200.000000	99.114450  
3199.000000	99.114810  
3198.000000	99.115144  
3197.000000	99.115384  
3196.000000	99.115547  
3195.000000	99.115694  
3194.000000	99.115872  
3193.000000	99.116084  
3192.000000	99.116309  
3191.000000	99.116539  
3190.000000	99.116781  
3189.000000	99.117049  
3188.000000	99.117361  
3187.000000	99.117717  
3186.000000	99.118082  
3185.000000	99.118427  
3184.000000	99.118741  
3183.000000	99.118993  
3182.000000	99.119118  
3181.000000	99.119095  
3180.000000	99.119038  
3179.000000	99.119159  
3178.000000	99.119581  
3177.000000	99.120205  
3176.000000	99.120770  
3175.000000	99.121153  
3174.000000	99.121517  
3173.000000	99.122127  
3172.000000	99.122984  
3171.000000	99.123715  
3170.000000	99.123935  
3169.000000	99.123661  
3168.000000	99.123344  
3167.000000	99.123428  
3166.000000	99.123912  
3165.000000	99.124377  
3164.000000	99.124401  
3163.000000	99.123973  
3162.000000	99.123525  
3161.000000	99.123559  
3160.000000	99.124241  
3159.000000	99.125346  
3158.000000	99.126486  
3157.000000	99.127334  
3156.000000	99.127757  
3155.000000	99.127871  
3154.000000	99.127946  
3153.000000	99.128023  
3152.000000	99.127635  
3151.000000	99.126201  
3150.000000	99.123830  
3149.000000	99.121563  
3148.000000	99.120482  
3147.000000	99.120776  
3146.000000	99.121875  
3145.000000	99.123296  
3144.000000	99.125049  
3143.000000	99.127174  
3142.000000	99.129310  
3141.000000	99.130959  
3140.000000	99.131923  
3139.000000	99.132328  
3138.000000	99.132355  
3137.000000	99.132105  
3136.000000	99.131699  
3135.000000	99.131367  
3134.000000	99.131309  
3133.000000	99.131418  
3132.000000	99.131172  
3131.000000	99.130031  
3130.000000	99.128142  
3129.000000	99.126567  
3128.000000	99.126462  
3127.000000	99.128061  
3126.000000	99.130570  
3125.000000	99.132970  
3124.000000	99.134770  
3123.000000	99.135920  
3122.000000	99.136429  
3121.000000	99.136386  
3120.000000	99.136117  
3119.000000	99.135935  
3118.000000	99.135770  
3117.000000	99.135321  
3116.000000	99.134536  
3115.000000	99.133704  
3114.000000	99.133097  
3113.000000	99.132758  
3112.000000	99.132684  
3111.000000	99.133021  
3110.000000	99.133908  
3109.000000	99.135215  
3108.000000	99.136558  
3107.000000	99.137647  
3106.000000	99.138465  
3105.000000	99.139045  
3104.000000	99.139233  
3103.000000	99.138824  
3102.000000	99.137962  
3101.000000	99.137252  
3100.000000	99.137295  
3099.000000	99.138124  
3098.000000	99.139250  
3097.000000	99.140246  
3096.000000	99.141100  
3095.000000	99.141936  
3094.000000	99.142633  
3093.000000	99.142906  
3092.000000	99.142738  
3091.000000	99.142562  
3090.000000	99.142907  
3089.000000	99.143875  
3088.000000	99.145012  
3087.000000	99.145665  
3086.000000	99.145501  
3085.000000	99.144745  
3084.000000	99.143864  
3083.000000	99.142936  
3082.000000	99.141493  
3081.000000	99.139174  
3080.000000	99.136492  
3079.000000	99.134798  
3078.000000	99.135417  
3077.000000	99.138757  
3076.000000	99.143947  
3075.000000	99.149184  
3074.000000	99.152819  
3073.000000	99.154426  
3072.000000	99.154737  
3071.000000	99.154360  
3070.000000	99.152845  
3069.000000	99.149488  
3068.000000	99.144868  
3067.000000	99.140868  
3066.000000	99.139042  
3065.000000	99.139475  
3064.000000	99.141227  
3063.000000	99.143171  
3062.000000	99.144191  
3061.000000	99.143355  
3060.000000	99.140658  
3059.000000	99.137410  
3058.000000	99.135500  
3057.000000	99.136307  
3056.000000	99.140157  
3055.000000	99.146120  
3054.000000	99.151932  
3053.000000	99.154770  
3052.000000	99.152885  
3051.000000	99.146622  
3050.000000	99.137991  
3049.000000	99.129570  
3048.000000	99.123587  
3047.000000	99.120928  
3046.000000	99.120264  
3045.000000	99.118892  
3044.000000	99.115564  
3043.000000	99.112190  
3042.000000	99.111809  
3041.000000	99.114943  
3040.000000	99.118884  
3039.000000	99.120463  
3038.000000	99.118324  
3037.000000	99.112398  
3036.000000	99.102752  
3035.000000	99.090184  
3034.000000	99.077208  
3033.000000	99.066840  
3032.000000	99.059976  
3031.000000	99.054637  
3030.000000	99.048133  
3029.000000	99.039739  
3028.000000	99.031167  
3027.000000	99.024875  
3026.000000	99.021959  
3025.000000	99.021138  
3024.000000	99.019412  
3023.000000	99.013968  
3022.000000	99.003964  
3021.000000	98.990575  
3020.000000	98.975380  
3019.000000	98.959031  
3018.000000	98.941901  
3017.000000	98.925412  
3016.000000	98.911497  
3015.000000	98.900432  
3014.000000	98.890342  
3013.000000	98.879672  
3012.000000	98.869339  
3011.000000	98.861226  
3010.000000	98.854924  
3009.000000	98.847473  
3008.000000	98.836502  
3007.000000	98.822470  
3006.000000	98.807370  
3005.000000	98.792246  
3004.000000	98.776777  
3003.000000	98.760659  
3002.000000	98.744533  
3001.000000	98.729725  
3000.000000	98.717496  
2999.000000	98.708251  
2998.000000	98.701145  
2997.000000	98.694825  
2996.000000	98.688683  
2995.000000	98.682558  
2994.000000	98.674846  
2993.000000	98.662215  
2992.000000	98.642701  
2991.000000	98.618913  
2990.000000	98.597028  
2989.000000	98.582446  
2988.000000	98.576975  
2987.000000	98.579377  
2986.000000	98.586746  
2985.000000	98.595107  
2984.000000	98.600372  
2983.000000	98.600494  
2982.000000	98.596775  
2981.000000	98.592594  
2980.000000	98.590782  
2979.000000	98.592219  
2978.000000	98.596148  
2977.000000	98.600939  
2976.000000	98.604584  
2975.000000	98.605500  
2974.000000	98.603766  
2973.000000	98.601663  
2972.000000	98.602398  
2971.000000	98.607647  
2970.000000	98.616161  
2969.000000	98.624989  
2968.000000	98.632190  
2967.000000	98.638203  
2966.000000	98.644676  
2965.000000	98.652646  
2964.000000	98.662119  
2963.000000	98.672699  
2962.000000	98.683850  
2961.000000	98.694807  
2960.000000	98.704950  
2959.000000	98.714306  
2958.000000	98.723251  
2957.000000	98.731741  
2956.000000	98.739246  
2955.000000	98.745332  
2954.000000	98.749949  
2953.000000	98.753348  
2952.000000	98.756245  
2951.000000	98.759871  
2950.000000	98.765204  
2949.000000	98.771976  
2948.000000	98.778874  
2947.000000	98.784740  
2946.000000	98.789341  
2945.000000	98.793156  
2944.000000	98.796969  
2943.000000	98.801492  
2942.000000	98.806654  
2941.000000	98.811131  
2940.000000	98.813339  
2939.000000	98.813445  
2938.000000	98.813921  
2937.000000	98.817395  
2936.000000	98.824075  
2935.000000	98.831564  
2934.000000	98.837043  
2933.000000	98.839168  
2932.000000	98.838115  
2931.000000	98.834535  
2930.000000	98.829243  
2929.000000	98.823959  
2928.000000	98.821315  
2927.000000	98.822724  
2926.000000	98.826237  
2925.000000	98.827858  
2924.000000	98.825744  
2923.000000	98.822018  
2922.000000	98.819488  
2921.000000	98.817482  
2920.000000	98.812696  
2919.000000	98.803655  
2918.000000	98.792566  
2917.000000	98.782493  
2916.000000	98.774323  
2915.000000	98.767200  
2914.000000	98.760631  
2913.000000	98.755040  
2912.000000	98.751059  
2911.000000	98.749249  
2910.000000	98.749935  
2909.000000	98.752365  
2908.000000	98.754320  
2907.000000	98.753587  
2906.000000	98.749584  
2905.000000	98.742914  
2904.000000	98.733759  
2903.000000	98.722217  
2902.000000	98.710573  
2901.000000	98.704209  
2900.000000	98.707851  
2899.000000	98.721609  
2898.000000	98.739920  
2897.000000	98.755073  
2896.000000	98.762646  
2895.000000	98.763937  
2894.000000	98.763795  
2893.000000	98.766325  
2892.000000	98.772369  
2891.000000	98.780038  
2890.000000	98.786772  
2889.000000	98.790861  
2888.000000	98.791996  
2887.000000	98.791294  
2886.000000	98.790812  
2885.000000	98.792414  
2884.000000	98.796837  
2883.000000	98.803873  
2882.000000	98.813202  
2881.000000	98.824537  
2880.000000	98.836891  
2879.000000	98.848345  
2878.000000	98.857149  
2877.000000	98.863283  
2876.000000	98.868692  
2875.000000	98.875707  
2874.000000	98.885025  
2873.000000	98.895175  
2872.000000	98.903862  
2871.000000	98.909817  
2870.000000	98.913494  
2869.000000	98.916561  
2868.000000	98.920957  
2867.000000	98.927939  
2866.000000	98.937163  
2865.000000	98.946615  
2864.000000	98.954187  
2863.000000	98.959776  
2862.000000	98.965405  
2861.000000	98.973025  
2860.000000	98.982695  
2859.000000	98.993269  
2858.000000	99.004064  
2857.000000	99.014897  
2856.000000	99.024883  
2855.000000	99.032293  
2854.000000	99.035986  
2853.000000	99.036664  
2852.000000	99.036382  
2851.000000	99.036958  
2850.000000	99.039159  
2849.000000	99.043012  
2848.000000	99.048325  
2847.000000	99.054844  
2846.000000	99.062061  
2845.000000	99.068948  
2844.000000	99.074132  
2843.000000	99.076642  
2842.000000	99.076659  
2841.000000	99.075554  
2840.000000	99.075248  
2839.000000	99.077420  
2838.000000	99.082715  
2837.000000	99.089930  
2836.000000	99.096121  
2835.000000	99.098633  
2834.000000	99.097605  
2833.000000	99.096074  
2832.000000	99.096941  
2831.000000	99.100059  
2830.000000	99.102951  
2829.000000	99.104086  
2828.000000	99.104479  
2827.000000	99.106001  
2826.000000	99.109078  
2825.000000	99.112658  
2824.000000	99.115802  
2823.000000	99.118388  
2822.000000	99.120445  
2821.000000	99.121659  
2820.000000	99.121863  
2819.000000	99.121498  
2818.000000	99.121317  
2817.000000	99.121818  
2816.000000	99.123119  
2815.000000	99.125024  
2814.000000	99.127000  
2813.000000	99.128433  
2812.000000	99.129271  
2811.000000	99.130271  
2810.000000	99.132256  
2809.000000	99.135158  
2808.000000	99.138028  
2807.000000	99.139973  
2806.000000	99.140838  
2805.000000	99.140963  
2804.000000	99.140658  
2803.000000	99.140171  
2802.000000	99.139873  
2801.000000	99.140123  
2800.000000	99.140962  
2799.000000	99.142086  
2798.000000	99.143104  
2797.000000	99.143719  
2796.000000	99.143812  
2795.000000	99.143584  
2794.000000	99.143587  
2793.000000	99.144357  
2792.000000	99.145915  
2791.000000	99.147727  
2790.000000	99.149292  
2789.000000	99.150572  
2788.000000	99.151741  
2787.000000	99.152715  
2786.000000	99.153179  
2785.000000	99.153023  
2784.000000	99.152457  
2783.000000	99.151740  
2782.000000	99.151055  
2781.000000	99.150718  
2780.000000	99.151185  
2779.000000	99.152649  
2778.000000	99.154740  
2777.000000	99.156728  
2776.000000	99.158096  
2775.000000	99.158793  
2774.000000	99.159035  
2773.000000	99.159064  
2772.000000	99.159076  
2771.000000	99.159200  
2770.000000	99.159467  
2769.000000	99.159827  
2768.000000	99.160263  
2767.000000	99.160799  
2766.000000	99.161371  
2765.000000	99.161745  
2764.000000	99.161693  
2763.000000	99.161236  
2762.000000	99.160678  
2761.000000	99.160372  
2760.000000	99.160410  
2759.000000	99.160623  
2758.000000	99.160874  
2757.000000	99.161253  
2756.000000	99.161899  
2755.000000	99.162685  
2754.000000	99.163254  
2753.000000	99.163422  
2752.000000	99.163396  
2751.000000	99.163555  
2750.000000	99.164048  
2749.000000	99.164708  
2748.000000	99.165274  
2747.000000	99.165651  
2746.000000	99.165925  
2745.000000	99.166197  
2744.000000	99.166474  
2743.000000	99.166716  
2742.000000	99.166942  
2741.000000	99.167231  
2740.000000	99.167625  
2739.000000	99.168038  
2738.000000	99.168325  
2737.000000	99.168445  
2736.000000	99.168515  
2735.000000	99.168700  
2734.000000	99.169018  
2733.000000	99.169339  
2732.000000	99.169538  
2731.000000	99.169621  
2730.000000	99.169700  
2729.000000	99.169883  
2728.000000	99.170202  
2727.000000	99.170621  
2726.000000	99.171062  
2725.000000	99.171452  
2724.000000	99.171780  
2723.000000	99.172113  
2722.000000	99.172515  
2721.000000	99.172942  
2720.000000	99.173240  
2719.000000	99.173279  
2718.000000	99.173080  
2717.000000	99.172827  
2716.000000	99.172746  
2715.000000	99.172931  
2714.000000	99.173320  
2713.000000	99.173818  
2712.000000	99.174415  
2711.000000	99.175103  
2710.000000	99.175706  
2709.000000	99.176000  
2708.000000	99.175958  
2707.000000	99.175756  
2706.000000	99.175519  
2705.000000	99.175213  
2704.000000	99.174853  
2703.000000	99.174647  
2702.000000	99.174760  
2701.000000	99.175098  
2700.000000	99.175432  
2699.000000	99.175653  
2698.000000	99.175827  
2697.000000	99.176029  
2696.000000	99.176252  
2695.000000	99.176444  
2694.000000	99.176580  
2693.000000	99.176659  
2692.000000	99.176705  
2691.000000	99.176765  
2690.000000	99.176865  
2689.000000	99.176999  
2688.000000	99.177144  
2687.000000	99.177285  
2686.000000	99.177427  
2685.000000	99.177584  
2684.000000	99.177782  
2683.000000	99.178024  
2682.000000	99.178281  
2681.000000	99.178501  
2680.000000	99.178666  
2679.000000	99.178797  
2678.000000	99.178939  
2677.000000	99.179119  
2676.000000	99.179337  
2675.000000	99.179575  
2674.000000	99.179814  
2673.000000	99.180045  
2672.000000	99.180259  
2671.000000	99.180459  
2670.000000	99.180646  
2669.000000	99.180813  
2668.000000	99.180959  
2667.000000	99.181099  
2666.000000	99.181260  
2665.000000	99.181452  
2664.000000	99.181656  
2663.000000	99.181844  
2662.000000	99.182025  
2661.000000	99.182245  
2660.000000	99.182530  
2659.000000	99.182851  
2658.000000	99.183131  
2657.000000	99.183309  
2656.000000	99.183390  
2655.000000	99.183449  
2654.000000	99.183532  
2653.000000	99.183597  
2652.000000	99.183591  
2651.000000	99.183568  
2650.000000	99.183666  
2649.000000	99.183964  
2648.000000	99.184362  
2647.000000	99.184657  
2646.000000	99.184799  
2645.000000	99.184979  
2644.000000	99.185346  
2643.000000	99.185700  
2642.000000	99.185687  
2641.000000	99.185195  
2640.000000	99.184484  
2639.000000	99.183986  
2638.000000	99.183919  
2637.000000	99.184191  
2636.000000	99.184512  
2635.000000	99.184662  
2634.000000	99.184649  
2633.000000	99.184632  
2632.000000	99.184768  
2631.000000	99.185092  
2630.000000	99.185445  
2629.000000	99.185534  
2628.000000	99.185200  
2627.000000	99.184648  
2626.000000	99.184314  
2625.000000	99.184396  
2624.000000	99.184653  
2623.000000	99.184793  
2622.000000	99.184903  
2621.000000	99.185257  
2620.000000	99.185773  
2619.000000	99.185997  
2618.000000	99.185685  
2617.000000	99.185189  
2616.000000	99.185094  
2615.000000	99.185584  
2614.000000	99.186351  
2613.000000	99.187037  
2612.000000	99.187642  
2611.000000	99.188441  
2610.000000	99.189618  
2609.000000	99.190990  
2608.000000	99.192063  
2607.000000	99.192351  
2606.000000	99.191776  
2605.000000	99.190790  
2604.000000	99.190087  
2603.000000	99.190046  
2602.000000	99.190433  
2601.000000	99.190749  
2600.000000	99.190865  
2599.000000	99.191116  
2598.000000	99.191635  
2597.000000	99.191867  
2596.000000	99.191184  
2595.000000	99.189897  
2594.000000	99.189192  
2593.000000	99.189890  
2592.000000	99.191583  
2591.000000	99.193019  
2590.000000	99.193326  
2589.000000	99.192591  
2588.000000	99.191353  
2587.000000	99.189914  
2586.000000	99.188327  
2585.000000	99.186864  
2584.000000	99.186125  
2583.000000	99.186595  
2582.000000	99.188203  
2581.000000	99.190304  
2580.000000	99.192080  
2579.000000	99.192962  
2578.000000	99.192805  
2577.000000	99.191845  
2576.000000	99.190494  
2575.000000	99.188994  
2574.000000	99.187216  
2573.000000	99.184988  
2572.000000	99.182763  
2571.000000	99.181603  
2570.000000	99.182147  
2569.000000	99.183763  
2568.000000	99.185101  
2567.000000	99.185636  
2566.000000	99.186112  
2565.000000	99.187366  
2564.000000	99.189214  
2563.000000	99.190684  
2562.000000	99.191022  
2561.000000	99.190184  
2560.000000	99.188660  
2559.000000	99.187084  
2558.000000	99.185867  
2557.000000	99.185082  
2556.000000	99.184862  
2555.000000	99.185834  
2554.000000	99.188633  
2553.000000	99.192643  
2552.000000	99.195755  
2551.000000	99.196166  
2550.000000	99.194004  
2549.000000	99.190915  
2548.000000	99.188153  
2547.000000	99.185792  
2546.000000	99.183728  
2545.000000	99.182445  
2544.000000	99.182514  
2543.000000	99.183808  
2542.000000	99.185507  
2541.000000	99.186644  
2540.000000	99.186615  
2539.000000	99.185493  
2538.000000	99.183951  
2537.000000	99.182541  
2536.000000	99.181021  
2535.000000	99.178809  
2534.000000	99.176120  
2533.000000	99.174078  
2532.000000	99.173483  
2531.000000	99.174076  
2530.000000	99.175313  
2529.000000	99.177233  
2528.000000	99.179876  
2527.000000	99.182307  
2526.000000	99.183256  
2525.000000	99.182762  
2524.000000	99.182360  
2523.000000	99.183254  
2522.000000	99.184857  
2521.000000	99.185651  
2520.000000	99.185061  
2519.000000	99.183829  
2518.000000	99.182790  
2517.000000	99.182050  
2516.000000	99.181465  
2515.000000	99.181220  
2514.000000	99.181572  
2513.000000	99.182536  
2512.000000	99.184125  
2511.000000	99.186499  
2510.000000	99.189478  
2509.000000	99.192255  
2508.000000	99.194011  
2507.000000	99.194636  
2506.000000	99.194424  
2505.000000	99.193441  
2504.000000	99.191710  
2503.000000	99.189829  
2502.000000	99.188802  
2501.000000	99.189171  
2500.000000	99.190732  
2499.000000	99.193000  
2498.000000	99.195509  
2497.000000	99.197629  
2496.000000	99.198668  
2495.000000	99.198466  
2494.000000	99.197634  
2493.000000	99.196992  
2492.000000	99.196865  
2491.000000	99.197107  
2490.000000	99.197561  
2489.000000	99.198250  
2488.000000	99.199258  
2487.000000	99.200568  
2486.000000	99.201879  
2485.000000	99.202521  
2484.000000	99.201854  
2483.000000	99.199926  
2482.000000	99.197644  
2481.000000	99.196052  
2480.000000	99.195559  
2479.000000	99.195984  
2478.000000	99.196900  
2477.000000	99.197684  
2476.000000	99.197701  
2475.000000	99.196948  
2474.000000	99.196319  
2473.000000	99.196665  
2472.000000	99.197652  
2471.000000	99.198018  
2470.000000	99.196983  
2469.000000	99.194950  
2468.000000	99.192863  
2467.000000	99.191339  
2466.000000	99.190579  
2465.000000	99.190675  
2464.000000	99.191614  
2463.000000	99.193190  
2462.000000	99.195129  
2461.000000	99.197147  
2460.000000	99.198764  
2459.000000	99.199337  
2458.000000	99.198469  
2457.000000	99.196286  
2456.000000	99.193156  
2455.000000	99.189397  
2454.000000	99.185454  
2453.000000	99.182156  
2452.000000	99.180383  
2451.000000	99.180390  
2450.000000	99.181571  
2449.000000	99.182974  
2448.000000	99.184191  
2447.000000	99.185722  
2446.000000	99.188282  
2445.000000	99.191705  
2444.000000	99.194636  
2443.000000	99.195566  
2442.000000	99.194119  
2441.000000	99.191302  
2440.000000	99.188651  
2439.000000	99.187127  
2438.000000	99.186750  
2437.000000	99.186945  
2436.000000	99.187040  
2435.000000	99.186723  
2434.000000	99.186268  
2433.000000	99.186352  
2432.000000	99.187556  
2431.000000	99.189929  
2430.000000	99.192795  
2429.000000	99.194885  
2428.000000	99.195001  
2427.000000	99.192922  
2426.000000	99.189792  
2425.000000	99.187320  
2424.000000	99.186337  
2423.000000	99.186444  
2422.000000	99.186937  
2421.000000	99.187538  
2420.000000	99.188022  
2419.000000	99.187689  
2418.000000	99.185909  
2417.000000	99.183047  
2416.000000	99.180392  
2415.000000	99.178905  
2414.000000	99.178482  
2413.000000	99.178523  
2412.000000	99.178778  
2411.000000	99.179364  
2410.000000	99.180180  
2409.000000	99.180706  
2408.000000	99.180386  
2407.000000	99.179008  
2406.000000	99.176815  
2405.000000	99.174431  
2404.000000	99.172540  
2403.000000	99.171385  
2402.000000	99.170638  
2401.000000	99.169990  
2400.000000	99.169606  
2399.000000	99.169714  
2398.000000	99.170075  
2397.000000	99.170301  
2396.000000	99.170500  
2395.000000	99.171065  
2394.000000	99.171858  
2393.000000	99.172163  
2392.000000	99.171607  
2391.000000	99.170605  
2390.000000	99.169681  
2389.000000	99.168854  
2388.000000	99.168039  
2387.000000	99.167579  
2386.000000	99.167815  
2385.000000	99.168430  
2384.000000	99.168735  
2383.000000	99.168603  
2382.000000	99.168588  
2381.000000	99.169049  
2380.000000	99.169650  
2379.000000	99.169938  
2378.000000	99.170049  
2377.000000	99.170444  
2376.000000	99.171050  
2375.000000	99.171162  
2374.000000	99.170378  
2373.000000	99.169067  
2372.000000	99.167971  
2371.000000	99.167396  
2370.000000	99.167132  
2369.000000	99.166916  
2368.000000	99.166655  
2367.000000	99.166358  
2366.000000	99.166082  
2365.000000	99.165920  
2364.000000	99.165899  
2363.000000	99.165913  
2362.000000	99.165838  
2361.000000	99.165663  
2360.000000	99.165446  
2359.000000	99.165239  
2358.000000	99.165053  
2357.000000	99.164880  
2356.000000	99.164715  
2355.000000	99.164541  
2354.000000	99.164351  
2353.000000	99.164148  
2352.000000	99.163958  
2351.000000	99.163814  
2350.000000	99.163714  
2349.000000	99.163618  
2348.000000	99.163474  
2347.000000	99.163312  
2346.000000	99.163246  
2345.000000	99.163340  
2344.000000	99.163580  
2343.000000	99.163833  
2342.000000	99.163997  
2341.000000	99.164029  
2340.000000	99.163985  
2339.000000	99.163989  
2338.000000	99.164093  
2337.000000	99.164234  
2336.000000	99.164223  
2335.000000	99.164068  
2334.000000	99.164032  
2333.000000	99.164487  
2332.000000	99.165414  
2331.000000	99.166532  
2330.000000	99.167342  
2329.000000	99.167933  
2328.000000	99.168613  
2327.000000	99.169885  
2326.000000	99.171607  
2325.000000	99.173010  
2324.000000	99.173362  
2323.000000	99.172794  
2322.000000	99.172423  
2321.000000	99.172982  
2320.000000	99.173859  
2319.000000	99.174014  
2318.000000	99.173109  
2317.000000	99.172209  
2316.000000	99.172114  
2315.000000	99.173215  
2314.000000	99.174954  
2313.000000	99.177323  
2312.000000	99.180233  
2311.000000	99.183790  
2310.000000	99.187058  
2309.000000	99.189071  
2308.000000	99.189233  
2307.000000	99.188475  
2306.000000	99.188068  
2305.000000	99.188764  
2304.000000	99.190107  
2303.000000	99.191725  
2302.000000	99.193423  
2301.000000	99.195297  
2300.000000	99.197114  
2299.000000	99.199072  
2298.000000	99.201217  
2297.000000	99.203229  
2296.000000	99.204107  
2295.000000	99.203768  
2294.000000	99.203410  
2293.000000	99.204620  
2292.000000	99.207521  
2291.000000	99.210767  
2290.000000	99.212828  
2289.000000	99.213098  
2288.000000	99.211823  
2287.000000	99.209585  
2286.000000	99.207104  
2285.000000	99.204949  
2284.000000	99.203579  
2283.000000	99.203455  
2282.000000	99.205078  
2281.000000	99.208288  
2280.000000	99.211788  
2279.000000	99.213847  
2278.000000	99.213874  
2277.000000	99.213031  
2276.000000	99.212850  
2275.000000	99.213511  
2274.000000	99.213691  
2273.000000	99.212152  
2272.000000	99.209054  
2271.000000	99.205788  
2270.000000	99.203537  
2269.000000	99.202446  
2268.000000	99.202259  
2267.000000	99.203268  
2266.000000	99.205886  
2265.000000	99.209388  
2264.000000	99.211957  
2263.000000	99.212448  
2262.000000	99.211510  
2261.000000	99.210709  
2260.000000	99.210837  
2259.000000	99.211328  
2258.000000	99.211237  
2257.000000	99.210323  
2256.000000	99.209134  
2255.000000	99.208318  
2254.000000	99.208061  
2253.000000	99.208202  
2252.000000	99.208638  
2251.000000	99.209478  
2250.000000	99.210739  
2249.000000	99.212166  
2248.000000	99.213455  
2247.000000	99.214658  
2246.000000	99.215907  
2245.000000	99.217115  
2244.000000	99.218215  
2243.000000	99.219460  
2242.000000	99.221006  
2241.000000	99.222482  
2240.000000	99.223549  
2239.000000	99.224637  
2238.000000	99.226186  
2237.000000	99.227186  
2236.000000	99.225723  
2235.000000	99.221428  
2234.000000	99.216662  
2233.000000	99.214424  
2232.000000	99.215549  
2231.000000	99.218581  
2230.000000	99.221452  
2229.000000	99.223054  
2228.000000	99.223511  
2227.000000	99.223818  
2226.000000	99.225050  
2225.000000	99.227239  
2224.000000	99.229104  
2223.000000	99.229382  
2222.000000	99.228085  
2221.000000	99.225954  
2220.000000	99.223240  
2219.000000	99.220018  
2218.000000	99.217509  
2217.000000	99.217697  
2216.000000	99.221285  
2215.000000	99.226839  
2214.000000	99.232212  
2213.000000	99.236417  
2212.000000	99.239769  
2211.000000	99.242852  
2210.000000	99.245848  
2209.000000	99.248341  
2208.000000	99.249247  
2207.000000	99.247240  
2206.000000	99.241833  
2205.000000	99.234398  
2204.000000	99.227879  
2203.000000	99.224906  
2202.000000	99.226118  
2201.000000	99.229734  
2200.000000	99.232853  
2199.000000	99.233768  
2198.000000	99.233157  
2197.000000	99.233244  
2196.000000	99.236002  
2195.000000	99.241828  
2194.000000	99.249001  
2193.000000	99.254230  
2192.000000	99.254831  
2191.000000	99.251326  
2190.000000	99.247719  
2189.000000	99.248065  
2188.000000	99.252539  
2187.000000	99.257471  
2186.000000	99.258952  
2185.000000	99.255911  
2184.000000	99.250083  
2183.000000	99.244374  
2182.000000	99.241596  
2181.000000	99.243531  
2180.000000	99.249926  
2179.000000	99.258441  
2178.000000	99.266324  
2177.000000	99.272353  
2176.000000	99.276905  
2175.000000	99.280349  
2174.000000	99.282306  
2173.000000	99.283207  
2172.000000	99.285430  
2171.000000	99.290877  
2170.000000	99.297395  
2169.000000	99.299938  
2168.000000	99.296486  
2167.000000	99.290875  
2166.000000	99.288229  
2165.000000	99.289543  
2164.000000	99.293465  
2163.000000	99.301137  
2162.000000	99.314178  
2161.000000	99.327956  
2160.000000	99.332993  
2159.000000	99.325469  
2158.000000	99.311117  
2157.000000	99.296157  
2156.000000	99.279451  
2155.000000	99.258247  
2154.000000	99.236310  
2153.000000	99.221325  
2152.000000	99.216440  
2151.000000	99.218438  
2150.000000	99.223060  
2149.000000	99.229229  
2148.000000	99.238216  
2147.000000	99.250859  
2146.000000	99.265507  
2145.000000	99.277403  
2144.000000	99.281149  
2143.000000	99.275201  
2142.000000	99.263446  
2141.000000	99.251266  
2140.000000	99.240482  
2139.000000	99.229817  
2138.000000	99.219275  
2137.000000	99.211258  
2136.000000	99.207224  
2135.000000	99.205867  
2134.000000	99.205741  
2133.000000	99.207820  
2132.000000	99.213796  
2131.000000	99.222602  
2130.000000	99.230020  
2129.000000	99.232017  
2128.000000	99.228032  
2127.000000	99.220877  
2126.000000	99.213937  
2125.000000	99.208930  
2124.000000	99.206127  
2123.000000	99.205771  
2122.000000	99.208131  
2121.000000	99.212434  
2120.000000	99.217108  
2119.000000	99.221294  
2118.000000	99.225201  
2117.000000	99.228899  
2116.000000	99.231827  
2115.000000	99.233836  
2114.000000	99.235452  
2113.000000	99.236556  
2112.000000	99.235976  
2111.000000	99.233409  
2110.000000	99.230913  
2109.000000	99.231141  
2108.000000	99.234200  
2107.000000	99.237365  
2106.000000	99.237812  
2105.000000	99.234933  
2104.000000	99.230205  
2103.000000	99.225712  
2102.000000	99.222953  
2101.000000	99.222171  
2100.000000	99.222376  
2099.000000	99.222469  
2098.000000	99.222647  
2097.000000	99.224387  
2096.000000	99.228886  
2095.000000	99.235778  
2094.000000	99.243258  
2093.000000	99.249037  
2092.000000	99.251331  
2091.000000	99.249690  
2090.000000	99.245434  
2089.000000	99.240904  
2088.000000	99.237393  
2087.000000	99.233808  
2086.000000	99.228103  
2085.000000	99.220534  
2084.000000	99.215140  
2083.000000	99.216903  
2082.000000	99.227285  
2081.000000	99.242528  
2080.000000	99.256598  
2079.000000	99.266404  
2078.000000	99.273196  
2077.000000	99.279268  
2076.000000	99.284355  
2075.000000	99.285607  
2074.000000	99.280547  
2073.000000	99.269579  
2072.000000	99.256131  
2071.000000	99.244469  
2070.000000	99.237112  
2069.000000	99.234233  
2068.000000	99.234990  
2067.000000	99.238695  
2066.000000	99.244324  
2065.000000	99.250143  
2064.000000	99.255474  
2063.000000	99.261950  
2062.000000	99.270671  
2061.000000	99.278525  
2060.000000	99.280267  
2059.000000	99.274936  
2058.000000	99.267815  
2057.000000	99.264697  
2056.000000	99.266098  
2055.000000	99.269052  
2054.000000	99.272525  
2053.000000	99.278284  
2052.000000	99.287151  
2051.000000	99.297110  
2050.000000	99.305305  
2049.000000	99.310323  
2048.000000	99.312286  
2047.000000	99.312120  
2046.000000	99.311255  
2045.000000	99.310942  
2044.000000	99.311248  
2043.000000	99.311269  
2042.000000	99.310463  
2041.000000	99.309234  
2040.000000	99.308196  
2039.000000	99.307403  
2038.000000	99.306112  
2037.000000	99.302866  
2036.000000	99.296338  
2035.000000	99.286788  
2034.000000	99.276590  
2033.000000	99.268922  
2032.000000	99.265981  
2031.000000	99.268728  
2030.000000	99.277163  
2029.000000	99.289573  
2028.000000	99.302265  
2027.000000	99.311329  
2026.000000	99.314651  
2025.000000	99.312521  
2024.000000	99.307106  
2023.000000	99.301102  
2022.000000	99.295903  
2021.000000	99.290745  
2020.000000	99.284204  
2019.000000	99.276712  
2018.000000	99.270835  
2017.000000	99.268830  
2016.000000	99.270854  
2015.000000	99.276026  
2014.000000	99.283547  
2013.000000	99.291878  
2012.000000	99.298616  
2011.000000	99.302293  
2010.000000	99.303081  
2009.000000	99.301070  
2008.000000	99.295446  
2007.000000	99.286623  
2006.000000	99.277942  
2005.000000	99.273275  
2004.000000	99.273303  
2003.000000	99.275643  
2002.000000	99.277835  
2001.000000	99.279289  
2000.000000	99.280646  
1999.000000	99.282397  
1998.000000	99.284283  
1997.000000	99.285459  
1996.000000	99.285314  
1995.000000	99.284373  
1994.000000	99.284061  
1993.000000	99.285132  
1992.000000	99.286364  
1991.000000	99.285558  
1990.000000	99.282054  
1989.000000	99.277707  
1988.000000	99.275504  
1987.000000	99.277544  
1986.000000	99.283988  
1985.000000	99.292696  
1984.000000	99.299984  
1983.000000	99.303008  
1982.000000	99.301530  
1981.000000	99.297536  
1980.000000	99.293362  
1979.000000	99.290291  
1978.000000	99.288670  
1977.000000	99.288189  
1976.000000	99.287912  
1975.000000	99.286922  
1974.000000	99.285393  
1973.000000	99.284562  
1972.000000	99.285275  
1971.000000	99.286815  
1970.000000	99.287389  
1969.000000	99.285772  
1968.000000	99.282441  
1967.000000	99.279136  
1966.000000	99.277397  
1965.000000	99.277650  
1964.000000	99.279634  
1963.000000	99.283173  
1962.000000	99.288012  
1961.000000	99.293320  
1960.000000	99.297930  
1959.000000	99.300640  
1958.000000	99.299815  
1957.000000	99.293602  
1956.000000	99.281696  
1955.000000	99.266581  
1954.000000	99.251867  
1953.000000	99.239489  
1952.000000	99.229771  
1951.000000	99.224172  
1950.000000	99.225648  
1949.000000	99.235104  
1948.000000	99.248912  
1947.000000	99.261534  
1946.000000	99.269995  
1945.000000	99.274092  
1944.000000	99.273566  
1943.000000	99.267503  
1942.000000	99.256499  
1941.000000	99.243290  
1940.000000	99.230513  
1939.000000	99.219550  
1938.000000	99.212003  
1937.000000	99.210239  
1936.000000	99.215164  
1935.000000	99.224278  
1934.000000	99.232919  
1933.000000	99.237811  
1932.000000	99.239083  
1931.000000	99.238996  
1930.000000	99.239317  
1929.000000	99.239776  
1928.000000	99.238731  
1927.000000	99.235138  
1926.000000	99.229673  
1925.000000	99.223932  
1924.000000	99.219330  
1923.000000	99.216820  
1922.000000	99.216975  
1921.000000	99.219492  
1920.000000	99.222935  
1919.000000	99.225472  
1918.000000	99.225940  
1917.000000	99.224323  
1916.000000	99.221627  
1915.000000	99.219475  
1914.000000	99.219299  
1913.000000	99.221207  
1912.000000	99.223635  
1911.000000	99.224790  
1910.000000	99.224382  
1909.000000	99.223338  
1908.000000	99.222291  
1907.000000	99.221234  
1906.000000	99.220318  
1905.000000	99.219716  
1904.000000	99.218812  
1903.000000	99.216483  
1902.000000	99.212426  
1901.000000	99.207653  
1900.000000	99.203851  
1899.000000	99.202462  
1898.000000	99.204073  
1897.000000	99.207935  
1896.000000	99.212049  
1895.000000	99.214674  
1894.000000	99.215763  
1893.000000	99.216194  
1892.000000	99.215941  
1891.000000	99.213904  
1890.000000	99.209739  
1889.000000	99.204949  
1888.000000	99.201259  
1887.000000	99.198978  
1886.000000	99.197589  
1885.000000	99.196838  
1884.000000	99.196808  
1883.000000	99.197523  
1882.000000	99.198992  
1881.000000	99.201327  
1880.000000	99.204563  
1879.000000	99.208225  
1878.000000	99.210973  
1877.000000	99.211032  
1876.000000	99.207616  
1875.000000	99.202041  
1874.000000	99.196929  
1873.000000	99.193628  
1872.000000	99.191216  
1871.000000	99.188577  
1870.000000	99.186734  
1869.000000	99.187737  
1868.000000	99.191108  
1867.000000	99.194110  
1866.000000	99.195638  
1865.000000	99.196551  
1864.000000	99.197474  
1863.000000	99.198201  
1862.000000	99.198578  
1861.000000	99.198730  
1860.000000	99.198425  
1859.000000	99.197436  
1858.000000	99.196643  
1857.000000	99.197300  
1856.000000	99.199200  
1855.000000	99.201083  
1854.000000	99.202670  
1853.000000	99.204706  
1852.000000	99.207072  
1851.000000	99.208154  
1850.000000	99.206900  
1849.000000	99.204311  
1848.000000	99.202368  
1847.000000	99.201992  
1846.000000	99.202912  
1845.000000	99.204419  
1844.000000	99.205410  
1843.000000	99.205309  
1842.000000	99.205306  
1841.000000	99.206743  
1840.000000	99.209414  
1839.000000	99.211758  
1838.000000	99.212298  
1837.000000	99.210961  
1836.000000	99.208920  
1835.000000	99.207353  
1834.000000	99.206815  
1833.000000	99.207749  
1832.000000	99.211093  
1831.000000	99.217166  
1830.000000	99.224019  
1829.000000	99.228583  
1828.000000	99.230358  
1827.000000	99.230918  
1826.000000	99.230831  
1825.000000	99.229259  
1824.000000	99.225454  
1823.000000	99.220017  
1822.000000	99.214289  
1821.000000	99.209024  
1820.000000	99.204319  
1819.000000	99.200477  
1818.000000	99.198718  
1817.000000	99.200250  
1816.000000	99.204508  
1815.000000	99.209448  
1814.000000	99.213699  
1813.000000	99.217393  
1812.000000	99.220889  
1811.000000	99.223576  
1810.000000	99.224842  
1809.000000	99.225031  
1808.000000	99.224098  
1807.000000	99.221230  
1806.000000	99.216860  
1805.000000	99.213417  
1804.000000	99.212973  
1803.000000	99.215059  
1802.000000	99.217436  
1801.000000	99.218642  
1800.000000	99.218835  
1799.000000	99.218836  
1798.000000	99.219371  
1797.000000	99.220609  
1796.000000	99.222005  
1795.000000	99.222864  
1794.000000	99.222977  
1793.000000	99.222672  
1792.000000	99.222320  
1791.000000	99.221869  
1790.000000	99.221334  
1789.000000	99.221131  
1788.000000	99.221620  
1787.000000	99.222791  
1786.000000	99.224260  
1785.000000	99.225438  
1784.000000	99.225959  
1783.000000	99.226113  
1782.000000	99.226606  
1781.000000	99.227818  
1780.000000	99.229184  
1779.000000	99.229758  
1778.000000	99.229505  
1777.000000	99.229378  
1776.000000	99.230217  
1775.000000	99.232106  
1774.000000	99.234573  
1773.000000	99.236896  
1772.000000	99.238319  
1771.000000	99.238577  
1770.000000	99.238115  
1769.000000	99.237366  
1768.000000	99.236634  
1767.000000	99.236163  
1766.000000	99.236235  
1765.000000	99.237345  
1764.000000	99.239865  
1763.000000	99.243507  
1762.000000	99.246880  
1761.000000	99.248581  
1760.000000	99.248791  
1759.000000	99.248527  
1758.000000	99.247968  
1757.000000	99.246514  
1756.000000	99.243948  
1755.000000	99.241118  
1754.000000	99.238967  
1753.000000	99.237755  
1752.000000	99.237856  
1751.000000	99.240271  
1750.000000	99.245458  
1749.000000	99.252137  
1748.000000	99.258046  
1747.000000	99.261240  
1746.000000	99.261070  
1745.000000	99.258430  
1744.000000	99.255113  
1743.000000	99.252349  
1742.000000	99.250002  
1741.000000	99.247526  
1740.000000	99.245042  
1739.000000	99.243214  
1738.000000	99.242358  
1737.000000	99.242265  
1736.000000	99.242680  
1735.000000	99.243395  
1734.000000	99.243567  
1733.000000	99.242682  
1732.000000	99.242174  
1731.000000	99.242703  
1730.000000	99.243230  
1729.000000	99.242639  
1728.000000	99.241078  
1727.000000	99.239650  
1726.000000	99.239015  
1725.000000	99.238782  
1724.000000	99.238163  
1723.000000	99.237056  
1722.000000	99.236070  
1721.000000	99.235642  
1720.000000	99.235573  
1719.000000	99.235345  
1718.000000	99.234658  
1717.000000	99.233806  
1716.000000	99.233160  
1715.000000	99.232612  
1714.000000	99.231987  
1713.000000	99.231325  
1712.000000	99.230713  
1711.000000	99.230161  
1710.000000	99.229606  
1709.000000	99.228979  
1708.000000	99.228262  
1707.000000	99.227486  
1706.000000	99.226729  
1705.000000	99.226035  
1704.000000	99.225389  
1703.000000	99.224761  
1702.000000	99.224137  
1701.000000	99.223551  
1700.000000	99.223073  
1699.000000	99.222746  
1698.000000	99.222497  
1697.000000	99.222213  
1696.000000	99.221767  
1695.000000	99.221074  
1694.000000	99.220270  
1693.000000	99.219504  
1692.000000	99.218681  
1691.000000	99.217703  
1690.000000	99.216671  
1689.000000	99.215791  
1688.000000	99.215097  
1687.000000	99.214383  
1686.000000	99.213561  
1685.000000	99.212899  
1684.000000	99.212636  
1683.000000	99.212486  
1682.000000	99.212236  
1681.000000	99.211802  
1680.000000	99.211171  
1679.000000	99.210428  
1678.000000	99.209664  
1677.000000	99.208906  
1676.000000	99.208082  
1675.000000	99.207037  
1674.000000	99.205659  
1673.000000	99.204203  
1672.000000	99.203039  
1671.000000	99.202498  
1670.000000	99.202622  
1669.000000	99.202725  
1668.000000	99.202248  
1667.000000	99.201508  
1666.000000	99.200755  
1665.000000	99.199863  
1664.000000	99.198846  
1663.000000	99.198007  
1662.000000	99.197305  
1661.000000	99.196300  
1660.000000	99.194745  
1659.000000	99.193005  
1658.000000	99.191703  
1657.000000	99.190733  
1656.000000	99.189022  
1655.000000	99.186547  
1654.000000	99.186041  
1653.000000	99.187904  
1652.000000	99.187415  
1651.000000	99.186788  
1650.000000	99.187167  
1649.000000	99.187085  
1648.000000	99.186121  
1647.000000	99.184487  
1646.000000	99.181827  
1645.000000	99.179275  
1644.000000	99.178458  
1643.000000	99.178832  
1642.000000	99.178838  
1641.000000	99.178025  
1640.000000	99.176839  
1639.000000	99.175387  
1638.000000	99.173408  
1637.000000	99.171350  
1636.000000	99.170246  
1635.000000	99.170078  
1634.000000	99.171447  
1633.000000	99.174603  
1632.000000	99.178128  
1631.000000	99.181348  
1630.000000	99.184635  
1629.000000	99.187707  
1628.000000	99.189192  
1627.000000	99.188586  
1626.000000	99.187017  
1625.000000	99.185819  
1624.000000	99.185198  
1623.000000	99.184592  
1622.000000	99.183872  
1621.000000	99.183672  
1620.000000	99.184160  
1619.000000	99.185487  
1618.000000	99.188982  
1617.000000	99.195023  
1616.000000	99.200532  
1615.000000	99.203532  
1614.000000	99.204511  
1613.000000	99.203456  
1612.000000	99.200926  
1611.000000	99.198457  
1610.000000	99.197048  
1609.000000	99.196364  
1608.000000	99.195931  
1607.000000	99.196254  
1606.000000	99.197691  
1605.000000	99.199858  
1604.000000	99.202320  
1603.000000	99.205180  
1602.000000	99.208401  
1601.000000	99.211274  
1600.000000	99.213398  
1599.000000	99.215458  
1598.000000	99.218218  
1597.000000	99.221549  
1596.000000	99.224845  
1595.000000	99.227803  
1594.000000	99.230378  
1593.000000	99.232330  
1592.000000	99.233559  
1591.000000	99.234538  
1590.000000	99.235760  
1589.000000	99.236936  
1588.000000	99.237562  
1587.000000	99.237994  
1586.000000	99.238998  
1585.000000	99.240568  
1584.000000	99.242159  
1583.000000	99.243569  
1582.000000	99.245360  
1581.000000	99.248007  
1580.000000	99.251249  
1579.000000	99.254334  
1578.000000	99.256701  
1577.000000	99.257793  
1576.000000	99.257006  
1575.000000	99.255662  
1574.000000	99.255888  
1573.000000	99.256888  
1572.000000	99.257177  
1571.000000	99.257386  
1570.000000	99.259377  
1569.000000	99.263094  
1568.000000	99.266777  
1567.000000	99.269552  
1566.000000	99.271453  
1565.000000	99.272718  
1564.000000	99.273699  
1563.000000	99.274524  
1562.000000	99.275081  
1561.000000	99.275396  
1560.000000	99.276245  
1559.000000	99.277933  
1558.000000	99.277342  
1557.000000	99.275349  
1556.000000	99.274136  
1555.000000	99.273444  
1554.000000	99.273156  
1553.000000	99.273543  
1552.000000	99.274717  
1551.000000	99.276392  
1550.000000	99.278150  
1549.000000	99.279432  
1548.000000	99.280052  
1547.000000	99.280291  
1546.000000	99.280346  
1545.000000	99.280279  
1544.000000	99.280007  
1543.000000	99.279371  
1542.000000	99.278622  
1541.000000	99.278221  
1540.000000	99.277647  
1539.000000	99.276283  
1538.000000	99.275331  
1537.000000	99.275435  
1536.000000	99.276039  
1535.000000	99.276680  
1534.000000	99.277346  
1533.000000	99.277806  
1532.000000	99.277607  
1531.000000	99.276822  
1530.000000	99.275968  
1529.000000	99.275404  
1528.000000	99.275041  
1527.000000	99.274681  
1526.000000	99.274320  
1525.000000	99.273991  
1524.000000	99.273401  
1523.000000	99.272277  
1522.000000	99.271121  
1521.000000	99.270719  
1520.000000	99.270759  
1519.000000	99.270525  
1518.000000	99.269817  
1517.000000	99.269025  
1516.000000	99.268434  
1515.000000	99.267937  
1514.000000	99.267529  
1513.000000	99.267249  
1512.000000	99.266926  
1511.000000	99.266199  
1510.000000	99.264693  
1509.000000	99.262610  
1508.000000	99.261338  
1507.000000	99.261818  
1506.000000	99.260769  
1505.000000	99.257423  
1504.000000	99.255101  
1503.000000	99.254361  
1502.000000	99.254626  
1501.000000	99.255928  
1500.000000	99.258374  
1499.000000	99.261452  
1498.000000	99.264279  
1497.000000	99.266461  
1496.000000	99.267335  
1495.000000	99.265632  
1494.000000	99.261241  
1493.000000	99.255561  
1492.000000	99.250286  
1491.000000	99.246818  
1490.000000	99.245297  
1489.000000	99.244408  
1488.000000	99.242575  
1487.000000	99.239584  
1486.000000	99.237058  
1485.000000	99.236171  
1484.000000	99.236526  
1483.000000	99.237075  
1482.000000	99.236968  
1481.000000	99.235876  
1480.000000	99.233948  
1479.000000	99.231637  
1478.000000	99.229634  
1477.000000	99.228478  
1476.000000	99.227851  
1475.000000	99.226372  
1474.000000	99.223826  
1473.000000	99.222116  
1472.000000	99.221851  
1471.000000	99.220975  
1470.000000	99.219017  
1469.000000	99.217298  
1468.000000	99.216694  
1467.000000	99.217214  
1466.000000	99.218988  
1465.000000	99.222407  
1464.000000	99.225889  
1463.000000	99.227036  
1462.000000	99.225844  
1461.000000	99.224058  
1460.000000	99.222546  
1459.000000	99.220587  
1458.000000	99.216666  
1457.000000	99.209968  
1456.000000	99.201586  
1455.000000	99.194276  
1454.000000	99.188949  
1453.000000	99.185297  
1452.000000	99.183613  
1451.000000	99.183882  
1450.000000	99.185749  
1449.000000	99.189710  
1448.000000	99.195533  
1447.000000	99.200004  
1446.000000	99.200191  
1445.000000	99.197518  
1444.000000	99.194662  
1443.000000	99.191912  
1442.000000	99.188084  
1441.000000	99.183071  
1440.000000	99.178032  
1439.000000	99.173722  
1438.000000	99.170086  
1437.000000	99.168155  
1436.000000	99.168720  
1435.000000	99.169272  
1434.000000	99.168022  
1433.000000	99.166818  
1432.000000	99.168710  
1431.000000	99.174762  
1430.000000	99.181261  
1429.000000	99.182882  
1428.000000	99.178372  
1427.000000	99.170418  
1426.000000	99.161653  
1425.000000	99.153058  
1424.000000	99.145430  
1423.000000	99.139062  
1422.000000	99.132394  
1421.000000	99.124881  
1420.000000	99.119713  
1419.000000	99.120350  
1418.000000	99.122089  
1417.000000	99.118540  
1416.000000	99.110772  
1415.000000	99.102267  
1414.000000	99.094171  
1413.000000	99.085499  
1412.000000	99.075813  
1411.000000	99.065977  
1410.000000	99.056338  
1409.000000	99.047525  
1408.000000	99.041637  
1407.000000	99.039740  
1406.000000	99.039988  
1405.000000	99.040543  
1404.000000	99.042776  
1403.000000	99.048206  
1402.000000	99.055244  
1401.000000	99.062459  
1400.000000	99.071206  
1399.000000	99.082534  
1398.000000	99.091998  
1397.000000	99.092931  
1396.000000	99.083689  
1395.000000	99.070129  
1394.000000	99.061564  
1393.000000	99.062954  
1392.000000	99.073223  
1391.000000	99.087007  
1390.000000	99.097960  
1389.000000	99.102988  
1388.000000	99.103806  
1387.000000	99.104077  
1386.000000	99.105006  
1385.000000	99.106358  
1384.000000	99.109121  
1383.000000	99.114384  
1382.000000	99.121441  
1381.000000	99.128907  
1380.000000	99.136108  
1379.000000	99.142376  
1378.000000	99.146209  
1377.000000	99.146728  
1376.000000	99.145867  
1375.000000	99.147526  
1374.000000	99.153366  
1373.000000	99.160508  
1372.000000	99.166164  
1371.000000	99.172000  
1370.000000	99.181619  
1369.000000	99.195124  
1368.000000	99.208905  
1367.000000	99.219818  
1366.000000	99.227744  
1365.000000	99.234167  
1364.000000	99.239787  
1363.000000	99.244323  
1362.000000	99.247393  
1361.000000	99.248620  
1360.000000	99.247992  
1359.000000	99.246728  
1358.000000	99.247057  
1357.000000	99.250221  
1356.000000	99.255159  
1355.000000	99.259981  
1354.000000	99.264458  
1353.000000	99.269710  
1352.000000	99.275110  
1351.000000	99.278056  
1350.000000	99.278394  
1349.000000	99.278956  
1348.000000	99.282452  
1347.000000	99.288689  
1346.000000	99.295378  
1345.000000	99.300115  
1344.000000	99.301525  
1343.000000	99.299580  
1342.000000	99.295793  
1341.000000	99.292253  
1340.000000	99.289912  
1339.000000	99.288229  
1338.000000	99.286901  
1337.000000	99.287376  
1336.000000	99.291234  
1335.000000	99.297469  
1334.000000	99.303167  
1333.000000	99.306976  
1332.000000	99.310286  
1331.000000	99.314536  
1330.000000	99.318388  
1329.000000	99.318755  
1328.000000	99.314686  
1327.000000	99.308839  
1326.000000	99.304737  
1325.000000	99.302674  
1324.000000	99.300761  
1323.000000	99.298365  
1322.000000	99.296745  
1321.000000	99.296936  
1320.000000	99.298758  
1319.000000	99.301716  
1318.000000	99.305465  
1317.000000	99.309296  
1316.000000	99.312164  
1315.000000	99.313664  
1314.000000	99.314298  
1313.000000	99.314471  
1312.000000	99.313627  
1311.000000	99.311043  
1310.000000	99.307311  
1309.000000	99.304253  
1308.000000	99.303086  
1307.000000	99.302937  
1306.000000	99.302031  
1305.000000	99.300015  
1304.000000	99.299071  
1303.000000	99.301722  
1302.000000	99.307843  
1301.000000	99.314242  
1300.000000	99.317491  
1299.000000	99.316774  
1298.000000	99.313993  
1297.000000	99.311707  
1296.000000	99.310913  
1295.000000	99.310952  
1294.000000	99.311165  
1293.000000	99.312028  
1292.000000	99.314005  
1291.000000	99.315563  
1290.000000	99.313965  
1289.000000	99.308721  
1288.000000	99.303022  
1287.000000	99.300479  
1286.000000	99.301024  
1285.000000	99.301864  
1284.000000	99.301861  
1283.000000	99.302757  
1282.000000	99.306129  
1281.000000	99.311214  
1280.000000	99.316218  
1279.000000	99.319901  
1278.000000	99.320922  
1277.000000	99.317690  
1276.000000	99.310239  
1275.000000	99.301343  
1274.000000	99.294162  
1273.000000	99.289270  
1272.000000	99.285512  
1271.000000	99.283069  
1270.000000	99.283754  
1269.000000	99.288221  
1268.000000	99.294626  
1267.000000	99.300511  
1266.000000	99.304706  
1265.000000	99.307050  
1264.000000	99.307278  
1263.000000	99.304650  
1262.000000	99.298320  
1261.000000	99.288216  
1260.000000	99.276172  
1259.000000	99.265696  
1258.000000	99.259087  
1257.000000	99.255256  
1256.000000	99.251620  
1255.000000	99.247914  
1254.000000	99.246612  
1253.000000	99.249404  
1252.000000	99.254755  
1251.000000	99.259832  
1250.000000	99.263860  
1249.000000	99.268692  
1248.000000	99.276501  
1247.000000	99.287067  
1246.000000	99.296399  
1245.000000	99.298145  
1244.000000	99.288080  
1243.000000	99.268983  
1242.000000	99.250902  
1241.000000	99.244227  
1240.000000	99.250988  
1239.000000	99.263011  
1238.000000	99.269547  
1237.000000	99.267189  
1236.000000	99.261432  
1235.000000	99.258698  
1234.000000	99.258720  
1233.000000	99.256532  
1232.000000	99.250284  
1231.000000	99.243376  
1230.000000	99.238404  
1229.000000	99.232558  
1228.000000	99.221575  
1227.000000	99.206065  
1226.000000	99.190788  
1225.000000	99.178003  
1224.000000	99.164493  
1223.000000	99.146144  
1222.000000	99.123397  
1221.000000	99.100889  
1220.000000	99.082838  
1219.000000	99.069891  
1218.000000	99.059729  
1217.000000	99.049650  
1216.000000	99.038456  
1215.000000	99.026346  
1214.000000	99.013435  
1213.000000	98.998533  
1212.000000	98.979291  
1211.000000	98.953316  
1210.000000	98.919397  
1209.000000	98.878164  
1208.000000	98.831795  
1207.000000	98.783069  
1206.000000	98.734810  
1205.000000	98.690244  
1204.000000	98.653071  
1203.000000	98.625887  
1202.000000	98.608037  
1201.000000	98.595746  
1200.000000	98.584659  
1199.000000	98.571859  
1198.000000	98.555756  
1197.000000	98.535117  
1196.000000	98.508147  
1195.000000	98.472041  
1194.000000	98.424488  
1193.000000	98.366748  
1192.000000	98.304673  
1191.000000	98.245254  
1190.000000	98.192406  
1189.000000	98.147723  
1188.000000	98.113920  
1187.000000	98.093546  
1186.000000	98.083413  
1185.000000	98.073880  
1184.000000	98.055766  
1183.000000	98.026193  
1182.000000	97.987105  
1181.000000	97.940940  
1180.000000	97.889338  
1179.000000	97.833626  
1178.000000	97.774160  
1177.000000	97.710876  
1176.000000	97.646528  
1175.000000	97.587220  
1174.000000	97.536745  
1173.000000	97.491926  
1172.000000	97.446800  
1171.000000	97.400378  
1170.000000	97.356824  
1169.000000	97.318261  
1168.000000	97.281137  
1167.000000	97.241219  
1166.000000	97.200427  
1165.000000	97.167162  
1164.000000	97.150237  
1163.000000	97.152683  
1162.000000	97.170136  
1161.000000	97.193811  
1160.000000	97.214579  
1159.000000	97.225134  
1158.000000	97.220736  
1157.000000	97.199848  
1156.000000	97.164280  
1155.000000	97.118428  
1154.000000	97.068365  
1153.000000	97.020736  
1152.000000	96.980332  
1151.000000	96.947310  
1150.000000	96.917889  
1149.000000	96.888838  
1148.000000	96.859504  
1147.000000	96.828001  
1146.000000	96.788351  
1145.000000	96.735297  
1144.000000	96.670868  
1143.000000	96.602810  
1142.000000	96.536789  
1141.000000	96.473270  
1140.000000	96.411508  
1139.000000	96.352469  
1138.000000	96.297729  
1137.000000	96.249355  
1136.000000	96.210877  
1135.000000	96.183747  
1134.000000	96.162016  
1133.000000	96.135284  
1132.000000	96.098463  
1131.000000	96.054536  
1130.000000	96.006278  
1129.000000	95.949754  
1128.000000	95.879368  
1127.000000	95.796303  
1126.000000	95.708830  
1125.000000	95.625868  
1124.000000	95.552285  
1123.000000	95.488641  
1122.000000	95.433002  
1121.000000	95.383808  
1120.000000	95.341848  
1119.000000	95.307685  
1118.000000	95.276830  
1117.000000	95.240514  
1116.000000	95.192972  
1115.000000	95.135880  
1114.000000	95.074236  
1113.000000	95.009799  
1112.000000	94.940630  
1111.000000	94.866177  
1110.000000	94.791076  
1109.000000	94.723429  
1108.000000	94.668829  
1107.000000	94.625138  
1106.000000	94.584452  
1105.000000	94.541790  
1104.000000	94.499484  
1103.000000	94.460472  
1102.000000	94.421151  
1101.000000	94.375889  
1100.000000	94.326459  
1099.000000	94.279275  
1098.000000	94.236760  
1097.000000	94.196450  
1096.000000	94.157367  
1095.000000	94.119563  
1094.000000	94.078352  
1093.000000	94.027552  
1092.000000	93.968791  
1091.000000	93.909121  
1090.000000	93.848255  
1089.000000	93.777699  
1088.000000	93.696023  
1087.000000	93.616534  
1086.000000	93.554616  
1085.000000	93.513424  
1084.000000	93.486119  
1083.000000	93.465605  
1082.000000	93.447084  
1081.000000	93.426144  
1080.000000	93.399513  
1079.000000	93.364950  
1078.000000	93.318082  
1077.000000	93.253668  
1076.000000	93.172832  
1075.000000	93.085132  
1074.000000	93.000537  
1073.000000	92.922479  
1072.000000	92.849800  
1071.000000	92.779733  
1070.000000	92.706808  
1069.000000	92.625381  
1068.000000	92.537628  
1067.000000	92.454684  
1066.000000	92.385588  
1065.000000	92.327246  
1064.000000	92.266502  
1063.000000	92.187750  
1062.000000	92.078167  
1061.000000	91.933303  
1060.000000	91.763290  
1059.000000	91.590967  
1058.000000	91.438921  
1057.000000	91.317393  
1056.000000	91.223316  
1055.000000	91.146384  
1054.000000	91.076169  
1053.000000	91.008430  
1052.000000	90.944579  
1051.000000	90.881139  
1050.000000	90.804145  
1049.000000	90.702605  
1048.000000	90.582729  
1047.000000	90.457363  
1046.000000	90.325638  
1045.000000	90.176919  
1044.000000	90.013539  
1043.000000	89.855608  
1042.000000	89.720028  
1041.000000	89.605971  
1040.000000	89.505339  
1039.000000	89.417417  
1038.000000	89.347635  
1037.000000	89.299482  
1036.000000	89.271848  
1035.000000	89.257445  
1034.000000	89.241550  
1033.000000	89.210251  
1032.000000	89.162532  
1031.000000	89.107894  
1030.000000	89.052629  
1029.000000	88.997526  
1028.000000	88.948967  
1027.000000	88.920194  
1026.000000	88.916994  
1025.000000	88.930224  
1024.000000	88.945299  
1023.000000	88.951872  
1022.000000	88.944441  
1021.000000	88.924133  
1020.000000	88.902295  
1019.000000	88.892407  
1018.000000	88.894841  
1017.000000	88.897780  
1016.000000	88.895432  
1015.000000	88.895857  
1014.000000	88.907116  
1013.000000	88.923994  
1012.000000	88.932599  
1011.000000	88.922361  
1010.000000	88.892123  
1009.000000	88.850834  
1008.000000	88.813335  
1007.000000	88.789737  
1006.000000	88.779202  
1005.000000	88.779666  
1004.000000	88.799693  
1003.000000	88.850105  
1002.000000	88.925999  
1001.000000	89.009304  
1000.000000	89.089380  
999.000000	 89.168759  
998.000000	 89.247356  
997.000000	 89.314133  
996.000000	 89.358558  
995.000000	 89.380690  
994.000000	 89.387197  
993.000000	 89.386730  
992.000000	 89.391592  
991.000000	 89.413892  
990.000000	 89.456005  
989.000000	 89.512732  
988.000000	 89.584850  
987.000000	 89.680765  
986.000000	 89.801603  
985.000000	 89.934552  
984.000000	 90.065160  
983.000000	 90.188255  
982.000000	 90.303600  
981.000000	 90.409051  
980.000000	 90.501957  
979.000000	 90.581267  
978.000000	 90.646964  
977.000000	 90.704909  
976.000000	 90.772907  
975.000000	 90.871591  
974.000000	 91.004863  
973.000000	 91.157054  
972.000000	 91.313082  
971.000000	 91.473567  
970.000000	 91.645330  
969.000000	 91.824607  
968.000000	 91.996395  
967.000000	 92.146891  
966.000000	 92.272748  
965.000000	 92.381018  
964.000000	 92.482395  
963.000000	 92.581832  
962.000000	 92.674754  
961.000000	 92.755568  
960.000000	 92.829040  
959.000000	 92.907793  
958.000000	 92.997977  
957.000000	 93.093419  
956.000000	 93.185783  
955.000000	 93.275118  
954.000000	 93.368350  
953.000000	 93.471319  
952.000000	 93.583111  
951.000000	 93.694133  
950.000000	 93.790209  
949.000000	 93.864144  
948.000000	 93.923363  
947.000000	 93.980890  
946.000000	 94.038538  
945.000000	 94.085162  
944.000000	 94.112447  
943.000000	 94.125539  
942.000000	 94.135907  
941.000000	 94.149604  
940.000000	 94.166239  
939.000000	 94.185317  
938.000000	 94.210426  
937.000000	 94.249534  
936.000000	 94.311139  
935.000000	 94.394941  
934.000000	 94.485687  
933.000000	 94.563020  
932.000000	 94.619852  
931.000000	 94.665502  
930.000000	 94.708391  
929.000000	 94.741689  
928.000000	 94.750950  
927.000000	 94.732438  
926.000000	 94.699958  
925.000000	 94.675297  
924.000000	 94.674193  
923.000000	 94.699011  
922.000000	 94.741262  
921.000000	 94.791825  
920.000000	 94.849866  
919.000000	 94.919964  
918.000000	 95.000227  
917.000000	 95.076707  
916.000000	 95.131630  
915.000000	 95.156147  
914.000000	 95.155473  
913.000000	 95.143760  
912.000000	 95.133814  
911.000000	 95.129817  
910.000000	 95.130463  
909.000000	 95.140592  
908.000000	 95.176022  
907.000000	 95.250846  
906.000000	 95.361039  
905.000000	 95.486905  
904.000000	 95.613136  
903.000000	 95.740793  
902.000000	 95.877369  
901.000000	 96.020654  
900.000000	 96.156285  
899.000000	 96.269035  
898.000000	 96.354134  
897.000000	 96.418134  
896.000000	 96.470102  
895.000000	 96.513409  
894.000000	 96.548161  
893.000000	 96.580926  
892.000000	 96.626756  
891.000000	 96.697521  
890.000000	 96.791017  
889.000000	 96.895730  
888.000000	 97.003581  
887.000000	 97.112566  
886.000000	 97.219828  
885.000000	 97.320189  
884.000000	 97.411827  
883.000000	 97.496270  
882.000000	 97.571203  
881.000000	 97.629788  
880.000000	 97.669730  
879.000000	 97.697406  
878.000000	 97.719366  
877.000000	 97.734404  
876.000000	 97.739488  
875.000000	 97.741125  
874.000000	 97.755164  
873.000000	 97.794635  
872.000000	 97.861057  
871.000000	 97.947740  
870.000000	 98.048324  
869.000000	 98.159900  
868.000000	 98.278531  
867.000000	 98.394881  
866.000000	 98.497256  
865.000000	 98.578124  
864.000000	 98.634537  
863.000000	 98.663331  
862.000000	 98.661584  
861.000000	 98.634249  
860.000000	 98.597409  
859.000000	 98.570294  
858.000000	 98.565761  
857.000000	 98.590552  
856.000000	 98.650102  
855.000000	 98.746052  
854.000000	 98.869497  
853.000000	 99.002646  
852.000000	 99.128554  
851.000000	 99.236129  
850.000000	 99.317583  
849.000000	 99.366880  
848.000000	 99.381682  
847.000000	 99.363499  
846.000000	 99.316001  
845.000000	 99.246619  
844.000000	 99.169992  
843.000000	 99.105166  
842.000000	 99.065967  
841.000000	 99.054975  
840.000000	 99.067483  
839.000000	 99.098778  
838.000000	 99.146544  
837.000000	 99.208344  
836.000000	 99.277648  
835.000000	 99.341640  
834.000000	 99.385010  
833.000000	 99.398882  
832.000000	 99.384675  
831.000000	 99.347586  
830.000000	 99.289801  
829.000000	 99.214865  
828.000000	 99.136219  
827.000000	 99.073327  
826.000000	 99.036534  
825.000000	 99.021064  
824.000000	 99.019308  
823.000000	 99.034103  
822.000000	 99.075976  
821.000000	 99.150320  
820.000000	 99.249323  
819.000000	 99.353468  
818.000000	 99.440702  
817.000000	 99.497542  
816.000000	 99.521470  
815.000000	 99.512040  
814.000000	 99.463144  
813.000000	 99.367146  
812.000000	 99.223520  
811.000000	 99.039773  
810.000000	 98.827190  
809.000000	 98.600738  
808.000000	 98.379672  
807.000000	 98.178589  
806.000000	 97.996547  
805.000000	 97.823395  
804.000000	 97.659170  
803.000000	 97.518569  
802.000000	 97.412027  
801.000000	 97.330909  
800.000000	 97.257286  
799.000000	 97.182263  
798.000000	 97.109282  
797.000000	 97.043476  
796.000000	 96.983247  
795.000000	 96.922483  
794.000000	 96.861476  
793.000000	 96.816131  
792.000000	 96.810368  
791.000000	 96.852117  
790.000000	 96.920454  
789.000000	 96.986798  
788.000000	 97.046841  
787.000000	 97.118092  
786.000000	 97.204800  
785.000000	 97.279604  
784.000000	 97.306869  
783.000000	 97.274607  
782.000000	 97.196988  
781.000000	 97.094045  
780.000000	 96.978154  
779.000000	 96.856693  
778.000000	 96.739404  
777.000000	 96.642605  
776.000000	 96.588542  
775.000000	 96.596774  
774.000000	 96.671044  
773.000000	 96.795950  
772.000000	 96.948556  
771.000000	 97.111374  
770.000000	 97.274487  
769.000000	 97.429463  
768.000000	 97.562768  
767.000000	 97.654469  
766.000000	 97.687586  
765.000000	 97.663772  
764.000000	 97.607218  
763.000000	 97.546315  
762.000000	 97.491430  
761.000000	 97.437780  
760.000000	 97.389293  
759.000000	 97.368009  
758.000000	 97.393929  
757.000000	 97.463577  
756.000000	 97.555642  
755.000000	 97.653378  
754.000000	 97.755162  
753.000000	 97.864842  
752.000000	 97.977836  
751.000000	 98.077817  
750.000000	 98.145407  
749.000000	 98.171103  
748.000000	 98.161878  
747.000000	 98.135799  
746.000000	 98.109423  
745.000000	 98.089534  
744.000000	 98.075377  
743.000000	 98.066993  
742.000000	 98.071646  
741.000000	 98.102920  
740.000000	 98.171620  
739.000000	 98.275367  
738.000000	 98.398594  
737.000000	 98.526117  
736.000000	 98.654877  
735.000000	 98.786900  
734.000000	 98.912222  
733.000000	 99.007253  
732.000000	 99.052753  
731.000000	 99.047636  
730.000000	 99.003317  
729.000000	 98.929714  
728.000000	 98.833701  
727.000000	 98.729948  
726.000000	 98.644660  
725.000000	 98.604168  
724.000000	 98.621408  
723.000000	 98.693601  
722.000000	 98.809525  
721.000000	 98.956115  
720.000000	 99.117211  
719.000000	 99.269716  
718.000000	 99.388915  
717.000000	 99.461076  
716.000000	 99.486950  
715.000000	 99.471552  
714.000000	 99.415840  
713.000000	 99.323793  
712.000000	 99.214368  
711.000000	 99.116261  
710.000000	 99.048540  
709.000000	 99.013017  
708.000000	 99.007935  
707.000000	 99.041271  
706.000000	 99.120435  
705.000000	 99.234021  
704.000000	 99.353582  
703.000000	 99.453601  
702.000000	 99.524144  
701.000000	 99.561441  
700.000000	 99.550938  
699.000000	 99.469441  
698.000000	 99.308787  
697.000000	 99.094872  
696.000000	 98.875259  
695.000000	 98.684734  
694.000000	 98.533307  
693.000000	 98.429840  
692.000000	 98.399965  
691.000000	 98.466803  
690.000000	 98.619669  
689.000000	 98.817788  
688.000000	 99.028730  
687.000000	 99.247205  
686.000000	 99.468379  
685.000000	 99.661537  
684.000000	 99.787242  
683.000000	 99.831914  
682.000000	 99.811402  
681.000000	 99.745682  
680.000000	 99.642361  
679.000000	 99.506824  
678.000000	 99.359323  
677.000000	 99.234060  
676.000000	 99.164446  
675.000000	 99.166965  
674.000000	 99.239222  
673.000000	 99.371938  
672.000000	 99.558373  
671.000000	 99.798439  
670.000000	 100.096188 
669.000000	 100.427189 
668.000000	 100.676557 
667.000000	 100.731556 
666.000000	 100.649049 
665.000000	 100.516483 
664.000000	 100.353868 
663.000000	 100.162097 
662.000000	 99.957439  
661.000000	 99.764115  
660.000000	 99.611259  
659.000000	 99.544454  
658.000000	 99.603293  
657.000000	 99.779896  
656.000000	 100.028632 
655.000000	 100.309971 
654.000000	 100.609211 
653.000000	 100.917810 
652.000000	 101.201703 
651.000000	 101.392468 
650.000000	 101.432028 

