4000.000000	99.219537 
3999.000000	99.215044 
3998.000000	99.211676 
3997.000000	99.212157 
3996.000000	99.215922 
3995.000000	99.219864 
3994.000000	99.221699 
3993.000000	99.221898 
3992.000000	99.222153 
3991.000000	99.222692 
3990.000000	99.221948 
3989.000000	99.218708 
3988.000000	99.213891 
3987.000000	99.210035 
3986.000000	99.209322 
3985.000000	99.212070 
3984.000000	99.216714 
3983.000000	99.221256 
3982.000000	99.224871 
3981.000000	99.228075 
3980.000000	99.231424 
3979.000000	99.234448 
3978.000000	99.236166 
3977.000000	99.236335 
3976.000000	99.235649 
3975.000000	99.234564 
3974.000000	99.232513 
3973.000000	99.228754 
3972.000000	99.223916 
3971.000000	99.220154 
3970.000000	99.219713 
3969.000000	99.223185 
3968.000000	99.228878 
3967.000000	99.233868 
3966.000000	99.235840 
3965.000000	99.234429 
3964.000000	99.230988 
3963.000000	99.227516 
3962.000000	99.225559 
3961.000000	99.225507 
3960.000000	99.226432 
3959.000000	99.226670 
3958.000000	99.225432 
3957.000000	99.223943 
3956.000000	99.224107 
3955.000000	99.226033 
3954.000000	99.227457 
3953.000000	99.226186 
3952.000000	99.222273 
3951.000000	99.217798 
3950.000000	99.214825 
3949.000000	99.213603 
3948.000000	99.212990 
3947.000000	99.212716 
3946.000000	99.214425 
3945.000000	99.219242 
3944.000000	99.224826 
3943.000000	99.226476 
3942.000000	99.222172 
3941.000000	99.215605 
3940.000000	99.212352 
3939.000000	99.213706 
3938.000000	99.216398 
3937.000000	99.217207 
3936.000000	99.215765 
3935.000000	99.213629 
3934.000000	99.212287 
3933.000000	99.213095 
3932.000000	99.216959 
3931.000000	99.223004 
3930.000000	99.228686 
3929.000000	99.231558 
3928.000000	99.231421 
3927.000000	99.229649 
3926.000000	99.226592 
3925.000000	99.221392 
3924.000000	99.214903 
3923.000000	99.210283 
3922.000000	99.208431 
3921.000000	99.206356 
3920.000000	99.202294 
3919.000000	99.198780 
3918.000000	99.198430 
3917.000000	99.200142 
3916.000000	99.201976 
3915.000000	99.205192 
3914.000000	99.211598 
3913.000000	99.219031 
3912.000000	99.222922 
3911.000000	99.220763 
3910.000000	99.213595 
3909.000000	99.204999 
3908.000000	99.198626 
3907.000000	99.197061 
3906.000000	99.199662 
3905.000000	99.202481 
3904.000000	99.201072 
3903.000000	99.196324 
3902.000000	99.194318 
3901.000000	99.197740 
3900.000000	99.201842 
3899.000000	99.201437 
3898.000000	99.197748 
3897.000000	99.194683 
3896.000000	99.192471 
3895.000000	99.189895 
3894.000000	99.190380 
3893.000000	99.198454 
3892.000000	99.209785 
3891.000000	99.213014 
3890.000000	99.206553 
3889.000000	99.202714 
3888.000000	99.208214 
3887.000000	99.216645 
3886.000000	99.217439 
3885.000000	99.207065 
3884.000000	99.195896 
3883.000000	99.195679 
3882.000000	99.203006 
3881.000000	99.207268 
3880.000000	99.203078 
3879.000000	99.194382 
3878.000000	99.191408 
3877.000000	99.197457 
3876.000000	99.204961 
3875.000000	99.205051 
3874.000000	99.195383 
3873.000000	99.184417 
3872.000000	99.182867 
3871.000000	99.188315 
3870.000000	99.187510 
3869.000000	99.177349 
3868.000000	99.174027 
3867.000000	99.187852 
3866.000000	99.205711 
3865.000000	99.213378 
3864.000000	99.212175 
3863.000000	99.209780 
3862.000000	99.208504 
3861.000000	99.204947 
3860.000000	99.196984 
3859.000000	99.184985 
3858.000000	99.168256 
3857.000000	99.149453 
3856.000000	99.138311 
3855.000000	99.147166 
3854.000000	99.168824 
3853.000000	99.174522 
3852.000000	99.165767 
3851.000000	99.175585 
3850.000000	99.201972 
3849.000000	99.219057 
3848.000000	99.220504 
3847.000000	99.215000 
3846.000000	99.209512 
3845.000000	99.205512 
3844.000000	99.202340 
3843.000000	99.198622 
3842.000000	99.194267 
3841.000000	99.191906 
3840.000000	99.193964 
3839.000000	99.200176 
3838.000000	99.206465 
3837.000000	99.208826 
3836.000000	99.207485 
3835.000000	99.205766 
3834.000000	99.204938 
3833.000000	99.204581 
3832.000000	99.204045 
3831.000000	99.203836 
3830.000000	99.206487 
3829.000000	99.213095 
3828.000000	99.219469 
3827.000000	99.218409 
3826.000000	99.207461 
3825.000000	99.194891 
3824.000000	99.192586 
3823.000000	99.203118 
3822.000000	99.215234 
3821.000000	99.211595 
3820.000000	99.192899 
3819.000000	99.184094 
3818.000000	99.194879 
3817.000000	99.208554 
3816.000000	99.209589 
3815.000000	99.199889 
3814.000000	99.196724 
3813.000000	99.206071 
3812.000000	99.212362 
3811.000000	99.205661 
3810.000000	99.195227 
3809.000000	99.194134 
3808.000000	99.202435 
3807.000000	99.206239 
3806.000000	99.198018 
3805.000000	99.190275 
3804.000000	99.195174 
3803.000000	99.207494 
3802.000000	99.213718 
3801.000000	99.203101 
3800.000000	99.184999 
3799.000000	99.181163 
3798.000000	99.190399 
3797.000000	99.197024 
3796.000000	99.195815 
3795.000000	99.192755 
3794.000000	99.195367 
3793.000000	99.203425 
3792.000000	99.211429 
3791.000000	99.215916 
3790.000000	99.216661 
3789.000000	99.214494 
3788.000000	99.212366 
3787.000000	99.214549 
3786.000000	99.222060 
3785.000000	99.230088 
3784.000000	99.233556 
3783.000000	99.233165 
3782.000000	99.232863 
3781.000000	99.233201 
3780.000000	99.230999 
3779.000000	99.224200 
3778.000000	99.216155 
3777.000000	99.212651 
3776.000000	99.213368 
3775.000000	99.212922 
3774.000000	99.209734 
3773.000000	99.208482 
3772.000000	99.212228 
3771.000000	99.216314 
3770.000000	99.213243 
3769.000000	99.204298 
3768.000000	99.200019 
3767.000000	99.205712 
3766.000000	99.214029 
3765.000000	99.216042 
3764.000000	99.212763 
3763.000000	99.212169 
3762.000000	99.216775 
3761.000000	99.221534 
3760.000000	99.222761 
3759.000000	99.220672 
3758.000000	99.215321 
3757.000000	99.206332 
3756.000000	99.195675 
3755.000000	99.187618 
3754.000000	99.184135 
3753.000000	99.185505 
3752.000000	99.192038 
3751.000000	99.198863 
3750.000000	99.195340 
3749.000000	99.179875 
3748.000000	99.165501 
3747.000000	99.163609 
3746.000000	99.173334 
3745.000000	99.183225 
3744.000000	99.176536 
3743.000000	99.161759 
3742.000000	99.167848 
3741.000000	99.186975 
3740.000000	99.192624 
3739.000000	99.185468 
3738.000000	99.180296 
3737.000000	99.182687 
3736.000000	99.186953 
3735.000000	99.190103 
3734.000000	99.195230 
3733.000000	99.201251 
3732.000000	99.201920 
3731.000000	99.197994 
3730.000000	99.197747 
3729.000000	99.203215 
3728.000000	99.207908 
3727.000000	99.207832 
3726.000000	99.206822 
3725.000000	99.211241 
3724.000000	99.221198 
3723.000000	99.229154 
3722.000000	99.230039 
3721.000000	99.226640 
3720.000000	99.224694 
3719.000000	99.225309 
3718.000000	99.223744 
3717.000000	99.215418 
3716.000000	99.201026 
3715.000000	99.184983 
3714.000000	99.170596 
3713.000000	99.160058 
3712.000000	99.154224 
3711.000000	99.152038 
3710.000000	99.153793 
3709.000000	99.159942 
3708.000000	99.166523 
3707.000000	99.167881 
3706.000000	99.162300 
3705.000000	99.153325 
3704.000000	99.145980 
3703.000000	99.142798 
3702.000000	99.141612 
3701.000000	99.138356 
3700.000000	99.133236 
3699.000000	99.129236 
3698.000000	99.124891 
3697.000000	99.115544 
3696.000000	99.101028 
3695.000000	99.086794 
3694.000000	99.076558 
3693.000000	99.068568 
3692.000000	99.061707 
3691.000000	99.059106 
3690.000000	99.061966 
3689.000000	99.063786 
3688.000000	99.059157 
3687.000000	99.055251 
3686.000000	99.060880 
3685.000000	99.071329 
3684.000000	99.076294 
3683.000000	99.073746 
3682.000000	99.068026 
3681.000000	99.060388 
3680.000000	99.046597 
3679.000000	99.026460 
3678.000000	99.008690 
3677.000000	99.001391 
3676.000000	98.999928 
3675.000000	98.991182 
3674.000000	98.982134 
3673.000000	98.991498 
3672.000000	99.012279 
3671.000000	99.026976 
3670.000000	99.030047 
3669.000000	99.024530 
3668.000000	99.021991 
3667.000000	99.028012 
3666.000000	99.034903 
3665.000000	99.036983 
3664.000000	99.035705 
3663.000000	99.033724 
3662.000000	99.031080 
3661.000000	99.027034 
3660.000000	99.023660 
3659.000000	99.026043 
3658.000000	99.036516 
3657.000000	99.048970 
3656.000000	99.052730 
3655.000000	99.047370 
3654.000000	99.044509 
3653.000000	99.049359 
3652.000000	99.057957 
3651.000000	99.067331 
3650.000000	99.074373 
3649.000000	99.073985 
3648.000000	99.068747 
3647.000000	99.067238 
3646.000000	99.073236 
3645.000000	99.084210 
3644.000000	99.095443 
3643.000000	99.103986 
3642.000000	99.110139 
3641.000000	99.116376 
3640.000000	99.124358 
3639.000000	99.133242 
3638.000000	99.140917 
3637.000000	99.147570 
3636.000000	99.153970 
3635.000000	99.157036 
3634.000000	99.152002 
3633.000000	99.140132 
3632.000000	99.130192 
3631.000000	99.130039 
3630.000000	99.140097 
3629.000000	99.148621 
3628.000000	99.144812 
3627.000000	99.141696 
3626.000000	99.151860 
3625.000000	99.164371 
3624.000000	99.168473 
3623.000000	99.166357 
3622.000000	99.164072 
3621.000000	99.164163 
3620.000000	99.164995 
3619.000000	99.163478 
3618.000000	99.159914 
3617.000000	99.159679 
3616.000000	99.165632 
3615.000000	99.173564 
3614.000000	99.176681 
3613.000000	99.171441 
3612.000000	99.160965 
3611.000000	99.152411 
3610.000000	99.150498 
3609.000000	99.154808 
3608.000000	99.161924 
3607.000000	99.168897 
3606.000000	99.174900 
3605.000000	99.179666 
3604.000000	99.182941 
3603.000000	99.185555 
3602.000000	99.188135 
3601.000000	99.190260 
3600.000000	99.192307 
3599.000000	99.196043 
3598.000000	99.201414 
3597.000000	99.205471 
3596.000000	99.205593 
3595.000000	99.201185 
3594.000000	99.193642 
3593.000000	99.186152 
3592.000000	99.182846 
3591.000000	99.185956 
3590.000000	99.194897 
3589.000000	99.205716 
3588.000000	99.211711 
3587.000000	99.208622 
3586.000000	99.201282 
3585.000000	99.198116 
3584.000000	99.200365 
3583.000000	99.203315 
3582.000000	99.203392 
3581.000000	99.200434 
3580.000000	99.196057 
3579.000000	99.191940 
3578.000000	99.189068 
3577.000000	99.187870 
3576.000000	99.188909 
3575.000000	99.192109 
3574.000000	99.195903 
3573.000000	99.197675 
3572.000000	99.195728 
3571.000000	99.190516 
3570.000000	99.184266 
3569.000000	99.179508 
3568.000000	99.177496 
3567.000000	99.178114 
3566.000000	99.181743 
3565.000000	99.189372 
3564.000000	99.198597 
3563.000000	99.204306 
3562.000000	99.204264 
3561.000000	99.200639 
3560.000000	99.196596 
3559.000000	99.193247 
3558.000000	99.189994 
3557.000000	99.186738 
3556.000000	99.185115 
3555.000000	99.187206 
3554.000000	99.192754 
3553.000000	99.198338 
3552.000000	99.199935 
3551.000000	99.196501 
3550.000000	99.190139 
3549.000000	99.183783 
3548.000000	99.180096 
3547.000000	99.181184 
3546.000000	99.186785 
3545.000000	99.193654 
3544.000000	99.198272 
3543.000000	99.199441 
3542.000000	99.198072 
3541.000000	99.195733 
3540.000000	99.194092 
3539.000000	99.194750 
3538.000000	99.198119 
3537.000000	99.202488 
3536.000000	99.204828 
3535.000000	99.203213 
3534.000000	99.198152 
3533.000000	99.192052 
3532.000000	99.187903 
3531.000000	99.187849 
3530.000000	99.191698 
3529.000000	99.196673 
3528.000000	99.199990 
3527.000000	99.201544 
3526.000000	99.203300 
3525.000000	99.206006 
3524.000000	99.208213 
3523.000000	99.208620 
3522.000000	99.207947 
3521.000000	99.207676 
3520.000000	99.207891 
3519.000000	99.207417 
3518.000000	99.205591 
3517.000000	99.203048 
3516.000000	99.200773 
3515.000000	99.199250 
3514.000000	99.198833 
3513.000000	99.200108 
3512.000000	99.203033 
3511.000000	99.206152 
3510.000000	99.207691 
3509.000000	99.207388 
3508.000000	99.206897 
3507.000000	99.207883 
3506.000000	99.209672 
3505.000000	99.209174 
3504.000000	99.203822 
3503.000000	99.195055 
3502.000000	99.188720 
3501.000000	99.190712 
3500.000000	99.201435 
3499.000000	99.214658 
3498.000000	99.222068 
3497.000000	99.219678 
3496.000000	99.210793 
3495.000000	99.202697 
3494.000000	99.200216 
3493.000000	99.202317 
3492.000000	99.204497 
3491.000000	99.203774 
3490.000000	99.201218 
3489.000000	99.199923 
3488.000000	99.201202 
3487.000000	99.203408 
3486.000000	99.204264 
3485.000000	99.203473 
3484.000000	99.202656 
3483.000000	99.203167 
3482.000000	99.204311 
3481.000000	99.203959 
3480.000000	99.201007 
3479.000000	99.196947 
3478.000000	99.194684 
3477.000000	99.195588 
3476.000000	99.197991 
3475.000000	99.198947 
3474.000000	99.197571 
3473.000000	99.195936 
3472.000000	99.196439 
3471.000000	99.199106 
3470.000000	99.202083 
3469.000000	99.204047 
3468.000000	99.205087 
3467.000000	99.205616 
3466.000000	99.205543 
3465.000000	99.204651 
3464.000000	99.202978 
3463.000000	99.200589 
3462.000000	99.197354 
3461.000000	99.193277 
3460.000000	99.188923 
3459.000000	99.185493 
3458.000000	99.184411 
3457.000000	99.186349 
3456.000000	99.190214 
3455.000000	99.193598 
3454.000000	99.194853 
3453.000000	99.194539 
3452.000000	99.194539 
3451.000000	99.196040 
3450.000000	99.198598 
3449.000000	99.200722 
3448.000000	99.201061 
3447.000000	99.199294 
3446.000000	99.196557 
3445.000000	99.194721 
3444.000000	99.194634 
3443.000000	99.195251 
3442.000000	99.194940 
3441.000000	99.193500 
3440.000000	99.192395 
3439.000000	99.192806 
3438.000000	99.194061 
3437.000000	99.194568 
3436.000000	99.193973 
3435.000000	99.193849 
3434.000000	99.195970 
3433.000000	99.200087 
3432.000000	99.203795 
3431.000000	99.204643 
3430.000000	99.202117 
3429.000000	99.197677 
3428.000000	99.193391 
3427.000000	99.190570 
3426.000000	99.189452 
3425.000000	99.189725 
3424.000000	99.191084 
3423.000000	99.193213 
3422.000000	99.195370 
3421.000000	99.196454 
3420.000000	99.195827 
3419.000000	99.194159 
3418.000000	99.193189 
3417.000000	99.194318 
3416.000000	99.197231 
3415.000000	99.199944 
3414.000000	99.200434 
3413.000000	99.198332 
3412.000000	99.194949 
3411.000000	99.191867 
3410.000000	99.190003 
3409.000000	99.189845 
3408.000000	99.191555 
3407.000000	99.194173 
3406.000000	99.195515 
3405.000000	99.194037 
3404.000000	99.190740 
3403.000000	99.188378 
3402.000000	99.188698 
3401.000000	99.191151 
3400.000000	99.194222 
3399.000000	99.197119 
3398.000000	99.199924 
3397.000000	99.202694 
3396.000000	99.204832 
3395.000000	99.205300 
3394.000000	99.203578 
3393.000000	99.200615 
3392.000000	99.198438 
3391.000000	99.198268 
3390.000000	99.199211 
3389.000000	99.199361 
3388.000000	99.197995 
3387.000000	99.196018 
3386.000000	99.194443 
3385.000000	99.193365 
3384.000000	99.192702 
3383.000000	99.193020 
3382.000000	99.194823 
3381.000000	99.197261 
3380.000000	99.198171 
3379.000000	99.195797 
3378.000000	99.190697 
3377.000000	99.185957 
3376.000000	99.185170 
3375.000000	99.189749 
3374.000000	99.198008 
3373.000000	99.206585 
3372.000000	99.212496 
3371.000000	99.214195 
3370.000000	99.211873 
3369.000000	99.207602 
3368.000000	99.204517 
3367.000000	99.204611 
3366.000000	99.206958 
3365.000000	99.208586 
3364.000000	99.207308 
3363.000000	99.203498 
3362.000000	99.199262 
3361.000000	99.196378 
3360.000000	99.195107 
3359.000000	99.194629 
3358.000000	99.194361 
3357.000000	99.194740 
3356.000000	99.196502 
3355.000000	99.199167 
3354.000000	99.200896 
3353.000000	99.200424 
3352.000000	99.198787 
3351.000000	99.198454 
3350.000000	99.200847 
3349.000000	99.205178 
3348.000000	99.209477 
3347.000000	99.212189 
3346.000000	99.212993 
3345.000000	99.212783 
3344.000000	99.212810 
3343.000000	99.213131 
3342.000000	99.212128 
3341.000000	99.208542 
3340.000000	99.203881 
3339.000000	99.201437 
3338.000000	99.202431 
3337.000000	99.204286 
3336.000000	99.203681 
3335.000000	99.200623 
3334.000000	99.198352 
3333.000000	99.199448 
3332.000000	99.202963 
3331.000000	99.205486 
3330.000000	99.204534 
3329.000000	99.200868 
3328.000000	99.197834 
3327.000000	99.198374 
3326.000000	99.202387 
3325.000000	99.207131 
3324.000000	99.210261 
3323.000000	99.211991 
3322.000000	99.213886 
3321.000000	99.216088 
3320.000000	99.216666 
3319.000000	99.213870 
3318.000000	99.208514 
3317.000000	99.203660 
3316.000000	99.202012 
3315.000000	99.203771 
3314.000000	99.206984 
3313.000000	99.209817 
3312.000000	99.212119 
3311.000000	99.214651 
3310.000000	99.217268 
3309.000000	99.218752 
3308.000000	99.218590 
3307.000000	99.217958 
3306.000000	99.218097 
3305.000000	99.218151 
3304.000000	99.215681 
3303.000000	99.209572 
3302.000000	99.201920 
3301.000000	99.196654 
3300.000000	99.196315 
3299.000000	99.200121 
3298.000000	99.204854 
3297.000000	99.207583 
3296.000000	99.207936 
3295.000000	99.208039 
3294.000000	99.210257 
3293.000000	99.214910 
3292.000000	99.220030 
3291.000000	99.223173 
3290.000000	99.223409 
3289.000000	99.221672 
3288.000000	99.219575 
3287.000000	99.218118 
3286.000000	99.217323 
3285.000000	99.216760 
3284.000000	99.216130 
3283.000000	99.215250 
3282.000000	99.213803 
3281.000000	99.211538 
3280.000000	99.208780 
3279.000000	99.206441 
3278.000000	99.205369 
3277.000000	99.205829 
3276.000000	99.207650 
3275.000000	99.210517 
3274.000000	99.213708 
3273.000000	99.215736 
3272.000000	99.214946 
3271.000000	99.210952 
3270.000000	99.205393 
3269.000000	99.200941 
3268.000000	99.199413 
3267.000000	99.200859 
3266.000000	99.204221 
3265.000000	99.208492 
3264.000000	99.213149 
3263.000000	99.217842 
3262.000000	99.222171 
3261.000000	99.225677 
3260.000000	99.227602 
3259.000000	99.226770 
3258.000000	99.222356 
3257.000000	99.214969 
3256.000000	99.206670 
3255.000000	99.199977 
3254.000000	99.197027 
3253.000000	99.199165 
3252.000000	99.205979 
3251.000000	99.214266 
3250.000000	99.219187 
3249.000000	99.217902 
3248.000000	99.212017 
3247.000000	99.205715 
3246.000000	99.201694 
3245.000000	99.199734 
3244.000000	99.198986 
3243.000000	99.200262 
3242.000000	99.205282 
3241.000000	99.214079 
3240.000000	99.223665 
3239.000000	99.229385 
3238.000000	99.228106 
3237.000000	99.220749 
3236.000000	99.211758 
3235.000000	99.205590 
3234.000000	99.203478 
3233.000000	99.203717 
3232.000000	99.204652 
3231.000000	99.206420 
3230.000000	99.209638 
3229.000000	99.213403 
3228.000000	99.215399 
3227.000000	99.213877 
3226.000000	99.209269 
3225.000000	99.204091 
3224.000000	99.201348 
3223.000000	99.202474 
3222.000000	99.206262 
3221.000000	99.209934 
3220.000000	99.211483 
3219.000000	99.210906 
3218.000000	99.209396 
3217.000000	99.207967 
3216.000000	99.207116 
3215.000000	99.207124 
3214.000000	99.207944 
3213.000000	99.208946 
3212.000000	99.209551 
3211.000000	99.210261 
3210.000000	99.212466 
3209.000000	99.216747 
3208.000000	99.221603 
3207.000000	99.224428 
3206.000000	99.224051 
3205.000000	99.222135 
3204.000000	99.221714 
3203.000000	99.224223 
3202.000000	99.228283 
3201.000000	99.231475 
3200.000000	99.232728 
3199.000000	99.232490 
3198.000000	99.231257 
3197.000000	99.229147 
3196.000000	99.226895 
3195.000000	99.225921 
3194.000000	99.226616 
3193.000000	99.227393 
3192.000000	99.226423 
3191.000000	99.223976 
3190.000000	99.222194 
3189.000000	99.222673 
3188.000000	99.225002 
3187.000000	99.227533 
3186.000000	99.228800 
3185.000000	99.228104 
3184.000000	99.225536 
3183.000000	99.221967 
3182.000000	99.218649 
3181.000000	99.216315 
3180.000000	99.214763 
3179.000000	99.213459 
3178.000000	99.212174 
3177.000000	99.210837 
3176.000000	99.209249 
3175.000000	99.207627 
3174.000000	99.207292 
3173.000000	99.209953 
3172.000000	99.215688 
3171.000000	99.221850 
3170.000000	99.224862 
3169.000000	99.223628 
3168.000000	99.220917 
3167.000000	99.220799 
3166.000000	99.224683 
3165.000000	99.230147 
3164.000000	99.233523 
3163.000000	99.233115 
3162.000000	99.229927 
3161.000000	99.226158 
3160.000000	99.223712 
3159.000000	99.223612 
3158.000000	99.225709 
3157.000000	99.228621 
3156.000000	99.230514 
3155.000000	99.230429 
3154.000000	99.228971 
3153.000000	99.227816 
3152.000000	99.228416 
3151.000000	99.230649 
3150.000000	99.232489 
3149.000000	99.231700 
3148.000000	99.228426 
3147.000000	99.225526 
3146.000000	99.225508 
3145.000000	99.227662 
3144.000000	99.229356 
3143.000000	99.229817 
3142.000000	99.231013 
3141.000000	99.234437 
3140.000000	99.238492 
3139.000000	99.240115 
3138.000000	99.238331 
3137.000000	99.235269 
3136.000000	99.233837 
3135.000000	99.235024 
3134.000000	99.237364 
3133.000000	99.238556 
3132.000000	99.237648 
3131.000000	99.235785 
3130.000000	99.234600 
3129.000000	99.233987 
3128.000000	99.232239 
3127.000000	99.228712 
3126.000000	99.225472 
3125.000000	99.225397 
3124.000000	99.229100 
3123.000000	99.234393 
3122.000000	99.238418 
3121.000000	99.239769 
3120.000000	99.239022 
3119.000000	99.237810 
3118.000000	99.237204 
3117.000000	99.236612 
3116.000000	99.234715 
3115.000000	99.231753 
3114.000000	99.229858 
3113.000000	99.230205 
3112.000000	99.230890 
3111.000000	99.229245 
3110.000000	99.225678 
3109.000000	99.223294 
3108.000000	99.223622 
3107.000000	99.224653 
3106.000000	99.223793 
3105.000000	99.221182 
3104.000000	99.219126 
3103.000000	99.219441 
3102.000000	99.222465 
3101.000000	99.227685 
3100.000000	99.233823 
3099.000000	99.238497 
3098.000000	99.239399 
3097.000000	99.236569 
3096.000000	99.232822 
3095.000000	99.231272 
3094.000000	99.232676 
3093.000000	99.235403 
3092.000000	99.237437 
3091.000000	99.237920 
3090.000000	99.237199 
3089.000000	99.236282 
3088.000000	99.236452 
3087.000000	99.238681 
3086.000000	99.242663 
3085.000000	99.246546 
3084.000000	99.248235 
3083.000000	99.247164 
3082.000000	99.244583 
3081.000000	99.242185 
3080.000000	99.240818 
3079.000000	99.240469 
3078.000000	99.240816 
3077.000000	99.241379 
3076.000000	99.241603 
3075.000000	99.241355 
3074.000000	99.241143 
3073.000000	99.241481 
3072.000000	99.242354 
3071.000000	99.243598 
3070.000000	99.245177 
3069.000000	99.246441 
3068.000000	99.245738 
3067.000000	99.241956 
3066.000000	99.236437 
3065.000000	99.232206 
3064.000000	99.230955 
3063.000000	99.231583 
3062.000000	99.232053 
3061.000000	99.231861 
3060.000000	99.232100 
3059.000000	99.233726 
3058.000000	99.236420 
3057.000000	99.238888 
3056.000000	99.239809 
3055.000000	99.238839 
3054.000000	99.237153 
3053.000000	99.236626 
3052.000000	99.238055 
3051.000000	99.240398 
3050.000000	99.242023 
3049.000000	99.242098 
3048.000000	99.240247 
3047.000000	99.235659 
3046.000000	99.227861 
3045.000000	99.218256 
3044.000000	99.209644 
3043.000000	99.203828 
3042.000000	99.200501 
3041.000000	99.198593 
3040.000000	99.197606 
3039.000000	99.197121 
3038.000000	99.196051 
3037.000000	99.193393 
3036.000000	99.189336 
3035.000000	99.184761 
3034.000000	99.179890 
3033.000000	99.174206 
3032.000000	99.167521 
3031.000000	99.160242 
3030.000000	99.152336 
3029.000000	99.142734 
3028.000000	99.130390 
3027.000000	99.115861 
3026.000000	99.101392 
3025.000000	99.089113 
3024.000000	99.079090 
3023.000000	99.069308 
3022.000000	99.057650 
3021.000000	99.043836 
3020.000000	99.029459 
3019.000000	99.016375 
3018.000000	99.005291 
3017.000000	98.995650 
3016.000000	98.986286 
3015.000000	98.975954 
3014.000000	98.963698 
3013.000000	98.949162 
3012.000000	98.932484 
3011.000000	98.913868 
3010.000000	98.893628 
3009.000000	98.872882 
3008.000000	98.853664 
3007.000000	98.837732 
3006.000000	98.825160 
3005.000000	98.814217 
3004.000000	98.802339 
3003.000000	98.787168 
3002.000000	98.767478 
3001.000000	98.744192 
3000.000000	98.720404 
2999.000000	98.699432 
2998.000000	98.682639 
2997.000000	98.669823 
2996.000000	98.661128 
2995.000000	98.656362 
2994.000000	98.651389 
2993.000000	98.637556 
2992.000000	98.608420 
2991.000000	98.567996 
2990.000000	98.530289 
2989.000000	98.508629 
2988.000000	98.505432 
2987.000000	98.512758 
2986.000000	98.521489 
2985.000000	98.528385 
2984.000000	98.534938 
2983.000000	98.542270 
2982.000000	98.548939 
2981.000000	98.552839 
2980.000000	98.553613 
2979.000000	98.552725 
2978.000000	98.551744 
2977.000000	98.550848 
2976.000000	98.548810 
2975.000000	98.544404 
2974.000000	98.538003 
2973.000000	98.531853 
2972.000000	98.528643 
2971.000000	98.529781 
2970.000000	98.535089 
2969.000000	98.543830 
2968.000000	98.555577 
2967.000000	98.569984 
2966.000000	98.586110 
2965.000000	98.602431 
2964.000000	98.617680 
2963.000000	98.631566 
2962.000000	98.644549 
2961.000000	98.656835 
2960.000000	98.667777 
2959.000000	98.676606 
2958.000000	98.683791 
2957.000000	98.691162 
2956.000000	98.700037 
2955.000000	98.709361 
2954.000000	98.716540 
2953.000000	98.720771 
2952.000000	98.725059 
2951.000000	98.733882 
2950.000000	98.748410 
2949.000000	98.764600 
2948.000000	98.776666 
2947.000000	98.782199 
2946.000000	98.783437 
2945.000000	98.783886 
2944.000000	98.784982 
2943.000000	98.786408 
2942.000000	98.788291 
2941.000000	98.791476 
2940.000000	98.795709 
2939.000000	98.798955 
2938.000000	98.799283 
2937.000000	98.797042 
2936.000000	98.794793 
2935.000000	98.795287 
2934.000000	98.799483 
2933.000000	98.805844 
2932.000000	98.811143 
2931.000000	98.812452 
2930.000000	98.809038 
2929.000000	98.802591 
2928.000000	98.795742 
2927.000000	98.790519 
2926.000000	98.787832 
2925.000000	98.787339 
2924.000000	98.787407 
2923.000000	98.786019 
2922.000000	98.782482 
2921.000000	98.777963 
2920.000000	98.773927 
2919.000000	98.770501 
2918.000000	98.766777 
2917.000000	98.762124 
2916.000000	98.756562 
2915.000000	98.750411 
2914.000000	98.744453 
2913.000000	98.740124 
2912.000000	98.738414 
2911.000000	98.738362 
2910.000000	98.737341 
2909.000000	98.733202 
2908.000000	98.725847 
2907.000000	98.716692 
2906.000000	98.706979 
2905.000000	98.696637 
2904.000000	98.684521 
2903.000000	98.670331 
2902.000000	98.657051 
2901.000000	98.651066 
2900.000000	98.658000 
2899.000000	98.677296 
2898.000000	98.701285 
2897.000000	98.720549 
2896.000000	98.730751 
2895.000000	98.734575 
2894.000000	98.737747 
2893.000000	98.743509 
2892.000000	98.750597 
2891.000000	98.755737 
2890.000000	98.757616 
2889.000000	98.758162 
2888.000000	98.760063 
2887.000000	98.763730 
2886.000000	98.767486 
2885.000000	98.770441 
2884.000000	98.773970 
2883.000000	98.779992 
2882.000000	98.788768 
2881.000000	98.799144 
2880.000000	98.810359 
2879.000000	98.822793 
2878.000000	98.837109 
2877.000000	98.853130 
2876.000000	98.869227 
2875.000000	98.882416 
2874.000000	98.889834 
2873.000000	98.891342 
2872.000000	98.890663 
2871.000000	98.892929 
2870.000000	98.900634 
2869.000000	98.912217 
2868.000000	98.924531 
2867.000000	98.936031 
2866.000000	98.947580 
2865.000000	98.960932 
2864.000000	98.976770 
2863.000000	98.993620 
2862.000000	99.008346 
2861.000000	99.018439 
2860.000000	99.024597 
2859.000000	99.030712 
2858.000000	99.040498 
2857.000000	99.054045 
2856.000000	99.068014 
2855.000000	99.079098 
2854.000000	99.086722 
2853.000000	99.092400 
2852.000000	99.097433 
2851.000000	99.102070 
2850.000000	99.106610 
2849.000000	99.112143 
2848.000000	99.119498 
2847.000000	99.127833 
2846.000000	99.134963 
2845.000000	99.139223 
2844.000000	99.140779 
2843.000000	99.141288 
2842.000000	99.142745 
2841.000000	99.146492 
2840.000000	99.152476 
2839.000000	99.158941 
2838.000000	99.163310 
2837.000000	99.164103 
2836.000000	99.162209 
2835.000000	99.160216 
2834.000000	99.160561 
2833.000000	99.164195 
2832.000000	99.170386 
2831.000000	99.177305 
2830.000000	99.183090 
2829.000000	99.186992 
2828.000000	99.189690 
2827.000000	99.192212 
2826.000000	99.194592 
2825.000000	99.195884 
2824.000000	99.195594 
2823.000000	99.194796 
2822.000000	99.195540 
2821.000000	99.199027 
2820.000000	99.204388 
2819.000000	99.209428 
2818.000000	99.212692 
2817.000000	99.214634 
2816.000000	99.216507 
2815.000000	99.218454 
2814.000000	99.219387 
2813.000000	99.218703 
2812.000000	99.217201 
2811.000000	99.215855 
2810.000000	99.214538 
2809.000000	99.212796 
2808.000000	99.211332 
2807.000000	99.211626 
2806.000000	99.214051 
2805.000000	99.217209 
2804.000000	99.219420 
2803.000000	99.220340 
2802.000000	99.220907 
2801.000000	99.222030 
2800.000000	99.223565 
2799.000000	99.224417 
2798.000000	99.223692 
2797.000000	99.221872 
2796.000000	99.220591 
2795.000000	99.220938 
2794.000000	99.222261 
2793.000000	99.223066 
2792.000000	99.222762 
2791.000000	99.221963 
2790.000000	99.221418 
2789.000000	99.221514 
2788.000000	99.222728 
2787.000000	99.225574 
2786.000000	99.229796 
2785.000000	99.234272 
2784.000000	99.237984 
2783.000000	99.240517 
2782.000000	99.241570 
2781.000000	99.240863 
2780.000000	99.238941 
2779.000000	99.237325 
2778.000000	99.237169 
2777.000000	99.238118 
2776.000000	99.238810 
2775.000000	99.238170 
2774.000000	99.236019 
2773.000000	99.233065 
2772.000000	99.230723 
2771.000000	99.230401 
2770.000000	99.232523 
2769.000000	99.236545 
2768.000000	99.241986 
2767.000000	99.248502 
2766.000000	99.254551 
2765.000000	99.257294 
2764.000000	99.255165 
2763.000000	99.250042 
2762.000000	99.245650 
2761.000000	99.244064 
2760.000000	99.244731 
2759.000000	99.246465 
2758.000000	99.248860 
2757.000000	99.251642 
2756.000000	99.254101 
2755.000000	99.255813 
2754.000000	99.256975 
2753.000000	99.257477 
2752.000000	99.256587 
2751.000000	99.254197 
2750.000000	99.251562 
2749.000000	99.249947 
2748.000000	99.249061 
2747.000000	99.247640 
2746.000000	99.245305 
2745.000000	99.243106 
2744.000000	99.242368 
2743.000000	99.243567 
2742.000000	99.246213 
2741.000000	99.249307 
2740.000000	99.251960 
2739.000000	99.253994 
2738.000000	99.255963 
2737.000000	99.258398 
2736.000000	99.261147 
2735.000000	99.263580 
2734.000000	99.265126 
2733.000000	99.265417 
2732.000000	99.264386 
2731.000000	99.262703 
2730.000000	99.261676 
2729.000000	99.262127 
2728.000000	99.263587 
2727.000000	99.265058 
2726.000000	99.266218 
2725.000000	99.267278 
2724.000000	99.268145 
2723.000000	99.268649 
2722.000000	99.269383 
2721.000000	99.271158 
2720.000000	99.273414 
2719.000000	99.274200 
2718.000000	99.272235 
2717.000000	99.268419 
2716.000000	99.265018 
2715.000000	99.263889 
2714.000000	99.265595 
2713.000000	99.269271 
2712.000000	99.272891 
2711.000000	99.274590 
2710.000000	99.274521 
2709.000000	99.274788 
2708.000000	99.276754 
2707.000000	99.278971 
2706.000000	99.278753 
2705.000000	99.275553 
2704.000000	99.271781 
2703.000000	99.270199 
2702.000000	99.271274 
2701.000000	99.273247 
2700.000000	99.274193 
2699.000000	99.273674 
2698.000000	99.272637 
2697.000000	99.272024 
2696.000000	99.271709 
2695.000000	99.271087 
2694.000000	99.270478 
2693.000000	99.270986 
2692.000000	99.272534 
2691.000000	99.273166 
2690.000000	99.271503 
2689.000000	99.269309 
2688.000000	99.269970 
2687.000000	99.274307 
2686.000000	99.279298 
2685.000000	99.281454 
2684.000000	99.280367 
2683.000000	99.278324 
2682.000000	99.277453 
2681.000000	99.278207 
2680.000000	99.279868 
2679.000000	99.281343 
2678.000000	99.281633 
2677.000000	99.280535 
2676.000000	99.279144 
2675.000000	99.279072 
2674.000000	99.280907 
2673.000000	99.283620 
2672.000000	99.285434 
2671.000000	99.285009 
2670.000000	99.281931 
2669.000000	99.276670 
2668.000000	99.270520 
2667.000000	99.265470 
2666.000000	99.263593 
2665.000000	99.265907 
2664.000000	99.271531 
2663.000000	99.278134 
2662.000000	99.283458 
2661.000000	99.286395 
2660.000000	99.286625 
2659.000000	99.283976 
2658.000000	99.278978 
2657.000000	99.273772 
2656.000000	99.271284 
2655.000000	99.272859 
2654.000000	99.276988 
2653.000000	99.280594 
2652.000000	99.281369 
2651.000000	99.279159 
2650.000000	99.275896 
2649.000000	99.274209 
2648.000000	99.275231 
2647.000000	99.277419 
2646.000000	99.278176 
2645.000000	99.276792 
2644.000000	99.274883 
2643.000000	99.273845 
2642.000000	99.273244 
2641.000000	99.272437 
2640.000000	99.272428 
2639.000000	99.274768 
2638.000000	99.279245 
2637.000000	99.283770 
2636.000000	99.286214 
2635.000000	99.285723 
2634.000000	99.283022 
2633.000000	99.280321 
2632.000000	99.279969 
2631.000000	99.281981 
2630.000000	99.283690 
2629.000000	99.283104 
2628.000000	99.281692 
2627.000000	99.282169 
2626.000000	99.284337 
2625.000000	99.285420 
2624.000000	99.284264 
2623.000000	99.282825 
2622.000000	99.283060 
2621.000000	99.284540 
2620.000000	99.285951 
2619.000000	99.287035 
2618.000000	99.287880 
2617.000000	99.287867 
2616.000000	99.286672 
2615.000000	99.285264 
2614.000000	99.284715 
2613.000000	99.284907 
2612.000000	99.285445 
2611.000000	99.286907 
2610.000000	99.289865 
2609.000000	99.293192 
2608.000000	99.294814 
2607.000000	99.294228 
2606.000000	99.293434 
2605.000000	99.294992 
2604.000000	99.299313 
2603.000000	99.303889 
2602.000000	99.305340 
2601.000000	99.302637 
2600.000000	99.298154 
2599.000000	99.295149 
2598.000000	99.294673 
2597.000000	99.295688 
2596.000000	99.297231 
2595.000000	99.298581 
2594.000000	99.297865 
2593.000000	99.293385 
2592.000000	99.287113 
2591.000000	99.284223 
2590.000000	99.287412 
2589.000000	99.293655 
2588.000000	99.298315 
2587.000000	99.300361 
2586.000000	99.301048 
2585.000000	99.299357 
2584.000000	99.292663 
2583.000000	99.282034 
2582.000000	99.273409 
2581.000000	99.271900 
2580.000000	99.276501 
2579.000000	99.281540 
2578.000000	99.282292 
2577.000000	99.278541 
2576.000000	99.273813 
2575.000000	99.272132 
2574.000000	99.274936 
2573.000000	99.280242 
2572.000000	99.284545 
2571.000000	99.285433 
2570.000000	99.282571 
2569.000000	99.277375 
2568.000000	99.272628 
2567.000000	99.271276 
2566.000000	99.273819 
2565.000000	99.277276 
2564.000000	99.278351 
2563.000000	99.277265 
2562.000000	99.276712 
2561.000000	99.277636 
2560.000000	99.278605 
2559.000000	99.279262 
2558.000000	99.280995 
2557.000000	99.283000 
2556.000000	99.281174 
2555.000000	99.273864 
2554.000000	99.266422 
2553.000000	99.266342 
2552.000000	99.274431 
2551.000000	99.283976 
2550.000000	99.288642 
2549.000000	99.288108 
2548.000000	99.285319 
2547.000000	99.281537 
2546.000000	99.276547 
2545.000000	99.271970 
2544.000000	99.271287 
2543.000000	99.276131 
2542.000000	99.284055 
2541.000000	99.290627 
2540.000000	99.293217 
2539.000000	99.292403 
2538.000000	99.289946 
2537.000000	99.285920 
2536.000000	99.278616 
2535.000000	99.267870 
2534.000000	99.257831 
2533.000000	99.254634 
2532.000000	99.260486 
2531.000000	99.271097 
2530.000000	99.279893 
2529.000000	99.283963 
2528.000000	99.284895 
2527.000000	99.285017 
2526.000000	99.285121 
2525.000000	99.285908 
2524.000000	99.289159 
2523.000000	99.295797 
2522.000000	99.303668 
2521.000000	99.308767 
2520.000000	99.308759 
2519.000000	99.304668 
2518.000000	99.299237 
2517.000000	99.294273 
2516.000000	99.289621 
2515.000000	99.284419 
2514.000000	99.279112 
2513.000000	99.275709 
2512.000000	99.275320 
2511.000000	99.275843 
2510.000000	99.273794 
2509.000000	99.269265 
2508.000000	99.267506 
2507.000000	99.273654 
2506.000000	99.286258 
2505.000000	99.297655 
2504.000000	99.300959 
2503.000000	99.295475 
2502.000000	99.285476 
2501.000000	99.275820 
2500.000000	99.269692 
2499.000000	99.268740 
2498.000000	99.273071 
2497.000000	99.280850 
2496.000000	99.288940 
2495.000000	99.294316 
2494.000000	99.294870 
2493.000000	99.289769 
2492.000000	99.280228 
2491.000000	99.269796 
2490.000000	99.262594 
2489.000000	99.260418 
2488.000000	99.261624 
2487.000000	99.263101 
2486.000000	99.263373 
2485.000000	99.263970 
2484.000000	99.267880 
2483.000000	99.276352 
2482.000000	99.286847 
2481.000000	99.294350 
2480.000000	99.295305 
2479.000000	99.290359 
2478.000000	99.283160 
2477.000000	99.276934 
2476.000000	99.272735 
2475.000000	99.270490 
2474.000000	99.270346 
2473.000000	99.272460 
2472.000000	99.276279 
2471.000000	99.280821 
2470.000000	99.285211 
2469.000000	99.288221 
2468.000000	99.287845 
2467.000000	99.282760 
2466.000000	99.274747 
2465.000000	99.268634 
2464.000000	99.268465 
2463.000000	99.273492 
2462.000000	99.278573 
2461.000000	99.278940 
2460.000000	99.274450 
2459.000000	99.269124 
2458.000000	99.267006 
2457.000000	99.268747 
2456.000000	99.271815 
2455.000000	99.273272 
2454.000000	99.272188 
2453.000000	99.269800 
2452.000000	99.267860 
2451.000000	99.267061 
2450.000000	99.266964 
2449.000000	99.267030 
2448.000000	99.267233 
2447.000000	99.267693 
2446.000000	99.268343 
2445.000000	99.269365 
2444.000000	99.271560 
2443.000000	99.275605 
2442.000000	99.280926 
2441.000000	99.285627 
2440.000000	99.287614 
2439.000000	99.285895 
2438.000000	99.281420 
2437.000000	99.277044 
2436.000000	99.275746 
2435.000000	99.277644 
2434.000000	99.279071 
2433.000000	99.276029 
2432.000000	99.268805 
2431.000000	99.261858 
2430.000000	99.258795 
2429.000000	99.258961 
2428.000000	99.259937 
2427.000000	99.261624 
2426.000000	99.265542 
2425.000000	99.270615 
2424.000000	99.272412 
2423.000000	99.267923 
2422.000000	99.259686 
2421.000000	99.253675 
2420.000000	99.253464 
2419.000000	99.257548 
2418.000000	99.262024 
2417.000000	99.264445 
2416.000000	99.264700 
2415.000000	99.263405 
2414.000000	99.260887 
2413.000000	99.257732 
2412.000000	99.255193 
2411.000000	99.254237 
2410.000000	99.254439 
2409.000000	99.254471 
2408.000000	99.253851 
2407.000000	99.253817 
2406.000000	99.256159 
2405.000000	99.261269 
2404.000000	99.267469 
2403.000000	99.272081 
2402.000000	99.273043 
2401.000000	99.269858 
2400.000000	99.263737 
2399.000000	99.257121 
2398.000000	99.252679 
2397.000000	99.252017 
2396.000000	99.254925 
2395.000000	99.259837 
2394.000000	99.265090 
2393.000000	99.269736 
2392.000000	99.273358 
2391.000000	99.275733 
2390.000000	99.277143 
2389.000000	99.278655 
2388.000000	99.281321 
2387.000000	99.284801 
2386.000000	99.287295 
2385.000000	99.287211 
2384.000000	99.284797 
2383.000000	99.282009 
2382.000000	99.281018 
2381.000000	99.282754 
2380.000000	99.286093 
2379.000000	99.288079 
2378.000000	99.285884 
2377.000000	99.279851 
2376.000000	99.274174 
2375.000000	99.273226 
2374.000000	99.277009 
2373.000000	99.281549 
2372.000000	99.284464 
2371.000000	99.288465 
2370.000000	99.297655 
2369.000000	99.311025 
2368.000000	99.321336 
2367.000000	99.321098 
2366.000000	99.309703 
2365.000000	99.295222 
2364.000000	99.288359 
2363.000000	99.292857 
2362.000000	99.303018 
2361.000000	99.309734 
2360.000000	99.308688 
2359.000000	99.304089 
2358.000000	99.302285 
2357.000000	99.305557 
2356.000000	99.311467 
2355.000000	99.316044 
2354.000000	99.317642 
2353.000000	99.316083 
2352.000000	99.313447 
2351.000000	99.311355 
2350.000000	99.308498 
2349.000000	99.303362 
2348.000000	99.296447 
2347.000000	99.292432 
2346.000000	99.294128 
2345.000000	99.299043 
2344.000000	99.302763 
2343.000000	99.303321 
2342.000000	99.303768 
2341.000000	99.305102 
2340.000000	99.305628 
2339.000000	99.303795 
2338.000000	99.301372 
2337.000000	99.300877 
2336.000000	99.302123 
2335.000000	99.303037 
2334.000000	99.303114 
2333.000000	99.303105 
2332.000000	99.302721 
2331.000000	99.300240 
2330.000000	99.294548 
2329.000000	99.289357 
2328.000000	99.288119 
2327.000000	99.292813 
2326.000000	99.299587 
2325.000000	99.302806 
2324.000000	99.299480 
2323.000000	99.292430 
2322.000000	99.289023 
2321.000000	99.292723 
2320.000000	99.300526 
2319.000000	99.306250 
2318.000000	99.307415 
2317.000000	99.305822 
2316.000000	99.303325 
2315.000000	99.300407 
2314.000000	99.296957 
2313.000000	99.294540 
2312.000000	99.294188 
2311.000000	99.296773 
2310.000000	99.302187 
2309.000000	99.309787 
2308.000000	99.315685 
2307.000000	99.314992 
2306.000000	99.305954 
2305.000000	99.293072 
2304.000000	99.282578 
2303.000000	99.276987 
2302.000000	99.274254 
2301.000000	99.272223 
2300.000000	99.270180 
2299.000000	99.267789 
2298.000000	99.264078 
2297.000000	99.260347 
2296.000000	99.260043 
2295.000000	99.265362 
2294.000000	99.273203 
2293.000000	99.277873 
2292.000000	99.276337 
2291.000000	99.270569 
2290.000000	99.264136 
2289.000000	99.258549 
2288.000000	99.253239 
2287.000000	99.248170 
2286.000000	99.245168 
2285.000000	99.246122 
2284.000000	99.250443 
2283.000000	99.254614 
2282.000000	99.254817 
2281.000000	99.249684 
2280.000000	99.241006 
2279.000000	99.232301 
2278.000000	99.227439 
2277.000000	99.229328 
2276.000000	99.238182 
2275.000000	99.250503 
2274.000000	99.260415 
2273.000000	99.262619 
2272.000000	99.254535 
2271.000000	99.237525 
2270.000000	99.217711 
2269.000000	99.204497 
2268.000000	99.204813 
2267.000000	99.217392 
2266.000000	99.233668 
2265.000000	99.244769 
2264.000000	99.247053 
2263.000000	99.242504 
2262.000000	99.236925 
2261.000000	99.237428 
2260.000000	99.246971 
2259.000000	99.259114 
2258.000000	99.261968 
2257.000000	99.250563 
2256.000000	99.233138 
2255.000000	99.221833 
2254.000000	99.219678 
2253.000000	99.220756 
2252.000000	99.221214 
2251.000000	99.224463 
2250.000000	99.234806 
2249.000000	99.250618 
2248.000000	99.265684 
2247.000000	99.274573 
2246.000000	99.274842 
2245.000000	99.266536 
2244.000000	99.252056 
2243.000000	99.235944 
2242.000000	99.223197 
2241.000000	99.216902 
2240.000000	99.216469 
2239.000000	99.217357 
2238.000000	99.213632 
2237.000000	99.202808 
2236.000000	99.188367 
2235.000000	99.176355 
2234.000000	99.170082 
2233.000000	99.169461 
2232.000000	99.174324 
2231.000000	99.185622 
2230.000000	99.203147 
2229.000000	99.224156 
2228.000000	99.244657 
2227.000000	99.260357 
2226.000000	99.266706 
2225.000000	99.261014 
2224.000000	99.245617 
2223.000000	99.227100 
2222.000000	99.211789 
2221.000000	99.203062 
2220.000000	99.202105 
2219.000000	99.208529 
2218.000000	99.219935 
2217.000000	99.233452 
2216.000000	99.248453 
2215.000000	99.265399 
2214.000000	99.281252 
2213.000000	99.289007 
2212.000000	99.284009 
2211.000000	99.269358 
2210.000000	99.253652 
2209.000000	99.244152 
2208.000000	99.242263 
2207.000000	99.243971 
2206.000000	99.243531 
2205.000000	99.237523 
2204.000000	99.226483 
2203.000000	99.213293 
2202.000000	99.201092 
2201.000000	99.192684 
2200.000000	99.189214 
2199.000000	99.187545 
2198.000000	99.181540 
2197.000000	99.169422 
2196.000000	99.158435 
2195.000000	99.158455 
2194.000000	99.171646 
2193.000000	99.191303 
2192.000000	99.209247 
2191.000000	99.220189 
2190.000000	99.220549 
2189.000000	99.210008 
2188.000000	99.195538 
2187.000000	99.188036 
2186.000000	99.192532 
2185.000000	99.205135 
2184.000000	99.219768 
2183.000000	99.232493 
2182.000000	99.238556 
2181.000000	99.233260 
2180.000000	99.219867 
2179.000000	99.209801 
2178.000000	99.209786 
2177.000000	99.213247 
2176.000000	99.209040 
2175.000000	99.195202 
2174.000000	99.179294 
2173.000000	99.168367 
2172.000000	99.163983 
2171.000000	99.165404 
2170.000000	99.172652 
2169.000000	99.185981 
2168.000000	99.204218 
2167.000000	99.222580 
2166.000000	99.231783 
2165.000000	99.224007 
2164.000000	99.203172 
2163.000000	99.185015 
2162.000000	99.182849 
2161.000000	99.195605 
2160.000000	99.211987 
2159.000000	99.222327 
2158.000000	99.223036 
2157.000000	99.215133 
2156.000000	99.204313 
2155.000000	99.198001 
2154.000000	99.197182 
2153.000000	99.194522 
2152.000000	99.184904 
2151.000000	99.174538 
2150.000000	99.175049 
2149.000000	99.190928 
2148.000000	99.216218 
2147.000000	99.240458 
2146.000000	99.253995 
2145.000000	99.251992 
2144.000000	99.239266 
2143.000000	99.228135 
2142.000000	99.226209 
2141.000000	99.228795 
2140.000000	99.227844 
2139.000000	99.224378 
2138.000000	99.224791 
2137.000000	99.227828 
2136.000000	99.224812 
2135.000000	99.213786 
2134.000000	99.204767 
2133.000000	99.207124 
2132.000000	99.217497 
2131.000000	99.224190 
2130.000000	99.219732 
2129.000000	99.206343 
2128.000000	99.191830 
2127.000000	99.182456 
2126.000000	99.178688 
2125.000000	99.176872 
2124.000000	99.175806 
2123.000000	99.180392 
2122.000000	99.195541 
2121.000000	99.216944 
2120.000000	99.232738 
2119.000000	99.236103 
2118.000000	99.232242 
2117.000000	99.230499 
2116.000000	99.233083 
2115.000000	99.235067 
2114.000000	99.233022 
2113.000000	99.229006 
2112.000000	99.226089 
2111.000000	99.223731 
2110.000000	99.219289 
2109.000000	99.212468 
2108.000000	99.206711 
2107.000000	99.205841 
2106.000000	99.209129 
2105.000000	99.209960 
2104.000000	99.201122 
2103.000000	99.182765 
2102.000000	99.163973 
2101.000000	99.154737 
2100.000000	99.156723 
2099.000000	99.163363 
2098.000000	99.168435 
2097.000000	99.172121 
2096.000000	99.177803 
2095.000000	99.184815 
2094.000000	99.186868 
2093.000000	99.178797 
2092.000000	99.163927 
2091.000000	99.152827 
2090.000000	99.153705 
2089.000000	99.164380 
2088.000000	99.174952 
2087.000000	99.178377 
2086.000000	99.176644 
2085.000000	99.176468 
2084.000000	99.181170 
2083.000000	99.188291 
2082.000000	99.193715 
2081.000000	99.195759 
2080.000000	99.195315 
2079.000000	99.193945 
2078.000000	99.193182 
2077.000000	99.195178 
2076.000000	99.202453 
2075.000000	99.215726 
2074.000000	99.231496 
2073.000000	99.243066 
2072.000000	99.245469 
2071.000000	99.239401 
2070.000000	99.229784 
2069.000000	99.221135 
2068.000000	99.215276 
2067.000000	99.212415 
2066.000000	99.211842 
2065.000000	99.211146 
2064.000000	99.207549 
2063.000000	99.201708 
2062.000000	99.198250 
2061.000000	99.200628 
2060.000000	99.206581 
2059.000000	99.210559 
2058.000000	99.209740 
2057.000000	99.205545 
2056.000000	99.199854 
2055.000000	99.192444 
2054.000000	99.183038 
2053.000000	99.174073 
2052.000000	99.169750 
2051.000000	99.172713 
2050.000000	99.181975 
2049.000000	99.192732 
2048.000000	99.198167 
2047.000000	99.193756 
2046.000000	99.181508 
2045.000000	99.169298 
2044.000000	99.164415 
2043.000000	99.167344 
2042.000000	99.172494 
2041.000000	99.174520 
2040.000000	99.172863 
2039.000000	99.170025 
2038.000000	99.167199 
2037.000000	99.163137 
2036.000000	99.156528 
2035.000000	99.148036 
2034.000000	99.140016 
2033.000000	99.135086 
2032.000000	99.134721 
2031.000000	99.138040 
2030.000000	99.141432 
2029.000000	99.140214 
2028.000000	99.131510 
2027.000000	99.116519 
2026.000000	99.101105 
2025.000000	99.094367 
2024.000000	99.103280 
2023.000000	99.125002 
2022.000000	99.145388 
2021.000000	99.149198 
2020.000000	99.134824 
2019.000000	99.116713 
2018.000000	99.111292 
2017.000000	99.121360 
2016.000000	99.135537 
2015.000000	99.141811 
2014.000000	99.138039 
2013.000000	99.130598 
2012.000000	99.127509 
2011.000000	99.133705 
2010.000000	99.149824 
2009.000000	99.172553 
2008.000000	99.195695 
2007.000000	99.212056 
2006.000000	99.215841 
2005.000000	99.206006 
2004.000000	99.188454 
2003.000000	99.172603 
2002.000000	99.164405 
2001.000000	99.162342 
2000.000000	99.160999 
1999.000000	99.157180 
1998.000000	99.151568 
1997.000000	99.147091 
1996.000000	99.147276 
1995.000000	99.154924 
1994.000000	99.169412 
1993.000000	99.184603 
1992.000000	99.191599 
1991.000000	99.185977 
1990.000000	99.171658 
1989.000000	99.157480 
1988.000000	99.151023 
1987.000000	99.154195 
1986.000000	99.162529 
1985.000000	99.169255 
1984.000000	99.171809 
1983.000000	99.173703 
1982.000000	99.178423 
1981.000000	99.182166 
1980.000000	99.176338 
1979.000000	99.158190 
1978.000000	99.136495 
1977.000000	99.124239 
1976.000000	99.125474 
1975.000000	99.133318 
1974.000000	99.140847 
1973.000000	99.149514 
1972.000000	99.164373 
1971.000000	99.183436 
1970.000000	99.195906 
1969.000000	99.192681 
1968.000000	99.176640 
1967.000000	99.159551 
1966.000000	99.148950 
1965.000000	99.142096 
1964.000000	99.134113 
1963.000000	99.127237 
1962.000000	99.128047 
1961.000000	99.137501 
1960.000000	99.148614 
1959.000000	99.155188 
1958.000000	99.158631 
1957.000000	99.163567 
1956.000000	99.169912 
1955.000000	99.173205 
1954.000000	99.171378 
1953.000000	99.167422 
1952.000000	99.164250 
1951.000000	99.160737 
1950.000000	99.155112 
1949.000000	99.149054 
1948.000000	99.146153 
1947.000000	99.146626 
1946.000000	99.146009 
1945.000000	99.140134 
1944.000000	99.130378 
1943.000000	99.123230 
1942.000000	99.124253 
1941.000000	99.132433 
1940.000000	99.141125 
1939.000000	99.144595 
1938.000000	99.143688 
1937.000000	99.144604 
1936.000000	99.151018 
1935.000000	99.158566 
1934.000000	99.159976 
1933.000000	99.155433 
1932.000000	99.153429 
1931.000000	99.160547 
1930.000000	99.173516 
1929.000000	99.182866 
1928.000000	99.184139 
1927.000000	99.180866 
1926.000000	99.178570 
1925.000000	99.179207 
1924.000000	99.181420 
1923.000000	99.184360 
1922.000000	99.187406 
1921.000000	99.188205 
1920.000000	99.183119 
1919.000000	99.170545 
1918.000000	99.153935 
1917.000000	99.140736 
1916.000000	99.136607 
1915.000000	99.140717 
1914.000000	99.147673 
1913.000000	99.153545 
1912.000000	99.158536 
1911.000000	99.164207 
1910.000000	99.168771 
1909.000000	99.168204 
1908.000000	99.163512 
1907.000000	99.161066 
1906.000000	99.165156 
1905.000000	99.172714 
1904.000000	99.176840 
1903.000000	99.175419 
1902.000000	99.171606 
1901.000000	99.168632 
1900.000000	99.167759 
1899.000000	99.169381 
1898.000000	99.173741 
1897.000000	99.179808 
1896.000000	99.184463 
1895.000000	99.184969 
1894.000000	99.181190 
1893.000000	99.175753 
1892.000000	99.172181 
1891.000000	99.172270 
1890.000000	99.174201 
1889.000000	99.174149 
1888.000000	99.171423 
1887.000000	99.169375 
1886.000000	99.170919 
1885.000000	99.176160 
1884.000000	99.183296 
1883.000000	99.190154 
1882.000000	99.194401 
1881.000000	99.194981 
1880.000000	99.195253 
1879.000000	99.200542 
1878.000000	99.211641 
1877.000000	99.223366 
1876.000000	99.229609 
1875.000000	99.228627 
1874.000000	99.222534 
1873.000000	99.213606 
1872.000000	99.203433 
1871.000000	99.193902 
1870.000000	99.186351 
1869.000000	99.180034 
1868.000000	99.174518 
1867.000000	99.172451 
1866.000000	99.175165 
1865.000000	99.179458 
1864.000000	99.180992 
1863.000000	99.177924 
1862.000000	99.171207 
1861.000000	99.163992 
1860.000000	99.161724 
1859.000000	99.169231 
1858.000000	99.184629 
1857.000000	99.198744 
1856.000000	99.204220 
1855.000000	99.203138 
1854.000000	99.202163 
1853.000000	99.202455 
1852.000000	99.200560 
1851.000000	99.195486 
1850.000000	99.190617 
1849.000000	99.190711 
1848.000000	99.196744 
1847.000000	99.205185 
1846.000000	99.210486 
1845.000000	99.209462 
1844.000000	99.204933 
1843.000000	99.204466 
1842.000000	99.210856 
1841.000000	99.217654 
1840.000000	99.218582 
1839.000000	99.213675 
1838.000000	99.207276 
1837.000000	99.202546 
1836.000000	99.199301 
1835.000000	99.197329 
1834.000000	99.197180 
1833.000000	99.198507 
1832.000000	99.200015 
1831.000000	99.199791 
1830.000000	99.196787 
1829.000000	99.193941 
1828.000000	99.195452 
1827.000000	99.200581 
1826.000000	99.204829 
1825.000000	99.205441 
1824.000000	99.203387 
1823.000000	99.201221 
1822.000000	99.198724 
1821.000000	99.194321 
1820.000000	99.189984 
1819.000000	99.190572 
1818.000000	99.198214 
1817.000000	99.207593 
1816.000000	99.211035 
1815.000000	99.208786 
1814.000000	99.207304 
1813.000000	99.210493 
1812.000000	99.215524 
1811.000000	99.218116 
1810.000000	99.219372 
1809.000000	99.221385 
1808.000000	99.222361 
1807.000000	99.219785 
1806.000000	99.214165 
1805.000000	99.208233 
1804.000000	99.204784 
1803.000000	99.205780 
1802.000000	99.209264 
1801.000000	99.209357 
1800.000000	99.202540 
1799.000000	99.193451 
1798.000000	99.190974 
1797.000000	99.197337 
1796.000000	99.207337 
1795.000000	99.215456 
1794.000000	99.219812 
1793.000000	99.220676 
1792.000000	99.218353 
1791.000000	99.215250 
1790.000000	99.214819 
1789.000000	99.215363 
1788.000000	99.213565 
1787.000000	99.210226 
1786.000000	99.209467 
1785.000000	99.212639 
1784.000000	99.216577 
1783.000000	99.218828 
1782.000000	99.218203 
1781.000000	99.214688 
1780.000000	99.209321 
1779.000000	99.203427 
1778.000000	99.199806 
1777.000000	99.199935 
1776.000000	99.203977 
1775.000000	99.209544 
1774.000000	99.212709 
1773.000000	99.212078 
1772.000000	99.209757 
1771.000000	99.208912 
1770.000000	99.210643 
1769.000000	99.212566 
1768.000000	99.212828 
1767.000000	99.212315 
1766.000000	99.212610 
1765.000000	99.213615 
1764.000000	99.213631 
1763.000000	99.211697 
1762.000000	99.208211 
1761.000000	99.205262 
1760.000000	99.204282 
1759.000000	99.204143 
1758.000000	99.204802 
1757.000000	99.207845 
1756.000000	99.214370 
1755.000000	99.221068 
1754.000000	99.223453 
1753.000000	99.221690 
1752.000000	99.220406 
1751.000000	99.220430 
1750.000000	99.217790 
1749.000000	99.211465 
1748.000000	99.205673 
1747.000000	99.204979 
1746.000000	99.207797 
1745.000000	99.210879 
1744.000000	99.213065 
1743.000000	99.214427 
1742.000000	99.215568 
1741.000000	99.216627 
1740.000000	99.217291 
1739.000000	99.218779 
1738.000000	99.223332 
1737.000000	99.228834 
1736.000000	99.231582 
1735.000000	99.231719 
1734.000000	99.228873 
1733.000000	99.224403 
1732.000000	99.224494 
1731.000000	99.226531 
1730.000000	99.226591 
1729.000000	99.224130 
1728.000000	99.220621 
1727.000000	99.217630 
1726.000000	99.215521 
1725.000000	99.215385 
1724.000000	99.216925 
1723.000000	99.218691 
1722.000000	99.220742 
1721.000000	99.222246 
1720.000000	99.222100 
1719.000000	99.221638 
1718.000000	99.223694 
1717.000000	99.226252 
1716.000000	99.225678 
1715.000000	99.223625 
1714.000000	99.223368 
1713.000000	99.224619 
1712.000000	99.224559 
1711.000000	99.223331 
1710.000000	99.223241 
1709.000000	99.224553 
1708.000000	99.225691 
1707.000000	99.225768 
1706.000000	99.225385 
1705.000000	99.223933 
1704.000000	99.220937 
1703.000000	99.217518 
1702.000000	99.215606 
1701.000000	99.216708 
1700.000000	99.214577 
1699.000000	99.211109 
1698.000000	99.216239 
1697.000000	99.223667 
1696.000000	99.224468 
1695.000000	99.217350 
1694.000000	99.211293 
1693.000000	99.209233 
1692.000000	99.207333 
1691.000000	99.206321 
1690.000000	99.208130 
1689.000000	99.211495 
1688.000000	99.215531 
1687.000000	99.219387 
1686.000000	99.223603 
1685.000000	99.227776 
1684.000000	99.223615 
1683.000000	99.213942 
1682.000000	99.210799 
1681.000000	99.210378 
1680.000000	99.210346 
1679.000000	99.211617 
1678.000000	99.212358 
1677.000000	99.210369 
1676.000000	99.207216 
1675.000000	99.205730 
1674.000000	99.206824 
1673.000000	99.210887 
1672.000000	99.216066 
1671.000000	99.221203 
1670.000000	99.224645 
1669.000000	99.222731 
1668.000000	99.218428 
1667.000000	99.215576 
1666.000000	99.212992 
1665.000000	99.209940 
1664.000000	99.208268 
1663.000000	99.209842 
1662.000000	99.212379 
1661.000000	99.213495 
1660.000000	99.215341 
1659.000000	99.219200 
1658.000000	99.223028 
1657.000000	99.223855 
1656.000000	99.221201 
1655.000000	99.218149 
1654.000000	99.221542 
1653.000000	99.223547 
1652.000000	99.217944 
1651.000000	99.221016 
1650.000000	99.224245 
1649.000000	99.221697 
1648.000000	99.217942 
1647.000000	99.215212 
1646.000000	99.212704 
1645.000000	99.213800 
1644.000000	99.218138 
1643.000000	99.222135 
1642.000000	99.223904 
1641.000000	99.223053 
1640.000000	99.220836 
1639.000000	99.218201 
1638.000000	99.216472 
1637.000000	99.217604 
1636.000000	99.221271 
1635.000000	99.222968 
1634.000000	99.223417 
1633.000000	99.224141 
1632.000000	99.221600 
1631.000000	99.216819 
1630.000000	99.212674 
1629.000000	99.210290 
1628.000000	99.209298 
1627.000000	99.209879 
1626.000000	99.211296 
1625.000000	99.212022 
1624.000000	99.211704 
1623.000000	99.210694 
1622.000000	99.209738 
1621.000000	99.210084 
1620.000000	99.212349 
1619.000000	99.216003 
1618.000000	99.220782 
1617.000000	99.224321 
1616.000000	99.225385 
1615.000000	99.227496 
1614.000000	99.230580 
1613.000000	99.231866 
1612.000000	99.232840 
1611.000000	99.235959 
1610.000000	99.238656 
1609.000000	99.237152 
1608.000000	99.233277 
1607.000000	99.231637 
1606.000000	99.232158 
1605.000000	99.232026 
1604.000000	99.231502 
1603.000000	99.231515 
1602.000000	99.231724 
1601.000000	99.232084 
1600.000000	99.234028 
1599.000000	99.237857 
1598.000000	99.241329 
1597.000000	99.242837 
1596.000000	99.243161 
1595.000000	99.243164 
1594.000000	99.241925 
1593.000000	99.239197 
1592.000000	99.237611 
1591.000000	99.239474 
1590.000000	99.243129 
1589.000000	99.245565 
1588.000000	99.247265 
1587.000000	99.250810 
1586.000000	99.255784 
1585.000000	99.258453 
1584.000000	99.258197 
1583.000000	99.257308 
1582.000000	99.255882 
1581.000000	99.253225 
1580.000000	99.250444 
1579.000000	99.248283 
1578.000000	99.245579 
1577.000000	99.242074 
1576.000000	99.238266 
1575.000000	99.236664 
1574.000000	99.238202 
1573.000000	99.239274 
1572.000000	99.239110 
1571.000000	99.240791 
1570.000000	99.244504 
1569.000000	99.246518 
1568.000000	99.248186 
1567.000000	99.250014 
1566.000000	99.248037 
1565.000000	99.241506 
1564.000000	99.235136 
1563.000000	99.232207 
1562.000000	99.230264 
1561.000000	99.226900 
1560.000000	99.229606 
1559.000000	99.234763 
1558.000000	99.229974 
1557.000000	99.230933 
1556.000000	99.237181 
1555.000000	99.241533 
1554.000000	99.242691 
1553.000000	99.242093 
1552.000000	99.241371 
1551.000000	99.240179 
1550.000000	99.239778 
1549.000000	99.241119 
1548.000000	99.243359 
1547.000000	99.243974 
1546.000000	99.239841 
1545.000000	99.231338 
1544.000000	99.222961 
1543.000000	99.220461 
1542.000000	99.227280 
1541.000000	99.240539 
1540.000000	99.247292 
1539.000000	99.243430 
1538.000000	99.241486 
1537.000000	99.244102 
1536.000000	99.245718 
1535.000000	99.246573 
1534.000000	99.246709 
1533.000000	99.243238 
1532.000000	99.237441 
1531.000000	99.233334 
1530.000000	99.232153 
1529.000000	99.232406 
1528.000000	99.232202 
1527.000000	99.231836 
1526.000000	99.232706 
1525.000000	99.235195 
1524.000000	99.238487 
1523.000000	99.242642 
1522.000000	99.248371 
1521.000000	99.251403 
1520.000000	99.248213 
1519.000000	99.240274 
1518.000000	99.229641 
1517.000000	99.220472 
1516.000000	99.215203 
1515.000000	99.213033 
1514.000000	99.211947 
1513.000000	99.211813 
1512.000000	99.213061 
1511.000000	99.213826 
1510.000000	99.212993 
1509.000000	99.212182 
1508.000000	99.216608 
1507.000000	99.224681 
1506.000000	99.226767 
1505.000000	99.225443 
1504.000000	99.226154 
1503.000000	99.226397 
1502.000000	99.225448 
1501.000000	99.223878 
1500.000000	99.221155 
1499.000000	99.216347 
1498.000000	99.209873 
1497.000000	99.203010 
1496.000000	99.196332 
1495.000000	99.193595 
1494.000000	99.197645 
1493.000000	99.205255 
1492.000000	99.211891 
1491.000000	99.215559 
1490.000000	99.216141 
1489.000000	99.213435 
1488.000000	99.207455 
1487.000000	99.200992 
1486.000000	99.197175 
1485.000000	99.193743 
1484.000000	99.188963 
1483.000000	99.184681 
1482.000000	99.183830 
1481.000000	99.186615 
1480.000000	99.189127 
1479.000000	99.188682 
1478.000000	99.185708 
1477.000000	99.182057 
1476.000000	99.178772 
1475.000000	99.178467 
1474.000000	99.183354 
1473.000000	99.190696 
1472.000000	99.194281 
1471.000000	99.193220 
1470.000000	99.191553 
1469.000000	99.189675 
1468.000000	99.186454 
1467.000000	99.183113 
1466.000000	99.182070 
1465.000000	99.183275 
1464.000000	99.184988 
1463.000000	99.185942 
1462.000000	99.186038 
1461.000000	99.184775 
1460.000000	99.181889 
1459.000000	99.177581 
1458.000000	99.171112 
1457.000000	99.159200 
1456.000000	99.143755 
1455.000000	99.133462 
1454.000000	99.128999 
1453.000000	99.128785 
1452.000000	99.132509 
1451.000000	99.137714 
1450.000000	99.142318 
1449.000000	99.146149 
1448.000000	99.148798 
1447.000000	99.150027 
1446.000000	99.150192 
1445.000000	99.150697 
1444.000000	99.152895 
1443.000000	99.155486 
1442.000000	99.157511 
1441.000000	99.159024 
1440.000000	99.160222 
1439.000000	99.160409 
1438.000000	99.161104 
1437.000000	99.164155 
1436.000000	99.166680 
1435.000000	99.165878 
1434.000000	99.162667 
1433.000000	99.158856 
1432.000000	99.155317 
1431.000000	99.151134 
1430.000000	99.145337 
1429.000000	99.139598 
1428.000000	99.135616 
1427.000000	99.133754 
1426.000000	99.132088 
1425.000000	99.129249 
1424.000000	99.125337 
1423.000000	99.119032 
1422.000000	99.109406 
1421.000000	99.096698 
1420.000000	99.082411 
1419.000000	99.067324 
1418.000000	99.053285 
1417.000000	99.042151 
1416.000000	99.030349 
1415.000000	99.014282 
1414.000000	98.995312 
1413.000000	98.978107 
1412.000000	98.965511 
1411.000000	98.955448 
1410.000000	98.944844 
1409.000000	98.933986 
1408.000000	98.925099 
1407.000000	98.920390 
1406.000000	98.919976 
1405.000000	98.922691 
1404.000000	98.928586 
1403.000000	98.938006 
1402.000000	98.951352 
1401.000000	98.968765 
1400.000000	98.988780 
1399.000000	99.004908 
1398.000000	99.007100 
1397.000000	98.987952 
1396.000000	98.948509 
1395.000000	98.905604 
1394.000000	98.886013 
1393.000000	98.902677 
1392.000000	98.942552 
1391.000000	98.982147 
1390.000000	99.006801 
1389.000000	99.014759 
1388.000000	99.010898 
1387.000000	99.000729 
1386.000000	98.989567 
1385.000000	98.981826 
1384.000000	98.978697 
1383.000000	98.977664 
1382.000000	98.976134 
1381.000000	98.974368 
1380.000000	98.975006 
1379.000000	98.980376 
1378.000000	98.990350 
1377.000000	99.003005 
1376.000000	99.016177 
1375.000000	99.028209 
1374.000000	99.038356 
1373.000000	99.048140 
1372.000000	99.059476 
1371.000000	99.071610 
1370.000000	99.081711 
1369.000000	99.088450 
1368.000000	99.093630 
1367.000000	99.099217 
1366.000000	99.105764 
1365.000000	99.113447 
1364.000000	99.122765 
1363.000000	99.132712 
1362.000000	99.140304 
1361.000000	99.143908 
1360.000000	99.145451 
1359.000000	99.148484 
1358.000000	99.155137 
1357.000000	99.164672 
1356.000000	99.174067 
1355.000000	99.180212 
1354.000000	99.182768 
1353.000000	99.184319 
1352.000000	99.186884 
1351.000000	99.190032 
1350.000000	99.191761 
1349.000000	99.191482 
1348.000000	99.191111 
1347.000000	99.192148 
1346.000000	99.194365 
1345.000000	99.196737 
1344.000000	99.198626 
1343.000000	99.199467 
1342.000000	99.199110 
1341.000000	99.198766 
1340.000000	99.200326 
1339.000000	99.203751 
1338.000000	99.206845 
1337.000000	99.208269 
1336.000000	99.208889 
1335.000000	99.209911 
1334.000000	99.211349 
1333.000000	99.212669 
1332.000000	99.213672 
1331.000000	99.214106 
1330.000000	99.213491 
1329.000000	99.212199 
1328.000000	99.211594 
1327.000000	99.212242 
1326.000000	99.212698 
1325.000000	99.211432 
1324.000000	99.209031 
1323.000000	99.207120 
1322.000000	99.206466 
1321.000000	99.207136 
1320.000000	99.209703 
1319.000000	99.214550 
1318.000000	99.220119 
1317.000000	99.223297 
1316.000000	99.222183 
1315.000000	99.217895 
1314.000000	99.213429 
1313.000000	99.210902 
1312.000000	99.209993 
1311.000000	99.209146 
1310.000000	99.207866 
1309.000000	99.207227 
1308.000000	99.208021 
1307.000000	99.209334 
1306.000000	99.209474 
1305.000000	99.208237 
1304.000000	99.207348 
1303.000000	99.208312 
1302.000000	99.210713 
1301.000000	99.212747 
1300.000000	99.213123 
1299.000000	99.212149 
1298.000000	99.211319 
1297.000000	99.211738 
1296.000000	99.212838 
1295.000000	99.212718 
1294.000000	99.210017 
1293.000000	99.205319 
1292.000000	99.200448 
1291.000000	99.196915 
1290.000000	99.195413 
1289.000000	99.196077 
1288.000000	99.198162 
1287.000000	99.199668 
1286.000000	99.198514 
1285.000000	99.194487 
1284.000000	99.189301 
1283.000000	99.184530 
1282.000000	99.180105 
1281.000000	99.174997 
1280.000000	99.168799 
1279.000000	99.162162 
1278.000000	99.156139 
1277.000000	99.151555 
1276.000000	99.148541 
1275.000000	99.146094 
1274.000000	99.142332 
1273.000000	99.135976 
1272.000000	99.127650 
1271.000000	99.119313 
1270.000000	99.112249 
1269.000000	99.106007 
1268.000000	99.099335 
1267.000000	99.091487 
1266.000000	99.082411 
1265.000000	99.072345 
1264.000000	99.061741 
1263.000000	99.051335 
1262.000000	99.041681 
1261.000000	99.032745 
1260.000000	99.024526 
1259.000000	99.017651 
1258.000000	99.012508 
1257.000000	99.008242 
1256.000000	99.003746 
1255.000000	98.999675 
1254.000000	98.997909 
1253.000000	98.998493 
1252.000000	98.998747 
1251.000000	98.996777 
1250.000000	98.994681 
1249.000000	98.996590 
1248.000000	99.003972 
1247.000000	99.013925 
1246.000000	99.021046 
1245.000000	99.019671 
1244.000000	99.006520 
1243.000000	98.985311 
1242.000000	98.968303 
1241.000000	98.968070 
1240.000000	98.985190 
1239.000000	99.006583 
1238.000000	99.018115 
1237.000000	99.016850 
1236.000000	99.009258 
1235.000000	99.001094 
1234.000000	98.993043 
1233.000000	98.984180 
1232.000000	98.974681 
1231.000000	98.964695 
1230.000000	98.954400 
1229.000000	98.946297 
1228.000000	98.944538 
1227.000000	98.950288 
1226.000000	98.959479 
1225.000000	98.966555 
1224.000000	98.969308 
1223.000000	98.969255 
1222.000000	98.968883 
1221.000000	98.969868 
1220.000000	98.973034 
1219.000000	98.978440 
1218.000000	98.985226 
1217.000000	98.991826 
1216.000000	98.996442 
1215.000000	98.997729 
1214.000000	98.995547 
1213.000000	98.990880 
1212.000000	98.984657 
1211.000000	98.977410 
1210.000000	98.970679 
1209.000000	98.967335 
1208.000000	98.968719 
1207.000000	98.971987 
1206.000000	98.972285 
1205.000000	98.967727 
1204.000000	98.960699 
1203.000000	98.954382 
1202.000000	98.949790 
1201.000000	98.946387 
1200.000000	98.943595 
1199.000000	98.940691 
1198.000000	98.936568 
1197.000000	98.930565 
1196.000000	98.922696 
1195.000000	98.912815 
1194.000000	98.900843 
1193.000000	98.888268 
1192.000000	98.877842 
1191.000000	98.870729 
1190.000000	98.865017 
1189.000000	98.858079 
1188.000000	98.849536 
1187.000000	98.840993 
1186.000000	98.833772 
1185.000000	98.827931 
1184.000000	98.822703 
1183.000000	98.816789 
1182.000000	98.808853 
1181.000000	98.798903 
1180.000000	98.788810 
1179.000000	98.780484 
1178.000000	98.773839 
1177.000000	98.767334 
1176.000000	98.759838 
1175.000000	98.750860 
1174.000000	98.739535 
1173.000000	98.725059 
1172.000000	98.708412 
1171.000000	98.692435 
1170.000000	98.679548 
1169.000000	98.669785 
1168.000000	98.661275 
1167.000000	98.652255 
1166.000000	98.642793 
1165.000000	98.635161 
1164.000000	98.632382 
1163.000000	98.635630 
1162.000000	98.643001 
1161.000000	98.651412 
1160.000000	98.659410 
1159.000000	98.667007 
1158.000000	98.672765 
1157.000000	98.672628 
1156.000000	98.663038 
1155.000000	98.645285 
1154.000000	98.625955 
1153.000000	98.612204 
1152.000000	98.606151 
1151.000000	98.603593 
1150.000000	98.598171 
1149.000000	98.587043 
1148.000000	98.572721 
1147.000000	98.559733 
1146.000000	98.549938 
1145.000000	98.541125 
1144.000000	98.529554 
1143.000000	98.513320 
1142.000000	98.493718 
1141.000000	98.474242 
1140.000000	98.458348 
1139.000000	98.447253 
1138.000000	98.439191 
1137.000000	98.430997 
1136.000000	98.420757 
1135.000000	98.408772 
1134.000000	98.395855 
1133.000000	98.381279 
1132.000000	98.363305 
1131.000000	98.342027 
1130.000000	98.320967 
1129.000000	98.304713 
1128.000000	98.294420 
1127.000000	98.286013 
1126.000000	98.273608 
1125.000000	98.254978 
1124.000000	98.233276 
1123.000000	98.213365 
1122.000000	98.197105 
1121.000000	98.182531 
1120.000000	98.166844 
1119.000000	98.149225 
1118.000000	98.130863 
1117.000000	98.113137 
1116.000000	98.096156 
1115.000000	98.078755 
1114.000000	98.059777 
1113.000000	98.039476 
1112.000000	98.019375 
1111.000000	98.000267 
1110.000000	97.980662 
1109.000000	97.958273 
1108.000000	97.933266 
1107.000000	97.909091 
1106.000000	97.889180 
1105.000000	97.873080 
1104.000000	97.856896 
1103.000000	97.837762 
1102.000000	97.817045 
1101.000000	97.798598 
1100.000000	97.784421 
1099.000000	97.773364 
1098.000000	97.763927 
1097.000000	97.756492 
1096.000000	97.751510 
1095.000000	97.746234 
1094.000000	97.735077 
1093.000000	97.713231 
1092.000000	97.679073 
1091.000000	97.634059 
1090.000000	97.582576 
1089.000000	97.531626 
1088.000000	97.487734 
1087.000000	97.452329 
1086.000000	97.421235 
1085.000000	97.389757 
1084.000000	97.356953 
1083.000000	97.324022 
1082.000000	97.290836 
1081.000000	97.256429 
1080.000000	97.221636 
1079.000000	97.188674 
1078.000000	97.158746 
1077.000000	97.132340 
1076.000000	97.111357 
1075.000000	97.098489 
1074.000000	97.094484 
1073.000000	97.097340 
1072.000000	97.102370 
1071.000000	97.100097 
1070.000000	97.076808 
1069.000000	97.024328 
1068.000000	96.952379 
1067.000000	96.887538 
1066.000000	96.854734 
1065.000000	96.858505 
1064.000000	96.882624 
1063.000000	96.904616 
1062.000000	96.908097 
1061.000000	96.885599 
1060.000000	96.838243 
1059.000000	96.777189 
1058.000000	96.721286 
1057.000000	96.686119 
1056.000000	96.672802 
1055.000000	96.668941 
1054.000000	96.661259 
1053.000000	96.646263 
1052.000000	96.628691 
1051.000000	96.612731 
1050.000000	96.597793 
1049.000000	96.581371 
1048.000000	96.562389 
1047.000000	96.542012 
1046.000000	96.524000 
1045.000000	96.513344 
1044.000000	96.511436 
1043.000000	96.513064 
1042.000000	96.511364 
1041.000000	96.505486 
1040.000000	96.500185 
1039.000000	96.499041 
1038.000000	96.502913 
1037.000000	96.514540 
1036.000000	96.538027 
1035.000000	96.571670 
1034.000000	96.606718 
1033.000000	96.635449 
1032.000000	96.655060 
1031.000000	96.662309 
1030.000000	96.653140 
1029.000000	96.633646 
1028.000000	96.624319 
1027.000000	96.643539 
1026.000000	96.687715 
1025.000000	96.734578 
1024.000000	96.765277 
1023.000000	96.777752 
1022.000000	96.780760 
1021.000000	96.782553 
1020.000000	96.786904 
1019.000000	96.794294 
1018.000000	96.803258 
1017.000000	96.812429 
1016.000000	96.822505 
1015.000000	96.834856 
1014.000000	96.848534 
1013.000000	96.860822 
1012.000000	96.870369 
1011.000000	96.877818 
1010.000000	96.884150 
1009.000000	96.890743 
1008.000000	96.900222 
1007.000000	96.914581 
1006.000000	96.932777 
1005.000000	96.952217 
1004.000000	96.971842 
1003.000000	96.991797 
1002.000000	97.011382 
1001.000000	97.029808 
1000.000000	97.047848 
999.000000	 97.066176 
998.000000	 97.083337 
997.000000	 97.098216 
996.000000	 97.113363 
995.000000	 97.132579 
994.000000	 97.155568 
993.000000	 97.178020 
992.000000	 97.196855 
991.000000	 97.212708 
990.000000	 97.227377 
989.000000	 97.241548 
988.000000	 97.255489 
987.000000	 97.269939 
986.000000	 97.285793 
985.000000	 97.304067 
984.000000	 97.325744 
983.000000	 97.350281 
982.000000	 97.375037 
981.000000	 97.397883 
980.000000	 97.419694 
979.000000	 97.442853 
978.000000	 97.468360 
977.000000	 97.495925 
976.000000	 97.525432 
975.000000	 97.556171 
974.000000	 97.585977 
973.000000	 97.613631 
972.000000	 97.641233 
971.000000	 97.671778 
970.000000	 97.704941 
969.000000	 97.737339 
968.000000	 97.766347 
967.000000	 97.791721 
966.000000	 97.814270 
965.000000	 97.835090 
964.000000	 97.855795 
963.000000	 97.877718 
962.000000	 97.901032 
961.000000	 97.925523 
960.000000	 97.951016 
959.000000	 97.975723 
958.000000	 97.996089 
957.000000	 98.010616 
956.000000	 98.022629 
955.000000	 98.036862 
954.000000	 98.054135 
953.000000	 98.071562 
952.000000	 98.086976 
951.000000	 98.100495 
950.000000	 98.112272 
949.000000	 98.121473 
948.000000	 98.127650 
947.000000	 98.131041 
946.000000	 98.131364 
945.000000	 98.128171 
944.000000	 98.122859 
943.000000	 98.119131 
942.000000	 98.120979 
941.000000	 98.130180 
940.000000	 98.144531 
939.000000	 98.157894 
938.000000	 98.164128 
937.000000	 98.163035 
936.000000	 98.161062 
935.000000	 98.164316 
934.000000	 98.172430 
933.000000	 98.181417 
932.000000	 98.190445 
931.000000	 98.202059 
930.000000	 98.216439 
929.000000	 98.229064 
928.000000	 98.234632 
927.000000	 98.231251 
926.000000	 98.221214 
925.000000	 98.210138 
924.000000	 98.204899 
923.000000	 98.209207 
922.000000	 98.220070 
921.000000	 98.230334 
920.000000	 98.234914 
919.000000	 98.233113 
918.000000	 98.226054 
917.000000	 98.215190 
916.000000	 98.203596 
915.000000	 98.195354 
914.000000	 98.191938 
913.000000	 98.191146 
912.000000	 98.190876 
911.000000	 98.192321 
910.000000	 98.198287 
909.000000	 98.209669 
908.000000	 98.224596 
907.000000	 98.239974 
906.000000	 98.253056 
905.000000	 98.262434 
904.000000	 98.268566 
903.000000	 98.273664 
902.000000	 98.281192 
901.000000	 98.294774 
900.000000	 98.315616 
899.000000	 98.339823 
898.000000	 98.359794 
897.000000	 98.370233 
896.000000	 98.372214 
895.000000	 98.370581 
894.000000	 98.369208 
893.000000	 98.370367 
892.000000	 98.376572 
891.000000	 98.389679 
890.000000	 98.408445 
889.000000	 98.429325 
888.000000	 98.449356 
887.000000	 98.466757 
886.000000	 98.480400 
885.000000	 98.491308 
884.000000	 98.503014 
883.000000	 98.516730 
882.000000	 98.527234 
881.000000	 98.528260 
880.000000	 98.522484 
879.000000	 98.521598 
878.000000	 98.534262 
877.000000	 98.557113 
876.000000	 98.579546 
875.000000	 98.594130 
874.000000	 98.600298 
873.000000	 98.601282 
872.000000	 98.601136 
871.000000	 98.603420 
870.000000	 98.609447 
869.000000	 98.617665 
868.000000	 98.626299 
867.000000	 98.635902 
866.000000	 98.647889 
865.000000	 98.661749 
864.000000	 98.675910 
863.000000	 98.690761 
862.000000	 98.708055 
861.000000	 98.726677 
860.000000	 98.741536 
859.000000	 98.748480 
858.000000	 98.749049 
857.000000	 98.748676 
856.000000	 98.751481 
855.000000	 98.758768 
854.000000	 98.770831 
853.000000	 98.786452 
852.000000	 98.800848 
851.000000	 98.808474 
850.000000	 98.809746 
849.000000	 98.811490 
848.000000	 98.818326 
847.000000	 98.826779 
846.000000	 98.830766 
845.000000	 98.829722 
844.000000	 98.827520 
843.000000	 98.826327 
842.000000	 98.826441 
841.000000	 98.829775 
840.000000	 98.837260 
839.000000	 98.843575 
838.000000	 98.840892 
837.000000	 98.828695 
836.000000	 98.814294 
835.000000	 98.802976 
834.000000	 98.793745 
833.000000	 98.786017 
832.000000	 98.782995 
831.000000	 98.784208 
830.000000	 98.781523 
829.000000	 98.769637 
828.000000	 98.756559 
827.000000	 98.756028 
826.000000	 98.770803 
825.000000	 98.789859 
824.000000	 98.801279 
823.000000	 98.802060 
822.000000	 98.796689 
821.000000	 98.792437 
820.000000	 98.795488 
819.000000	 98.806279 
818.000000	 98.818184 
817.000000	 98.823882 
816.000000	 98.822121 
815.000000	 98.815839 
814.000000	 98.806262 
813.000000	 98.792931 
812.000000	 98.777295 
811.000000	 98.760537 
810.000000	 98.738198 
809.000000	 98.702595 
808.000000	 98.652052 
807.000000	 98.593717 
806.000000	 98.535857 
805.000000	 98.481023 
804.000000	 98.428743 
803.000000	 98.381489 
802.000000	 98.344793 
801.000000	 98.322570 
800.000000	 98.314065 
799.000000	 98.314820 
798.000000	 98.320147 
797.000000	 98.328120 
796.000000	 98.338598 
795.000000	 98.349512 
794.000000	 98.356897 
793.000000	 98.360045 
792.000000	 98.363471 
791.000000	 98.371068 
790.000000	 98.381047 
789.000000	 98.389433 
788.000000	 98.394862 
787.000000	 98.395614 
786.000000	 98.385564 
785.000000	 98.359699 
784.000000	 98.322816 
783.000000	 98.287185 
782.000000	 98.261434 
781.000000	 98.246045 
780.000000	 98.238554 
779.000000	 98.236897 
778.000000	 98.237356 
777.000000	 98.235975 
776.000000	 98.234624 
775.000000	 98.240959 
774.000000	 98.259648 
773.000000	 98.286873 
772.000000	 98.315277 
771.000000	 98.341041 
770.000000	 98.364315 
769.000000	 98.385394 
768.000000	 98.402657 
767.000000	 98.413543 
766.000000	 98.417449 
765.000000	 98.418570 
764.000000	 98.424233 
763.000000	 98.437378 
762.000000	 98.451485 
761.000000	 98.456565 
760.000000	 98.450258 
759.000000	 98.440223 
758.000000	 98.436000 
757.000000	 98.441136 
756.000000	 98.451838 
755.000000	 98.459174 
754.000000	 98.453947 
753.000000	 98.435303 
752.000000	 98.415441 
751.000000	 98.410911 
750.000000	 98.426855 
749.000000	 98.452671 
748.000000	 98.474070 
747.000000	 98.485689 
746.000000	 98.491080 
745.000000	 98.495017 
744.000000	 98.499293 
743.000000	 98.504073 
742.000000	 98.510208 
741.000000	 98.519897 
740.000000	 98.535359 
739.000000	 98.556173 
738.000000	 98.578182 
737.000000	 98.595759 
736.000000	 98.604364 
735.000000	 98.601281 
734.000000	 98.587909 
733.000000	 98.573590 
732.000000	 98.572471 
731.000000	 98.590604 
730.000000	 98.617444 
729.000000	 98.635473 
728.000000	 98.637789 
727.000000	 98.631561 
726.000000	 98.625804 
725.000000	 98.622388 
724.000000	 98.619065 
723.000000	 98.614806 
722.000000	 98.610430 
721.000000	 98.608674 
720.000000	 98.614389 
719.000000	 98.629706 
718.000000	 98.648755 
717.000000	 98.662409 
716.000000	 98.667751 
715.000000	 98.667590 
714.000000	 98.662334 
713.000000	 98.650489 
712.000000	 98.638142 
711.000000	 98.638081 
710.000000	 98.654038 
709.000000	 98.672275 
708.000000	 98.674878 
707.000000	 98.657649 
706.000000	 98.630226 
705.000000	 98.603058 
704.000000	 98.580311 
703.000000	 98.562676 
702.000000	 98.550629 
701.000000	 98.543300 
700.000000	 98.536299 
699.000000	 98.522689 
698.000000	 98.498274 
697.000000	 98.468446 
696.000000	 98.447531 
695.000000	 98.446030 
694.000000	 98.459359 
693.000000	 98.473888 
692.000000	 98.482937 
691.000000	 98.491252 
690.000000	 98.504678 
689.000000	 98.523455 
688.000000	 98.545886 
687.000000	 98.569235 
686.000000	 98.585136 
685.000000	 98.583498 
684.000000	 98.565338 
683.000000	 98.545279 
682.000000	 98.537806 
681.000000	 98.545752 
680.000000	 98.561524 
679.000000	 98.573143 
678.000000	 98.569176 
677.000000	 98.548512 
676.000000	 98.528937 
675.000000	 98.531954 
674.000000	 98.556212 
673.000000	 98.577435 
672.000000	 98.579017 
671.000000	 98.571861 
670.000000	 98.578964 
669.000000	 98.610560 
668.000000	 98.641915 
667.000000	 98.643482 
666.000000	 98.618614 
665.000000	 98.580053 
664.000000	 98.546982 
663.000000	 98.549719 
662.000000	 98.597267 
661.000000	 98.653475 
660.000000	 98.669245 
659.000000	 98.634090 
658.000000	 98.577884 
657.000000	 98.530896 
656.000000	 98.502367 
655.000000	 98.492405 
654.000000	 98.499834 
653.000000	 98.516280 
652.000000	 98.528823 
651.000000	 98.530390 
650.000000	 98.520632 

