4000.000000	99.791844 
3999.000000	99.793096 
3998.000000	99.792606 
3997.000000	99.791501 
3996.000000	99.791060 
3995.000000	99.791976 
3994.000000	99.794049 
3993.000000	99.796427 
3992.000000	99.798130 
3991.000000	99.798517 
3990.000000	99.797591 
3989.000000	99.796071 
3988.000000	99.795029 
3987.000000	99.795134 
3986.000000	99.796086 
3985.000000	99.796828 
3984.000000	99.796388 
3983.000000	99.794601 
3982.000000	99.792108 
3981.000000	99.789738 
3980.000000	99.787902 
3979.000000	99.786704 
3978.000000	99.786647 
3977.000000	99.788864 
3976.000000	99.793991 
3975.000000	99.800658 
3974.000000	99.805580 
3973.000000	99.805720 
3972.000000	99.800594 
3971.000000	99.792630 
3970.000000	99.785496 
3969.000000	99.781919 
3968.000000	99.782432 
3967.000000	99.785595 
3966.000000	99.789256 
3965.000000	99.791938 
3964.000000	99.793233 
3963.000000	99.793023 
3962.000000	99.790703 
3961.000000	99.785627 
3960.000000	99.778394 
3959.000000	99.771359 
3958.000000	99.767278 
3957.000000	99.767169 
3956.000000	99.769635 
3955.000000	99.772485 
3954.000000	99.774934 
3953.000000	99.777882 
3952.000000	99.782178 
3951.000000	99.787033 
3950.000000	99.790585 
3949.000000	99.791976 
3948.000000	99.792412 
3947.000000	99.793676 
3946.000000	99.795938 
3945.000000	99.797613 
3944.000000	99.797196 
3943.000000	99.794775 
3942.000000	99.791803 
3941.000000	99.789717 
3940.000000	99.788818 
3939.000000	99.788479 
3938.000000	99.788135 
3937.000000	99.787935 
3936.000000	99.788389 
3935.000000	99.789580 
3934.000000	99.790927 
3933.000000	99.791813 
3932.000000	99.792543 
3931.000000	99.794445 
3930.000000	99.798661 
3929.000000	99.804719 
3928.000000	99.810099 
3927.000000	99.811530 
3926.000000	99.807520 
3925.000000	99.799985 
3924.000000	99.792689 
3923.000000	99.787986 
3922.000000	99.785582 
3921.000000	99.784006 
3920.000000	99.782347 
3919.000000	99.780797 
3918.000000	99.780469 
3917.000000	99.782734 
3916.000000	99.787723 
3915.000000	99.793367 
3914.000000	99.796668 
3913.000000	99.796397 
3912.000000	99.794025 
3911.000000	99.792354 
3910.000000	99.792979 
3909.000000	99.795247 
3908.000000	99.797016 
3907.000000	99.796441 
3906.000000	99.793514 
3905.000000	99.790435 
3904.000000	99.789990 
3903.000000	99.792843 
3902.000000	99.797039 
3901.000000	99.800290 
3900.000000	99.802089 
3899.000000	99.803079 
3898.000000	99.803419 
3897.000000	99.802989 
3896.000000	99.802335 
3895.000000	99.802285 
3894.000000	99.802250 
3893.000000	99.800468 
3892.000000	99.796605 
3891.000000	99.793746 
3890.000000	99.794786 
3889.000000	99.798092 
3888.000000	99.799281 
3887.000000	99.796545 
3886.000000	99.792734 
3885.000000	99.791472 
3884.000000	99.791972 
3883.000000	99.790815 
3882.000000	99.787414 
3881.000000	99.784817 
3880.000000	99.785676 
3879.000000	99.788986 
3878.000000	99.791037 
3877.000000	99.789394 
3876.000000	99.785685 
3875.000000	99.784369 
3874.000000	99.788065 
3873.000000	99.794001 
3872.000000	99.796601 
3871.000000	99.793937 
3870.000000	99.790185 
3869.000000	99.790188 
3868.000000	99.792911 
3867.000000	99.793909 
3866.000000	99.792043 
3865.000000	99.790499 
3864.000000	99.792083 
3863.000000	99.796425 
3862.000000	99.801509 
3861.000000	99.806004 
3860.000000	99.809266 
3859.000000	99.811834 
3858.000000	99.815235 
3857.000000	99.820188 
3856.000000	99.824390 
3855.000000	99.824259 
3854.000000	99.820704 
3853.000000	99.818583 
3852.000000	99.818371 
3851.000000	99.816037 
3850.000000	99.810170 
3849.000000	99.803317 
3848.000000	99.797949 
3847.000000	99.794641 
3846.000000	99.793354 
3845.000000	99.794539 
3844.000000	99.798400 
3843.000000	99.804017 
3842.000000	99.808820 
3841.000000	99.810087 
3840.000000	99.807531 
3839.000000	99.804307 
3838.000000	99.803850 
3837.000000	99.806039 
3836.000000	99.807218 
3835.000000	99.804110 
3834.000000	99.796463 
3833.000000	99.786931 
3832.000000	99.779508 
3831.000000	99.776984 
3830.000000	99.778805 
3829.000000	99.781992 
3828.000000	99.784307 
3827.000000	99.786786 
3826.000000	99.792213 
3825.000000	99.800698 
3824.000000	99.807831 
3823.000000	99.808551 
3822.000000	99.802886 
3821.000000	99.797312 
3820.000000	99.797496 
3819.000000	99.801896 
3818.000000	99.805361 
3817.000000	99.805581 
3816.000000	99.804863 
3815.000000	99.805687 
3814.000000	99.806585 
3813.000000	99.805500 
3812.000000	99.803914 
3811.000000	99.804319 
3810.000000	99.806232 
3809.000000	99.806533 
3808.000000	99.803894 
3807.000000	99.801725 
3806.000000	99.804081 
3805.000000	99.809925 
3804.000000	99.814487 
3803.000000	99.814304 
3802.000000	99.809679 
3801.000000	99.803873 
3800.000000	99.798583 
3799.000000	99.792717 
3798.000000	99.786640 
3797.000000	99.783222 
3796.000000	99.784521 
3795.000000	99.789004 
3794.000000	99.792935 
3793.000000	99.794011 
3792.000000	99.792999 
3791.000000	99.791824 
3790.000000	99.791289 
3789.000000	99.790608 
3788.000000	99.788606 
3787.000000	99.785119 
3786.000000	99.781492 
3785.000000	99.779632 
3784.000000	99.780269 
3783.000000	99.782299 
3782.000000	99.784202 
3781.000000	99.785966 
3780.000000	99.788538 
3779.000000	99.791566 
3778.000000	99.792883 
3777.000000	99.791078 
3776.000000	99.787524 
3775.000000	99.785483 
3774.000000	99.786863 
3773.000000	99.790336 
3772.000000	99.793294 
3771.000000	99.795407 
3770.000000	99.798550 
3769.000000	99.803115 
3768.000000	99.806382 
3767.000000	99.805672 
3766.000000	99.801762 
3765.000000	99.798180 
3764.000000	99.797103 
3763.000000	99.797023 
3762.000000	99.795110 
3761.000000	99.790887 
3760.000000	99.786341 
3759.000000	99.783668 
3758.000000	99.784022 
3757.000000	99.787908 
3756.000000	99.794922 
3755.000000	99.803842 
3754.000000	99.813665 
3753.000000	99.823723 
3752.000000	99.831604 
3751.000000	99.832516 
3750.000000	99.825073 
3749.000000	99.814926 
3748.000000	99.807359 
3747.000000	99.801952 
3746.000000	99.796258 
3745.000000	99.791269 
3744.000000	99.791413 
3743.000000	99.796167 
3742.000000	99.799759 
3741.000000	99.801635 
3740.000000	99.805958 
3739.000000	99.813159 
3738.000000	99.818121 
3737.000000	99.816668 
3736.000000	99.810884 
3735.000000	99.805579 
3734.000000	99.802627 
3733.000000	99.801832 
3732.000000	99.803425 
3731.000000	99.806474 
3730.000000	99.807602 
3729.000000	99.803796 
3728.000000	99.796125 
3727.000000	99.789305 
3726.000000	99.786885 
3725.000000	99.787387 
3724.000000	99.787222 
3723.000000	99.785720 
3722.000000	99.784843 
3721.000000	99.785720 
3720.000000	99.787382 
3719.000000	99.788833 
3718.000000	99.790627 
3717.000000	99.793548 
3716.000000	99.796227 
3715.000000	99.795708 
3714.000000	99.790669 
3713.000000	99.783126 
3712.000000	99.775949 
3711.000000	99.769397 
3710.000000	99.762586 
3709.000000	99.757138 
3708.000000	99.755865 
3707.000000	99.759289 
3706.000000	99.764832 
3705.000000	99.769082 
3704.000000	99.770590 
3703.000000	99.770576 
3702.000000	99.771089 
3701.000000	99.772648 
3700.000000	99.773751 
3699.000000	99.772226 
3698.000000	99.767550 
3697.000000	99.761995 
3696.000000	99.758596 
3695.000000	99.757968 
3694.000000	99.758247 
3693.000000	99.757732 
3692.000000	99.756162 
3691.000000	99.753648 
3690.000000	99.749798 
3689.000000	99.745410 
3688.000000	99.743432 
3687.000000	99.745567 
3686.000000	99.749817 
3685.000000	99.753387 
3684.000000	99.754947 
3683.000000	99.753997 
3682.000000	99.750707 
3681.000000	99.746879 
3680.000000	99.745880 
3679.000000	99.748871 
3678.000000	99.751931 
3677.000000	99.749306 
3676.000000	99.740862 
3675.000000	99.733035 
3674.000000	99.730489 
3673.000000	99.731525 
3672.000000	99.733057 
3671.000000	99.734576 
3670.000000	99.736014 
3669.000000	99.735253 
3668.000000	99.731159 
3667.000000	99.726272 
3666.000000	99.723908 
3665.000000	99.724656 
3664.000000	99.725866 
3663.000000	99.724113 
3662.000000	99.718456 
3661.000000	99.711283 
3660.000000	99.706210 
3659.000000	99.705364 
3658.000000	99.708813 
3657.000000	99.715197 
3656.000000	99.722254 
3655.000000	99.726687 
3654.000000	99.725222 
3653.000000	99.717334 
3652.000000	99.707273 
3651.000000	99.702368 
3650.000000	99.706378 
3649.000000	99.713522 
3648.000000	99.715434 
3647.000000	99.711978 
3646.000000	99.708412 
3645.000000	99.707405 
3644.000000	99.707300 
3643.000000	99.705362 
3642.000000	99.700666 
3641.000000	99.694455 
3640.000000	99.688624 
3639.000000	99.684282 
3638.000000	99.681213 
3637.000000	99.678029 
3636.000000	99.673663 
3635.000000	99.669104 
3634.000000	99.666861 
3633.000000	99.667907 
3632.000000	99.670287 
3631.000000	99.671482 
3630.000000	99.671115 
3629.000000	99.669929 
3628.000000	99.666676 
3627.000000	99.659972 
3626.000000	99.651427 
3625.000000	99.645060 
3624.000000	99.643913 
3623.000000	99.647414 
3622.000000	99.652295 
3621.000000	99.655802 
3620.000000	99.657702 
3619.000000	99.659495 
3618.000000	99.662556 
3617.000000	99.666746 
3616.000000	99.670156 
3615.000000	99.670856 
3614.000000	99.669256 
3613.000000	99.668451 
3612.000000	99.671897 
3611.000000	99.680500 
3610.000000	99.691851 
3609.000000	99.701902 
3608.000000	99.707250 
3607.000000	99.707003 
3606.000000	99.703086 
3605.000000	99.698427 
3604.000000	99.695014 
3603.000000	99.693219 
3602.000000	99.692563 
3601.000000	99.692940 
3600.000000	99.695026 
3599.000000	99.699180 
3598.000000	99.704720 
3597.000000	99.710169 
3596.000000	99.714323 
3595.000000	99.716900 
3594.000000	99.718000 
3593.000000	99.717009 
3592.000000	99.713029 
3591.000000	99.706310 
3590.000000	99.699155 
3589.000000	99.695118 
3588.000000	99.696254 
3587.000000	99.701023 
3586.000000	99.706396 
3585.000000	99.710646 
3584.000000	99.713170 
3583.000000	99.713746 
3582.000000	99.712749 
3581.000000	99.711023 
3580.000000	99.709233 
3579.000000	99.707357 
3578.000000	99.705004 
3577.000000	99.701665 
3576.000000	99.696621 
3575.000000	99.689470 
3574.000000	99.681417 
3573.000000	99.675462 
3572.000000	99.674532 
3571.000000	99.679413 
3570.000000	99.688540 
3569.000000	99.699300 
3568.000000	99.708552 
3567.000000	99.712563 
3566.000000	99.709428 
3565.000000	99.701899 
3564.000000	99.695358 
3563.000000	99.693415 
3562.000000	99.695772 
3561.000000	99.699298 
3560.000000	99.700877 
3559.000000	99.699599 
3558.000000	99.696685 
3557.000000	99.694258 
3556.000000	99.694234 
3555.000000	99.697438 
3554.000000	99.702707 
3553.000000	99.706962 
3552.000000	99.707044 
3551.000000	99.702293 
3550.000000	99.695127 
3549.000000	99.689243 
3548.000000	99.687193 
3547.000000	99.688782 
3546.000000	99.691324 
3545.000000	99.692148 
3544.000000	99.691016 
3543.000000	99.689892 
3542.000000	99.690687 
3541.000000	99.693669 
3540.000000	99.697640 
3539.000000	99.700959 
3538.000000	99.702221 
3537.000000	99.700523 
3536.000000	99.696018 
3535.000000	99.690384 
3534.000000	99.686043 
3533.000000	99.684259 
3532.000000	99.684079 
3531.000000	99.683391 
3530.000000	99.681167 
3529.000000	99.678498 
3528.000000	99.677368 
3527.000000	99.678637 
3526.000000	99.681491 
3525.000000	99.684570 
3524.000000	99.687111 
3523.000000	99.689118 
3522.000000	99.690965 
3521.000000	99.693024 
3520.000000	99.695375 
3519.000000	99.697693 
3518.000000	99.699415 
3517.000000	99.700072 
3516.000000	99.699549 
3515.000000	99.698156 
3514.000000	99.696457 
3513.000000	99.694814 
3512.000000	99.693056 
3511.000000	99.690749 
3510.000000	99.687982 
3509.000000	99.685725 
3508.000000	99.684956 
3507.000000	99.685389 
3506.000000	99.685656 
3505.000000	99.684991 
3504.000000	99.684429 
3503.000000	99.685946 
3502.000000	99.690480 
3501.000000	99.696918 
3500.000000	99.702617 
3499.000000	99.704683 
3498.000000	99.701410 
3497.000000	99.693542 
3496.000000	99.684249 
3495.000000	99.677142 
3494.000000	99.673814 
3493.000000	99.673283 
3492.000000	99.673707 
3491.000000	99.674112 
3490.000000	99.674465 
3489.000000	99.674823 
3488.000000	99.675139 
3487.000000	99.675828 
3486.000000	99.677902 
3485.000000	99.682059 
3484.000000	99.687583 
3483.000000	99.692222 
3482.000000	99.693414 
3481.000000	99.690015 
3480.000000	99.683112 
3479.000000	99.675370 
3478.000000	99.669780 
3477.000000	99.668693 
3476.000000	99.672945 
3475.000000	99.680902 
3474.000000	99.688614 
3473.000000	99.692056 
3472.000000	99.689969 
3471.000000	99.684521 
3470.000000	99.679016 
3469.000000	99.675195 
3468.000000	99.672809 
3467.000000	99.671151 
3466.000000	99.670248 
3465.000000	99.670543 
3464.000000	99.672040 
3463.000000	99.673972 
3462.000000	99.675071 
3461.000000	99.674211 
3460.000000	99.671298 
3459.000000	99.667748 
3458.000000	99.665649 
3457.000000	99.665941 
3456.000000	99.667473 
3455.000000	99.668099 
3454.000000	99.666697 
3453.000000	99.663924 
3452.000000	99.661209 
3451.000000	99.659546 
3450.000000	99.659421 
3449.000000	99.661185 
3448.000000	99.664522 
3447.000000	99.667601 
3446.000000	99.667918 
3445.000000	99.664814 
3444.000000	99.660642 
3443.000000	99.658842 
3442.000000	99.660776 
3441.000000	99.664598 
3440.000000	99.667169 
3439.000000	99.666729 
3438.000000	99.663876 
3437.000000	99.660590 
3436.000000	99.658568 
3435.000000	99.658119 
3434.000000	99.658341 
3433.000000	99.658339 
3432.000000	99.658117 
3431.000000	99.658061 
3430.000000	99.657998 
3429.000000	99.657542 
3428.000000	99.657400 
3427.000000	99.659296 
3426.000000	99.663890 
3425.000000	99.669214 
3424.000000	99.672001 
3423.000000	99.670747 
3422.000000	99.667193 
3421.000000	99.664577 
3420.000000	99.664636 
3419.000000	99.666455 
3418.000000	99.668031 
3417.000000	99.668459 
3416.000000	99.668215 
3415.000000	99.667558 
3414.000000	99.665486 
3413.000000	99.660979 
3412.000000	99.655010 
3411.000000	99.650343 
3410.000000	99.648972 
3409.000000	99.650343 
3408.000000	99.652394 
3407.000000	99.653781 
3406.000000	99.654513 
3405.000000	99.654931 
3404.000000	99.655132 
3403.000000	99.655600 
3402.000000	99.657640 
3401.000000	99.662340 
3400.000000	99.668907 
3399.000000	99.674292 
3398.000000	99.674947 
3397.000000	99.669489 
3396.000000	99.659888 
3395.000000	99.649991 
3394.000000	99.642917 
3393.000000	99.639901 
3392.000000	99.640954 
3391.000000	99.645444 
3390.000000	99.651564 
3389.000000	99.656310 
3388.000000	99.657392 
3387.000000	99.655368 
3386.000000	99.653316 
3385.000000	99.654153 
3384.000000	99.658436 
3383.000000	99.664366 
3382.000000	99.669142 
3381.000000	99.670453 
3380.000000	99.667853 
3379.000000	99.663327 
3378.000000	99.659901 
3377.000000	99.659106 
3376.000000	99.660041 
3375.000000	99.661046 
3374.000000	99.661494 
3373.000000	99.661564 
3372.000000	99.661254 
3371.000000	99.660808 
3370.000000	99.661654 
3369.000000	99.665427 
3368.000000	99.671635 
3367.000000	99.677295 
3366.000000	99.679530 
3365.000000	99.678104 
3364.000000	99.674937 
3363.000000	99.671729 
3362.000000	99.668743 
3361.000000	99.665539 
3360.000000	99.662101 
3359.000000	99.659150 
3358.000000	99.657795 
3357.000000	99.658708 
3356.000000	99.661158 
3355.000000	99.663050 
3354.000000	99.662777 
3353.000000	99.661139 
3352.000000	99.660614 
3351.000000	99.662402 
3350.000000	99.664911 
3349.000000	99.665765 
3348.000000	99.664560 
3347.000000	99.662755 
3346.000000	99.661391 
3345.000000	99.660275 
3344.000000	99.659402 
3343.000000	99.659893 
3342.000000	99.662751 
3341.000000	99.667317 
3340.000000	99.671600 
3339.000000	99.673796 
3338.000000	99.673163 
3337.000000	99.670045 
3336.000000	99.665862 
3335.000000	99.662803 
3334.000000	99.662654 
3333.000000	99.665602 
3332.000000	99.670283 
3331.000000	99.674952 
3330.000000	99.678387 
3329.000000	99.679941 
3328.000000	99.679295 
3327.000000	99.676374 
3326.000000	99.671415 
3325.000000	99.665176 
3324.000000	99.659166 
3323.000000	99.655361 
3322.000000	99.655189 
3321.000000	99.658713 
3320.000000	99.664854 
3319.000000	99.672102 
3318.000000	99.678747 
3317.000000	99.683074 
3316.000000	99.684466 
3315.000000	99.684443 
3314.000000	99.685562 
3313.000000	99.688639 
3312.000000	99.691656 
3311.000000	99.692125 
3310.000000	99.690190 
3309.000000	99.688541 
3308.000000	99.689313 
3307.000000	99.691871 
3306.000000	99.693817 
3305.000000	99.693511 
3304.000000	99.691280 
3303.000000	99.688755 
3302.000000	99.687469 
3301.000000	99.687575 
3300.000000	99.687315 
3299.000000	99.684211 
3298.000000	99.677660 
3297.000000	99.670362 
3296.000000	99.666323 
3295.000000	99.667153 
3294.000000	99.670960 
3293.000000	99.674982 
3292.000000	99.678493 
3291.000000	99.682617 
3290.000000	99.687982 
3289.000000	99.693471 
3288.000000	99.697116 
3287.000000	99.697685 
3286.000000	99.695734 
3285.000000	99.693669 
3284.000000	99.694278 
3283.000000	99.698148 
3282.000000	99.702547 
3281.000000	99.703695 
3280.000000	99.700348 
3279.000000	99.694646 
3278.000000	99.689666 
3277.000000	99.687065 
3276.000000	99.686895 
3275.000000	99.688249 
3274.000000	99.689427 
3273.000000	99.688658 
3272.000000	99.685768 
3271.000000	99.682564 
3270.000000	99.680745 
3269.000000	99.680006 
3268.000000	99.679088 
3267.000000	99.678056 
3266.000000	99.678203 
3265.000000	99.679849 
3264.000000	99.681629 
3263.000000	99.682454 
3262.000000	99.683089 
3261.000000	99.684985 
3260.000000	99.688229 
3259.000000	99.691562 
3258.000000	99.694123 
3257.000000	99.696237 
3256.000000	99.698288 
3255.000000	99.699554 
3254.000000	99.698783 
3253.000000	99.695805 
3252.000000	99.692104 
3251.000000	99.689693 
3250.000000	99.689641 
3249.000000	99.691695 
3248.000000	99.694922 
3247.000000	99.698244 
3246.000000	99.700451 
3245.000000	99.700255 
3244.000000	99.696889 
3243.000000	99.690795 
3242.000000	99.683674 
3241.000000	99.677662 
3240.000000	99.674263 
3239.000000	99.673878 
3238.000000	99.676229 
3237.000000	99.680869 
3236.000000	99.686814 
3235.000000	99.691875 
3234.000000	99.693389 
3233.000000	99.690410 
3232.000000	99.684836 
3231.000000	99.679810 
3230.000000	99.677245 
3229.000000	99.677354 
3228.000000	99.679791 
3227.000000	99.683891 
3226.000000	99.688025 
3225.000000	99.690276 
3224.000000	99.690326 
3223.000000	99.689674 
3222.000000	99.689524 
3221.000000	99.689495 
3220.000000	99.689070 
3219.000000	99.689168 
3218.000000	99.691002 
3217.000000	99.693962 
3216.000000	99.695960 
3215.000000	99.695860 
3214.000000	99.694657 
3213.000000	99.694198 
3212.000000	99.695366 
3211.000000	99.697475 
3210.000000	99.698762 
3209.000000	99.697548 
3208.000000	99.693717 
3207.000000	99.689264 
3206.000000	99.686745 
3205.000000	99.686907 
3204.000000	99.688247 
3203.000000	99.689066 
3202.000000	99.689413 
3201.000000	99.690594 
3200.000000	99.693226 
3199.000000	99.696489 
3198.000000	99.699282 
3197.000000	99.701304 
3196.000000	99.702519 
3195.000000	99.702165 
3194.000000	99.699393 
3193.000000	99.694973 
3192.000000	99.691356 
3191.000000	99.690367 
3190.000000	99.691508 
3189.000000	99.693117 
3188.000000	99.694421 
3187.000000	99.695540 
3186.000000	99.696372 
3185.000000	99.697021 
3184.000000	99.698851 
3183.000000	99.703023 
3182.000000	99.707706 
3181.000000	99.708766 
3180.000000	99.704259 
3179.000000	99.696910 
3178.000000	99.691163 
3177.000000	99.688981 
3176.000000	99.689536 
3175.000000	99.691417 
3174.000000	99.693396 
3173.000000	99.694092 
3172.000000	99.693021 
3171.000000	99.691774 
3170.000000	99.692385 
3169.000000	99.694462 
3168.000000	99.695421 
3167.000000	99.693865 
3166.000000	99.691452 
3165.000000	99.690929 
3164.000000	99.693216 
3163.000000	99.696788 
3162.000000	99.699175 
3161.000000	99.698816 
3160.000000	99.696159 
3159.000000	99.693442 
3158.000000	99.693043 
3157.000000	99.695638 
3156.000000	99.699715 
3155.000000	99.702479 
3154.000000	99.701206 
3153.000000	99.694844 
3152.000000	99.685478 
3151.000000	99.677805 
3150.000000	99.675743 
3149.000000	99.679186 
3148.000000	99.684660 
3147.000000	99.689096 
3146.000000	99.692254 
3145.000000	99.695613 
3144.000000	99.699883 
3143.000000	99.703911 
3142.000000	99.705469 
3141.000000	99.703089 
3140.000000	99.697744 
3139.000000	99.692657 
3138.000000	99.690677 
3137.000000	99.691671 
3136.000000	99.693162 
3135.000000	99.693471 
3134.000000	99.693285 
3133.000000	99.693926 
3132.000000	99.695155 
3131.000000	99.695453 
3130.000000	99.693998 
3129.000000	99.691670 
3128.000000	99.690279 
3127.000000	99.691222 
3126.000000	99.694761 
3125.000000	99.700170 
3124.000000	99.706217 
3123.000000	99.711304 
3122.000000	99.713486 
3121.000000	99.711320 
3120.000000	99.705366 
3119.000000	99.698453 
3118.000000	99.693616 
3117.000000	99.691666 
3116.000000	99.691174 
3115.000000	99.690644 
3114.000000	99.690003 
3113.000000	99.690115 
3112.000000	99.691670 
3111.000000	99.694784 
3110.000000	99.698958 
3109.000000	99.702897 
3108.000000	99.704718 
3107.000000	99.703075 
3106.000000	99.698667 
3105.000000	99.694672 
3104.000000	99.694865 
3103.000000	99.700185 
3102.000000	99.707171 
3101.000000	99.711011 
3100.000000	99.710554 
3099.000000	99.709010 
3098.000000	99.709220 
3097.000000	99.710120 
3096.000000	99.709454 
3095.000000	99.708440 
3094.000000	99.710893 
3093.000000	99.717713 
3092.000000	99.724624 
3091.000000	99.726284 
3090.000000	99.721319 
3089.000000	99.712715 
3088.000000	99.704515 
3087.000000	99.698942 
3086.000000	99.695810 
3085.000000	99.693859 
3084.000000	99.692832 
3083.000000	99.694206 
3082.000000	99.699204 
3081.000000	99.706282 
3080.000000	99.711923 
3079.000000	99.714229 
3078.000000	99.714541 
3077.000000	99.715153 
3076.000000	99.716712 
3075.000000	99.718465 
3074.000000	99.719682 
3073.000000	99.719887 
3072.000000	99.718754 
3071.000000	99.716918 
3070.000000	99.716154 
3069.000000	99.717635 
3068.000000	99.720419 
3067.000000	99.722500 
3066.000000	99.722905 
3065.000000	99.721945 
3064.000000	99.719931 
3063.000000	99.716727 
3062.000000	99.712387 
3061.000000	99.707397 
3060.000000	99.702462 
3059.000000	99.698767 
3058.000000	99.698076 
3057.000000	99.701409 
3056.000000	99.707338 
3055.000000	99.712409 
3054.000000	99.713809 
3053.000000	99.711603 
3052.000000	99.708415 
3051.000000	99.707075 
3050.000000	99.708275 
3049.000000	99.710169 
3048.000000	99.710407 
3047.000000	99.708724 
3046.000000	99.707059 
3045.000000	99.706942 
3044.000000	99.707527 
3043.000000	99.707012 
3042.000000	99.705502 
3041.000000	99.705260 
3040.000000	99.707959 
3039.000000	99.712536 
3038.000000	99.716199 
3037.000000	99.717034 
3036.000000	99.715310 
3035.000000	99.712643 
3034.000000	99.710378 
3033.000000	99.708719 
3032.000000	99.707191 
3031.000000	99.705814 
3030.000000	99.705560 
3029.000000	99.707213 
3028.000000	99.709855 
3027.000000	99.711117 
3026.000000	99.709507 
3025.000000	99.706291 
3024.000000	99.704343 
3023.000000	99.704821 
3022.000000	99.705522 
3021.000000	99.703154 
3020.000000	99.697121 
3019.000000	99.690365 
3018.000000	99.686273 
3017.000000	99.685425 
3016.000000	99.686013 
3015.000000	99.687014 
3014.000000	99.689683 
3013.000000	99.695310 
3012.000000	99.702102 
3011.000000	99.705422 
3010.000000	99.701798 
3009.000000	99.692684 
3008.000000	99.683746 
3007.000000	99.680046 
3006.000000	99.681783 
3005.000000	99.684928 
3004.000000	99.685755 
3003.000000	99.684155 
3002.000000	99.682464 
3001.000000	99.682182 
3000.000000	99.682678 
2999.000000	99.682493 
2998.000000	99.680712 
2997.000000	99.677115 
2996.000000	99.672141 
2995.000000	99.667101 
2994.000000	99.663608 
2993.000000	99.662172 
2992.000000	99.661727 
2991.000000	99.660956 
2990.000000	99.659727 
2989.000000	99.658895 
2988.000000	99.659041 
2987.000000	99.660023 
2986.000000	99.661623 
2985.000000	99.663945 
2984.000000	99.666780 
2983.000000	99.668968 
2982.000000	99.669125 
2981.000000	99.667302 
2980.000000	99.665534 
2979.000000	99.666061 
2978.000000	99.669037 
2977.000000	99.672468 
2976.000000	99.674463 
2975.000000	99.674934 
2974.000000	99.674981 
2973.000000	99.675483 
2972.000000	99.676797 
2971.000000	99.679101 
2970.000000	99.682122 
2969.000000	99.684924 
2968.000000	99.686782 
2967.000000	99.688109 
2966.000000	99.689926 
2965.000000	99.692701 
2964.000000	99.696311 
2963.000000	99.700579 
2962.000000	99.704889 
2961.000000	99.707781 
2960.000000	99.708234 
2959.000000	99.707284 
2958.000000	99.707149 
2957.000000	99.708578 
2956.000000	99.710234 
2955.000000	99.710820 
2954.000000	99.710563 
2953.000000	99.710129 
2952.000000	99.709390 
2951.000000	99.708115 
2950.000000	99.707018 
2949.000000	99.707165 
2948.000000	99.708818 
2947.000000	99.711499 
2946.000000	99.714705 
2945.000000	99.717912 
2944.000000	99.720424 
2943.000000	99.721991 
2942.000000	99.723320 
2941.000000	99.725385 
2940.000000	99.728484 
2939.000000	99.732414 
2938.000000	99.737062 
2937.000000	99.742059 
2936.000000	99.746198 
2935.000000	99.748250 
2934.000000	99.748546 
2933.000000	99.749003 
2932.000000	99.751200 
2931.000000	99.754806 
2930.000000	99.758157 
2929.000000	99.760048 
2928.000000	99.760630 
2927.000000	99.760741 
2926.000000	99.760931 
2925.000000	99.761315 
2924.000000	99.761903 
2923.000000	99.762393 
2922.000000	99.761684 
2921.000000	99.758473 
2920.000000	99.752897 
2919.000000	99.747027 
2918.000000	99.742910 
2917.000000	99.740256 
2916.000000	99.736878 
2915.000000	99.731496 
2914.000000	99.725345 
2913.000000	99.720657 
2912.000000	99.718224 
2911.000000	99.717093 
2910.000000	99.716323 
2909.000000	99.716226 
2908.000000	99.717533 
2907.000000	99.719704 
2906.000000	99.720603 
2905.000000	99.718228 
2904.000000	99.712738 
2903.000000	99.706559 
2902.000000	99.702403 
2901.000000	99.701396 
2900.000000	99.702834 
2899.000000	99.705172 
2898.000000	99.706743 
2897.000000	99.706333 
2896.000000	99.704106 
2895.000000	99.701969 
2894.000000	99.702220 
2893.000000	99.705371 
2892.000000	99.709578 
2891.000000	99.712295 
2890.000000	99.712408 
2889.000000	99.710921 
2888.000000	99.709975 
2887.000000	99.711055 
2886.000000	99.713777 
2885.000000	99.716255 
2884.000000	99.716813 
2883.000000	99.715253 
2882.000000	99.712574 
2881.000000	99.710074 
2880.000000	99.709074 
2879.000000	99.710676 
2878.000000	99.714858 
2877.000000	99.719986 
2876.000000	99.723950 
2875.000000	99.725649 
2874.000000	99.724939 
2873.000000	99.721864 
2872.000000	99.717074 
2871.000000	99.712679 
2870.000000	99.711238 
2869.000000	99.713384 
2868.000000	99.717209 
2867.000000	99.720231 
2866.000000	99.721482 
2865.000000	99.721697 
2864.000000	99.722342 
2863.000000	99.724598 
2862.000000	99.728545 
2861.000000	99.733106 
2860.000000	99.737317 
2859.000000	99.741512 
2858.000000	99.746556 
2857.000000	99.752095 
2856.000000	99.756502 
2855.000000	99.758428 
2854.000000	99.757509 
2853.000000	99.753904 
2852.000000	99.748393 
2851.000000	99.742767 
2850.000000	99.738604 
2849.000000	99.735470 
2848.000000	99.731862 
2847.000000	99.728180 
2846.000000	99.726925 
2845.000000	99.729212 
2844.000000	99.732774 
2843.000000	99.734710 
2842.000000	99.734843 
2841.000000	99.734917 
2840.000000	99.735594 
2839.000000	99.735952 
2838.000000	99.735282 
2837.000000	99.733714 
2836.000000	99.731352 
2835.000000	99.728365 
2834.000000	99.725876 
2833.000000	99.725211 
2832.000000	99.725943 
2831.000000	99.725946 
2830.000000	99.723961 
2829.000000	99.721200 
2828.000000	99.719851 
2827.000000	99.720645 
2826.000000	99.722448 
2825.000000	99.723773 
2824.000000	99.724102 
2823.000000	99.723940 
2822.000000	99.724070 
2821.000000	99.724857 
2820.000000	99.726046 
2819.000000	99.727071 
2818.000000	99.727453 
2817.000000	99.726922 
2816.000000	99.725446 
2815.000000	99.723471 
2814.000000	99.722020 
2813.000000	99.722100 
2812.000000	99.723648 
2811.000000	99.725115 
2810.000000	99.724401 
2809.000000	99.720616 
2808.000000	99.715140 
2807.000000	99.710835 
2806.000000	99.709981 
2805.000000	99.712903 
2804.000000	99.718347 
2803.000000	99.724556 
2802.000000	99.729594 
2801.000000	99.731347 
2800.000000	99.728548 
2799.000000	99.722267 
2798.000000	99.715798 
2797.000000	99.712553 
2796.000000	99.713822 
2795.000000	99.718209 
2794.000000	99.722730 
2793.000000	99.724841 
2792.000000	99.724252 
2791.000000	99.722943 
2790.000000	99.722907 
2789.000000	99.724058 
2788.000000	99.724906 
2787.000000	99.724824 
2786.000000	99.724405 
2785.000000	99.723911 
2784.000000	99.722986 
2783.000000	99.722204 
2782.000000	99.723084 
2781.000000	99.725654 
2780.000000	99.727539 
2779.000000	99.726810 
2778.000000	99.724629 
2777.000000	99.723513 
2776.000000	99.723829 
2775.000000	99.723759 
2774.000000	99.722489 
2773.000000	99.721659 
2772.000000	99.723214 
2771.000000	99.726966 
2770.000000	99.730802 
2769.000000	99.732665 
2768.000000	99.732049 
2767.000000	99.730098 
2766.000000	99.728488 
2765.000000	99.727947 
2764.000000	99.727874 
2763.000000	99.727517 
2762.000000	99.727051 
2761.000000	99.726999 
2760.000000	99.727148 
2759.000000	99.726845 
2758.000000	99.726044 
2757.000000	99.725190 
2756.000000	99.724351 
2755.000000	99.723446 
2754.000000	99.723169 
2753.000000	99.724498 
2752.000000	99.727072 
2751.000000	99.729063 
2750.000000	99.729054 
2749.000000	99.727361 
2748.000000	99.725259 
2747.000000	99.723710 
2746.000000	99.723152 
2745.000000	99.723639 
2744.000000	99.724506 
2743.000000	99.724542 
2742.000000	99.723235 
2741.000000	99.721587 
2740.000000	99.721048 
2739.000000	99.721778 
2738.000000	99.722468 
2737.000000	99.721803 
2736.000000	99.719762 
2735.000000	99.717433 
2734.000000	99.715866 
2733.000000	99.715261 
2732.000000	99.715245 
2731.000000	99.715752 
2730.000000	99.717277 
2729.000000	99.720052 
2728.000000	99.723306 
2727.000000	99.725915 
2726.000000	99.727680 
2725.000000	99.729344 
2724.000000	99.731274 
2723.000000	99.732779 
2722.000000	99.733026 
2721.000000	99.732033 
2720.000000	99.730362 
2719.000000	99.728332 
2718.000000	99.726096 
2717.000000	99.724190 
2716.000000	99.723351 
2715.000000	99.723829 
2714.000000	99.725261 
2713.000000	99.727132 
2712.000000	99.728961 
2711.000000	99.730128 
2710.000000	99.730072 
2709.000000	99.728865 
2708.000000	99.727283 
2707.000000	99.726112 
2706.000000	99.725512 
2705.000000	99.725203 
2704.000000	99.725137 
2703.000000	99.725816 
2702.000000	99.727827 
2701.000000	99.730944 
2700.000000	99.733737 
2699.000000	99.734418 
2698.000000	99.732455 
2697.000000	99.729298 
2696.000000	99.727158 
2695.000000	99.726935 
2694.000000	99.727575 
2693.000000	99.727506 
2692.000000	99.726451 
2691.000000	99.725596 
2690.000000	99.726111 
2689.000000	99.727758 
2688.000000	99.729190 
2687.000000	99.729645 
2686.000000	99.730055 
2685.000000	99.731886 
2684.000000	99.734729 
2683.000000	99.735784 
2682.000000	99.732724 
2681.000000	99.726847 
2680.000000	99.722304 
2679.000000	99.721916 
2678.000000	99.724708 
2677.000000	99.727969 
2676.000000	99.730478 
2675.000000	99.732552 
2674.000000	99.733877 
2673.000000	99.733199 
2672.000000	99.730340 
2671.000000	99.726968 
2670.000000	99.724684 
2669.000000	99.723334 
2668.000000	99.721934 
2667.000000	99.720468 
2666.000000	99.719899 
2665.000000	99.720788 
2664.000000	99.722629 
2663.000000	99.724416 
2662.000000	99.725457 
2661.000000	99.725780 
2660.000000	99.725986 
2659.000000	99.726423 
2658.000000	99.726432 
2657.000000	99.724942 
2656.000000	99.721997 
2655.000000	99.719038 
2654.000000	99.717480 
2653.000000	99.717919 
2652.000000	99.720971 
2651.000000	99.727211 
2650.000000	99.734928 
2649.000000	99.739216 
2648.000000	99.735671 
2647.000000	99.725207 
2646.000000	99.713862 
2645.000000	99.707691 
2644.000000	99.708808 
2643.000000	99.715748 
2642.000000	99.725351 
2641.000000	99.733824 
2640.000000	99.738288 
2639.000000	99.739070 
2638.000000	99.739449 
2637.000000	99.741750 
2636.000000	99.744337 
2635.000000	99.743725 
2634.000000	99.739229 
2633.000000	99.734299 
2632.000000	99.733303 
2631.000000	99.737659 
2630.000000	99.744841 
2629.000000	99.750273 
2628.000000	99.750403 
2627.000000	99.745009 
2626.000000	99.737000 
2625.000000	99.729869 
2624.000000	99.725378 
2623.000000	99.723536 
2622.000000	99.723745 
2621.000000	99.724845 
2620.000000	99.724568 
2619.000000	99.720668 
2618.000000	99.713502 
2617.000000	99.706788 
2616.000000	99.704721 
2615.000000	99.708022 
2614.000000	99.713143 
2613.000000	99.715559 
2612.000000	99.713886 
2611.000000	99.710838 
2610.000000	99.710405 
2609.000000	99.714322 
2608.000000	99.721074 
2607.000000	99.727730 
2606.000000	99.732448 
2605.000000	99.735574 
2604.000000	99.738681 
2603.000000	99.742365 
2602.000000	99.744909 
2601.000000	99.743756 
2600.000000	99.738762 
2599.000000	99.733180 
2598.000000	99.730454 
2597.000000	99.730558 
2596.000000	99.730660 
2595.000000	99.729062 
2594.000000	99.726980 
2593.000000	99.726274 
2592.000000	99.726900 
2591.000000	99.727347 
2590.000000	99.726601 
2589.000000	99.724925 
2588.000000	99.723316 
2587.000000	99.722701 
2586.000000	99.723193 
2585.000000	99.723914 
2584.000000	99.724117 
2583.000000	99.724356 
2582.000000	99.725467 
2581.000000	99.726355 
2580.000000	99.724461 
2579.000000	99.719178 
2578.000000	99.713416 
2577.000000	99.710618 
2576.000000	99.711202 
2575.000000	99.713079 
2574.000000	99.714770 
2573.000000	99.716651 
2572.000000	99.719609 
2571.000000	99.723668 
2570.000000	99.727627 
2569.000000	99.729306 
2568.000000	99.727039 
2567.000000	99.722160 
2566.000000	99.719156 
2565.000000	99.721547 
2564.000000	99.727781 
2563.000000	99.732892 
2562.000000	99.734042 
2561.000000	99.732576 
2560.000000	99.730557 
2559.000000	99.727907 
2558.000000	99.724318 
2557.000000	99.721814 
2556.000000	99.722807 
2555.000000	99.726363 
2554.000000	99.728988 
2553.000000	99.729440 
2552.000000	99.730554 
2551.000000	99.735070 
2550.000000	99.741192 
2549.000000	99.744053 
2548.000000	99.741149 
2547.000000	99.734842 
2546.000000	99.729565 
2545.000000	99.727941 
2544.000000	99.729828 
2543.000000	99.733598 
2542.000000	99.737268 
2541.000000	99.739073 
2540.000000	99.738108 
2539.000000	99.734579 
2538.000000	99.729357 
2537.000000	99.723884 
2536.000000	99.720584 
2535.000000	99.721961 
2534.000000	99.728017 
2533.000000	99.735286 
2532.000000	99.739834 
2531.000000	99.741010 
2530.000000	99.741201 
2529.000000	99.742450 
2528.000000	99.744845 
2527.000000	99.747770 
2526.000000	99.750487 
2525.000000	99.751081 
2524.000000	99.747222 
2523.000000	99.739558 
2522.000000	99.732747 
2521.000000	99.731029 
2520.000000	99.733343 
2519.000000	99.734590 
2518.000000	99.731581 
2517.000000	99.726181 
2516.000000	99.722634 
2515.000000	99.723592 
2514.000000	99.729376 
2513.000000	99.739236 
2512.000000	99.751373 
2511.000000	99.762236 
2510.000000	99.767872 
2509.000000	99.766951 
2508.000000	99.761790 
2507.000000	99.755830 
2506.000000	99.750762 
2505.000000	99.746653 
2504.000000	99.743772 
2503.000000	99.742666 
2502.000000	99.742534 
2501.000000	99.741227 
2500.000000	99.737662 
2499.000000	99.733284 
2498.000000	99.730409 
2497.000000	99.729940 
2496.000000	99.731457 
2495.000000	99.734579 
2494.000000	99.739042 
2493.000000	99.743978 
2492.000000	99.748412 
2491.000000	99.752182 
2490.000000	99.755127 
2489.000000	99.755571 
2488.000000	99.751329 
2487.000000	99.742922 
2486.000000	99.734694 
2485.000000	99.731546 
2484.000000	99.734479 
2483.000000	99.739805 
2482.000000	99.742805 
2481.000000	99.742048 
2480.000000	99.740111 
2479.000000	99.740307 
2478.000000	99.743308 
2477.000000	99.747337 
2476.000000	99.750860 
2475.000000	99.753627 
2474.000000	99.755089 
2473.000000	99.753630 
2472.000000	99.748404 
2471.000000	99.740756 
2470.000000	99.732990 
2469.000000	99.726929 
2468.000000	99.724487 
2467.000000	99.727716 
2466.000000	99.736163 
2465.000000	99.745322 
2464.000000	99.750136 
2463.000000	99.749767 
2462.000000	99.747144 
2461.000000	99.744495 
2460.000000	99.741683 
2459.000000	99.738650 
2458.000000	99.736769 
2457.000000	99.737061 
2456.000000	99.738949 
2455.000000	99.741250 
2454.000000	99.742669 
2453.000000	99.741259 
2452.000000	99.735938 
2451.000000	99.729467 
2450.000000	99.727458 
2449.000000	99.732678 
2448.000000	99.741629 
2447.000000	99.748078 
2446.000000	99.748764 
2445.000000	99.744706 
2444.000000	99.738691 
2443.000000	99.733272 
2442.000000	99.730148 
2441.000000	99.729421 
2440.000000	99.729463 
2439.000000	99.728758 
2438.000000	99.728077 
2437.000000	99.730230 
2436.000000	99.737488 
2435.000000	99.748979 
2434.000000	99.760097 
2433.000000	99.765107 
2432.000000	99.761946 
2431.000000	99.754561 
2430.000000	99.749025 
2429.000000	99.747258 
2428.000000	99.746431 
2427.000000	99.744660 
2426.000000	99.744360 
2425.000000	99.748227 
2424.000000	99.754241 
2423.000000	99.757318 
2422.000000	99.754972 
2421.000000	99.749317 
2420.000000	99.744217 
2419.000000	99.742573 
2418.000000	99.745696 
2417.000000	99.752709 
2416.000000	99.759919 
2415.000000	99.762703 
2414.000000	99.759252 
2413.000000	99.752037 
2412.000000	99.745248 
2411.000000	99.741290 
2410.000000	99.739753 
2409.000000	99.739008 
2408.000000	99.738366 
2407.000000	99.738793 
2406.000000	99.741543 
2405.000000	99.746120 
2404.000000	99.750122 
2403.000000	99.751465 
2402.000000	99.750285 
2401.000000	99.748236 
2400.000000	99.746390 
2399.000000	99.744328 
2398.000000	99.740933 
2397.000000	99.735684 
2396.000000	99.729628 
2395.000000	99.725491 
2394.000000	99.726182 
2393.000000	99.732173 
2392.000000	99.740298 
2391.000000	99.745709 
2390.000000	99.745448 
2389.000000	99.740558 
2388.000000	99.735194 
2387.000000	99.733424 
2386.000000	99.735986 
2385.000000	99.739918 
2384.000000	99.742031 
2383.000000	99.742846 
2382.000000	99.746223 
2381.000000	99.754867 
2380.000000	99.767115 
2379.000000	99.778459 
2378.000000	99.784993 
2377.000000	99.784848 
2376.000000	99.778237 
2375.000000	99.768175 
2374.000000	99.760168 
2373.000000	99.758517 
2372.000000	99.762204 
2371.000000	99.766019 
2370.000000	99.766222 
2369.000000	99.764067 
2368.000000	99.763684 
2367.000000	99.767564 
2366.000000	99.773927 
2365.000000	99.777444 
2364.000000	99.773523 
2363.000000	99.763610 
2362.000000	99.754667 
2361.000000	99.752658 
2360.000000	99.757469 
2359.000000	99.764100 
2358.000000	99.768399 
2357.000000	99.769159 
2356.000000	99.766963 
2355.000000	99.764259 
2354.000000	99.764123 
2353.000000	99.767703 
2352.000000	99.771704 
2351.000000	99.772231 
2350.000000	99.769399 
2349.000000	99.765974 
2348.000000	99.764571 
2347.000000	99.765193 
2346.000000	99.766545 
2345.000000	99.767467 
2344.000000	99.767148 
2343.000000	99.766026 
2342.000000	99.764602 
2341.000000	99.764526 
2340.000000	99.766459 
2339.000000	99.768916 
2338.000000	99.769537 
2337.000000	99.767532 
2336.000000	99.764486 
2335.000000	99.761919 
2334.000000	99.759739 
2333.000000	99.756953 
2332.000000	99.754601 
2331.000000	99.755488 
2330.000000	99.761606 
2329.000000	99.768942 
2328.000000	99.771562 
2327.000000	99.766468 
2326.000000	99.758153 
2325.000000	99.753243 
2324.000000	99.753979 
2323.000000	99.756683 
2322.000000	99.756082 
2321.000000	99.751225 
2320.000000	99.745052 
2319.000000	99.740749 
2318.000000	99.739271 
2317.000000	99.739858 
2316.000000	99.742392 
2315.000000	99.747324 
2314.000000	99.755425 
2313.000000	99.765433 
2312.000000	99.774970 
2311.000000	99.781342 
2310.000000	99.784290 
2309.000000	99.784994 
2308.000000	99.785051 
2307.000000	99.784187 
2306.000000	99.781144 
2305.000000	99.774984 
2304.000000	99.767347 
2303.000000	99.761700 
2302.000000	99.760911 
2301.000000	99.764142 
2300.000000	99.768135 
2299.000000	99.770532 
2298.000000	99.771956 
2297.000000	99.772843 
2296.000000	99.771062 
2295.000000	99.763625 
2294.000000	99.751551 
2293.000000	99.740002 
2292.000000	99.733506 
2291.000000	99.731784 
2290.000000	99.731521 
2289.000000	99.730839 
2288.000000	99.730715 
2287.000000	99.732152 
2286.000000	99.733194 
2285.000000	99.729954 
2284.000000	99.720827 
2283.000000	99.709468 
2282.000000	99.702472 
2281.000000	99.703539 
2280.000000	99.710191 
2279.000000	99.717115 
2278.000000	99.721894 
2277.000000	99.726045 
2276.000000	99.730731 
2275.000000	99.733869 
2274.000000	99.733088 
2273.000000	99.730267 
2272.000000	99.730989 
2271.000000	99.738811 
2270.000000	99.751079 
2269.000000	99.760801 
2268.000000	99.762272 
2267.000000	99.754852 
2266.000000	99.742643 
2265.000000	99.731750 
2264.000000	99.727263 
2263.000000	99.730564 
2262.000000	99.738090 
2261.000000	99.743454 
2260.000000	99.742720 
2259.000000	99.738394 
2258.000000	99.737266 
2257.000000	99.743509 
2256.000000	99.753931 
2255.000000	99.760709 
2254.000000	99.758916 
2253.000000	99.751090 
2252.000000	99.744334 
2251.000000	99.743515 
2250.000000	99.748207 
2249.000000	99.755735 
2248.000000	99.765031 
2247.000000	99.775571 
2246.000000	99.783891 
2245.000000	99.784775 
2244.000000	99.777056 
2243.000000	99.765325 
2242.000000	99.754269 
2241.000000	99.744112 
2240.000000	99.734023 
2239.000000	99.727067 
2238.000000	99.727334 
2237.000000	99.733348 
2236.000000	99.739008 
2235.000000	99.741369 
2234.000000	99.743422 
2233.000000	99.748563 
2232.000000	99.756224 
2231.000000	99.763978 
2230.000000	99.770081 
2229.000000	99.772612 
2228.000000	99.770086 
2227.000000	99.765001 
2226.000000	99.763383 
2225.000000	99.768649 
2224.000000	99.778771 
2223.000000	99.790851 
2222.000000	99.803978 
2221.000000	99.814852 
2220.000000	99.815802 
2219.000000	99.802689 
2218.000000	99.782329 
2217.000000	99.767050 
2216.000000	99.762836 
2215.000000	99.766582 
2214.000000	99.772883 
2213.000000	99.778325 
2212.000000	99.780298 
2211.000000	99.777405 
2210.000000	99.771914 
2209.000000	99.767751 
2208.000000	99.765582 
2207.000000	99.763818 
2206.000000	99.764396 
2205.000000	99.772039 
2204.000000	99.785768 
2203.000000	99.796201 
2202.000000	99.795113 
2201.000000	99.784968 
2200.000000	99.775278 
2199.000000	99.771275 
2198.000000	99.770217 
2197.000000	99.768094 
2196.000000	99.765368 
2195.000000	99.764244 
2194.000000	99.763572 
2193.000000	99.760376 
2192.000000	99.756111 
2191.000000	99.757415 
2190.000000	99.768065 
2189.000000	99.781924 
2188.000000	99.787107 
2187.000000	99.777164 
2186.000000	99.755898 
2185.000000	99.732164 
2184.000000	99.713550 
2183.000000	99.705054 
2182.000000	99.708660 
2181.000000	99.720896 
2180.000000	99.734598 
2179.000000	99.746605 
2178.000000	99.760517 
2177.000000	99.778771 
2176.000000	99.795680 
2175.000000	99.802998 
2174.000000	99.800007 
2173.000000	99.793365 
2172.000000	99.788741 
2171.000000	99.787515 
2170.000000	99.789980 
2169.000000	99.795693 
2168.000000	99.800966 
2167.000000	99.802233 
2166.000000	99.802851 
2165.000000	99.810306 
2164.000000	99.823956 
2163.000000	99.831639 
2162.000000	99.823333 
2161.000000	99.804778 
2160.000000	99.792835 
2159.000000	99.798367 
2158.000000	99.816981 
2157.000000	99.834963 
2156.000000	99.840356 
2155.000000	99.829850 
2154.000000	99.810653 
2153.000000	99.796334 
2152.000000	99.795959 
2151.000000	99.805712 
2150.000000	99.813510 
2149.000000	99.811783 
2148.000000	99.803295 
2147.000000	99.794505 
2146.000000	99.787595 
2145.000000	99.781660 
2144.000000	99.778356 
2143.000000	99.781580 
2142.000000	99.791422 
2141.000000	99.801917 
2140.000000	99.806567 
2139.000000	99.804502 
2138.000000	99.800054 
2137.000000	99.798005 
2136.000000	99.800561 
2135.000000	99.807057 
2134.000000	99.814077 
2133.000000	99.816686 
2132.000000	99.812258 
2131.000000	99.803060 
2130.000000	99.793095 
2129.000000	99.782821 
2128.000000	99.769680 
2127.000000	99.754586 
2126.000000	99.744828 
2125.000000	99.747596 
2124.000000	99.761235 
2123.000000	99.775138 
2122.000000	99.778547 
2121.000000	99.768818 
2120.000000	99.752248 
2119.000000	99.738611 
2118.000000	99.734762 
2117.000000	99.741461 
2116.000000	99.754712 
2115.000000	99.769633 
2114.000000	99.782548 
2113.000000	99.790093 
2112.000000	99.789279 
2111.000000	99.780895 
2110.000000	99.771646 
2109.000000	99.769479 
2108.000000	99.775632 
2107.000000	99.783457 
2106.000000	99.786455 
2105.000000	99.785842 
2104.000000	99.788343 
2103.000000	99.797225 
2102.000000	99.807586 
2101.000000	99.811022 
2100.000000	99.803900 
2099.000000	99.790533 
2098.000000	99.779437 
2097.000000	99.777512 
2096.000000	99.786585 
2095.000000	99.802947 
2094.000000	99.819012 
2093.000000	99.827141 
2092.000000	99.824405 
2091.000000	99.814049 
2090.000000	99.801690 
2089.000000	99.790567 
2088.000000	99.781404 
2087.000000	99.776011 
2086.000000	99.778003 
2085.000000	99.788428 
2084.000000	99.802311 
2083.000000	99.811533 
2082.000000	99.811166 
2081.000000	99.803126 
2080.000000	99.795027 
2079.000000	99.795352 
2078.000000	99.806998 
2077.000000	99.823263 
2076.000000	99.831835 
2075.000000	99.825392 
2074.000000	99.807952 
2073.000000	99.790054 
2072.000000	99.779464 
2071.000000	99.778205 
2070.000000	99.785448 
2069.000000	99.797883 
2068.000000	99.807904 
2067.000000	99.807563 
2066.000000	99.797105 
2065.000000	99.786357 
2064.000000	99.784608 
2063.000000	99.791694 
2062.000000	99.801913 
2061.000000	99.813075 
2060.000000	99.826629 
2059.000000	99.840136 
2058.000000	99.845615 
2057.000000	99.838111 
2056.000000	99.822572 
2055.000000	99.808783 
2054.000000	99.800949 
2053.000000	99.795466 
2052.000000	99.788577 
2051.000000	99.783003 
2050.000000	99.785603 
2049.000000	99.799647 
2048.000000	99.820223 
2047.000000	99.837422 
2046.000000	99.843811 
2045.000000	99.839811 
2044.000000	99.832859 
2043.000000	99.830406 
2042.000000	99.833160 
2041.000000	99.836392 
2040.000000	99.837958 
2039.000000	99.841887 
2038.000000	99.852085 
2037.000000	99.865855 
2036.000000	99.877349 
2035.000000	99.885249 
2034.000000	99.892327 
2033.000000	99.898957 
2032.000000	99.902869 
2031.000000	99.904886 
2030.000000	99.908171 
2029.000000	99.910524 
2028.000000	99.904089 
2027.000000	99.886449 
2026.000000	99.867327 
2025.000000	99.859760 
2024.000000	99.866452 
2023.000000	99.878148 
2022.000000	99.883373 
2021.000000	99.876988 
2020.000000	99.862247 
2019.000000	99.848195 
2018.000000	99.843637 
2017.000000	99.849488 
2016.000000	99.857486 
2015.000000	99.859673 
2014.000000	99.857067 
2013.000000	99.855916 
2012.000000	99.857865 
2011.000000	99.858263 
2010.000000	99.853964 
2009.000000	99.848655 
2008.000000	99.848830 
2007.000000	99.856343 
2006.000000	99.865717 
2005.000000	99.867563 
2004.000000	99.855462 
2003.000000	99.831920 
2002.000000	99.807974 
2001.000000	99.794803 
2000.000000	99.794126 
1999.000000	99.798315 
1998.000000	99.800254 
1997.000000	99.800535 
1996.000000	99.803919 
1995.000000	99.811120 
1994.000000	99.816952 
1993.000000	99.816840 
1992.000000	99.813939 
1991.000000	99.817663 
1990.000000	99.833891 
1989.000000	99.858056 
1988.000000	99.878811 
1987.000000	99.887628 
1986.000000	99.883945 
1985.000000	99.872584 
1984.000000	99.859670 
1983.000000	99.851756 
1982.000000	99.854532 
1981.000000	99.867814 
1980.000000	99.883050 
1979.000000	99.890031 
1978.000000	99.886983 
1977.000000	99.881805 
1976.000000	99.882534 
1975.000000	99.888817 
1974.000000	99.892894 
1973.000000	99.886231 
1972.000000	99.866291 
1971.000000	99.840387 
1970.000000	99.822864 
1969.000000	99.824524 
1968.000000	99.842171 
1967.000000	99.860085 
1966.000000	99.863741 
1965.000000	99.850952 
1964.000000	99.829820 
1963.000000	99.810133 
1962.000000	99.798216 
1961.000000	99.795457 
1960.000000	99.798310 
1959.000000	99.801037 
1958.000000	99.800050 
1957.000000	99.795643 
1956.000000	99.790436 
1955.000000	99.788072 
1954.000000	99.792890 
1953.000000	99.807504 
1952.000000	99.829089 
1951.000000	99.849652 
1950.000000	99.861242 
1949.000000	99.860490 
1948.000000	99.848646 
1947.000000	99.829530 
1946.000000	99.808626 
1945.000000	99.791821 
1944.000000	99.782550 
1943.000000	99.780358 
1942.000000	99.782873 
1941.000000	99.788373 
1940.000000	99.795535 
1939.000000	99.802067 
1938.000000	99.805593 
1937.000000	99.806098 
1936.000000	99.806303 
1935.000000	99.808724 
1934.000000	99.812367 
1933.000000	99.812628 
1932.000000	99.805394 
1931.000000	99.792296 
1930.000000	99.781288 
1929.000000	99.780013 
1928.000000	99.787958 
1927.000000	99.797090 
1926.000000	99.800748 
1925.000000	99.799645 
1924.000000	99.798388 
1923.000000	99.798589 
1922.000000	99.798058 
1921.000000	99.795508 
1920.000000	99.792241 
1919.000000	99.789260 
1918.000000	99.785638 
1917.000000	99.780343 
1916.000000	99.773917 
1915.000000	99.767435 
1914.000000	99.761704 
1913.000000	99.758058 
1912.000000	99.758018 
1911.000000	99.761182 
1910.000000	99.764345 
1909.000000	99.763875 
1908.000000	99.759301 
1907.000000	99.754042 
1906.000000	99.752695 
1905.000000	99.757492 
1904.000000	99.766448 
1903.000000	99.774845 
1902.000000	99.779013 
1901.000000	99.778870 
1900.000000	99.776858 
1899.000000	99.774841 
1898.000000	99.772795 
1897.000000	99.769930 
1896.000000	99.765739 
1895.000000	99.760114 
1894.000000	99.753887 
1893.000000	99.749361 
1892.000000	99.748858 
1891.000000	99.752374 
1890.000000	99.757405 
1889.000000	99.761622 
1888.000000	99.765065 
1887.000000	99.768469 
1886.000000	99.770961 
1885.000000	99.771235 
1884.000000	99.769811 
1883.000000	99.768162 
1882.000000	99.766240 
1881.000000	99.763062 
1880.000000	99.759507 
1879.000000	99.757969 
1878.000000	99.758612 
1877.000000	99.758177 
1876.000000	99.753998 
1875.000000	99.747680 
1874.000000	99.743026 
1873.000000	99.741330 
1872.000000	99.740856 
1871.000000	99.741094 
1870.000000	99.745421 
1869.000000	99.757154 
1868.000000	99.772825 
1867.000000	99.784025 
1866.000000	99.786133 
1865.000000	99.781308 
1864.000000	99.774654 
1863.000000	99.769426 
1862.000000	99.765638 
1861.000000	99.762360 
1860.000000	99.759815 
1859.000000	99.758441 
1858.000000	99.757194 
1857.000000	99.754504 
1856.000000	99.750754 
1855.000000	99.748342 
1854.000000	99.748920 
1853.000000	99.751651 
1852.000000	99.754746 
1851.000000	99.757647 
1850.000000	99.760667 
1849.000000	99.763301 
1848.000000	99.764262 
1847.000000	99.763207 
1846.000000	99.761443 
1845.000000	99.760630 
1844.000000	99.760585 
1843.000000	99.758917 
1842.000000	99.753865 
1841.000000	99.746262 
1840.000000	99.739134 
1839.000000	99.736148 
1838.000000	99.739095 
1837.000000	99.746256 
1836.000000	99.753954 
1835.000000	99.759490 
1834.000000	99.761951 
1833.000000	99.760990 
1832.000000	99.756203 
1831.000000	99.748358 
1830.000000	99.741211 
1829.000000	99.740087 
1828.000000	99.747028 
1827.000000	99.758806 
1826.000000	99.769107 
1825.000000	99.772221 
1824.000000	99.767345 
1823.000000	99.758944 
1822.000000	99.751851 
1821.000000	99.748057 
1820.000000	99.747227 
1819.000000	99.747916 
1818.000000	99.748559 
1817.000000	99.748389 
1816.000000	99.747745 
1815.000000	99.747210 
1814.000000	99.746599 
1813.000000	99.745371 
1812.000000	99.743707 
1811.000000	99.742300 
1810.000000	99.741228 
1809.000000	99.740160 
1808.000000	99.739501 
1807.000000	99.739931 
1806.000000	99.740696 
1805.000000	99.739801 
1804.000000	99.736693 
1803.000000	99.733706 
1802.000000	99.733664 
1801.000000	99.736506 
1800.000000	99.739447 
1799.000000	99.740514 
1798.000000	99.740090 
1797.000000	99.739212 
1796.000000	99.738391 
1795.000000	99.737788 
1794.000000	99.737151 
1793.000000	99.735899 
1792.000000	99.734566 
1791.000000	99.735372 
1790.000000	99.739261 
1789.000000	99.743660 
1788.000000	99.744958 
1787.000000	99.742539 
1786.000000	99.739845 
1785.000000	99.741003 
1784.000000	99.746152 
1783.000000	99.751238 
1782.000000	99.751857 
1781.000000	99.746836 
1780.000000	99.739642 
1779.000000	99.735825 
1778.000000	99.737901 
1777.000000	99.743703 
1776.000000	99.749593 
1775.000000	99.753745 
1774.000000	99.755385 
1773.000000	99.752355 
1772.000000	99.743552 
1771.000000	99.733983 
1770.000000	99.730261 
1769.000000	99.732384 
1768.000000	99.734980 
1767.000000	99.734830 
1766.000000	99.734535 
1765.000000	99.737215 
1764.000000	99.741096 
1763.000000	99.741556 
1762.000000	99.737615 
1761.000000	99.734327 
1760.000000	99.736275 
1759.000000	99.742573 
1758.000000	99.749587 
1757.000000	99.754402 
1756.000000	99.755841 
1755.000000	99.754564 
1754.000000	99.752180 
1753.000000	99.749968 
1752.000000	99.748549 
1751.000000	99.748067 
1750.000000	99.748254 
1749.000000	99.748190 
1748.000000	99.746492 
1747.000000	99.742924 
1746.000000	99.739792 
1745.000000	99.740473 
1744.000000	99.745998 
1743.000000	99.753478 
1742.000000	99.758728 
1741.000000	99.759778 
1740.000000	99.757198 
1739.000000	99.752857 
1738.000000	99.749007 
1737.000000	99.747324 
1736.000000	99.748219 
1735.000000	99.750476 
1734.000000	99.751132 
1733.000000	99.748667 
1732.000000	99.745706 
1731.000000	99.744085 
1730.000000	99.742953 
1729.000000	99.741475 
1728.000000	99.740760 
1727.000000	99.742850 
1726.000000	99.748147 
1725.000000	99.754422 
1724.000000	99.757868 
1723.000000	99.755621 
1722.000000	99.747784 
1721.000000	99.737124 
1720.000000	99.727854 
1719.000000	99.724970 
1718.000000	99.731354 
1717.000000	99.741912 
1716.000000	99.747708 
1715.000000	99.747082 
1714.000000	99.744352 
1713.000000	99.743098 
1712.000000	99.743728 
1711.000000	99.745062 
1710.000000	99.746276 
1709.000000	99.747092 
1708.000000	99.747202 
1707.000000	99.746332 
1706.000000	99.745065 
1705.000000	99.744718 
1704.000000	99.745816 
1703.000000	99.747353 
1702.000000	99.747835 
1701.000000	99.747111 
1700.000000	99.746679 
1699.000000	99.746355 
1698.000000	99.744241 
1697.000000	99.739327 
1696.000000	99.734042 
1695.000000	99.732695 
1694.000000	99.735322 
1693.000000	99.738278 
1692.000000	99.739464 
1691.000000	99.739708 
1690.000000	99.740227 
1689.000000	99.740170 
1688.000000	99.738057 
1687.000000	99.734672 
1686.000000	99.733133 
1685.000000	99.736745 
1684.000000	99.743635 
1683.000000	99.747099 
1682.000000	99.746756 
1681.000000	99.745286 
1680.000000	99.743550 
1679.000000	99.742252 
1678.000000	99.742645 
1677.000000	99.745618 
1676.000000	99.750497 
1675.000000	99.754865 
1674.000000	99.756836 
1673.000000	99.757184 
1672.000000	99.757144 
1671.000000	99.756683 
1670.000000	99.754966 
1669.000000	99.751880 
1668.000000	99.749464 
1667.000000	99.749961 
1666.000000	99.753257 
1665.000000	99.757488 
1664.000000	99.760776 
1663.000000	99.762290 
1662.000000	99.761999 
1661.000000	99.760089 
1660.000000	99.757182 
1659.000000	99.754908 
1658.000000	99.755353 
1657.000000	99.759190 
1656.000000	99.764825 
1655.000000	99.769332 
1654.000000	99.769725 
1653.000000	99.763988 
1652.000000	99.755550 
1651.000000	99.750590 
1650.000000	99.748950 
1649.000000	99.748460 
1648.000000	99.748082 
1647.000000	99.747341 
1646.000000	99.746683 
1645.000000	99.747413 
1644.000000	99.749883 
1643.000000	99.752839 
1642.000000	99.754438 
1641.000000	99.752885 
1640.000000	99.747825 
1639.000000	99.741325 
1638.000000	99.736383 
1637.000000	99.734287 
1636.000000	99.733490 
1635.000000	99.732404 
1634.000000	99.733401 
1633.000000	99.738225 
1632.000000	99.744414 
1631.000000	99.748612 
1630.000000	99.749465 
1629.000000	99.747760 
1628.000000	99.744360 
1627.000000	99.738994 
1626.000000	99.731563 
1625.000000	99.723341 
1624.000000	99.716839 
1623.000000	99.714746 
1622.000000	99.717758 
1621.000000	99.723874 
1620.000000	99.730111 
1619.000000	99.733863 
1618.000000	99.733537 
1617.000000	99.729541 
1616.000000	99.724296 
1615.000000	99.719915 
1614.000000	99.716840 
1613.000000	99.715085 
1612.000000	99.715296 
1611.000000	99.718026 
1610.000000	99.722575 
1609.000000	99.727197 
1608.000000	99.730279 
1607.000000	99.730870 
1606.000000	99.728684 
1605.000000	99.724485 
1604.000000	99.720195 
1603.000000	99.717725 
1602.000000	99.717366 
1601.000000	99.717937 
1600.000000	99.718863 
1599.000000	99.721084 
1598.000000	99.725236 
1597.000000	99.729660 
1596.000000	99.731301 
1595.000000	99.728768 
1594.000000	99.724027 
1593.000000	99.720690 
1592.000000	99.721139 
1591.000000	99.725448 
1590.000000	99.731827 
1589.000000	99.737662 
1588.000000	99.741123 
1587.000000	99.742319 
1586.000000	99.742683 
1585.000000	99.743182 
1584.000000	99.743664 
1583.000000	99.743822 
1582.000000	99.743912 
1581.000000	99.744115 
1580.000000	99.743958 
1579.000000	99.743044 
1578.000000	99.742162 
1577.000000	99.743089 
1576.000000	99.745950 
1575.000000	99.747850 
1574.000000	99.746907 
1573.000000	99.743624 
1572.000000	99.739236 
1571.000000	99.736258 
1570.000000	99.738919 
1569.000000	99.748929 
1568.000000	99.762340 
1567.000000	99.773687 
1566.000000	99.779609 
1565.000000	99.779442 
1564.000000	99.775014 
1563.000000	99.769018 
1562.000000	99.762841 
1561.000000	99.756950 
1560.000000	99.754746 
1559.000000	99.762017 
1558.000000	99.772470 
1557.000000	99.779423 
1556.000000	99.784573 
1555.000000	99.788470 
1554.000000	99.789996 
1553.000000	99.788114 
1552.000000	99.783885 
1551.000000	99.780039 
1550.000000	99.779312 
1549.000000	99.782062 
1548.000000	99.786194 
1547.000000	99.789919 
1546.000000	99.793209 
1545.000000	99.796721 
1544.000000	99.799563 
1543.000000	99.799092 
1542.000000	99.793500 
1541.000000	99.784026 
1540.000000	99.774859 
1539.000000	99.769728 
1538.000000	99.768982 
1537.000000	99.770684 
1536.000000	99.773390 
1535.000000	99.777021 
1534.000000	99.781148 
1533.000000	99.783533 
1532.000000	99.782652 
1531.000000	99.780179 
1530.000000	99.778381 
1529.000000	99.778026 
1528.000000	99.778308 
1527.000000	99.777811 
1526.000000	99.776026 
1525.000000	99.773638 
1524.000000	99.771204 
1523.000000	99.768741 
1522.000000	99.766958 
1521.000000	99.766995 
1520.000000	99.768434 
1519.000000	99.770071 
1518.000000	99.771479 
1517.000000	99.772775 
1516.000000	99.773350 
1515.000000	99.772240 
1514.000000	99.769625 
1513.000000	99.767043 
1512.000000	99.766783 
1511.000000	99.770296 
1510.000000	99.777113 
1509.000000	99.785596 
1508.000000	99.793016 
1507.000000	99.793888 
1506.000000	99.784558 
1505.000000	99.772521 
1504.000000	99.764990 
1503.000000	99.761799 
1502.000000	99.761134 
1501.000000	99.761790 
1500.000000	99.763439 
1499.000000	99.766394 
1498.000000	99.769997 
1497.000000	99.771012 
1496.000000	99.766093 
1495.000000	99.757192 
1494.000000	99.749767 
1493.000000	99.746307 
1492.000000	99.744734 
1491.000000	99.741411 
1490.000000	99.735762 
1489.000000	99.731608 
1488.000000	99.732014 
1487.000000	99.735778 
1486.000000	99.740464 
1485.000000	99.745292 
1484.000000	99.750482 
1483.000000	99.755334 
1482.000000	99.757967 
1481.000000	99.757165 
1480.000000	99.753836 
1479.000000	99.749886 
1478.000000	99.746690 
1477.000000	99.745238 
1476.000000	99.745952 
1475.000000	99.747427 
1474.000000	99.746586 
1473.000000	99.741752 
1472.000000	99.735889 
1471.000000	99.733831 
1470.000000	99.736569 
1469.000000	99.741856 
1468.000000	99.747569 
1467.000000	99.752533 
1466.000000	99.755632 
1465.000000	99.755936 
1464.000000	99.754362 
1463.000000	99.753161 
1462.000000	99.752773 
1461.000000	99.751515 
1460.000000	99.748196 
1459.000000	99.743749 
1458.000000	99.740202 
1457.000000	99.737701 
1456.000000	99.735379 
1455.000000	99.735475 
1454.000000	99.739966 
1453.000000	99.747178 
1452.000000	99.752655 
1451.000000	99.752501 
1450.000000	99.747046 
1449.000000	99.740211 
1448.000000	99.735755 
1447.000000	99.734470 
1446.000000	99.734687 
1445.000000	99.734785 
1444.000000	99.734081 
1443.000000	99.732255 
1442.000000	99.729144 
1441.000000	99.725098 
1440.000000	99.721115 
1439.000000	99.718248 
1438.000000	99.717079 
1437.000000	99.717841 
1436.000000	99.720528 
1435.000000	99.724889 
1434.000000	99.730138 
1433.000000	99.734530 
1432.000000	99.736043 
1431.000000	99.734000 
1430.000000	99.729772 
1429.000000	99.725403 
1428.000000	99.722124 
1427.000000	99.720378 
1426.000000	99.720176 
1425.000000	99.721301 
1424.000000	99.723525 
1423.000000	99.726600 
1422.000000	99.729980 
1421.000000	99.732503 
1420.000000	99.732898 
1419.000000	99.731021 
1418.000000	99.727607 
1417.000000	99.722905 
1416.000000	99.717022 
1415.000000	99.711338 
1414.000000	99.707943 
1413.000000	99.706980 
1412.000000	99.706002 
1411.000000	99.703211 
1410.000000	99.700299 
1409.000000	99.700497 
1408.000000	99.704549 
1407.000000	99.709897 
1406.000000	99.713253 
1405.000000	99.713528 
1404.000000	99.712573 
1403.000000	99.712997 
1402.000000	99.715453 
1401.000000	99.718437 
1400.000000	99.720109 
1399.000000	99.720123 
1398.000000	99.719512 
1397.000000	99.718576 
1396.000000	99.716344 
1395.000000	99.712792 
1394.000000	99.710068 
1393.000000	99.710089 
1392.000000	99.712445 
1391.000000	99.715773 
1390.000000	99.719674 
1389.000000	99.724550 
1388.000000	99.730155 
1387.000000	99.734911 
1386.000000	99.736929 
1385.000000	99.735365 
1384.000000	99.730735 
1383.000000	99.725112 
1382.000000	99.721591 
1381.000000	99.721938 
1380.000000	99.725108 
1379.000000	99.728872 
1378.000000	99.732017 
1377.000000	99.734232 
1376.000000	99.735009 
1375.000000	99.734128 
1374.000000	99.732644 
1373.000000	99.731729 
1372.000000	99.730878 
1371.000000	99.729020 
1370.000000	99.726850 
1369.000000	99.726608 
1368.000000	99.729370 
1367.000000	99.733608 
1366.000000	99.736994 
1365.000000	99.738470 
1364.000000	99.738269 
1363.000000	99.737125 
1362.000000	99.735897 
1361.000000	99.735397 
1360.000000	99.736119 
1359.000000	99.738138 
1358.000000	99.740942 
1357.000000	99.743133 
1356.000000	99.743044 
1355.000000	99.740500 
1354.000000	99.737549 
1353.000000	99.736649 
1352.000000	99.738442 
1351.000000	99.741828 
1350.000000	99.745341 
1349.000000	99.747630 
1348.000000	99.747759 
1347.000000	99.746263 
1346.000000	99.745203 
1345.000000	99.745775 
1344.000000	99.746440 
1343.000000	99.744898 
1342.000000	99.741520 
1341.000000	99.739098 
1340.000000	99.738943 
1339.000000	99.738854 
1338.000000	99.736521 
1337.000000	99.733343 
1336.000000	99.732933 
1335.000000	99.737002 
1334.000000	99.743615 
1333.000000	99.748801 
1332.000000	99.749502 
1331.000000	99.745630 
1330.000000	99.739812 
1329.000000	99.734972 
1328.000000	99.732233 
1327.000000	99.731347 
1326.000000	99.732292 
1325.000000	99.735160 
1324.000000	99.738712 
1323.000000	99.740573 
1322.000000	99.739606 
1321.000000	99.737232 
1320.000000	99.735500 
1319.000000	99.734371 
1318.000000	99.731987 
1317.000000	99.727730 
1316.000000	99.723863 
1315.000000	99.723433 
1314.000000	99.726947 
1313.000000	99.731693 
1312.000000	99.734542 
1311.000000	99.734839 
1310.000000	99.733998 
1309.000000	99.733040 
1308.000000	99.731783 
1307.000000	99.730306 
1306.000000	99.729779 
1305.000000	99.731078 
1304.000000	99.733423 
1303.000000	99.734988 
1302.000000	99.734262 
1301.000000	99.730531 
1300.000000	99.724175 
1299.000000	99.717417 
1298.000000	99.713642 
1297.000000	99.714453 
1296.000000	99.717712 
1295.000000	99.719660 
1294.000000	99.718756 
1293.000000	99.716564 
1292.000000	99.715333 
1291.000000	99.715906 
1290.000000	99.717577 
1289.000000	99.718647 
1288.000000	99.717165 
1287.000000	99.712515 
1286.000000	99.706588 
1285.000000	99.702375 
1284.000000	99.701065 
1283.000000	99.701093 
1282.000000	99.699945 
1281.000000	99.696411 
1280.000000	99.691458 
1279.000000	99.687732 
1278.000000	99.687650 
1277.000000	99.690669 
1276.000000	99.692713 
1275.000000	99.689873 
1274.000000	99.682871 
1273.000000	99.676450 
1272.000000	99.674039 
1271.000000	99.674573 
1270.000000	99.675141 
1269.000000	99.675003 
1268.000000	99.675420 
1267.000000	99.676705 
1266.000000	99.677399 
1265.000000	99.676221 
1264.000000	99.673367 
1263.000000	99.669539 
1262.000000	99.664756 
1261.000000	99.658688 
1260.000000	99.651732 
1259.000000	99.645147 
1258.000000	99.640012 
1257.000000	99.636264 
1256.000000	99.632993 
1255.000000	99.629598 
1254.000000	99.626408 
1253.000000	99.624059 
1252.000000	99.622656 
1251.000000	99.621903 
1250.000000	99.621623 
1249.000000	99.621455 
1248.000000	99.620287 
1247.000000	99.616942 
1246.000000	99.611583 
1245.000000	99.605618 
1244.000000	99.599907 
1243.000000	99.593966 
1242.000000	99.587534 
1241.000000	99.582200 
1240.000000	99.580339 
1239.000000	99.582335 
1238.000000	99.585503 
1237.000000	99.586149 
1236.000000	99.582490 
1235.000000	99.575545 
1234.000000	99.567514 
1233.000000	99.559587 
1232.000000	99.551371 
1231.000000	99.542227 
1230.000000	99.532699 
1229.000000	99.524200 
1228.000000	99.517238 
1227.000000	99.510272 
1226.000000	99.500683 
1225.000000	99.487087 
1224.000000	99.470672 
1223.000000	99.454131 
1222.000000	99.439178 
1221.000000	99.425145 
1220.000000	99.410068 
1219.000000	99.392872 
1218.000000	99.374203 
1217.000000	99.355309 
1216.000000	99.336648 
1215.000000	99.317728 
1214.000000	99.297869 
1213.000000	99.276831 
1212.000000	99.254843 
1211.000000	99.232229 
1210.000000	99.209096 
1209.000000	99.185530 
1208.000000	99.162155 
1207.000000	99.140068 
1206.000000	99.119820 
1205.000000	99.100669 
1204.000000	99.081286 
1203.000000	99.061053 
1202.000000	99.040287 
1201.000000	99.019414 
1200.000000	98.998436 
1199.000000	98.977240 
1198.000000	98.956056 
1197.000000	98.935424 
1196.000000	98.915663 
1195.000000	98.896258 
1194.000000	98.875938 
1193.000000	98.853886 
1192.000000	98.830810 
1191.000000	98.808117 
1190.000000	98.785944 
1189.000000	98.762885 
1188.000000	98.738003 
1187.000000	98.712043 
1186.000000	98.686028 
1185.000000	98.659698 
1184.000000	98.632432 
1183.000000	98.605033 
1182.000000	98.579352 
1181.000000	98.556166 
1180.000000	98.534071 
1179.000000	98.510288 
1178.000000	98.482342 
1177.000000	98.449653 
1176.000000	98.414158 
1175.000000	98.378969 
1174.000000	98.345859 
1173.000000	98.314194 
1172.000000	98.282221 
1171.000000	98.248492 
1170.000000	98.212248 
1169.000000	98.174270 
1168.000000	98.138025 
1167.000000	98.108295 
1166.000000	98.087561 
1165.000000	98.075011 
1164.000000	98.069735 
1163.000000	98.072845 
1162.000000	98.085050 
1161.000000	98.103816 
1160.000000	98.124297 
1159.000000	98.141525 
1158.000000	98.150633 
1157.000000	98.147287 
1156.000000	98.130668 
1155.000000	98.105391 
1154.000000	98.078090 
1153.000000	98.051983 
1152.000000	98.026189 
1151.000000	97.999298 
1150.000000	97.971175 
1149.000000	97.941768 
1148.000000	97.911031 
1147.000000	97.880628 
1146.000000	97.853317 
1145.000000	97.829509 
1144.000000	97.806095 
1143.000000	97.779880 
1142.000000	97.751113 
1141.000000	97.722430 
1140.000000	97.694943 
1139.000000	97.666608 
1138.000000	97.634605 
1137.000000	97.598634 
1136.000000	97.561408 
1135.000000	97.526095 
1134.000000	97.493772 
1133.000000	97.463427 
1132.000000	97.433655 
1131.000000	97.403564 
1130.000000	97.372859 
1129.000000	97.342318 
1128.000000	97.313565 
1127.000000	97.286635 
1126.000000	97.258058 
1125.000000	97.223553 
1124.000000	97.182869 
1123.000000	97.140028 
1122.000000	97.098586 
1121.000000	97.059040 
1120.000000	97.021588 
1119.000000	96.988448 
1118.000000	96.961281 
1117.000000	96.938052 
1116.000000	96.914416 
1115.000000	96.887217 
1114.000000	96.855561 
1113.000000	96.819917 
1112.000000	96.781790 
1111.000000	96.743544 
1110.000000	96.707246 
1109.000000	96.673900 
1108.000000	96.643834 
1107.000000	96.616522 
1106.000000	96.589955 
1105.000000	96.561982 
1104.000000	96.532725 
1103.000000	96.504126 
1102.000000	96.477115 
1101.000000	96.451157 
1100.000000	96.426474 
1099.000000	96.404040 
1098.000000	96.383086 
1097.000000	96.361295 
1096.000000	96.338198 
1095.000000	96.315919 
1094.000000	96.295975 
1093.000000	96.277811 
1092.000000	96.260888 
1091.000000	96.245259 
1090.000000	96.229435 
1089.000000	96.210820 
1088.000000	96.189309 
1087.000000	96.167721 
1086.000000	96.147873 
1085.000000	96.129208 
1084.000000	96.112076 
1083.000000	96.098851 
1082.000000	96.090268 
1081.000000	96.083631 
1080.000000	96.075995 
1079.000000	96.066378 
1078.000000	96.054014 
1077.000000	96.037702 
1076.000000	96.018060 
1075.000000	95.997194 
1074.000000	95.975096 
1073.000000	95.949819 
1072.000000	95.921815 
1071.000000	95.893424 
1070.000000	95.862495 
1069.000000	95.821928 
1068.000000	95.769108 
1067.000000	95.711708 
1066.000000	95.659789 
1065.000000	95.614712 
1064.000000	95.569682 
1063.000000	95.518836 
1062.000000	95.462149 
1061.000000	95.403544 
1060.000000	95.348018 
1059.000000	95.299465 
1058.000000	95.258143 
1057.000000	95.220772 
1056.000000	95.184453 
1055.000000	95.148617 
1054.000000	95.111869 
1053.000000	95.069864 
1052.000000	95.019089 
1051.000000	94.960967 
1050.000000	94.899955 
1049.000000	94.839551 
1048.000000	94.781721 
1047.000000	94.726762 
1046.000000	94.671597 
1045.000000	94.611956 
1044.000000	94.548559 
1043.000000	94.487729 
1042.000000	94.433395 
1041.000000	94.381892 
1040.000000	94.327848 
1039.000000	94.272174 
1038.000000	94.220739 
1037.000000	94.177487 
1036.000000	94.142353 
1035.000000	94.114018 
1034.000000	94.091176 
1033.000000	94.072005 
1032.000000	94.054858 
1031.000000	94.038833 
1030.000000	94.022737 
1029.000000	94.005388 
1028.000000	93.988197 
1027.000000	93.975227 
1026.000000	93.968811 
1025.000000	93.966759 
1024.000000	93.965324 
1023.000000	93.963196 
1022.000000	93.961184 
1021.000000	93.959354 
1020.000000	93.955819 
1019.000000	93.947915 
1018.000000	93.934732 
1017.000000	93.919455 
1016.000000	93.908223 
1015.000000	93.904584 
1014.000000	93.905717 
1013.000000	93.906283 
1012.000000	93.904698 
1011.000000	93.902652 
1010.000000	93.900132 
1009.000000	93.895326 
1008.000000	93.888911 
1007.000000	93.883973 
1006.000000	93.881662 
1005.000000	93.881245 
1004.000000	93.884547 
1003.000000	93.895311 
1002.000000	93.912999 
1001.000000	93.931752 
1000.000000	93.947126 
999.000000	 93.960125 
998.000000	 93.973411 
997.000000	 93.987500 
996.000000	 94.002395 
995.000000	 94.019370 
994.000000	 94.038932 
993.000000	 94.059526 
992.000000	 94.079864 
991.000000	 94.100624 
990.000000	 94.123312 
989.000000	 94.149431 
988.000000	 94.180330 
987.000000	 94.214962 
986.000000	 94.248648 
985.000000	 94.278235 
984.000000	 94.308258 
983.000000	 94.347217 
982.000000	 94.396989 
981.000000	 94.450507 
980.000000	 94.501178 
979.000000	 94.550206 
978.000000	 94.603020 
977.000000	 94.662455 
976.000000	 94.727363 
975.000000	 94.794366 
974.000000	 94.858999 
973.000000	 94.918281 
972.000000	 94.974026 
971.000000	 95.031105 
970.000000	 95.091353 
969.000000	 95.152192 
968.000000	 95.212170 
967.000000	 95.273680 
966.000000	 95.337954 
965.000000	 95.401246 
964.000000	 95.459472 
963.000000	 95.514049 
962.000000	 95.569366 
961.000000	 95.625875 
960.000000	 95.679375 
959.000000	 95.727006 
958.000000	 95.771035 
957.000000	 95.815854 
956.000000	 95.862987 
955.000000	 95.910037 
954.000000	 95.953808 
953.000000	 95.993538 
952.000000	 96.030558 
951.000000	 96.065049 
950.000000	 96.094759 
949.000000	 96.118435 
948.000000	 96.139326 
947.000000	 96.162396 
946.000000	 96.187799 
945.000000	 96.210140 
944.000000	 96.225707 
943.000000	 96.237982 
942.000000	 96.253828 
941.000000	 96.275828 
940.000000	 96.300508 
939.000000	 96.322793 
938.000000	 96.340000 
937.000000	 96.352420 
936.000000	 96.362466 
935.000000	 96.373510 
934.000000	 96.387858 
933.000000	 96.405325 
932.000000	 96.424261 
931.000000	 96.443246 
930.000000	 96.461051 
929.000000	 96.476278 
928.000000	 96.488925 
927.000000	 96.501748 
926.000000	 96.518180 
925.000000	 96.538821 
924.000000	 96.561246 
923.000000	 96.582824 
922.000000	 96.601879 
921.000000	 96.616276 
920.000000	 96.623582 
919.000000	 96.624339 
918.000000	 96.623816 
917.000000	 96.628277 
916.000000	 96.639312 
915.000000	 96.653054 
914.000000	 96.665475 
913.000000	 96.677603 
912.000000	 96.694355 
911.000000	 96.718458 
910.000000	 96.747198 
909.000000	 96.776520 
908.000000	 96.807161 
907.000000	 96.844157 
906.000000	 96.889960 
905.000000	 96.940390 
904.000000	 96.988754 
903.000000	 97.032275 
902.000000	 97.072901 
901.000000	 97.113408 
900.000000	 97.155295 
899.000000	 97.199848 
898.000000	 97.247774 
897.000000	 97.296615 
896.000000	 97.341103 
895.000000	 97.378201 
894.000000	 97.410601 
893.000000	 97.443509 
892.000000	 97.479187 
891.000000	 97.516150 
890.000000	 97.551882 
889.000000	 97.583783 
888.000000	 97.609197 
887.000000	 97.628587 
886.000000	 97.648594 
885.000000	 97.677437 
884.000000	 97.715467 
883.000000	 97.753357 
882.000000	 97.782074 
881.000000	 97.802494 
880.000000	 97.822620 
879.000000	 97.847069 
878.000000	 97.872533 
877.000000	 97.893653 
876.000000	 97.910831 
875.000000	 97.930686 
874.000000	 97.959102 
873.000000	 97.994681 
872.000000	 98.030048 
871.000000	 98.059462 
870.000000	 98.083293 
869.000000	 98.104199 
868.000000	 98.122068 
867.000000	 98.136223 
866.000000	 98.150375 
865.000000	 98.170026 
864.000000	 98.194990 
863.000000	 98.219511 
862.000000	 98.240807 
861.000000	 98.262513 
860.000000	 98.287503 
859.000000	 98.312058 
858.000000	 98.330663 
857.000000	 98.343343 
856.000000	 98.354884 
855.000000	 98.369490 
854.000000	 98.388795 
853.000000	 98.411833 
852.000000	 98.433691 
851.000000	 98.447310 
850.000000	 98.450810 
849.000000	 98.450903 
848.000000	 98.455376 
847.000000	 98.464274 
846.000000	 98.471799 
845.000000	 98.474444 
844.000000	 98.473130 
843.000000	 98.469467 
842.000000	 98.464774 
841.000000	 98.461741 
840.000000	 98.462387 
839.000000	 98.464089 
838.000000	 98.460855 
837.000000	 98.448782 
836.000000	 98.428352 
835.000000	 98.402941 
834.000000	 98.377845 
833.000000	 98.358777 
832.000000	 98.347497 
831.000000	 98.340062 
830.000000	 98.333131 
829.000000	 98.330350 
828.000000	 98.337156 
827.000000	 98.350453 
826.000000	 98.360909 
825.000000	 98.366617 
824.000000	 98.375924 
823.000000	 98.393565 
822.000000	 98.412885 
821.000000	 98.426580 
820.000000	 98.436484 
819.000000	 98.446240 
818.000000	 98.450889 
817.000000	 98.441154 
816.000000	 98.415511 
815.000000	 98.381803 
814.000000	 98.346864 
813.000000	 98.309257 
812.000000	 98.263163 
811.000000	 98.204479 
810.000000	 98.130155 
809.000000	 98.035241 
808.000000	 97.915797 
807.000000	 97.774806 
806.000000	 97.621820 
805.000000	 97.466085 
804.000000	 97.312676 
803.000000	 97.165604 
802.000000	 97.031052 
801.000000	 96.915922 
800.000000	 96.825511 
799.000000	 96.763902 
798.000000	 96.734355 
797.000000	 96.737016 
796.000000	 96.766174 
795.000000	 96.810985 
794.000000	 96.860181 
793.000000	 96.906506 
792.000000	 96.946781 
791.000000	 96.979343 
790.000000	 97.002769 
789.000000	 97.015498 
788.000000	 97.014669 
787.000000	 96.996839 
786.000000	 96.962212 
785.000000	 96.916371 
784.000000	 96.864809 
783.000000	 96.807561 
782.000000	 96.743650 
781.000000	 96.680309 
780.000000	 96.632078 
779.000000	 96.608472 
778.000000	 96.606566 
777.000000	 96.618425 
776.000000	 96.641738 
775.000000	 96.679265 
774.000000	 96.731504 
773.000000	 96.794877 
772.000000	 96.864684 
771.000000	 96.934762 
770.000000	 96.995977 
769.000000	 97.040349 
768.000000	 97.067111 
767.000000	 97.082257 
766.000000	 97.092979 
765.000000	 97.104755 
764.000000	 97.121741 
763.000000	 97.145258 
762.000000	 97.171154 
761.000000	 97.192138 
760.000000	 97.204407 
759.000000	 97.211018 
758.000000	 97.218979 
757.000000	 97.234332 
756.000000	 97.259330 
755.000000	 97.291847 
754.000000	 97.326640 
753.000000	 97.358064 
752.000000	 97.381880 
751.000000	 97.395437 
750.000000	 97.399260 
749.000000	 97.399823 
748.000000	 97.407602 
747.000000	 97.428810 
746.000000	 97.459733 
745.000000	 97.491798 
744.000000	 97.520850 
743.000000	 97.548243 
742.000000	 97.574715 
741.000000	 97.598466 
740.000000	 97.620010 
739.000000	 97.644349 
738.000000	 97.675590 
737.000000	 97.711696 
736.000000	 97.746659 
735.000000	 97.776054 
734.000000	 97.798679 
733.000000	 97.814534 
732.000000	 97.824046 
731.000000	 97.828911 
730.000000	 97.831158 
729.000000	 97.830838 
728.000000	 97.826746 
727.000000	 97.820690 
726.000000	 97.819683 
725.000000	 97.831940 
724.000000	 97.860062 
723.000000	 97.898241 
722.000000	 97.935887 
721.000000	 97.964251 
720.000000	 97.981144 
719.000000	 97.990688 
718.000000	 97.998191 
717.000000	 98.004697 
716.000000	 98.007013 
715.000000	 98.003415 
714.000000	 97.998366 
713.000000	 98.000080 
712.000000	 98.013110 
711.000000	 98.034032 
710.000000	 98.054107 
709.000000	 98.065238 
708.000000	 98.063968 
707.000000	 98.052145 
706.000000	 98.034933 
705.000000	 98.017225 
704.000000	 98.000600 
703.000000	 97.982682 
702.000000	 97.957793 
701.000000	 97.917466 
700.000000	 97.852949 
699.000000	 97.761483 
698.000000	 97.652087 
697.000000	 97.544228 
696.000000	 97.459819 
695.000000	 97.414798 
694.000000	 97.413746 
693.000000	 97.448077 
692.000000	 97.499615 
691.000000	 97.550376 
690.000000	 97.592062 
689.000000	 97.625978 
688.000000	 97.655651 
687.000000	 97.683972 
686.000000	 97.715560 
685.000000	 97.752958 
684.000000	 97.788213 
683.000000	 97.806706 
682.000000	 97.804462 
681.000000	 97.795670 
680.000000	 97.797271 
679.000000	 97.811159 
678.000000	 97.828560 
677.000000	 97.846278 
676.000000	 97.867955 
675.000000	 97.892266 
674.000000	 97.912101 
673.000000	 97.926138 
672.000000	 97.940775 
671.000000	 97.958771 
670.000000	 97.973664 
669.000000	 97.975986 
668.000000	 97.963840 
667.000000	 97.952030 
666.000000	 97.955978 
665.000000	 97.974586 
664.000000	 98.003745 
663.000000	 98.037032 
662.000000	 98.059655 
661.000000	 98.056312 
660.000000	 98.024141 
659.000000	 97.976157 
658.000000	 97.935649 
657.000000	 97.923803 
656.000000	 97.947116 
655.000000	 97.992281 
654.000000	 98.033877 
653.000000	 98.053374 
652.000000	 98.051430 
651.000000	 98.042836 
650.000000	 98.041704 

