4000.000000	99.289974 
3999.000000	99.288957 
3998.000000	99.288172 
3997.000000	99.288114 
3996.000000	99.288775 
3995.000000	99.289523 
3994.000000	99.289826 
3993.000000	99.289769 
3992.000000	99.289715 
3991.000000	99.289713 
3990.000000	99.289410 
3989.000000	99.288514 
3988.000000	99.287223 
3987.000000	99.286138 
3986.000000	99.285793 
3985.000000	99.286308 
3984.000000	99.287305 
3983.000000	99.288275 
3982.000000	99.289006 
3981.000000	99.289616 
3980.000000	99.290233 
3979.000000	99.290744 
3978.000000	99.290934 
3977.000000	99.290775 
3976.000000	99.290437 
3975.000000	99.290031 
3974.000000	99.289470 
3973.000000	99.288670 
3972.000000	99.287782 
3971.000000	99.287156 
3970.000000	99.287070 
3969.000000	99.287534 
3968.000000	99.288277 
3967.000000	99.288886 
3966.000000	99.289061 
3965.000000	99.288769 
3964.000000	99.288205 
3963.000000	99.287640 
3962.000000	99.287261 
3961.000000	99.287100 
3960.000000	99.287038 
3959.000000	99.286884 
3958.000000	99.286552 
3957.000000	99.286182 
3956.000000	99.285987 
3955.000000	99.285976 
3954.000000	99.285893 
3953.000000	99.285509 
3952.000000	99.284845 
3951.000000	99.284126 
3950.000000	99.283570 
3949.000000	99.283195 
3948.000000	99.282882 
3947.000000	99.282607 
3946.000000	99.282509 
3945.000000	99.282652 
3944.000000	99.282807 
3943.000000	99.282601 
3942.000000	99.281910 
3941.000000	99.281034 
3940.000000	99.280411 
3939.000000	99.280140 
3938.000000	99.279974 
3937.000000	99.279654 
3936.000000	99.279148 
3935.000000	99.278580 
3934.000000	99.278086 
3933.000000	99.277785 
3932.000000	99.277750 
3931.000000	99.277896 
3930.000000	99.277994 
3929.000000	99.277829 
3928.000000	99.277369 
3927.000000	99.276749 
3926.000000	99.276014 
3925.000000	99.275169 
3924.000000	99.274337 
3923.000000	99.273683 
3922.000000	99.273189 
3921.000000	99.272714 
3920.000000	99.272221 
3919.000000	99.271783 
3918.000000	99.271421 
3917.000000	99.271084 
3916.000000	99.270736 
3915.000000	99.270373 
3914.000000	99.269993 
3913.000000	99.269603 
3912.000000	99.269199 
3911.000000	99.268774 
3910.000000	99.268327 
3909.000000	99.267869 
3908.000000	99.267418 
3907.000000	99.266983 
3906.000000	99.266566 
3905.000000	99.266163 
3904.000000	99.265769 
3903.000000	99.265385 
3902.000000	99.265013 
3901.000000	99.264653 
3900.000000	99.264295 
3899.000000	99.263924 
3898.000000	99.263531 
3897.000000	99.263117 
3896.000000	99.262695 
3895.000000	99.262275 
3894.000000	99.261858 
3893.000000	99.261445 
3892.000000	99.261039 
3891.000000	99.260636 
3890.000000	99.260238 
3889.000000	99.259849 
3888.000000	99.259474 
3887.000000	99.259107 
3886.000000	99.258740 
3885.000000	99.258371 
3884.000000	99.258008 
3883.000000	99.257662 
3882.000000	99.257331 
3881.000000	99.257006 
3880.000000	99.256683 
3879.000000	99.256366 
3878.000000	99.256064 
3877.000000	99.255778 
3876.000000	99.255498 
3875.000000	99.255214 
3874.000000	99.254927 
3873.000000	99.254647 
3872.000000	99.254389 
3871.000000	99.254160 
3870.000000	99.253961 
3869.000000	99.253797 
3868.000000	99.253677 
3867.000000	99.253594 
3866.000000	99.253527 
3865.000000	99.253455 
3864.000000	99.253374 
3863.000000	99.253285 
3862.000000	99.253186 
3861.000000	99.253070 
3860.000000	99.252945 
3859.000000	99.252822 
3858.000000	99.252719 
3857.000000	99.252651 
3856.000000	99.252639 
3855.000000	99.252697 
3854.000000	99.252816 
3853.000000	99.252971 
3852.000000	99.253148 
3851.000000	99.253354 
3850.000000	99.253584 
3849.000000	99.253815 
3848.000000	99.254031 
3847.000000	99.254227 
3846.000000	99.254406 
3845.000000	99.254578 
3844.000000	99.254757 
3843.000000	99.254947 
3842.000000	99.255140 
3841.000000	99.255332 
3840.000000	99.255524 
3839.000000	99.255719 
3838.000000	99.255913 
3837.000000	99.256101 
3836.000000	99.256276 
3835.000000	99.256439 
3834.000000	99.256598 
3833.000000	99.256758 
3832.000000	99.256926 
3831.000000	99.257098 
3830.000000	99.257269 
3829.000000	99.257432 
3828.000000	99.257583 
3827.000000	99.257720 
3826.000000	99.257847 
3825.000000	99.257971 
3824.000000	99.258107 
3823.000000	99.258265 
3822.000000	99.258442 
3821.000000	99.258624 
3820.000000	99.258809 
3819.000000	99.259016 
3818.000000	99.259250 
3817.000000	99.259499 
3816.000000	99.259741 
3815.000000	99.259966 
3814.000000	99.260176 
3813.000000	99.260369 
3812.000000	99.260530 
3811.000000	99.260656 
3810.000000	99.260761 
3809.000000	99.260858 
3808.000000	99.260950 
3807.000000	99.261040 
3806.000000	99.261134 
3805.000000	99.261248 
3804.000000	99.261391 
3803.000000	99.261558 
3802.000000	99.261733 
3801.000000	99.261907 
3800.000000	99.262088 
3799.000000	99.262289 
3798.000000	99.262507 
3797.000000	99.262726 
3796.000000	99.262938 
3795.000000	99.263147 
3794.000000	99.263363 
3793.000000	99.263586 
3792.000000	99.263808 
3791.000000	99.264012 
3790.000000	99.264184 
3789.000000	99.264322 
3788.000000	99.264429 
3787.000000	99.264514 
3786.000000	99.264576 
3785.000000	99.264603 
3784.000000	99.264590 
3783.000000	99.264537 
3782.000000	99.264445 
3781.000000	99.264306 
3780.000000	99.264120 
3779.000000	99.263897 
3778.000000	99.263643 
3777.000000	99.263368 
3776.000000	99.263074 
3775.000000	99.262756 
3774.000000	99.262418 
3773.000000	99.262077 
3772.000000	99.261740 
3771.000000	99.261392 
3770.000000	99.261012 
3769.000000	99.260610 
3768.000000	99.260222 
3767.000000	99.259872 
3766.000000	99.259545 
3765.000000	99.259202 
3764.000000	99.258834 
3763.000000	99.258491 
3762.000000	99.258238 
3761.000000	99.258044 
3760.000000	99.257821 
3759.000000	99.257503 
3758.000000	99.257006 
3757.000000	99.256228 
3756.000000	99.255199 
3755.000000	99.254176 
3754.000000	99.253368 
3753.000000	99.252893 
3752.000000	99.252861 
3751.000000	99.252922 
3750.000000	99.252068 
3749.000000	99.249943 
3748.000000	99.247746 
3747.000000	99.246818 
3746.000000	99.247315 
3745.000000	99.247986 
3744.000000	99.246511 
3743.000000	99.243776 
3742.000000	99.243968 
3741.000000	99.246415 
3740.000000	99.246903 
3739.000000	99.245118 
3738.000000	99.243545 
3737.000000	99.243442 
3736.000000	99.243815 
3735.000000	99.244013 
3734.000000	99.244775 
3733.000000	99.245888 
3732.000000	99.245632 
3731.000000	99.244007 
3730.000000	99.243388 
3729.000000	99.244593 
3728.000000	99.245660 
3727.000000	99.245147 
3726.000000	99.244257 
3725.000000	99.245353 
3724.000000	99.248653 
3723.000000	99.251301 
3722.000000	99.251147 
3721.000000	99.249142 
3720.000000	99.247599 
3719.000000	99.247041 
3718.000000	99.245471 
3717.000000	99.240870 
3716.000000	99.233400 
3715.000000	99.224976 
3714.000000	99.217121 
3713.000000	99.210882 
3712.000000	99.206729 
3711.000000	99.204237 
3710.000000	99.203599 
3709.000000	99.205098 
3708.000000	99.206870 
3707.000000	99.206126 
3706.000000	99.201946 
3705.000000	99.196012 
3704.000000	99.190811 
3703.000000	99.187661 
3702.000000	99.185502 
3701.000000	99.182256 
3700.000000	99.178025 
3699.000000	99.174330 
3698.000000	99.170437 
3697.000000	99.163992 
3696.000000	99.154954 
3695.000000	99.146121 
3694.000000	99.139366 
3693.000000	99.133795 
3692.000000	99.128856 
3691.000000	99.126087 
3690.000000	99.126036 
3689.000000	99.125491 
3688.000000	99.121841 
3687.000000	99.118600 
3686.000000	99.119941 
3685.000000	99.123556 
3684.000000	99.124568 
3683.000000	99.122084 
3682.000000	99.118179 
3681.000000	99.113459 
3680.000000	99.105970 
3679.000000	99.095630 
3678.000000	99.086479 
3677.000000	99.082258 
3676.000000	99.080877 
3675.000000	99.076267 
3674.000000	99.071741 
3673.000000	99.075766 
3672.000000	99.085093 
3671.000000	99.091687 
3670.000000	99.093007 
3669.000000	99.090511 
3668.000000	99.089468 
3667.000000	99.092354 
3666.000000	99.095692 
3665.000000	99.096948 
3664.000000	99.096801 
3663.000000	99.096445 
3662.000000	99.095904 
3661.000000	99.094873 
3660.000000	99.094266 
3659.000000	99.096219 
3658.000000	99.101616 
3657.000000	99.107832 
3656.000000	99.110471 
3655.000000	99.109487 
3654.000000	99.109641 
3653.000000	99.112929 
3652.000000	99.117691 
3651.000000	99.122721 
3650.000000	99.126826 
3649.000000	99.128171 
3648.000000	99.127823 
3647.000000	99.128927 
3646.000000	99.132740 
3645.000000	99.138267 
3644.000000	99.143819 
3643.000000	99.148392 
3642.000000	99.152127 
3641.000000	99.155856 
3640.000000	99.160085 
3639.000000	99.164503 
3638.000000	99.168435 
3637.000000	99.171930 
3636.000000	99.175195 
3635.000000	99.177418 
3634.000000	99.177575 
3633.000000	99.176319 
3632.000000	99.175845 
3631.000000	99.177667 
3630.000000	99.181535 
3629.000000	99.184961 
3628.000000	99.186013 
3627.000000	99.187235 
3626.000000	99.190783 
3625.000000	99.194604 
3624.000000	99.196927 
3623.000000	99.198210 
3622.000000	99.199454 
3621.000000	99.201041 
3620.000000	99.202703 
3619.000000	99.204007 
3618.000000	99.205028 
3617.000000	99.206472 
3616.000000	99.208652 
3615.000000	99.211000 
3614.000000	99.212694 
3613.000000	99.213350 
3612.000000	99.213368 
3611.000000	99.213590 
3610.000000	99.214541 
3609.000000	99.216163 
3608.000000	99.218075 
3607.000000	99.219939 
3606.000000	99.221655 
3605.000000	99.223186 
3604.000000	99.224501 
3603.000000	99.225692 
3602.000000	99.226826 
3601.000000	99.227860 
3600.000000	99.228834 
3599.000000	99.229931 
3598.000000	99.231128 
3597.000000	99.232113 
3596.000000	99.232649 
3595.000000	99.232737 
3594.000000	99.232557 
3593.000000	99.232410 
3592.000000	99.232630 
3591.000000	99.233385 
3590.000000	99.234652 
3589.000000	99.236101 
3588.000000	99.237073 
3587.000000	99.237140 
3586.000000	99.236737 
3585.000000	99.236696 
3584.000000	99.237147 
3583.000000	99.237618 
3582.000000	99.237782 
3581.000000	99.237648 
3580.000000	99.237386 
3579.000000	99.237154 
3578.000000	99.237034 
3577.000000	99.237057 
3576.000000	99.237258 
3575.000000	99.237617 
3574.000000	99.237993 
3573.000000	99.238181 
3572.000000	99.238072 
3571.000000	99.237727 
3570.000000	99.237334 
3569.000000	99.237078 
3568.000000	99.237032 
3567.000000	99.237165 
3566.000000	99.237459 
3565.000000	99.237918 
3564.000000	99.238384 
3563.000000	99.238626 
3562.000000	99.238601 
3561.000000	99.238440 
3560.000000	99.238280 
3559.000000	99.238166 
3558.000000	99.238076 
3557.000000	99.238011 
3556.000000	99.238008 
3555.000000	99.238092 
3554.000000	99.238239 
3553.000000	99.238383 
3552.000000	99.238468 
3551.000000	99.238485 
3550.000000	99.238458 
3549.000000	99.238437 
3548.000000	99.238480 
3547.000000	99.238623 
3546.000000	99.238844 
3545.000000	99.239083 
3544.000000	99.239289 
3543.000000	99.239455 
3542.000000	99.239601 
3541.000000	99.239752 
3540.000000	99.239930 
3539.000000	99.240138 
3538.000000	99.240365 
3537.000000	99.240595 
3536.000000	99.240812 
3535.000000	99.241017 
3534.000000	99.241215 
3533.000000	99.241413 
3532.000000	99.241617 
3531.000000	99.241831 
3530.000000	99.242056 
3529.000000	99.242290 
3528.000000	99.242526 
3527.000000	99.242759 
3526.000000	99.242982 
3525.000000	99.243191 
3524.000000	99.243384 
3523.000000	99.243558 
3522.000000	99.243715 
3521.000000	99.243859 
3520.000000	99.243992 
3519.000000	99.244115 
3518.000000	99.244231 
3517.000000	99.244340 
3516.000000	99.244442 
3515.000000	99.244536 
3514.000000	99.244624 
3513.000000	99.244704 
3512.000000	99.244777 
3511.000000	99.244842 
3510.000000	99.244900 
3509.000000	99.244952 
3508.000000	99.244999 
3507.000000	99.245037 
3506.000000	99.245062 
3505.000000	99.245068 
3504.000000	99.245052 
3503.000000	99.245020 
3502.000000	99.244981 
3501.000000	99.244945 
3500.000000	99.244910 
3499.000000	99.244865 
3498.000000	99.244797 
3497.000000	99.244697 
3496.000000	99.244570 
3495.000000	99.244426 
3494.000000	99.244275 
3493.000000	99.244124 
3492.000000	99.243971 
3491.000000	99.243814 
3490.000000	99.243651 
3489.000000	99.243482 
3488.000000	99.243305 
3487.000000	99.243118 
3486.000000	99.242920 
3485.000000	99.242714 
3484.000000	99.242502 
3483.000000	99.242285 
3482.000000	99.242062 
3481.000000	99.241835 
3480.000000	99.241604 
3479.000000	99.241373 
3478.000000	99.241147 
3477.000000	99.240928 
3476.000000	99.240715 
3475.000000	99.240508 
3474.000000	99.240306 
3473.000000	99.240110 
3472.000000	99.239920 
3471.000000	99.239733 
3470.000000	99.239545 
3469.000000	99.239358 
3468.000000	99.239174 
3467.000000	99.238993 
3466.000000	99.238813 
3465.000000	99.238620 
3464.000000	99.238399 
3463.000000	99.238132 
3462.000000	99.237787 
3461.000000	99.237324 
3460.000000	99.236742 
3459.000000	99.236132 
3458.000000	99.235712 
3457.000000	99.235640 
3456.000000	99.235843 
3455.000000	99.236066 
3454.000000	99.236083 
3453.000000	99.235928 
3452.000000	99.235816 
3451.000000	99.235880 
3450.000000	99.236055 
3449.000000	99.236165 
3448.000000	99.236071 
3447.000000	99.235758 
3446.000000	99.235362 
3445.000000	99.235069 
3444.000000	99.234944 
3443.000000	99.234882 
3442.000000	99.234743 
3441.000000	99.234522 
3440.000000	99.234344 
3439.000000	99.234289 
3438.000000	99.234300 
3437.000000	99.234265 
3436.000000	99.234166 
3435.000000	99.234103 
3434.000000	99.234171 
3433.000000	99.234340 
3432.000000	99.234466 
3431.000000	99.234423 
3430.000000	99.234212 
3429.000000	99.233922 
3428.000000	99.233662 
3427.000000	99.233485 
3426.000000	99.233391 
3425.000000	99.233357 
3424.000000	99.233367 
3423.000000	99.233404 
3422.000000	99.233442 
3421.000000	99.233448 
3420.000000	99.233412 
3419.000000	99.233354 
3418.000000	99.233310 
3417.000000	99.233305 
3416.000000	99.233330 
3415.000000	99.233350 
3414.000000	99.233327 
3413.000000	99.233252 
3412.000000	99.233141 
3411.000000	99.233027 
3410.000000	99.232944 
3409.000000	99.232920 
3408.000000	99.232971 
3407.000000	99.233074 
3406.000000	99.233149 
3405.000000	99.233120 
3404.000000	99.233011 
3403.000000	99.232937 
3402.000000	99.232990 
3401.000000	99.233157 
3400.000000	99.233370 
3399.000000	99.233588 
3398.000000	99.233812 
3397.000000	99.234042 
3396.000000	99.234234 
3395.000000	99.234317 
3394.000000	99.234249 
3393.000000	99.234088 
3392.000000	99.233970 
3391.000000	99.233983 
3390.000000	99.234072 
3389.000000	99.234118 
3388.000000	99.234072 
3387.000000	99.233992 
3386.000000	99.233945 
3385.000000	99.233939 
3384.000000	99.233969 
3383.000000	99.234077 
3382.000000	99.234303 
3381.000000	99.234582 
3380.000000	99.234747 
3379.000000	99.234658 
3378.000000	99.234348 
3377.000000	99.234066 
3376.000000	99.234112 
3375.000000	99.234605 
3374.000000	99.235425 
3373.000000	99.236296 
3372.000000	99.236948 
3371.000000	99.237235 
3370.000000	99.237149 
3369.000000	99.236867 
3368.000000	99.236678 
3367.000000	99.236765 
3366.000000	99.237047 
3365.000000	99.237258 
3364.000000	99.237210 
3363.000000	99.236932 
3362.000000	99.236615 
3361.000000	99.236422 
3360.000000	99.236376 
3359.000000	99.236407 
3358.000000	99.236462 
3357.000000	99.236582 
3356.000000	99.236828 
3355.000000	99.237152 
3354.000000	99.237397 
3353.000000	99.237466 
3352.000000	99.237452 
3351.000000	99.237557 
3350.000000	99.237888 
3349.000000	99.238382 
3348.000000	99.238882 
3347.000000	99.239256 
3346.000000	99.239469 
3345.000000	99.239584 
3344.000000	99.239702 
3343.000000	99.239822 
3342.000000	99.239821 
3341.000000	99.239623 
3340.000000	99.239350 
3339.000000	99.239242 
3338.000000	99.239378 
3337.000000	99.239572 
3336.000000	99.239596 
3335.000000	99.239458 
3334.000000	99.239379 
3333.000000	99.239526 
3332.000000	99.239835 
3331.000000	99.240082 
3330.000000	99.240106 
3329.000000	99.239949 
3328.000000	99.239840 
3327.000000	99.239989 
3326.000000	99.240408 
3325.000000	99.240914 
3324.000000	99.241317 
3323.000000	99.241618 
3322.000000	99.241938 
3321.000000	99.242284 
3320.000000	99.242481 
3319.000000	99.242360 
3318.000000	99.241975 
3317.000000	99.241604 
3316.000000	99.241521 
3315.000000	99.241778 
3314.000000	99.242205 
3313.000000	99.242609 
3312.000000	99.242964 
3311.000000	99.243352 
3310.000000	99.243753 
3309.000000	99.244011 
3308.000000	99.244047 
3307.000000	99.244000 
3306.000000	99.244037 
3305.000000	99.244054 
3304.000000	99.243727 
3303.000000	99.242889 
3302.000000	99.241786 
3301.000000	99.240978 
3300.000000	99.240882 
3299.000000	99.241469 
3298.000000	99.242272 
3297.000000	99.242779 
3296.000000	99.242885 
3295.000000	99.242944 
3294.000000	99.243392 
3293.000000	99.244316 
3292.000000	99.245350 
3291.000000	99.245998 
3290.000000	99.246067 
3289.000000	99.245727 
3288.000000	99.245296 
3287.000000	99.244974 
3286.000000	99.244766 
3285.000000	99.244587 
3284.000000	99.244380 
3283.000000	99.244121 
3282.000000	99.243763 
3281.000000	99.243275 
3280.000000	99.242731 
3279.000000	99.242288 
3278.000000	99.242075 
3277.000000	99.242119 
3276.000000	99.242369 
3275.000000	99.242755 
3274.000000	99.243157 
3273.000000	99.243363 
3272.000000	99.243165 
3271.000000	99.242547 
3270.000000	99.241750 
3269.000000	99.241136 
3268.000000	99.240918 
3267.000000	99.241074 
3266.000000	99.241453 
3265.000000	99.241918 
3264.000000	99.242401 
3263.000000	99.242864 
3262.000000	99.243261 
3261.000000	99.243536 
3260.000000	99.243608 
3259.000000	99.243379 
3258.000000	99.242814 
3257.000000	99.242019 
3256.000000	99.241202 
3255.000000	99.240568 
3254.000000	99.240258 
3253.000000	99.240329 
3252.000000	99.240710 
3251.000000	99.241155 
3250.000000	99.241352 
3249.000000	99.241160 
3248.000000	99.240705 
3247.000000	99.240245 
3246.000000	99.239942 
3245.000000	99.239785 
3244.000000	99.239725 
3243.000000	99.239810 
3242.000000	99.240128 
3241.000000	99.240680 
3240.000000	99.241298 
3239.000000	99.241703 
3238.000000	99.241697 
3237.000000	99.241307 
3236.000000	99.240787 
3235.000000	99.240426 
3234.000000	99.240320 
3233.000000	99.240378 
3232.000000	99.240501 
3231.000000	99.240702 
3230.000000	99.241035 
3229.000000	99.241435 
3228.000000	99.241716 
3227.000000	99.241717 
3226.000000	99.241442 
3225.000000	99.241082 
3224.000000	99.240915 
3223.000000	99.241110 
3222.000000	99.241594 
3221.000000	99.242103 
3220.000000	99.242407 
3219.000000	99.242471 
3218.000000	99.242403 
3217.000000	99.242316 
3216.000000	99.242281 
3215.000000	99.242363 
3214.000000	99.242585 
3213.000000	99.242862 
3212.000000	99.243085 
3211.000000	99.243343 
3210.000000	99.243939 
3209.000000	99.245052 
3208.000000	99.246383 
3207.000000	99.247296 
3206.000000	99.247426 
3205.000000	99.247131 
3204.000000	99.247210 
3203.000000	99.248099 
3202.000000	99.249467 
3201.000000	99.250623 
3200.000000	99.251209 
3199.000000	99.251313 
3198.000000	99.251070 
3197.000000	99.250517 
3196.000000	99.249890 
3195.000000	99.249655 
3194.000000	99.249953 
3193.000000	99.250272 
3192.000000	99.250022 
3191.000000	99.249302 
3190.000000	99.248800 
3189.000000	99.249002 
3188.000000	99.249765 
3187.000000	99.250570 
3186.000000	99.250975 
3185.000000	99.250782 
3184.000000	99.250038 
3183.000000	99.249021 
3182.000000	99.248108 
3181.000000	99.247505 
3180.000000	99.247147 
3179.000000	99.246880 
3178.000000	99.246647 
3177.000000	99.246439 
3176.000000	99.246214 
3175.000000	99.246043 
3174.000000	99.246234 
3173.000000	99.247110 
3172.000000	99.248572 
3171.000000	99.249992 
3170.000000	99.250699 
3169.000000	99.250614 
3168.000000	99.250312 
3167.000000	99.250460 
3166.000000	99.251187 
3165.000000	99.252063 
3164.000000	99.252581 
3163.000000	99.252600 
3162.000000	99.252327 
3161.000000	99.252051 
3160.000000	99.251968 
3159.000000	99.252132 
3158.000000	99.252479 
3157.000000	99.252865 
3156.000000	99.253155 
3155.000000	99.253311 
3154.000000	99.253395 
3153.000000	99.253510 
3152.000000	99.253720 
3151.000000	99.253995 
3150.000000	99.254237 
3149.000000	99.254363 
3148.000000	99.254394 
3147.000000	99.254441 
3146.000000	99.254589 
3145.000000	99.254810 
3144.000000	99.255012 
3143.000000	99.255166 
3142.000000	99.255352 
3141.000000	99.255638 
3140.000000	99.255955 
3139.000000	99.256159 
3138.000000	99.256194 
3137.000000	99.256150 
3136.000000	99.256167 
3135.000000	99.256298 
3134.000000	99.256481 
3133.000000	99.256603 
3132.000000	99.256604 
3131.000000	99.256530 
3130.000000	99.256472 
3129.000000	99.256431 
3128.000000	99.256296 
3127.000000	99.256003 
3126.000000	99.255706 
3125.000000	99.255665 
3124.000000	99.255989 
3123.000000	99.256527 
3122.000000	99.256994 
3121.000000	99.257200 
3120.000000	99.257160 
3119.000000	99.257047 
3118.000000	99.256996 
3117.000000	99.256935 
3116.000000	99.256675 
3115.000000	99.256235 
3114.000000	99.255931 
3113.000000	99.255969 
3112.000000	99.256072 
3111.000000	99.255786 
3110.000000	99.255138 
3109.000000	99.254672 
3108.000000	99.254707 
3107.000000	99.254902 
3106.000000	99.254739 
3105.000000	99.254223 
3104.000000	99.253829 
3103.000000	99.253950 
3102.000000	99.254655 
3101.000000	99.255828 
3100.000000	99.257197 
3099.000000	99.258272 
3098.000000	99.258573 
3097.000000	99.258060 
3096.000000	99.257276 
3095.000000	99.256943 
3094.000000	99.257339 
3093.000000	99.258160 
3092.000000	99.258883 
3091.000000	99.259182 
3090.000000	99.259054 
3089.000000	99.258788 
3088.000000	99.258927 
3087.000000	99.260034 
3086.000000	99.262133 
3085.000000	99.264365 
3084.000000	99.265540 
3083.000000	99.265167 
3082.000000	99.263807 
3081.000000	99.262428 
3080.000000	99.261596 
3079.000000	99.261369 
3078.000000	99.261589 
3077.000000	99.261960 
3076.000000	99.262101 
3075.000000	99.261899 
3074.000000	99.261707 
3073.000000	99.261912 
3072.000000	99.262524 
3071.000000	99.263432 
3070.000000	99.264616 
3069.000000	99.265566 
3068.000000	99.264940 
3067.000000	99.261790 
3066.000000	99.257143 
3065.000000	99.253472 
3064.000000	99.252222 
3063.000000	99.252530 
3062.000000	99.252707 
3061.000000	99.252318 
3060.000000	99.252288 
3059.000000	99.253444 
3058.000000	99.255527 
3057.000000	99.257425 
3056.000000	99.257978 
3055.000000	99.256869 
3054.000000	99.255109 
3053.000000	99.254343 
3052.000000	99.255281 
3051.000000	99.257009 
3050.000000	99.258085 
3049.000000	99.257765 
3048.000000	99.255715 
3047.000000	99.251217 
3046.000000	99.243838 
3045.000000	99.234808 
3044.000000	99.226618 
3043.000000	99.220887 
3042.000000	99.217348 
3041.000000	99.215044 
3040.000000	99.213525 
3039.000000	99.212418 
3038.000000	99.210751 
3037.000000	99.207636 
3036.000000	99.203207 
3035.000000	99.198172 
3034.000000	99.192750 
3033.000000	99.186555 
3032.000000	99.179365 
3031.000000	99.171483 
3030.000000	99.162969 
3029.000000	99.153006 
3028.000000	99.140749 
3027.000000	99.126694 
3026.000000	99.112733 
3025.000000	99.100627 
3024.000000	99.090396 
3023.000000	99.080344 
3022.000000	99.068724 
3021.000000	99.055326 
3020.000000	99.041465 
3019.000000	99.028659 
3018.000000	99.017471 
3017.000000	99.007438 
3016.000000	98.997609 
3015.000000	98.986978 
3014.000000	98.974780 
3013.000000	98.960738 
3012.000000	98.944972 
3011.000000	98.927654 
3010.000000	98.909043 
3009.000000	98.890041 
3008.000000	98.872283 
3007.000000	98.857179 
3006.000000	98.844788 
3005.000000	98.833727 
3004.000000	98.821944 
3003.000000	98.807556 
3002.000000	98.789584 
3001.000000	98.768769 
3000.000000	98.747598 
2999.000000	98.728730 
2998.000000	98.713262 
2997.000000	98.701036 
2996.000000	98.692171 
2995.000000	98.686519 
2994.000000	98.680771 
2993.000000	98.667981 
2992.000000	98.642930 
2991.000000	98.608814 
2990.000000	98.576921 
2989.000000	98.557898 
2988.000000	98.553703 
2987.000000	98.558139 
2986.000000	98.563915 
2985.000000	98.568375 
2984.000000	98.572706 
2983.000000	98.577812 
2982.000000	98.582499 
2981.000000	98.585023 
2980.000000	98.585068 
2979.000000	98.583827 
2978.000000	98.582586 
2977.000000	98.581491 
2976.000000	98.579521 
2975.000000	98.575649 
2974.000000	98.570177 
2973.000000	98.564975 
2972.000000	98.562283 
2971.000000	98.563284 
2970.000000	98.567837 
2969.000000	98.575337 
2968.000000	98.585431 
2967.000000	98.597829 
2966.000000	98.611741 
2965.000000	98.625886 
2964.000000	98.639189 
2963.000000	98.651396 
2962.000000	98.662888 
2961.000000	98.673833 
2960.000000	98.683681 
2959.000000	98.691770 
2958.000000	98.698489 
2957.000000	98.705384 
2956.000000	98.713575 
2955.000000	98.722166 
2954.000000	98.728940 
2953.000000	98.733202 
2952.000000	98.737511 
2951.000000	98.745720 
2950.000000	98.758847 
2949.000000	98.773393 
2948.000000	98.784376 
2947.000000	98.789720 
2946.000000	98.791257 
2945.000000	98.792006 
2944.000000	98.793262 
2943.000000	98.794748 
2942.000000	98.796564 
2941.000000	98.799457 
2940.000000	98.803210 
2939.000000	98.806071 
2938.000000	98.806430 
2937.000000	98.804624 
2936.000000	98.802817 
2935.000000	98.803296 
2934.000000	98.806822 
2933.000000	98.812082 
2932.000000	98.816408 
2931.000000	98.817434 
2930.000000	98.814608 
2929.000000	98.809327 
2928.000000	98.803730 
2927.000000	98.799454 
2926.000000	98.797218 
2925.000000	98.796730 
2924.000000	98.796672 
2923.000000	98.795435 
2922.000000	98.792472 
2921.000000	98.788722 
2920.000000	98.785355 
2919.000000	98.782473 
2918.000000	98.779359 
2917.000000	98.775517 
2916.000000	98.770973 
2915.000000	98.765986 
2914.000000	98.761177 
2913.000000	98.757676 
2912.000000	98.756252 
2911.000000	98.756145 
2910.000000	98.755302 
2909.000000	98.752053 
2908.000000	98.746340 
2907.000000	98.739284 
2906.000000	98.731860 
2905.000000	98.724030 
2904.000000	98.714934 
2903.000000	98.704368 
2902.000000	98.694654 
2901.000000	98.690644 
2900.000000	98.696490 
2899.000000	98.711730 
2898.000000	98.730591 
2897.000000	98.745886 
2896.000000	98.754303 
2895.000000	98.757913 
2894.000000	98.761083 
2893.000000	98.766275 
2892.000000	98.772530 
2891.000000	98.777359 
2890.000000	98.779759 
2889.000000	98.781197 
2888.000000	98.783723 
2887.000000	98.787650 
2886.000000	98.791704 
2885.000000	98.795204 
2884.000000	98.799200 
2883.000000	98.805151 
2882.000000	98.813250 
2881.000000	98.822616 
2880.000000	98.832667 
2879.000000	98.843685 
2878.000000	98.856160 
2877.000000	98.869948 
2876.000000	98.883806 
2875.000000	98.895479 
2874.000000	98.902817 
2873.000000	98.905722 
2872.000000	98.907003 
2871.000000	98.910523 
2870.000000	98.918151 
2869.000000	98.928716 
2868.000000	98.939850 
2867.000000	98.950386 
2866.000000	98.960970 
2865.000000	98.972925 
2864.000000	98.986768 
2863.000000	99.001383 
2862.000000	99.014400 
2861.000000	99.023915 
2860.000000	99.030440 
2859.000000	99.036916 
2858.000000	99.046183 
2857.000000	99.058319 
2856.000000	99.070758 
2855.000000	99.080969 
2854.000000	99.088474 
2853.000000	99.094404 
2852.000000	99.099782 
2851.000000	99.104814 
2850.000000	99.109731 
2849.000000	99.115384 
2848.000000	99.122422 
2847.000000	99.130183 
2846.000000	99.136964 
2845.000000	99.141474 
2844.000000	99.143845 
2843.000000	99.145366 
2842.000000	99.147592 
2841.000000	99.151572 
2840.000000	99.157260 
2839.000000	99.163287 
2838.000000	99.167649 
2837.000000	99.169198 
2836.000000	99.168617 
2835.000000	99.167915 
2834.000000	99.169002 
2833.000000	99.172633 
2832.000000	99.178245 
2831.000000	99.184400 
2830.000000	99.189629 
2829.000000	99.193348 
2828.000000	99.196084 
2827.000000	99.198641 
2826.000000	99.201051 
2825.000000	99.202579 
2824.000000	99.202844 
2823.000000	99.202693 
2822.000000	99.203727 
2821.000000	99.206878 
2820.000000	99.211457 
2819.000000	99.215747 
2818.000000	99.218621 
2817.000000	99.220440 
2816.000000	99.222175 
2815.000000	99.223927 
2814.000000	99.224874 
2813.000000	99.224590 
2812.000000	99.223699 
2811.000000	99.222940 
2810.000000	99.222227 
2809.000000	99.221242 
2808.000000	99.220497 
2807.000000	99.221013 
2806.000000	99.222986 
2805.000000	99.225405 
2804.000000	99.227138 
2803.000000	99.228001 
2802.000000	99.228631 
2801.000000	99.229603 
2800.000000	99.230804 
2799.000000	99.231579 
2798.000000	99.231448 
2797.000000	99.230750 
2796.000000	99.230414 
2795.000000	99.230986 
2794.000000	99.232063 
2793.000000	99.232863 
2792.000000	99.233122 
2791.000000	99.233178 
2790.000000	99.233397 
2789.000000	99.233933 
2788.000000	99.234947 
2787.000000	99.236576 
2786.000000	99.238639 
2785.000000	99.240668 
2784.000000	99.242308 
2783.000000	99.243467 
2782.000000	99.244099 
2781.000000	99.244172 
2780.000000	99.243906 
2779.000000	99.243775 
2778.000000	99.244088 
2777.000000	99.244704 
2776.000000	99.245246 
2775.000000	99.245466 
2774.000000	99.245350 
2773.000000	99.245082 
2772.000000	99.244983 
2771.000000	99.245352 
2770.000000	99.246266 
2769.000000	99.247603 
2768.000000	99.249264 
2767.000000	99.251181 
2766.000000	99.253003 
2765.000000	99.254077 
2764.000000	99.254029 
2763.000000	99.253244 
2762.000000	99.252591 
2761.000000	99.252587 
2760.000000	99.253125 
2759.000000	99.253935 
2758.000000	99.254927 
2757.000000	99.256036 
2756.000000	99.257071 
2755.000000	99.257910 
2754.000000	99.258596 
2753.000000	99.259090 
2752.000000	99.259179 
2751.000000	99.258826 
2750.000000	99.258381 
2749.000000	99.258215 
2748.000000	99.258252 
2747.000000	99.258123 
2746.000000	99.257712 
2745.000000	99.257343 
2744.000000	99.257426 
2743.000000	99.258108 
2742.000000	99.259239 
2741.000000	99.260506 
2740.000000	99.261638 
2739.000000	99.262580 
2738.000000	99.263494 
2737.000000	99.264527 
2736.000000	99.265628 
2735.000000	99.266617 
2734.000000	99.267346 
2733.000000	99.267727 
2732.000000	99.267763 
2731.000000	99.267645 
2730.000000	99.267704 
2729.000000	99.268124 
2728.000000	99.268764 
2727.000000	99.269383 
2726.000000	99.269910 
2725.000000	99.270397 
2724.000000	99.270828 
2723.000000	99.271181 
2722.000000	99.271568 
2721.000000	99.272106 
2720.000000	99.272678 
2719.000000	99.273006 
2718.000000	99.272986 
2717.000000	99.272809 
2716.000000	99.272764 
2715.000000	99.272993 
2714.000000	99.273467 
2713.000000	99.274058 
2712.000000	99.274594 
2711.000000	99.274975 
2710.000000	99.275245 
2709.000000	99.275523 
2708.000000	99.275856 
2707.000000	99.276163 
2706.000000	99.276362 
2705.000000	99.276476 
2704.000000	99.276595 
2703.000000	99.276777 
2702.000000	99.277005 
2701.000000	99.277235 
2700.000000	99.277435 
2699.000000	99.277598 
2698.000000	99.277739 
2697.000000	99.277874 
2696.000000	99.278004 
2695.000000	99.278126 
2694.000000	99.278246 
2693.000000	99.278382 
2692.000000	99.278528 
2691.000000	99.278658 
2690.000000	99.278757 
2689.000000	99.278851 
2688.000000	99.278979 
2687.000000	99.279148 
2686.000000	99.279319 
2685.000000	99.279448 
2684.000000	99.279526 
2683.000000	99.279577 
2682.000000	99.279633 
2681.000000	99.279704 
2680.000000	99.279788 
2679.000000	99.279867 
2678.000000	99.279921 
2677.000000	99.279944 
2676.000000	99.279957 
2675.000000	99.279994 
2674.000000	99.280071 
2673.000000	99.280162 
2672.000000	99.280221 
2671.000000	99.280212 
2670.000000	99.280131 
2669.000000	99.279997 
2668.000000	99.279847 
2667.000000	99.279738 
2666.000000	99.279721 
2665.000000	99.279811 
2664.000000	99.279975 
2663.000000	99.280154 
2662.000000	99.280301 
2661.000000	99.280396 
2660.000000	99.280438 
2659.000000	99.280434 
2658.000000	99.280406 
2657.000000	99.280390 
2656.000000	99.280417 
2655.000000	99.280488 
2654.000000	99.280581 
2653.000000	99.280668 
2652.000000	99.280733 
2651.000000	99.280780 
2650.000000	99.280827 
2649.000000	99.280891 
2648.000000	99.280980 
2647.000000	99.281084 
2646.000000	99.281187 
2645.000000	99.281287 
2644.000000	99.281393 
2643.000000	99.281517 
2642.000000	99.281659 
2641.000000	99.281815 
2640.000000	99.281996 
2639.000000	99.282217 
2638.000000	99.282477 
2637.000000	99.282755 
2636.000000	99.283022 
2635.000000	99.283254 
2634.000000	99.283445 
2633.000000	99.283626 
2632.000000	99.283848 
2631.000000	99.284125 
2630.000000	99.284407 
2629.000000	99.284646 
2628.000000	99.284866 
2627.000000	99.285145 
2626.000000	99.285494 
2625.000000	99.285808 
2624.000000	99.286014 
2623.000000	99.286180 
2622.000000	99.286407 
2621.000000	99.286693 
2620.000000	99.286976 
2619.000000	99.287238 
2618.000000	99.287481 
2617.000000	99.287664 
2616.000000	99.287762 
2615.000000	99.287835 
2614.000000	99.287957 
2613.000000	99.288124 
2612.000000	99.288309 
2611.000000	99.288546 
2610.000000	99.288870 
2609.000000	99.289201 
2608.000000	99.289401 
2607.000000	99.289442 
2606.000000	99.289454 
2605.000000	99.289602 
2604.000000	99.289907 
2603.000000	99.290203 
2602.000000	99.290276 
2601.000000	99.290086 
2600.000000	99.289791 
2599.000000	99.289585 
2598.000000	99.289505 
2597.000000	99.289478 
2596.000000	99.289440 
2595.000000	99.289351 
2594.000000	99.289159 
2593.000000	99.288849 
2592.000000	99.288522 
2591.000000	99.288309 
2590.000000	99.288224 
2589.000000	99.288168 
2588.000000	99.288049 
2587.000000	99.287853 
2586.000000	99.287603 
2585.000000	99.287304 
2584.000000	99.286966 
2583.000000	99.286631 
2582.000000	99.286340 
2581.000000	99.286094 
2580.000000	99.285869 
2579.000000	99.285648 
2578.000000	99.285420 
2577.000000	99.285187 
2576.000000	99.284948 
2575.000000	99.284707 
2574.000000	99.284466 
2573.000000	99.284229 
2572.000000	99.283993 
2571.000000	99.283757 
2570.000000	99.283520 
2569.000000	99.283285 
2568.000000	99.283059 
2567.000000	99.282849 
2566.000000	99.282659 
2565.000000	99.282491 
2564.000000	99.282345 
2563.000000	99.282224 
2562.000000	99.282129 
2561.000000	99.282061 
2560.000000	99.282018 
2559.000000	99.281999 
2558.000000	99.282002 
2557.000000	99.282023 
2556.000000	99.282042 
2555.000000	99.282029 
2554.000000	99.281995 
2553.000000	99.282018 
2552.000000	99.282167 
2551.000000	99.282411 
2550.000000	99.282624 
2549.000000	99.282732 
2548.000000	99.282758 
2547.000000	99.282726 
2546.000000	99.282625 
2545.000000	99.282522 
2544.000000	99.282591 
2543.000000	99.282965 
2542.000000	99.283576 
2541.000000	99.284176 
2540.000000	99.284552 
2539.000000	99.284686 
2538.000000	99.284668 
2537.000000	99.284496 
2536.000000	99.284024 
2535.000000	99.283212 
2534.000000	99.282422 
2533.000000	99.282232 
2532.000000	99.282888 
2531.000000	99.284042 
2530.000000	99.285058 
2529.000000	99.285631 
2528.000000	99.285891 
2527.000000	99.286059 
2526.000000	99.286213 
2525.000000	99.286435 
2524.000000	99.286939 
2523.000000	99.287857 
2522.000000	99.288944 
2521.000000	99.289687 
2520.000000	99.289764 
2519.000000	99.289279 
2518.000000	99.288585 
2517.000000	99.287930 
2516.000000	99.287308 
2515.000000	99.286627 
2514.000000	99.285951 
2513.000000	99.285515 
2512.000000	99.285429 
2511.000000	99.285448 
2510.000000	99.285199 
2509.000000	99.284718 
2508.000000	99.284547 
2507.000000	99.285137 
2506.000000	99.286283 
2505.000000	99.287244 
2504.000000	99.287440 
2503.000000	99.286868 
2502.000000	99.285919 
2501.000000	99.285017 
2500.000000	99.284425 
2499.000000	99.284257 
2498.000000	99.284501 
2497.000000	99.284999 
2496.000000	99.285500 
2495.000000	99.285776 
2494.000000	99.285681 
2493.000000	99.285172 
2492.000000	99.284349 
2491.000000	99.283465 
2490.000000	99.282803 
2489.000000	99.282486 
2488.000000	99.282407 
2487.000000	99.282364 
2486.000000	99.282265 
2485.000000	99.282208 
2484.000000	99.282355 
2483.000000	99.282736 
2482.000000	99.283181 
2481.000000	99.283427 
2480.000000	99.283332 
2479.000000	99.282970 
2478.000000	99.282536 
2477.000000	99.282179 
2476.000000	99.281932 
2475.000000	99.281783 
2474.000000	99.281730 
2473.000000	99.281774 
2472.000000	99.281887 
2471.000000	99.282025 
2470.000000	99.282145 
2469.000000	99.282193 
2468.000000	99.282084 
2467.000000	99.281771 
2466.000000	99.281331 
2465.000000	99.280964 
2464.000000	99.280828 
2463.000000	99.280894 
2462.000000	99.280959 
2461.000000	99.280838 
2460.000000	99.280529 
2459.000000	99.280189 
2458.000000	99.279978 
2457.000000	99.279922 
2456.000000	99.279918 
2455.000000	99.279843 
2454.000000	99.279656 
2453.000000	99.279410 
2452.000000	99.279181 
2451.000000	99.279004 
2450.000000	99.278864 
2449.000000	99.278734 
2448.000000	99.278610 
2447.000000	99.278497 
2446.000000	99.278391 
2445.000000	99.278305 
2444.000000	99.278289 
2443.000000	99.278396 
2442.000000	99.278605 
2441.000000	99.278791 
2440.000000	99.278786 
2439.000000	99.278493 
2438.000000	99.277962 
2437.000000	99.277411 
2436.000000	99.277095 
2435.000000	99.277045 
2434.000000	99.276962 
2433.000000	99.276491 
2432.000000	99.275623 
2431.000000	99.274746 
2430.000000	99.274217 
2429.000000	99.274014 
2428.000000	99.273924 
2427.000000	99.273944 
2426.000000	99.274247 
2425.000000	99.274730 
2424.000000	99.274876 
2423.000000	99.274279 
2422.000000	99.273164 
2421.000000	99.272288 
2420.000000	99.272181 
2419.000000	99.272709 
2418.000000	99.273358 
2417.000000	99.273744 
2416.000000	99.273823 
2415.000000	99.273666 
2414.000000	99.273309 
2413.000000	99.272847 
2412.000000	99.272499 
2411.000000	99.272445 
2410.000000	99.272641 
2409.000000	99.272873 
2408.000000	99.273039 
2407.000000	99.273353 
2406.000000	99.274107 
2405.000000	99.275284 
2404.000000	99.276559 
2403.000000	99.277547 
2402.000000	99.278025 
2401.000000	99.278015 
2400.000000	99.277730 
2399.000000	99.277496 
2398.000000	99.277603 
2397.000000	99.278176 
2396.000000	99.279139 
2395.000000	99.280295 
2394.000000	99.281471 
2393.000000	99.282583 
2392.000000	99.283607 
2391.000000	99.284539 
2390.000000	99.285409 
2389.000000	99.286286 
2388.000000	99.287224 
2387.000000	99.288187 
2386.000000	99.289077 
2385.000000	99.289836 
2384.000000	99.290501 
2383.000000	99.291172 
2382.000000	99.291933 
2381.000000	99.292799 
2380.000000	99.293710 
2379.000000	99.294569 
2378.000000	99.295313 
2377.000000	99.295977 
2376.000000	99.296675 
2375.000000	99.297488 
2374.000000	99.298396 
2373.000000	99.299311 
2372.000000	99.300190 
2371.000000	99.301063 
2370.000000	99.301959 
2369.000000	99.302840 
2368.000000	99.303628 
2367.000000	99.304286 
2366.000000	99.304858 
2365.000000	99.305410 
2364.000000	99.305982 
2363.000000	99.306565 
2362.000000	99.307139 
2361.000000	99.307684 
2360.000000	99.308193 
2359.000000	99.308674 
2358.000000	99.309143 
2357.000000	99.309602 
2356.000000	99.310040 
2355.000000	99.310438 
2354.000000	99.310782 
2353.000000	99.311069 
2352.000000	99.311312 
2351.000000	99.311525 
2350.000000	99.311714 
2349.000000	99.311877 
2348.000000	99.312012 
2347.000000	99.312136 
2346.000000	99.312277 
2345.000000	99.312435 
2344.000000	99.312575 
2343.000000	99.312663 
2342.000000	99.312725 
2341.000000	99.312779 
2340.000000	99.312791 
2339.000000	99.312714 
2338.000000	99.312576 
2337.000000	99.312452 
2336.000000	99.312361 
2335.000000	99.312246 
2334.000000	99.312080 
2333.000000	99.311884 
2332.000000	99.311638 
2331.000000	99.311248 
2330.000000	99.310628 
2329.000000	99.309961 
2328.000000	99.309479 
2327.000000	99.309379 
2326.000000	99.309474 
2325.000000	99.309348 
2324.000000	99.308679 
2323.000000	99.307607 
2322.000000	99.306801 
2321.000000	99.306695 
2320.000000	99.307080 
2319.000000	99.307273 
2318.000000	99.306929 
2317.000000	99.306206 
2316.000000	99.305318 
2315.000000	99.304324 
2314.000000	99.303220 
2313.000000	99.302233 
2312.000000	99.301496 
2311.000000	99.301108 
2310.000000	99.301044 
2309.000000	99.301211 
2308.000000	99.301074 
2307.000000	99.300004 
2306.000000	99.297877 
2305.000000	99.295349 
2304.000000	99.293177 
2303.000000	99.291591 
2302.000000	99.290319 
2301.000000	99.289129 
2300.000000	99.287961 
2299.000000	99.286786 
2298.000000	99.285535 
2297.000000	99.284315 
2296.000000	99.283326 
2295.000000	99.282628 
2294.000000	99.281988 
2293.000000	99.281115 
2292.000000	99.279929 
2291.000000	99.278586 
2290.000000	99.277265 
2289.000000	99.276023 
2288.000000	99.274832 
2287.000000	99.273686 
2286.000000	99.272634 
2285.000000	99.271725 
2284.000000	99.270929 
2283.000000	99.270128 
2282.000000	99.269212 
2281.000000	99.268152 
2280.000000	99.267006 
2279.000000	99.265875 
2278.000000	99.264857 
2277.000000	99.264014 
2276.000000	99.263361 
2275.000000	99.262845 
2274.000000	99.262323 
2273.000000	99.261583 
2272.000000	99.260407 
2271.000000	99.258692 
2270.000000	99.256647 
2269.000000	99.254861 
2268.000000	99.253946 
2267.000000	99.254054 
2266.000000	99.254691 
2265.000000	99.255113 
2264.000000	99.254874 
2263.000000	99.253990 
2262.000000	99.252947 
2261.000000	99.252550 
2260.000000	99.253297 
2259.000000	99.254532 
2258.000000	99.254675 
2257.000000	99.252818 
2256.000000	99.249854 
2255.000000	99.247612 
2254.000000	99.246796 
2253.000000	99.246591 
2252.000000	99.246331 
2251.000000	99.246720 
2250.000000	99.248807 
2249.000000	99.252438 
2248.000000	99.256232 
2247.000000	99.258730 
2246.000000	99.259073 
2245.000000	99.257023 
2244.000000	99.253040 
2243.000000	99.248311 
2242.000000	99.244315 
2241.000000	99.242093 
2240.000000	99.241624 
2239.000000	99.241583 
2238.000000	99.240016 
2237.000000	99.235949 
2236.000000	99.230443 
2235.000000	99.225628 
2234.000000	99.222834 
2233.000000	99.222190 
2232.000000	99.223720 
2231.000000	99.227789 
2230.000000	99.234320 
2229.000000	99.242253 
2228.000000	99.250017 
2227.000000	99.255952 
2226.000000	99.258324 
2225.000000	99.256097 
2224.000000	99.250136 
2223.000000	99.242957 
2222.000000	99.236992 
2221.000000	99.233550 
2220.000000	99.233086 
2219.000000	99.235453 
2218.000000	99.239743 
2217.000000	99.244837 
2216.000000	99.250479 
2215.000000	99.256810 
2214.000000	99.262608 
2213.000000	99.265207 
2212.000000	99.262915 
2211.000000	99.256967 
2210.000000	99.250657 
2209.000000	99.246689 
2208.000000	99.245495 
2207.000000	99.245543 
2206.000000	99.244796 
2205.000000	99.242138 
2204.000000	99.237883 
2203.000000	99.233109 
2202.000000	99.228873 
2201.000000	99.226016 
2200.000000	99.224787 
2199.000000	99.224163 
2198.000000	99.222395 
2197.000000	99.219144 
2196.000000	99.216492 
2195.000000	99.216826 
2194.000000	99.220242 
2193.000000	99.224780 
2192.000000	99.228463 
2191.000000	99.230306 
2190.000000	99.229932 
2189.000000	99.227639 
2188.000000	99.224890 
2187.000000	99.223499 
2186.000000	99.224022 
2185.000000	99.225643 
2184.000000	99.227371 
2183.000000	99.228661 
2182.000000	99.228983 
2181.000000	99.227961 
2180.000000	99.226164 
2179.000000	99.224878 
2178.000000	99.224648 
2177.000000	99.224708 
2176.000000	99.224116 
2175.000000	99.222889 
2174.000000	99.221718 
2173.000000	99.221094 
2172.000000	99.221031 
2171.000000	99.221369 
2170.000000	99.221983 
2169.000000	99.222766 
2168.000000	99.223592 
2167.000000	99.224291 
2166.000000	99.224659 
2165.000000	99.224627 
2164.000000	99.224385 
2163.000000	99.224288 
2162.000000	99.224541 
2161.000000	99.225068 
2160.000000	99.225665 
2159.000000	99.226171 
2158.000000	99.226535 
2157.000000	99.226771 
2156.000000	99.226955 
2155.000000	99.227197 
2154.000000	99.227520 
2153.000000	99.227797 
2152.000000	99.227903 
2151.000000	99.227943 
2150.000000	99.228226 
2149.000000	99.228972 
2148.000000	99.230143 
2147.000000	99.231435 
2146.000000	99.232423 
2145.000000	99.232787 
2144.000000	99.232573 
2143.000000	99.232286 
2142.000000	99.232354 
2141.000000	99.232615 
2140.000000	99.232662 
2139.000000	99.232525 
2138.000000	99.232598 
2137.000000	99.232839 
2136.000000	99.232632 
2135.000000	99.231749 
2134.000000	99.230917 
2133.000000	99.230965 
2132.000000	99.231756 
2131.000000	99.232271 
2130.000000	99.231660 
2129.000000	99.229921 
2128.000000	99.227777 
2127.000000	99.226027 
2126.000000	99.224900 
2125.000000	99.224027 
2124.000000	99.223290 
2123.000000	99.223560 
2122.000000	99.225825 
2121.000000	99.229502 
2120.000000	99.232408 
2119.000000	99.233022 
2118.000000	99.232128 
2117.000000	99.231607 
2116.000000	99.232009 
2115.000000	99.232295 
2114.000000	99.231666 
2113.000000	99.230550 
2112.000000	99.229652 
2111.000000	99.228851 
2110.000000	99.227490 
2109.000000	99.225466 
2108.000000	99.223645 
2107.000000	99.223063 
2106.000000	99.223591 
2105.000000	99.223467 
2104.000000	99.220663 
2103.000000	99.215086 
2102.000000	99.209259 
2101.000000	99.206111 
2100.000000	99.206265 
2099.000000	99.207932 
2098.000000	99.209232 
2097.000000	99.210182 
2096.000000	99.211818 
2095.000000	99.213933 
2094.000000	99.214513 
2093.000000	99.211831 
2092.000000	99.206869 
2091.000000	99.203097 
2090.000000	99.203307 
2089.000000	99.206876 
2088.000000	99.210509 
2087.000000	99.211771 
2086.000000	99.211300 
2085.000000	99.211369 
2084.000000	99.213106 
2083.000000	99.215670 
2082.000000	99.217648 
2081.000000	99.218459 
2080.000000	99.218402 
2079.000000	99.218010 
2078.000000	99.217817 
2077.000000	99.218571 
2076.000000	99.221142 
2075.000000	99.225784 
2074.000000	99.231289 
2073.000000	99.235311 
2072.000000	99.236115 
2071.000000	99.233904 
2070.000000	99.230387 
2069.000000	99.227179 
2068.000000	99.224917 
2067.000000	99.223646 
2066.000000	99.223109 
2065.000000	99.222493 
2064.000000	99.220860 
2063.000000	99.218474 
2062.000000	99.216888 
2061.000000	99.217102 
2060.000000	99.218266 
2059.000000	99.218679 
2058.000000	99.217617 
2057.000000	99.215602 
2056.000000	99.213238 
2055.000000	99.210522 
2054.000000	99.207438 
2053.000000	99.204591 
2052.000000	99.202873 
2051.000000	99.202695 
2050.000000	99.203678 
2049.000000	99.204780 
2048.000000	99.204761 
2047.000000	99.202962 
2046.000000	99.199856 
2045.000000	99.196827 
2044.000000	99.195079 
2043.000000	99.194625 
2042.000000	99.194513 
2041.000000	99.193875 
2040.000000	99.192641 
2039.000000	99.191221 
2038.000000	99.189808 
2037.000000	99.188218 
2036.000000	99.186269 
2035.000000	99.184087 
2034.000000	99.182047 
2033.000000	99.180540 
2032.000000	99.179758 
2031.000000	99.179542 
2030.000000	99.179369 
2029.000000	99.178601 
2028.000000	99.176881 
2027.000000	99.174400 
2026.000000	99.171990 
2025.000000	99.170883 
2024.000000	99.171900 
2023.000000	99.174574 
2022.000000	99.177043 
2021.000000	99.177459 
2020.000000	99.175708 
2019.000000	99.173545 
2018.000000	99.172944 
2017.000000	99.174233 
2016.000000	99.176079 
2015.000000	99.177019 
2014.000000	99.176781 
2013.000000	99.176134 
2012.000000	99.176079 
2011.000000	99.177234 
2010.000000	99.179679 
2009.000000	99.183013 
2008.000000	99.186431 
2007.000000	99.188954 
2006.000000	99.189794 
2005.000000	99.188812 
2004.000000	99.186806 
2003.000000	99.185047 
2002.000000	99.184274 
2001.000000	99.184255 
2000.000000	99.184329 
1999.000000	99.184140 
1998.000000	99.183793 
1997.000000	99.183619 
1996.000000	99.183975 
1995.000000	99.185098 
1994.000000	99.186866 
1993.000000	99.188626 
1992.000000	99.189522 
1991.000000	99.189204 
1990.000000	99.188095 
1989.000000	99.187026 
1988.000000	99.186651 
1987.000000	99.187090 
1986.000000	99.187936 
1985.000000	99.188603 
1984.000000	99.188878 
1983.000000	99.189054 
1982.000000	99.189418 
1981.000000	99.189654 
1980.000000	99.189040 
1979.000000	99.187291 
1978.000000	99.185146 
1977.000000	99.183828 
1976.000000	99.183732 
1975.000000	99.184280 
1974.000000	99.184824 
1973.000000	99.185477 
1972.000000	99.186701 
1971.000000	99.188296 
1970.000000	99.189250 
1969.000000	99.188758 
1968.000000	99.187045 
1967.000000	99.185190 
1966.000000	99.183935 
1965.000000	99.183044 
1964.000000	99.182062 
1963.000000	99.181209 
1962.000000	99.181159 
1961.000000	99.182079 
1960.000000	99.183292 
1959.000000	99.184083 
1958.000000	99.184550 
1957.000000	99.185228 
1956.000000	99.186128 
1955.000000	99.186669 
1954.000000	99.186511 
1953.000000	99.186006 
1952.000000	99.185567 
1951.000000	99.185044 
1950.000000	99.184161 
1949.000000	99.183175 
1948.000000	99.182695 
1947.000000	99.182799 
1946.000000	99.182740 
1945.000000	99.181754 
1944.000000	99.180052 
1943.000000	99.178830 
1942.000000	99.179147 
1941.000000	99.180864 
1940.000000	99.182746 
1939.000000	99.183682 
1938.000000	99.183824 
1937.000000	99.184360 
1936.000000	99.185975 
1935.000000	99.187808 
1934.000000	99.188470 
1933.000000	99.188007 
1932.000000	99.188017 
1931.000000	99.189731 
1930.000000	99.192576 
1929.000000	99.194761 
1928.000000	99.195414 
1927.000000	99.195162 
1926.000000	99.195071 
1925.000000	99.195547 
1924.000000	99.196323 
1923.000000	99.197212 
1922.000000	99.198077 
1921.000000	99.198478 
1920.000000	99.197806 
1919.000000	99.195847 
1918.000000	99.193230 
1917.000000	99.191251 
1916.000000	99.190876 
1915.000000	99.191998 
1914.000000	99.193704 
1913.000000	99.195268 
1912.000000	99.196708 
1911.000000	99.198297 
1910.000000	99.199697 
1909.000000	99.200145 
1908.000000	99.199805 
1907.000000	99.199874 
1906.000000	99.201204 
1905.000000	99.203243 
1904.000000	99.204626 
1903.000000	99.204872 
1902.000000	99.204569 
1901.000000	99.204386 
1900.000000	99.204621 
1899.000000	99.205407 
1898.000000	99.206843 
1897.000000	99.208726 
1896.000000	99.210316 
1895.000000	99.210903 
1894.000000	99.210381 
1893.000000	99.209365 
1892.000000	99.208781 
1891.000000	99.209161 
1890.000000	99.210056 
1889.000000	99.210412 
1888.000000	99.210016 
1887.000000	99.209816 
1886.000000	99.210663 
1885.000000	99.212612 
1884.000000	99.215145 
1883.000000	99.217629 
1882.000000	99.219371 
1881.000000	99.220040 
1880.000000	99.220617 
1879.000000	99.222721 
1878.000000	99.226640 
1877.000000	99.230771 
1876.000000	99.233162 
1875.000000	99.233239 
1874.000000	99.231639 
1873.000000	99.229108 
1872.000000	99.226219 
1871.000000	99.223583 
1870.000000	99.221592 
1869.000000	99.220015 
1868.000000	99.218723 
1867.000000	99.218457 
1866.000000	99.219542 
1865.000000	99.221042 
1864.000000	99.221775 
1863.000000	99.221303 
1862.000000	99.219949 
1861.000000	99.218590 
1860.000000	99.218566 
1859.000000	99.220855 
1858.000000	99.224827 
1857.000000	99.228301 
1856.000000	99.229762 
1855.000000	99.229816 
1854.000000	99.229900 
1853.000000	99.230238 
1852.000000	99.230175 
1851.000000	99.229586 
1850.000000	99.229114 
1849.000000	99.229523 
1848.000000	99.230856 
1847.000000	99.232468 
1846.000000	99.233510 
1845.000000	99.233615 
1844.000000	99.233267 
1843.000000	99.233461 
1842.000000	99.234431 
1841.000000	99.235325 
1840.000000	99.235499 
1839.000000	99.235107 
1838.000000	99.234667 
1837.000000	99.234466 
1836.000000	99.234455 
1835.000000	99.234590 
1834.000000	99.234856 
1833.000000	99.235194 
1832.000000	99.235543 
1831.000000	99.235860 
1830.000000	99.236144 
1829.000000	99.236462 
1828.000000	99.236868 
1827.000000	99.237318 
1826.000000	99.237738 
1825.000000	99.238105 
1824.000000	99.238444 
1823.000000	99.238778 
1822.000000	99.239108 
1821.000000	99.239428 
1820.000000	99.239753 
1819.000000	99.240091 
1818.000000	99.240431 
1817.000000	99.240754 
1816.000000	99.241045 
1815.000000	99.241308 
1814.000000	99.241560 
1813.000000	99.241822 
1812.000000	99.242087 
1811.000000	99.242338 
1810.000000	99.242572 
1809.000000	99.242793 
1808.000000	99.242990 
1807.000000	99.243154 
1806.000000	99.243294 
1805.000000	99.243427 
1804.000000	99.243565 
1803.000000	99.243710 
1802.000000	99.243857 
1801.000000	99.243998 
1800.000000	99.244133 
1799.000000	99.244274 
1798.000000	99.244436 
1797.000000	99.244629 
1796.000000	99.244846 
1795.000000	99.245075 
1794.000000	99.245301 
1793.000000	99.245517 
1792.000000	99.245719 
1791.000000	99.245906 
1790.000000	99.246080 
1789.000000	99.246240 
1788.000000	99.246387 
1787.000000	99.246522 
1786.000000	99.246652 
1785.000000	99.246778 
1784.000000	99.246898 
1783.000000	99.247010 
1782.000000	99.247111 
1781.000000	99.247201 
1780.000000	99.247285 
1779.000000	99.247372 
1778.000000	99.247471 
1777.000000	99.247587 
1776.000000	99.247723 
1775.000000	99.247874 
1774.000000	99.248025 
1773.000000	99.248169 
1772.000000	99.248311 
1771.000000	99.248466 
1770.000000	99.248641 
1769.000000	99.248826 
1768.000000	99.249004 
1767.000000	99.249181 
1766.000000	99.249370 
1765.000000	99.249578 
1764.000000	99.249783 
1763.000000	99.249955 
1762.000000	99.250080 
1761.000000	99.250198 
1760.000000	99.250365 
1759.000000	99.250569 
1758.000000	99.250823 
1757.000000	99.251190 
1756.000000	99.251713 
1755.000000	99.252262 
1754.000000	99.252627 
1753.000000	99.252799 
1752.000000	99.252978 
1751.000000	99.253216 
1750.000000	99.253320 
1749.000000	99.253219 
1748.000000	99.253121 
1747.000000	99.253302 
1746.000000	99.253715 
1745.000000	99.254177 
1744.000000	99.254599 
1743.000000	99.254972 
1742.000000	99.255333 
1741.000000	99.255690 
1740.000000	99.256019 
1739.000000	99.256413 
1738.000000	99.257037 
1737.000000	99.257701 
1736.000000	99.258122 
1735.000000	99.258319 
1734.000000	99.258298 
1733.000000	99.258177 
1732.000000	99.258327 
1731.000000	99.258565 
1730.000000	99.258676 
1729.000000	99.258664 
1728.000000	99.258618 
1727.000000	99.258616 
1726.000000	99.258671 
1725.000000	99.258800 
1724.000000	99.258966 
1723.000000	99.259115 
1722.000000	99.259246 
1721.000000	99.259347 
1720.000000	99.259416 
1719.000000	99.259473 
1718.000000	99.259526 
1717.000000	99.259555 
1716.000000	99.259556 
1715.000000	99.259537 
1714.000000	99.259506 
1713.000000	99.259467 
1712.000000	99.259423 
1711.000000	99.259377 
1710.000000	99.259329 
1709.000000	99.259275 
1708.000000	99.259214 
1707.000000	99.259141 
1706.000000	99.259054 
1705.000000	99.258949 
1704.000000	99.258827 
1703.000000	99.258692 
1702.000000	99.258551 
1701.000000	99.258409 
1700.000000	99.258268 
1699.000000	99.258133 
1698.000000	99.258006 
1697.000000	99.257880 
1696.000000	99.257750 
1695.000000	99.257617 
1694.000000	99.257489 
1693.000000	99.257376 
1692.000000	99.257283 
1691.000000	99.257212 
1690.000000	99.257159 
1689.000000	99.257119 
1688.000000	99.257088 
1687.000000	99.257062 
1686.000000	99.257038 
1685.000000	99.257012 
1684.000000	99.256979 
1683.000000	99.256942 
1682.000000	99.256911 
1681.000000	99.256886 
1680.000000	99.256870 
1679.000000	99.256862 
1678.000000	99.256863 
1677.000000	99.256876 
1676.000000	99.256903 
1675.000000	99.256946 
1674.000000	99.257009 
1673.000000	99.257090 
1672.000000	99.257179 
1671.000000	99.257270 
1670.000000	99.257356 
1669.000000	99.257434 
1668.000000	99.257506 
1667.000000	99.257577 
1666.000000	99.257650 
1665.000000	99.257729 
1664.000000	99.257817 
1663.000000	99.257915 
1662.000000	99.258022 
1661.000000	99.258137 
1660.000000	99.258258 
1659.000000	99.258384 
1658.000000	99.258512 
1657.000000	99.258638 
1656.000000	99.258761 
1655.000000	99.258886 
1654.000000	99.259018 
1653.000000	99.259162 
1652.000000	99.259308 
1651.000000	99.259474 
1650.000000	99.259652 
1649.000000	99.259807 
1648.000000	99.259935 
1647.000000	99.260050 
1646.000000	99.260147 
1645.000000	99.260311 
1644.000000	99.260598 
1643.000000	99.260943 
1642.000000	99.261251 
1641.000000	99.261446 
1640.000000	99.261543 
1639.000000	99.261576 
1638.000000	99.261645 
1637.000000	99.261947 
1636.000000	99.262534 
1635.000000	99.262978 
1634.000000	99.263302 
1633.000000	99.263668 
1632.000000	99.263572 
1631.000000	99.263056 
1630.000000	99.262529 
1629.000000	99.262228 
1628.000000	99.262156 
1627.000000	99.262415 
1626.000000	99.262903 
1625.000000	99.263277 
1624.000000	99.263420 
1623.000000	99.263386 
1622.000000	99.263359 
1621.000000	99.263699 
1620.000000	99.264625 
1619.000000	99.266016 
1618.000000	99.267821 
1617.000000	99.269306 
1616.000000	99.270039 
1615.000000	99.271131 
1614.000000	99.272583 
1613.000000	99.273448 
1612.000000	99.274212 
1611.000000	99.275754 
1610.000000	99.277169 
1609.000000	99.277036 
1608.000000	99.275977 
1607.000000	99.275737 
1606.000000	99.276309 
1605.000000	99.276626 
1604.000000	99.276785 
1603.000000	99.277142 
1602.000000	99.277569 
1601.000000	99.278056 
1600.000000	99.279147 
1599.000000	99.280936 
1598.000000	99.282555 
1597.000000	99.283414 
1596.000000	99.283823 
1595.000000	99.284106 
1594.000000	99.283945 
1593.000000	99.283279 
1592.000000	99.283031 
1591.000000	99.283958 
1590.000000	99.285464 
1589.000000	99.286529 
1588.000000	99.287316 
1587.000000	99.288650 
1586.000000	99.290340 
1585.000000	99.291180 
1584.000000	99.291071 
1583.000000	99.290752 
1582.000000	99.290270 
1581.000000	99.289546 
1580.000000	99.288895 
1579.000000	99.288465 
1578.000000	99.288019 
1577.000000	99.287536 
1576.000000	99.287106 
1575.000000	99.287045 
1574.000000	99.287366 
1573.000000	99.287593 
1572.000000	99.287672 
1571.000000	99.287892 
1570.000000	99.288215 
1569.000000	99.288352 
1568.000000	99.288425 
1567.000000	99.288468 
1566.000000	99.288321 
1565.000000	99.288036 
1564.000000	99.287820 
1563.000000	99.287749 
1562.000000	99.287727 
1561.000000	99.287692 
1560.000000	99.287786 
1559.000000	99.287899 
1558.000000	99.287843 
1557.000000	99.287859 
1556.000000	99.287911 
1555.000000	99.287918 
1554.000000	99.287876 
1553.000000	99.287804 
1552.000000	99.287717 
1551.000000	99.287613 
1550.000000	99.287502 
1549.000000	99.287388 
1548.000000	99.287266 
1547.000000	99.287125 
1546.000000	99.286959 
1545.000000	99.286777 
1544.000000	99.286601 
1543.000000	99.286458 
1542.000000	99.286365 
1541.000000	99.286327 
1540.000000	99.286278 
1539.000000	99.286151 
1538.000000	99.286013 
1537.000000	99.285925 
1536.000000	99.285819 
1535.000000	99.285689 
1534.000000	99.285527 
1533.000000	99.285223 
1532.000000	99.284784 
1531.000000	99.284358 
1530.000000	99.284029 
1529.000000	99.283759 
1528.000000	99.283455 
1527.000000	99.283129 
1526.000000	99.282880 
1525.000000	99.282760 
1524.000000	99.282728 
1523.000000	99.282803 
1522.000000	99.283053 
1521.000000	99.283037 
1520.000000	99.282337 
1519.000000	99.281051 
1518.000000	99.279366 
1517.000000	99.277758 
1516.000000	99.276545 
1515.000000	99.275685 
1514.000000	99.274960 
1513.000000	99.274363 
1512.000000	99.273955 
1511.000000	99.273496 
1510.000000	99.272827 
1509.000000	99.272163 
1508.000000	99.272221 
1507.000000	99.272817 
1506.000000	99.272594 
1505.000000	99.271876 
1504.000000	99.271457 
1503.000000	99.270960 
1502.000000	99.270259 
1501.000000	99.269430 
1500.000000	99.268365 
1499.000000	99.266914 
1498.000000	99.265169 
1497.000000	99.263353 
1496.000000	99.261570 
1495.000000	99.260396 
1494.000000	99.260296 
1493.000000	99.260820 
1492.000000	99.261246 
1491.000000	99.261206 
1490.000000	99.260627 
1489.000000	99.259418 
1488.000000	99.257529 
1487.000000	99.255479 
1486.000000	99.253915 
1485.000000	99.252400 
1484.000000	99.250564 
1483.000000	99.248794 
1482.000000	99.247769 
1481.000000	99.247627 
1480.000000	99.247505 
1479.000000	99.246686 
1478.000000	99.245173 
1477.000000	99.243389 
1476.000000	99.241622 
1475.000000	99.240804 
1474.000000	99.241977 
1473.000000	99.244436 
1472.000000	99.245697 
1471.000000	99.245071 
1470.000000	99.244128 
1469.000000	99.243029 
1468.000000	99.241172 
1467.000000	99.239142 
1466.000000	99.238301 
1465.000000	99.238756 
1464.000000	99.239576 
1463.000000	99.239996 
1462.000000	99.239909 
1461.000000	99.238953 
1460.000000	99.236906 
1459.000000	99.233852 
1458.000000	99.229257 
1457.000000	99.220825 
1456.000000	99.209722 
1455.000000	99.201953 
1454.000000	99.198133 
1453.000000	99.197301 
1452.000000	99.199375 
1451.000000	99.202657 
1450.000000	99.205609 
1449.000000	99.208080 
1448.000000	99.209730 
1447.000000	99.210336 
1446.000000	99.210139 
1445.000000	99.210232 
1444.000000	99.211710 
1443.000000	99.213546 
1442.000000	99.214955 
1441.000000	99.215927 
1440.000000	99.216526 
1439.000000	99.216144 
1438.000000	99.216105 
1437.000000	99.217805 
1436.000000	99.218659 
1435.000000	99.216596 
1434.000000	99.212675 
1433.000000	99.208335 
1432.000000	99.204187 
1431.000000	99.199581 
1430.000000	99.193892 
1429.000000	99.188328 
1428.000000	99.184020 
1427.000000	99.181135 
1426.000000	99.178350 
1425.000000	99.174780 
1424.000000	99.170520 
1423.000000	99.164775 
1422.000000	99.157031 
1421.000000	99.147511 
1420.000000	99.137184 
1419.000000	99.126540 
1418.000000	99.116677 
1417.000000	99.108647 
1416.000000	99.100346 
1415.000000	99.089737 
1414.000000	99.077658 
1413.000000	99.066778 
1412.000000	99.058656 
1411.000000	99.052102 
1410.000000	99.045422 
1409.000000	99.038802 
1408.000000	99.033460 
1407.000000	99.030544 
1406.000000	99.030047 
1405.000000	99.031289 
1404.000000	99.034216 
1403.000000	99.038900 
1402.000000	99.045417 
1401.000000	99.053703 
1400.000000	99.062950 
1399.000000	99.070134 
1398.000000	99.070912 
1397.000000	99.062411 
1396.000000	99.045466 
1395.000000	99.027645 
1394.000000	99.020208 
1393.000000	99.027994 
1392.000000	99.045505 
1391.000000	99.062936 
1390.000000	99.074162 
1389.000000	99.078551 
1388.000000	99.078143 
1387.000000	99.075199 
1386.000000	99.071911 
1385.000000	99.070125 
1384.000000	99.070361 
1383.000000	99.071580 
1382.000000	99.072692 
1381.000000	99.073810 
1380.000000	99.076070 
1379.000000	99.080484 
1378.000000	99.087013 
1377.000000	99.094828 
1376.000000	99.102979 
1375.000000	99.110729 
1374.000000	99.117734 
1373.000000	99.124646 
1372.000000	99.132288 
1371.000000	99.140324 
1370.000000	99.147503 
1369.000000	99.153226 
1368.000000	99.158271 
1367.000000	99.163505 
1366.000000	99.169180 
1365.000000	99.175397 
1364.000000	99.182425 
1363.000000	99.189850 
1362.000000	99.196261 
1361.000000	99.200768 
1360.000000	99.204199 
1359.000000	99.208363 
1358.000000	99.214552 
1357.000000	99.222598 
1356.000000	99.230882 
1355.000000	99.237372 
1354.000000	99.241531 
1353.000000	99.244940 
1352.000000	99.249045 
1351.000000	99.253337 
1350.000000	99.256080 
1349.000000	99.257037 
1348.000000	99.257820 
1347.000000	99.259550 
1346.000000	99.262069 
1345.000000	99.264623 
1344.000000	99.266751 
1343.000000	99.268017 
1342.000000	99.268303 
1341.000000	99.268583 
1340.000000	99.270361 
1339.000000	99.273595 
1338.000000	99.276539 
1337.000000	99.278140 
1336.000000	99.279082 
1335.000000	99.280312 
1334.000000	99.281843 
1333.000000	99.283256 
1332.000000	99.284397 
1331.000000	99.285074 
1330.000000	99.284926 
1329.000000	99.284245 
1328.000000	99.284078 
1327.000000	99.284850 
1326.000000	99.285457 
1325.000000	99.284749 
1324.000000	99.283180 
1323.000000	99.281974 
1322.000000	99.281700 
1321.000000	99.282401 
1320.000000	99.284503 
1319.000000	99.288288 
1318.000000	99.292599 
1317.000000	99.295143 
1316.000000	99.294532 
1315.000000	99.291580 
1314.000000	99.288501 
1313.000000	99.286868 
1312.000000	99.286440 
1311.000000	99.286052 
1310.000000	99.285328 
1309.000000	99.285070 
1308.000000	99.285878 
1307.000000	99.287068 
1306.000000	99.287358 
1305.000000	99.286581 
1304.000000	99.286050 
1303.000000	99.286935 
1302.000000	99.288940 
1301.000000	99.290686 
1300.000000	99.291173 
1299.000000	99.290639 
1298.000000	99.290258 
1297.000000	99.290919 
1296.000000	99.292179 
1295.000000	99.292511 
1294.000000	99.290795 
1293.000000	99.287463 
1292.000000	99.283958 
1291.000000	99.281509 
1290.000000	99.280700 
1289.000000	99.281660 
1288.000000	99.283745 
1287.000000	99.285240 
1286.000000	99.284460 
1285.000000	99.281298 
1284.000000	99.277059 
1283.000000	99.272999 
1282.000000	99.269191 
1281.000000	99.264866 
1280.000000	99.259720 
1279.000000	99.254308 
1278.000000	99.249428 
1277.000000	99.245627 
1276.000000	99.242924 
1275.000000	99.240577 
1274.000000	99.237317 
1273.000000	99.232362 
1272.000000	99.226204 
1271.000000	99.220125 
1270.000000	99.214911 
1269.000000	99.210246 
1268.000000	99.205367 
1267.000000	99.199853 
1266.000000	99.193712 
1265.000000	99.187113 
1264.000000	99.180335 
1263.000000	99.173794 
1262.000000	99.167788 
1261.000000	99.162284 
1260.000000	99.157275 
1259.000000	99.153069 
1258.000000	99.149832 
1257.000000	99.147108 
1256.000000	99.144347 
1255.000000	99.141869 
1254.000000	99.140524 
1253.000000	99.140262 
1252.000000	99.139844 
1251.000000	99.138472 
1250.000000	99.137087 
1249.000000	99.137349 
1248.000000	99.139707 
1247.000000	99.142891 
1246.000000	99.144822 
1245.000000	99.143525 
1244.000000	99.138005 
1243.000000	99.129731 
1242.000000	99.123115 
1241.000000	99.122452 
1240.000000	99.127974 
1239.000000	99.135235 
1238.000000	99.139134 
1237.000000	99.138453 
1236.000000	99.135372 
1235.000000	99.131979 
1234.000000	99.128531 
1233.000000	99.124650 
1232.000000	99.120387 
1231.000000	99.115789 
1230.000000	99.110927 
1229.000000	99.106923 
1228.000000	99.105729 
1227.000000	99.108052 
1226.000000	99.112162 
1225.000000	99.115445 
1224.000000	99.116740 
1223.000000	99.116690 
1222.000000	99.116489 
1221.000000	99.117002 
1220.000000	99.118709 
1219.000000	99.121705 
1218.000000	99.125582 
1217.000000	99.129494 
1216.000000	99.132396 
1215.000000	99.133435 
1214.000000	99.132424 
1213.000000	99.129851 
1212.000000	99.126213 
1211.000000	99.121802 
1210.000000	99.117577 
1209.000000	99.115440 
1208.000000	99.116412 
1207.000000	99.118731 
1206.000000	99.119111 
1205.000000	99.116130 
1204.000000	99.111323 
1203.000000	99.106914 
1202.000000	99.103667 
1201.000000	99.101239 
1200.000000	99.099251 
1199.000000	99.097114 
1198.000000	99.093865 
1197.000000	99.089024 
1196.000000	99.082674 
1195.000000	99.074657 
1194.000000	99.064947 
1193.000000	99.054766 
1192.000000	99.046249 
1191.000000	99.040277 
1190.000000	99.035362 
1189.000000	99.029489 
1188.000000	99.022378 
1187.000000	99.015251 
1186.000000	99.009107 
1185.000000	99.003978 
1184.000000	98.999281 
1183.000000	98.994034 
1182.000000	98.987236 
1181.000000	98.978907 
1180.000000	98.970458 
1179.000000	98.963313 
1178.000000	98.957400 
1177.000000	98.951567 
1176.000000	98.944975 
1175.000000	98.937265 
1174.000000	98.927802 
1173.000000	98.915996 
1172.000000	98.902575 
1171.000000	98.889648 
1170.000000	98.878991 
1169.000000	98.870626 
1168.000000	98.863178 
1167.000000	98.855349 
1166.000000	98.847190 
1165.000000	98.840365 
1164.000000	98.837069 
1163.000000	98.838149 
1162.000000	98.842218 
1161.000000	98.847024 
1160.000000	98.851503 
1159.000000	98.855660 
1158.000000	98.858435 
1157.000000	98.856866 
1156.000000	98.848370 
1155.000000	98.833841 
1154.000000	98.818060 
1153.000000	98.806336 
1152.000000	98.800282 
1151.000000	98.796793 
1150.000000	98.791137 
1149.000000	98.781172 
1148.000000	98.768737 
1147.000000	98.757224 
1146.000000	98.748045 
1145.000000	98.739543 
1144.000000	98.728900 
1143.000000	98.714678 
1142.000000	98.697841 
1141.000000	98.681034 
1140.000000	98.666886 
1139.000000	98.656336 
1138.000000	98.648063 
1137.000000	98.639669 
1136.000000	98.629681 
1135.000000	98.618300 
1134.000000	98.606139 
1133.000000	98.592649 
1132.000000	98.576503 
1131.000000	98.557753 
1130.000000	98.539092 
1129.000000	98.524060 
1128.000000	98.513550 
1127.000000	98.504423 
1126.000000	98.492163 
1125.000000	98.475063 
1124.000000	98.455528 
1123.000000	98.437295 
1122.000000	98.421807 
1121.000000	98.407547 
1120.000000	98.392358 
1119.000000	98.375605 
1118.000000	98.358202 
1117.000000	98.341220 
1116.000000	98.324748 
1115.000000	98.307894 
1114.000000	98.289754 
1113.000000	98.270487 
1112.000000	98.251235 
1111.000000	98.232644 
1110.000000	98.213616 
1109.000000	98.192407 
1108.000000	98.169205 
1107.000000	98.146649 
1106.000000	98.127134 
1105.000000	98.110163 
1104.000000	98.092950 
1103.000000	98.073610 
1102.000000	98.053164 
1101.000000	98.034105 
1100.000000	98.017564 
1099.000000	98.002685 
1098.000000	97.988515 
1097.000000	97.975268 
1096.000000	97.963166 
1095.000000	97.950594 
1094.000000	97.934427 
1093.000000	97.912134 
1092.000000	97.883030 
1091.000000	97.848102 
1090.000000	97.809848 
1089.000000	97.772073 
1088.000000	97.738217 
1087.000000	97.708949 
1086.000000	97.681977 
1085.000000	97.654764 
1084.000000	97.626789 
1083.000000	97.598692 
1082.000000	97.570396 
1081.000000	97.541363 
1080.000000	97.512051 
1079.000000	97.483731 
1078.000000	97.457143 
1077.000000	97.432636 
1076.000000	97.411382 
1075.000000	97.395028 
1074.000000	97.384096 
1073.000000	97.377478 
1072.000000	97.372423 
1071.000000	97.363281 
1070.000000	97.341787 
1069.000000	97.302830 
1068.000000	97.251978 
1067.000000	97.205276 
1066.000000	97.178015 
1065.000000	97.173338 
1064.000000	97.181777 
1063.000000	97.189514 
1062.000000	97.186089 
1061.000000	97.166446 
1060.000000	97.130848 
1059.000000	97.086106 
1058.000000	97.044415 
1057.000000	97.016216 
1056.000000	97.002631 
1055.000000	96.995720 
1054.000000	96.986578 
1053.000000	96.972713 
1052.000000	96.957285 
1051.000000	96.943180 
1050.000000	96.930009 
1049.000000	96.916016 
1048.000000	96.900413 
1047.000000	96.884006 
1046.000000	96.869491 
1045.000000	96.860501 
1044.000000	96.858108 
1043.000000	96.858589 
1042.000000	96.856952 
1041.000000	96.852545 
1040.000000	96.848830 
1039.000000	96.848428 
1038.000000	96.851975 
1037.000000	96.861467 
1036.000000	96.879884 
1035.000000	96.905962 
1034.000000	96.933268 
1033.000000	96.956103 
1032.000000	96.972401 
1031.000000	96.979779 
1030.000000	96.975253 
1029.000000	96.963287 
1028.000000	96.958930 
1027.000000	96.975635 
1026.000000	97.010884 
1025.000000	97.048375 
1024.000000	97.074140 
1023.000000	97.086569 
1022.000000	97.092075 
1021.000000	97.096772 
1020.000000	97.103474 
1019.000000	97.112554 
1018.000000	97.122941 
1017.000000	97.133616 
1016.000000	97.145087 
1015.000000	97.158356 
1014.000000	97.172719 
1013.000000	97.186165 
1012.000000	97.197717 
1011.000000	97.207873 
1010.000000	97.217373 
1009.000000	97.227226 
1008.000000	97.239307 
1007.000000	97.255000 
1006.000000	97.273512 
1005.000000	97.292966 
1004.000000	97.312597 
1003.000000	97.332495 
1002.000000	97.352162 
1001.000000	97.371043 
1000.000000	97.389670 
999.000000	 97.408504 
998.000000	 97.426511 
997.000000	 97.442856 
996.000000	 97.459310 
995.000000	 97.478654 
994.000000	 97.500828 
993.000000	 97.522722 
992.000000	 97.541917 
991.000000	 97.558753 
990.000000	 97.574558 
989.000000	 97.589858 
988.000000	 97.604881 
987.000000	 97.620256 
986.000000	 97.636751 
985.000000	 97.655398 
984.000000	 97.677313 
983.000000	 97.701976 
982.000000	 97.726927 
981.000000	 97.750288 
980.000000	 97.772821 
979.000000	 97.796607 
978.000000	 97.822520 
977.000000	 97.850297 
976.000000	 97.879826 
975.000000	 97.910463 
974.000000	 97.940248 
973.000000	 97.968081 
972.000000	 97.995854 
971.000000	 98.026268 
970.000000	 98.059017 
969.000000	 98.091034 
968.000000	 98.119958 
967.000000	 98.145577 
966.000000	 98.168602 
965.000000	 98.190019 
964.000000	 98.211286 
963.000000	 98.233596 
962.000000	 98.257090 
961.000000	 98.281569 
960.000000	 98.306865 
959.000000	 98.331383 
958.000000	 98.351980 
957.000000	 98.367352 
956.000000	 98.380447 
955.000000	 98.395448 
954.000000	 98.413065 
953.000000	 98.430733 
952.000000	 98.446542 
951.000000	 98.460608 
950.000000	 98.473081 
949.000000	 98.483246 
948.000000	 98.490736 
947.000000	 98.495783 
946.000000	 98.498178 
945.000000	 98.497571 
944.000000	 98.495181 
943.000000	 98.494171 
942.000000	 98.497910 
941.000000	 98.507830 
940.000000	 98.521996 
939.000000	 98.535229 
938.000000	 98.542467 
937.000000	 98.543632 
936.000000	 98.544086 
935.000000	 98.548829 
934.000000	 98.557498 
933.000000	 98.566809 
932.000000	 98.576079 
931.000000	 98.587342 
930.000000	 98.600699 
929.000000	 98.612536 
928.000000	 98.618734 
927.000000	 98.617940 
926.000000	 98.612057 
925.000000	 98.605502 
924.000000	 98.603556 
923.000000	 98.608942 
922.000000	 98.619260 
921.000000	 98.629055 
920.000000	 98.634566 
919.000000	 98.635389 
918.000000	 98.632460 
917.000000	 98.626936 
916.000000	 98.621103 
915.000000	 98.617884 
914.000000	 98.618261 
913.000000	 98.620622 
912.000000	 98.623480 
911.000000	 98.627657 
910.000000	 98.635028 
909.000000	 98.646105 
908.000000	 98.659540 
907.000000	 98.673217 
906.000000	 98.685328 
905.000000	 98.695009 
904.000000	 98.702630 
903.000000	 98.709668 
902.000000	 98.718326 
901.000000	 98.730797 
900.000000	 98.747705 
899.000000	 98.766557 
898.000000	 98.782699 
897.000000	 98.793047 
896.000000	 98.798406 
895.000000	 98.801745 
894.000000	 98.805375 
893.000000	 98.810602 
892.000000	 98.818830 
891.000000	 98.831050 
890.000000	 98.846489 
889.000000	 98.863105 
888.000000	 98.879224 
887.000000	 98.893865 
886.000000	 98.906415 
885.000000	 98.917459 
884.000000	 98.928972 
883.000000	 98.941636 
882.000000	 98.952514 
881.000000	 98.958059 
880.000000	 98.959719 
879.000000	 98.964099 
878.000000	 98.976164 
877.000000	 98.994142 
876.000000	 99.011994 
875.000000	 99.025335 
874.000000	 99.033705 
873.000000	 99.038888 
872.000000	 99.043242 
871.000000	 99.048928 
870.000000	 99.056799 
869.000000	 99.065953 
868.000000	 99.075310 
867.000000	 99.085232 
866.000000	 99.096644 
865.000000	 99.109265 
864.000000	 99.122109 
863.000000	 99.135440 
862.000000	 99.150443 
861.000000	 99.166427 
860.000000	 99.179968 
859.000000	 99.188140 
858.000000	 99.191818 
857.000000	 99.194673 
856.000000	 99.199637 
855.000000	 99.207740 
854.000000	 99.219306 
853.000000	 99.233538 
852.000000	 99.246895 
851.000000	 99.255133 
850.000000	 99.258438 
849.000000	 99.261940 
848.000000	 99.269215 
847.000000	 99.277640 
846.000000	 99.282517 
845.000000	 99.283363 
844.000000	 99.283164 
843.000000	 99.283637 
842.000000	 99.285063 
841.000000	 99.288994 
840.000000	 99.296214 
839.000000	 99.302524 
838.000000	 99.301697 
837.000000	 99.293254 
836.000000	 99.282950 
835.000000	 99.275011 
834.000000	 99.268657 
833.000000	 99.263432 
832.000000	 99.261929 
831.000000	 99.263784 
830.000000	 99.262429 
829.000000	 99.253558 
828.000000	 99.243638 
827.000000	 99.243836 
826.000000	 99.256440 
825.000000	 99.272510 
824.000000	 99.282337 
823.000000	 99.283453 
822.000000	 99.279482 
821.000000	 99.276355 
820.000000	 99.279168 
819.000000	 99.288311 
818.000000	 99.298335 
817.000000	 99.303191 
816.000000	 99.301822 
815.000000	 99.296637 
814.000000	 99.288645 
813.000000	 99.277465 
812.000000	 99.264296 
811.000000	 99.250129 
810.000000	 99.231310 
809.000000	 99.201561 
808.000000	 99.159517 
807.000000	 99.111043 
806.000000	 99.062957 
805.000000	 99.017378 
804.000000	 98.973936 
803.000000	 98.934697 
802.000000	 98.904216 
801.000000	 98.885691 
800.000000	 98.878525 
799.000000	 98.879082 
798.000000	 98.883512 
797.000000	 98.890229 
796.000000	 98.899103 
795.000000	 98.908398 
794.000000	 98.914841 
793.000000	 98.917859 
792.000000	 98.921146 
791.000000	 98.927855 
790.000000	 98.936503 
789.000000	 98.943845 
788.000000	 98.948784 
787.000000	 98.949955 
786.000000	 98.942472 
785.000000	 98.922383 
784.000000	 98.893632 
783.000000	 98.866109 
782.000000	 98.846676 
781.000000	 98.835663 
780.000000	 98.831090 
779.000000	 98.831299 
778.000000	 98.833353 
777.000000	 98.834160 
776.000000	 98.835189 
775.000000	 98.842330 
774.000000	 98.859033 
773.000000	 98.882167 
772.000000	 98.906012 
771.000000	 98.927672 
770.000000	 98.947279 
769.000000	 98.965079 
768.000000	 98.979944 
767.000000	 98.990128 
766.000000	 98.995347 
765.000000	 98.998692 
764.000000	 99.005268 
763.000000	 99.016920 
762.000000	 99.029046 
761.000000	 99.035072 
760.000000	 99.033804 
759.000000	 99.030476 
758.000000	 99.031124 
757.000000	 99.037668 
756.000000	 99.047516 
755.000000	 99.055297 
754.000000	 99.055897 
753.000000	 99.049210 
752.000000	 99.042333 
751.000000	 99.044211 
750.000000	 99.057162 
749.000000	 99.075188 
748.000000	 99.090644 
747.000000	 99.100872 
746.000000	 99.107867 
745.000000	 99.114136 
744.000000	 99.120584 
743.000000	 99.127281 
742.000000	 99.134605 
741.000000	 99.143516 
740.000000	 99.154890 
739.000000	 99.168386 
738.000000	 99.182087 
737.000000	 99.193606 
736.000000	 99.201141 
735.000000	 99.203602 
734.000000	 99.201516 
733.000000	 99.198802 
732.000000	 99.201703 
731.000000	 99.213242 
730.000000	 99.229032 
729.000000	 99.240975 
728.000000	 99.245460 
727.000000	 99.245563 
726.000000	 99.245631 
725.000000	 99.246654 
724.000000	 99.247539 
723.000000	 99.247786 
722.000000	 99.247836 
721.000000	 99.249140 
720.000000	 99.254311 
719.000000	 99.264578 
718.000000	 99.276825 
717.000000	 99.286092 
716.000000	 99.290788 
715.000000	 99.292371 
714.000000	 99.291073 
713.000000	 99.286125 
712.000000	 99.280820 
711.000000	 99.282058 
710.000000	 99.291729 
709.000000	 99.302357 
708.000000	 99.304558 
707.000000	 99.296395 
706.000000	 99.282977 
705.000000	 99.269853 
704.000000	 99.259303 
703.000000	 99.251620 
702.000000	 99.246974 
701.000000	 99.244792 
700.000000	 99.242895 
699.000000	 99.238224 
698.000000	 99.229224 
697.000000	 99.218569 
696.000000	 99.212283 
695.000000	 99.214130 
694.000000	 99.221713 
693.000000	 99.229510 
692.000000	 99.235078 
691.000000	 99.240188 
690.000000	 99.246692 
689.000000	 99.254407 
688.000000	 99.262568 
687.000000	 99.270255 
686.000000	 99.275334 
685.000000	 99.275774 
684.000000	 99.272528 
683.000000	 99.269319 
682.000000	 99.269057 
681.000000	 99.271798 
680.000000	 99.275707 
679.000000	 99.278561 
678.000000	 99.278723 
677.000000	 99.276420 
676.000000	 99.274585 
675.000000	 99.276048 
674.000000	 99.280101 
673.000000	 99.283408 
672.000000	 99.284212 
671.000000	 99.284064 
670.000000	 99.285403 
669.000000	 99.288943 
668.000000	 99.292001 
667.000000	 99.292150 
666.000000	 99.290219 
665.000000	 99.287588 
664.000000	 99.285788 
663.000000	 99.286448 
662.000000	 99.289662 
661.000000	 99.293094 
660.000000	 99.294033 
659.000000	 99.292316 
658.000000	 99.289568 
657.000000	 99.287554 
656.000000	 99.286614 
655.000000	 99.286514 
654.000000	 99.286979 
653.000000	 99.287572 
652.000000	 99.287909 
651.000000	 99.287931 
650.000000	 99.287733 

