4000.000000	99.437206 
3999.000000	99.436699 
3998.000000	99.436318 
3997.000000	99.436284 
3996.000000	99.436723 
3995.000000	99.437628 
3994.000000	99.438806 
3993.000000	99.439893 
3992.000000	99.440496 
3991.000000	99.440377 
3990.000000	99.439570 
3989.000000	99.438411 
3988.000000	99.437330 
3987.000000	99.436544 
3986.000000	99.435975 
3985.000000	99.435431 
3984.000000	99.434763 
3983.000000	99.433930 
3982.000000	99.433066 
3981.000000	99.432471 
3980.000000	99.432348 
3979.000000	99.432617 
3978.000000	99.433129 
3977.000000	99.433958 
3976.000000	99.435236 
3975.000000	99.436661 
3974.000000	99.437460 
3973.000000	99.437028 
3972.000000	99.435446 
3971.000000	99.433378 
3970.000000	99.431546 
3969.000000	99.430348 
3968.000000	99.429837 
3967.000000	99.429846 
3966.000000	99.430194 
3965.000000	99.430815 
3964.000000	99.431612 
3963.000000	99.432223 
3962.000000	99.432115 
3961.000000	99.431021 
3960.000000	99.429245 
3959.000000	99.427479 
3958.000000	99.426291 
3957.000000	99.425812 
3956.000000	99.425860 
3955.000000	99.426238 
3954.000000	99.426970 
3953.000000	99.428193 
3952.000000	99.429791 
3951.000000	99.431209 
3950.000000	99.431813 
3949.000000	99.431484 
3948.000000	99.430713 
3947.000000	99.430074 
3946.000000	99.429763 
3945.000000	99.429670 
3944.000000	99.429628 
3943.000000	99.429464 
3942.000000	99.429101 
3941.000000	99.428704 
3940.000000	99.428561 
3939.000000	99.428823 
3938.000000	99.429384 
3937.000000	99.430015 
3936.000000	99.430535 
3935.000000	99.430817 
3934.000000	99.430795 
3933.000000	99.430533 
3932.000000	99.430290 
3931.000000	99.430349 
3930.000000	99.430815 
3929.000000	99.431596 
3928.000000	99.432352 
3927.000000	99.432545 
3926.000000	99.431773 
3925.000000	99.430133 
3924.000000	99.428228 
3923.000000	99.426707 
3922.000000	99.425739 
3921.000000	99.425136 
3920.000000	99.424758 
3919.000000	99.424608 
3918.000000	99.424781 
3917.000000	99.425403 
3916.000000	99.426537 
3915.000000	99.427956 
3914.000000	99.429142 
3913.000000	99.429647 
3912.000000	99.429438 
3911.000000	99.428896 
3910.000000	99.428387 
3909.000000	99.427958 
3908.000000	99.427439 
3907.000000	99.426706 
3906.000000	99.425906 
3905.000000	99.425326 
3904.000000	99.425162 
3903.000000	99.425441 
3902.000000	99.426085 
3901.000000	99.426983 
3900.000000	99.427956 
3899.000000	99.428691 
3898.000000	99.428953 
3897.000000	99.428756 
3896.000000	99.428302 
3895.000000	99.427836 
3894.000000	99.427509 
3893.000000	99.427361 
3892.000000	99.427390 
3891.000000	99.427576 
3890.000000	99.427850 
3889.000000	99.428067 
3888.000000	99.428142 
3887.000000	99.428149 
3886.000000	99.428207 
3885.000000	99.428262 
3884.000000	99.428138 
3883.000000	99.427774 
3882.000000	99.427375 
3881.000000	99.427283 
3880.000000	99.427607 
3879.000000	99.428107 
3878.000000	99.428453 
3877.000000	99.428587 
3876.000000	99.428702 
3875.000000	99.428952 
3874.000000	99.429280 
3873.000000	99.429518 
3872.000000	99.429598 
3871.000000	99.429606 
3870.000000	99.429672 
3869.000000	99.429831 
3868.000000	99.429994 
3867.000000	99.430067 
3866.000000	99.430076 
3865.000000	99.430145 
3864.000000	99.430347 
3863.000000	99.430625 
3862.000000	99.430851 
3861.000000	99.430995 
3860.000000	99.431140 
3859.000000	99.431363 
3858.000000	99.431641 
3857.000000	99.431860 
3856.000000	99.431910 
3855.000000	99.431795 
3854.000000	99.431558 
3853.000000	99.431266 
3852.000000	99.431076 
3851.000000	99.431080 
3850.000000	99.431216 
3849.000000	99.431406 
3848.000000	99.431595 
3847.000000	99.431761 
3846.000000	99.431892 
3845.000000	99.432004 
3844.000000	99.432140 
3843.000000	99.432289 
3842.000000	99.432331 
3841.000000	99.432160 
3840.000000	99.431806 
3839.000000	99.431465 
3838.000000	99.431363 
3837.000000	99.431545 
3836.000000	99.431821 
3835.000000	99.431921 
3834.000000	99.431693 
3833.000000	99.431193 
3832.000000	99.430669 
3831.000000	99.430372 
3830.000000	99.430372 
3829.000000	99.430574 
3828.000000	99.430905 
3827.000000	99.431381 
3826.000000	99.431931 
3825.000000	99.432323 
3824.000000	99.432339 
3823.000000	99.432002 
3822.000000	99.431596 
3821.000000	99.431369 
3820.000000	99.431312 
3819.000000	99.431292 
3818.000000	99.431270 
3817.000000	99.431401 
3816.000000	99.431815 
3815.000000	99.432360 
3814.000000	99.432749 
3813.000000	99.432893 
3812.000000	99.432934 
3811.000000	99.433050 
3810.000000	99.433242 
3809.000000	99.433370 
3808.000000	99.433385 
3807.000000	99.433419 
3806.000000	99.433556 
3805.000000	99.433681 
3804.000000	99.433638 
3803.000000	99.433481 
3802.000000	99.433360 
3801.000000	99.433227 
3800.000000	99.432935 
3799.000000	99.432509 
3798.000000	99.432237 
3797.000000	99.432438 
3796.000000	99.433117 
3795.000000	99.433891 
3794.000000	99.434341 
3793.000000	99.434407 
3792.000000	99.434311 
3791.000000	99.434283 
3790.000000	99.434327 
3789.000000	99.434299 
3788.000000	99.434156 
3787.000000	99.434029 
3786.000000	99.434087 
3785.000000	99.434332 
3784.000000	99.434532 
3783.000000	99.434460 
3782.000000	99.434178 
3781.000000	99.434047 
3780.000000	99.434383 
3779.000000	99.435056 
3778.000000	99.435531 
3777.000000	99.435414 
3776.000000	99.434821 
3775.000000	99.434252 
3774.000000	99.434085 
3773.000000	99.434295 
3772.000000	99.434702 
3771.000000	99.435241 
3770.000000	99.435798 
3769.000000	99.436048 
3768.000000	99.435663 
3767.000000	99.434641 
3766.000000	99.433436 
3765.000000	99.432589 
3764.000000	99.432234 
3763.000000	99.432056 
3762.000000	99.431700 
3761.000000	99.431159 
3760.000000	99.430654 
3759.000000	99.430445 
3758.000000	99.430600 
3757.000000	99.430908 
3756.000000	99.431023 
3755.000000	99.430658 
3754.000000	99.429832 
3753.000000	99.428946 
3752.000000	99.428413 
3751.000000	99.428038 
3750.000000	99.427102 
3749.000000	99.425145 
3748.000000	99.422198 
3747.000000	99.418918 
3746.000000	99.416974 
3745.000000	99.417887 
3744.000000	99.421121 
3743.000000	99.424095 
3742.000000	99.425253 
3741.000000	99.425489 
3740.000000	99.426482 
3739.000000	99.428736 
3738.000000	99.431010 
3737.000000	99.431526 
3736.000000	99.429882 
3735.000000	99.427243 
3734.000000	99.425047 
3733.000000	99.423884 
3732.000000	99.423528 
3731.000000	99.423294 
3730.000000	99.422249 
3729.000000	99.420068 
3728.000000	99.417851 
3727.000000	99.417175 
3726.000000	99.418056 
3725.000000	99.418691 
3724.000000	99.417853 
3723.000000	99.416439 
3722.000000	99.416086 
3721.000000	99.417111 
3720.000000	99.418265 
3719.000000	99.418585 
3718.000000	99.418354 
3717.000000	99.417946 
3716.000000	99.416931 
3715.000000	99.414434 
3714.000000	99.410339 
3713.000000	99.405817 
3712.000000	99.401960 
3711.000000	99.398606 
3710.000000	99.395111 
3709.000000	99.391717 
3708.000000	99.389371 
3707.000000	99.388455 
3706.000000	99.388361 
3705.000000	99.388081 
3704.000000	99.387201 
3703.000000	99.386218 
3702.000000	99.385680 
3701.000000	99.385305 
3700.000000	99.384113 
3699.000000	99.381357 
3698.000000	99.377484 
3697.000000	99.373802 
3696.000000	99.371280 
3695.000000	99.369868 
3694.000000	99.369047 
3693.000000	99.368780 
3692.000000	99.369370 
3691.000000	99.370432 
3690.000000	99.370399 
3689.000000	99.368462 
3688.000000	99.366190 
3687.000000	99.365460 
3686.000000	99.366220 
3685.000000	99.367198 
3684.000000	99.367319 
3683.000000	99.366389 
3682.000000	99.364965 
3681.000000	99.363649 
3680.000000	99.362454 
3679.000000	99.360431 
3678.000000	99.356526 
3677.000000	99.350927 
3676.000000	99.345060 
3675.000000	99.340360 
3674.000000	99.337071 
3673.000000	99.334481 
3672.000000	99.332404 
3671.000000	99.331861 
3670.000000	99.332882 
3669.000000	99.333550 
3668.000000	99.332546 
3667.000000	99.330442 
3666.000000	99.328520 
3665.000000	99.327291 
3664.000000	99.325869 
3663.000000	99.322933 
3662.000000	99.318022 
3661.000000	99.311978 
3660.000000	99.306492 
3659.000000	99.303112 
3658.000000	99.302558 
3657.000000	99.303966 
3656.000000	99.304955 
3655.000000	99.303423 
3654.000000	99.298693 
3653.000000	99.291531 
3652.000000	99.283941 
3651.000000	99.278179 
3650.000000	99.274256 
3649.000000	99.269570 
3648.000000	99.263109 
3647.000000	99.257254 
3646.000000	99.254620 
3645.000000	99.255480 
3644.000000	99.257977 
3643.000000	99.259689 
3642.000000	99.258907 
3641.000000	99.255370 
3640.000000	99.250384 
3639.000000	99.245552 
3638.000000	99.241154 
3637.000000	99.235965 
3636.000000	99.229299 
3635.000000	99.222708 
3634.000000	99.218553 
3633.000000	99.216996 
3632.000000	99.215481 
3631.000000	99.211609 
3630.000000	99.205788 
3629.000000	99.199623 
3628.000000	99.193459 
3627.000000	99.187130 
3626.000000	99.180906 
3625.000000	99.176183 
3624.000000	99.174690 
3623.000000	99.176760 
3622.000000	99.181219 
3621.000000	99.186597 
3620.000000	99.191648 
3619.000000	99.195352 
3618.000000	99.197554 
3617.000000	99.198923 
3616.000000	99.200220 
3615.000000	99.202079 
3614.000000	99.204936 
3613.000000	99.209057 
3612.000000	99.214752 
3611.000000	99.222038 
3610.000000	99.230082 
3609.000000	99.237146 
3608.000000	99.241338 
3607.000000	99.242444 
3606.000000	99.242282 
3605.000000	99.242745 
3604.000000	99.244201 
3603.000000	99.245544 
3602.000000	99.245774 
3601.000000	99.245331 
3600.000000	99.245549 
3599.000000	99.247128 
3598.000000	99.249593 
3597.000000	99.252188 
3596.000000	99.255114 
3595.000000	99.259016 
3594.000000	99.263434 
3593.000000	99.266747 
3592.000000	99.267558 
3591.000000	99.265939 
3590.000000	99.263479 
3589.000000	99.261923 
3588.000000	99.261355 
3587.000000	99.260647 
3586.000000	99.259602 
3585.000000	99.258969 
3584.000000	99.259203 
3583.000000	99.260278 
3582.000000	99.262115 
3581.000000	99.264334 
3580.000000	99.265961 
3579.000000	99.265917 
3578.000000	99.263961 
3577.000000	99.260965 
3576.000000	99.258125 
3575.000000	99.256110 
3574.000000	99.254909 
3573.000000	99.254376 
3572.000000	99.254515 
3571.000000	99.255335 
3570.000000	99.256693 
3569.000000	99.258286 
3568.000000	99.259537 
3567.000000	99.259733 
3566.000000	99.258738 
3565.000000	99.257269 
3564.000000	99.256257 
3563.000000	99.256220 
3562.000000	99.257054 
3561.000000	99.258134 
3560.000000	99.258695 
3559.000000	99.258328 
3558.000000	99.257209 
3557.000000	99.255971 
3556.000000	99.255330 
3555.000000	99.255667 
3554.000000	99.256779 
3553.000000	99.257903 
3552.000000	99.258209 
3551.000000	99.257405 
3550.000000	99.255815 
3549.000000	99.254067 
3548.000000	99.252678 
3547.000000	99.251819 
3546.000000	99.251347 
3545.000000	99.251010 
3544.000000	99.250716 
3543.000000	99.250620 
3542.000000	99.250943 
3541.000000	99.251717 
3540.000000	99.252665 
3539.000000	99.253335 
3538.000000	99.253406 
3537.000000	99.252858 
3536.000000	99.251942 
3535.000000	99.250960 
3534.000000	99.250063 
3533.000000	99.249165 
3532.000000	99.247993 
3531.000000	99.246320 
3530.000000	99.244248 
3529.000000	99.242302 
3528.000000	99.241050 
3527.000000	99.240608 
3526.000000	99.240685 
3525.000000	99.241129 
3524.000000	99.242123 
3523.000000	99.243731 
3522.000000	99.245544 
3521.000000	99.247039 
3520.000000	99.248162 
3519.000000	99.249264 
3518.000000	99.250458 
3517.000000	99.251270 
3516.000000	99.251142 
3515.000000	99.250172 
3514.000000	99.249133 
3513.000000	99.248695 
3512.000000	99.248769 
3511.000000	99.248673 
3510.000000	99.247859 
3509.000000	99.246344 
3508.000000	99.244483 
3507.000000	99.242525 
3506.000000	99.240586 
3505.000000	99.238916 
3504.000000	99.237919 
3503.000000	99.237859 
3502.000000	99.238688 
3501.000000	99.240094 
3500.000000	99.241546 
3499.000000	99.242370 
3498.000000	99.242074 
3497.000000	99.240725 
3496.000000	99.238971 
3495.000000	99.237551 
3494.000000	99.236748 
3493.000000	99.236391 
3492.000000	99.236197 
3491.000000	99.235950 
3490.000000	99.235467 
3489.000000	99.234646 
3488.000000	99.233603 
3487.000000	99.232680 
3486.000000	99.232199 
3485.000000	99.232212 
3484.000000	99.232471 
3483.000000	99.232574 
3482.000000	99.232216 
3481.000000	99.231389 
3480.000000	99.230361 
3479.000000	99.229453 
3478.000000	99.228813 
3477.000000	99.228443 
3476.000000	99.228334 
3475.000000	99.228446 
3474.000000	99.228546 
3473.000000	99.228240 
3472.000000	99.227295 
3471.000000	99.225845 
3470.000000	99.224284 
3469.000000	99.222946 
3468.000000	99.221937 
3467.000000	99.221229 
3466.000000	99.220734 
3465.000000	99.220285 
3464.000000	99.219698 
3463.000000	99.218944 
3462.000000	99.218217 
3461.000000	99.217741 
3460.000000	99.217552 
3459.000000	99.217513 
3458.000000	99.217497 
3457.000000	99.217418 
3456.000000	99.217137 
3455.000000	99.216486 
3454.000000	99.215469 
3453.000000	99.214323 
3452.000000	99.213278 
3451.000000	99.212335 
3450.000000	99.211379 
3449.000000	99.210455 
3448.000000	99.209748 
3447.000000	99.209272 
3446.000000	99.208735 
3445.000000	99.207902 
3444.000000	99.206971 
3443.000000	99.206382 
3442.000000	99.206247 
3441.000000	99.206134 
3440.000000	99.205538 
3439.000000	99.204446 
3438.000000	99.203329 
3437.000000	99.202662 
3436.000000	99.202578 
3435.000000	99.202880 
3434.000000	99.203248 
3433.000000	99.203425 
3432.000000	99.203286 
3431.000000	99.202839 
3430.000000	99.202196 
3429.000000	99.201569 
3428.000000	99.201212 
3427.000000	99.201298 
3426.000000	99.201777 
3425.000000	99.202360 
3424.000000	99.202690 
3423.000000	99.202540 
3422.000000	99.201899 
3421.000000	99.200959 
3420.000000	99.200040 
3419.000000	99.199431 
3418.000000	99.199234 
3417.000000	99.199337 
3416.000000	99.199466 
3415.000000	99.199274 
3414.000000	99.198502 
3413.000000	99.197205 
3412.000000	99.195855 
3411.000000	99.195026 
3410.000000	99.194860 
3409.000000	99.194970 
3408.000000	99.194885 
3407.000000	99.194560 
3406.000000	99.194297 
3405.000000	99.194297 
3404.000000	99.194484 
3403.000000	99.194740 
3402.000000	99.195127 
3401.000000	99.195781 
3400.000000	99.196634 
3399.000000	99.197348 
3398.000000	99.197534 
3397.000000	99.197048 
3396.000000	99.196071 
3395.000000	99.195016 
3394.000000	99.194304 
3393.000000	99.194178 
3392.000000	99.194636 
3391.000000	99.195424 
3390.000000	99.196139 
3389.000000	99.196490 
3388.000000	99.196477 
3387.000000	99.196317 
3386.000000	99.196217 
3385.000000	99.196250 
3384.000000	99.196446 
3383.000000	99.196836 
3382.000000	99.197317 
3381.000000	99.197607 
3380.000000	99.197511 
3379.000000	99.197204 
3378.000000	99.197080 
3377.000000	99.197313 
3376.000000	99.197697 
3375.000000	99.197968 
3374.000000	99.198134 
3373.000000	99.198346 
3372.000000	99.198600 
3371.000000	99.198778 
3370.000000	99.198979 
3369.000000	99.199566 
3368.000000	99.200784 
3367.000000	99.202423 
3366.000000	99.203931 
3365.000000	99.204867 
3364.000000	99.205177 
3363.000000	99.205058 
3362.000000	99.204650 
3361.000000	99.203946 
3360.000000	99.203008 
3359.000000	99.202159 
3358.000000	99.201825 
3357.000000	99.202122 
3356.000000	99.202661 
3355.000000	99.202872 
3354.000000	99.202621 
3353.000000	99.202383 
3352.000000	99.202731 
3351.000000	99.203710 
3350.000000	99.204817 
3349.000000	99.205598 
3348.000000	99.206106 
3347.000000	99.206641 
3346.000000	99.207230 
3345.000000	99.207563 
3344.000000	99.207471 
3343.000000	99.207249 
3342.000000	99.207394 
3341.000000	99.208057 
3340.000000	99.208879 
3339.000000	99.209343 
3338.000000	99.209231 
3337.000000	99.208778 
3336.000000	99.208473 
3335.000000	99.208737 
3334.000000	99.209733 
3333.000000	99.211366 
3332.000000	99.213351 
3331.000000	99.215231 
3330.000000	99.216498 
3329.000000	99.216878 
3328.000000	99.216524 
3327.000000	99.215895 
3326.000000	99.215404 
3325.000000	99.215190 
3324.000000	99.215248 
3323.000000	99.215602 
3322.000000	99.216279 
3321.000000	99.217256 
3320.000000	99.218495 
3319.000000	99.219934 
3318.000000	99.221384 
3317.000000	99.222550 
3316.000000	99.223276 
3315.000000	99.223744 
3314.000000	99.224295 
3313.000000	99.225045 
3312.000000	99.225771 
3311.000000	99.226200 
3310.000000	99.226326 
3309.000000	99.226386 
3308.000000	99.226605 
3307.000000	99.227008 
3306.000000	99.227465 
3305.000000	99.227904 
3304.000000	99.228430 
3303.000000	99.229222 
3302.000000	99.230261 
3301.000000	99.231163 
3300.000000	99.231370 
3299.000000	99.230578 
3298.000000	99.229053 
3297.000000	99.227620 
3296.000000	99.227124 
3295.000000	99.227826 
3294.000000	99.229281 
3293.000000	99.230732 
3292.000000	99.231770 
3291.000000	99.232527 
3290.000000	99.233285 
3289.000000	99.234039 
3288.000000	99.234503 
3287.000000	99.234500 
3286.000000	99.234312 
3285.000000	99.234618 
3284.000000	99.235962 
3283.000000	99.238235 
3282.000000	99.240570 
3281.000000	99.241972 
3280.000000	99.242089 
3279.000000	99.241295 
3278.000000	99.240223 
3277.000000	99.239313 
3276.000000	99.238771 
3275.000000	99.238629 
3274.000000	99.238700 
3273.000000	99.238676 
3272.000000	99.238494 
3271.000000	99.238443 
3270.000000	99.238728 
3269.000000	99.239090 
3268.000000	99.239149 
3267.000000	99.239039 
3266.000000	99.239341 
3265.000000	99.240359 
3264.000000	99.241707 
3263.000000	99.242780 
3262.000000	99.243425 
3261.000000	99.243967 
3260.000000	99.244716 
3259.000000	99.245667 
3258.000000	99.246658 
3257.000000	99.247586 
3256.000000	99.248349 
3255.000000	99.248754 
3254.000000	99.248691 
3253.000000	99.248411 
3252.000000	99.248443 
3251.000000	99.249075 
3250.000000	99.250055 
3249.000000	99.250889 
3248.000000	99.251376 
3247.000000	99.251695 
3246.000000	99.252022 
3245.000000	99.252273 
3244.000000	99.252255 
3243.000000	99.251913 
3242.000000	99.251356 
3241.000000	99.250803 
3240.000000	99.250525 
3239.000000	99.250731 
3238.000000	99.251426 
3237.000000	99.252374 
3236.000000	99.253208 
3235.000000	99.253632 
3234.000000	99.253576 
3233.000000	99.253228 
3232.000000	99.252963 
3231.000000	99.253060 
3230.000000	99.253494 
3229.000000	99.254026 
3228.000000	99.254461 
3227.000000	99.254812 
3226.000000	99.255176 
3225.000000	99.255587 
3224.000000	99.256028 
3223.000000	99.256499 
3222.000000	99.256995 
3221.000000	99.257469 
3220.000000	99.257872 
3219.000000	99.258221 
3218.000000	99.258582 
3217.000000	99.258992 
3216.000000	99.259425 
3215.000000	99.259848 
3214.000000	99.260271 
3213.000000	99.260722 
3212.000000	99.261202 
3211.000000	99.261671 
3210.000000	99.262092 
3209.000000	99.262464 
3208.000000	99.262820 
3207.000000	99.263212 
3206.000000	99.263667 
3205.000000	99.264182 
3204.000000	99.264729 
3203.000000	99.265278 
3202.000000	99.265813 
3201.000000	99.266337 
3200.000000	99.266863 
3199.000000	99.267412 
3198.000000	99.267995 
3197.000000	99.268601 
3196.000000	99.269184 
3195.000000	99.269686 
3194.000000	99.270085 
3193.000000	99.270422 
3192.000000	99.270784 
3191.000000	99.271238 
3190.000000	99.271765 
3189.000000	99.272284 
3188.000000	99.272741 
3187.000000	99.273154 
3186.000000	99.273579 
3185.000000	99.274092 
3184.000000	99.274781 
3183.000000	99.275656 
3182.000000	99.276519 
3181.000000	99.277048 
3180.000000	99.277100 
3179.000000	99.276870 
3178.000000	99.276677 
3177.000000	99.276655 
3176.000000	99.276781 
3175.000000	99.277049 
3174.000000	99.277443 
3173.000000	99.277823 
3172.000000	99.278036 
3171.000000	99.278146 
3170.000000	99.278396 
3169.000000	99.278899 
3168.000000	99.279514 
3167.000000	99.280049 
3166.000000	99.280491 
3165.000000	99.280939 
3164.000000	99.281431 
3163.000000	99.281877 
3162.000000	99.282135 
3161.000000	99.282108 
3160.000000	99.281854 
3159.000000	99.281600 
3158.000000	99.281566 
3157.000000	99.281766 
3156.000000	99.282012 
3155.000000	99.282063 
3154.000000	99.281784 
3153.000000	99.281238 
3152.000000	99.280731 
3151.000000	99.280648 
3150.000000	99.281099 
3149.000000	99.281787 
3148.000000	99.282298 
3147.000000	99.282558 
3146.000000	99.282824 
3145.000000	99.283307 
3144.000000	99.283961 
3143.000000	99.284579 
3142.000000	99.284981 
3141.000000	99.285126 
3140.000000	99.285115 
3139.000000	99.285132 
3138.000000	99.285320 
3137.000000	99.285678 
3136.000000	99.286098 
3135.000000	99.286474 
3134.000000	99.286776 
3133.000000	99.287026 
3132.000000	99.287252 
3131.000000	99.287480 
3130.000000	99.287751 
3129.000000	99.288100 
3128.000000	99.288531 
3127.000000	99.289021 
3126.000000	99.289543 
3125.000000	99.290067 
3124.000000	99.290555 
3123.000000	99.290977 
3122.000000	99.291333 
3121.000000	99.291653 
3120.000000	99.291989 
3119.000000	99.292376 
3118.000000	99.292821 
3117.000000	99.293305 
3116.000000	99.293795 
3115.000000	99.294271 
3114.000000	99.294737 
3113.000000	99.295216 
3112.000000	99.295725 
3111.000000	99.296262 
3110.000000	99.296814 
3109.000000	99.297365 
3108.000000	99.297906 
3107.000000	99.298427 
3106.000000	99.298929 
3105.000000	99.299427 
3104.000000	99.299959 
3103.000000	99.300548 
3102.000000	99.301178 
3101.000000	99.301788 
3100.000000	99.302347 
3099.000000	99.302881 
3098.000000	99.303431 
3097.000000	99.303985 
3096.000000	99.304515 
3095.000000	99.305058 
3094.000000	99.305705 
3093.000000	99.306464 
3092.000000	99.307187 
3091.000000	99.307700 
3090.000000	99.307973 
3089.000000	99.308128 
3088.000000	99.308314 
3087.000000	99.308589 
3086.000000	99.308917 
3085.000000	99.309215 
3084.000000	99.309454 
3083.000000	99.309721 
3082.000000	99.310130 
3081.000000	99.310664 
3080.000000	99.311168 
3079.000000	99.311553 
3078.000000	99.311933 
3077.000000	99.312494 
3076.000000	99.313248 
3075.000000	99.313983 
3074.000000	99.314449 
3073.000000	99.314560 
3072.000000	99.314452 
3071.000000	99.314425 
3070.000000	99.314718 
3069.000000	99.315336 
3068.000000	99.316047 
3067.000000	99.316617 
3066.000000	99.317027 
3065.000000	99.317424 
3064.000000	99.317872 
3063.000000	99.318251 
3062.000000	99.318392 
3061.000000	99.318210 
3060.000000	99.317778 
3059.000000	99.317326 
3058.000000	99.317155 
3057.000000	99.317434 
3056.000000	99.318048 
3055.000000	99.318654 
3054.000000	99.318973 
3053.000000	99.319002 
3052.000000	99.318972 
3051.000000	99.319107 
3050.000000	99.319411 
3049.000000	99.319712 
3048.000000	99.319896 
3047.000000	99.320081 
3046.000000	99.320497 
3045.000000	99.321195 
3044.000000	99.321968 
3043.000000	99.322596 
3042.000000	99.323112 
3041.000000	99.323711 
3040.000000	99.324482 
3039.000000	99.325284 
3038.000000	99.325903 
3037.000000	99.326284 
3036.000000	99.326575 
3035.000000	99.326976 
3034.000000	99.327535 
3033.000000	99.328143 
3032.000000	99.328688 
3031.000000	99.329200 
3030.000000	99.329792 
3029.000000	99.330511 
3028.000000	99.331274 
3027.000000	99.331954 
3026.000000	99.332510 
3025.000000	99.333015 
3024.000000	99.333578 
3023.000000	99.334240 
3022.000000	99.334940 
3021.000000	99.335574 
3020.000000	99.336095 
3019.000000	99.336562 
3018.000000	99.337090 
3017.000000	99.337737 
3016.000000	99.338462 
3015.000000	99.339227 
3014.000000	99.340059 
3013.000000	99.340984 
3012.000000	99.341946 
3011.000000	99.342815 
3010.000000	99.343519 
3009.000000	99.344094 
3008.000000	99.344656 
3007.000000	99.345307 
3006.000000	99.346060 
3005.000000	99.346877 
3004.000000	99.347719 
3003.000000	99.348577 
3002.000000	99.349446 
3001.000000	99.350292 
3000.000000	99.351081 
2999.000000	99.351822 
2998.000000	99.352539 
2997.000000	99.353206 
2996.000000	99.353764 
2995.000000	99.354240 
2994.000000	99.354787 
2993.000000	99.355547 
2992.000000	99.356516 
2991.000000	99.357549 
2990.000000	99.358493 
2989.000000	99.359315 
2988.000000	99.360069 
2987.000000	99.360804 
2986.000000	99.361534 
2985.000000	99.362285 
2984.000000	99.363121 
2983.000000	99.364064 
2982.000000	99.365020 
2981.000000	99.365873 
2980.000000	99.366657 
2979.000000	99.367575 
2978.000000	99.368765 
2977.000000	99.370125 
2976.000000	99.371373 
2975.000000	99.372302 
2974.000000	99.372923 
2973.000000	99.373481 
2972.000000	99.374303 
2971.000000	99.375589 
2970.000000	99.377303 
2969.000000	99.379221 
2968.000000	99.381123 
2967.000000	99.382900 
2966.000000	99.384498 
2965.000000	99.385840 
2964.000000	99.386935 
2963.000000	99.387912 
2962.000000	99.388747 
2961.000000	99.389159 
2960.000000	99.389105 
2959.000000	99.389191 
2958.000000	99.390216 
2957.000000	99.392349 
2956.000000	99.395019 
2955.000000	99.397447 
2954.000000	99.398967 
2953.000000	99.399055 
2952.000000	99.397697 
2951.000000	99.395799 
2950.000000	99.394730 
2949.000000	99.395264 
2948.000000	99.397274 
2947.000000	99.400207 
2946.000000	99.403308 
2945.000000	99.405560 
2944.000000	99.406208 
2943.000000	99.405637 
2942.000000	99.405154 
2941.000000	99.405623 
2940.000000	99.406897 
2939.000000	99.408859 
2938.000000	99.412229 
2937.000000	99.417572 
2936.000000	99.423869 
2935.000000	99.428912 
2934.000000	99.431336 
2933.000000	99.431746 
2932.000000	99.431862 
2931.000000	99.432854 
2930.000000	99.434612 
2929.000000	99.436396 
2928.000000	99.437797 
2927.000000	99.438964 
2926.000000	99.440095 
2925.000000	99.440933 
2924.000000	99.440817 
2923.000000	99.439129 
2922.000000	99.435656 
2921.000000	99.430805 
2920.000000	99.425612 
2919.000000	99.421300 
2918.000000	99.418514 
2917.000000	99.417062 
2916.000000	99.416433 
2915.000000	99.416267 
2914.000000	99.416151 
2913.000000	99.415331 
2912.000000	99.413210 
2911.000000	99.410182 
2910.000000	99.407662 
2909.000000	99.407064 
2908.000000	99.408726 
2907.000000	99.411630 
2906.000000	99.413979 
2905.000000	99.414385 
2904.000000	99.412777 
2903.000000	99.410180 
2902.000000	99.407710 
2901.000000	99.405759 
2900.000000	99.404268 
2899.000000	99.403293 
2898.000000	99.402867 
2897.000000	99.402702 
2896.000000	99.402457 
2895.000000	99.402233 
2894.000000	99.402357 
2893.000000	99.402685 
2892.000000	99.402487 
2891.000000	99.401178 
2890.000000	99.399028 
2889.000000	99.397119 
2888.000000	99.396583 
2887.000000	99.397697 
2886.000000	99.399646 
2885.000000	99.401115 
2884.000000	99.401343 
2883.000000	99.400555 
2882.000000	99.399408 
2881.000000	99.398264 
2880.000000	99.397164 
2879.000000	99.396279 
2878.000000	99.395975 
2877.000000	99.396395 
2876.000000	99.397278 
2875.000000	99.398244 
2874.000000	99.398961 
2873.000000	99.399024 
2872.000000	99.398065 
2871.000000	99.396186 
2870.000000	99.394044 
2869.000000	99.392389 
2868.000000	99.391662 
2867.000000	99.392050 
2866.000000	99.393550 
2865.000000	99.395769 
2864.000000	99.397954 
2863.000000	99.399449 
2862.000000	99.400041 
2861.000000	99.399911 
2860.000000	99.399505 
2859.000000	99.399434 
2858.000000	99.400145 
2857.000000	99.401505 
2856.000000	99.402880 
2855.000000	99.403650 
2854.000000	99.403508 
2853.000000	99.402445 
2852.000000	99.400788 
2851.000000	99.399041 
2850.000000	99.397262 
2849.000000	99.394819 
2848.000000	99.391348 
2847.000000	99.387782 
2846.000000	99.385756 
2845.000000	99.385889 
2844.000000	99.387205 
2843.000000	99.388220 
2842.000000	99.388242 
2841.000000	99.387401 
2840.000000	99.385973 
2839.000000	99.384187 
2838.000000	99.382415 
2837.000000	99.381071 
2836.000000	99.380323 
2835.000000	99.380132 
2834.000000	99.380446 
2833.000000	99.381103 
2832.000000	99.381635 
2831.000000	99.381467 
2830.000000	99.380406 
2829.000000	99.378809 
2828.000000	99.377294 
2827.000000	99.376297 
2826.000000	99.375892 
2825.000000	99.375923 
2824.000000	99.376194 
2823.000000	99.376551 
2822.000000	99.376810 
2821.000000	99.376724 
2820.000000	99.376141 
2819.000000	99.375160 
2818.000000	99.374075 
2817.000000	99.373177 
2816.000000	99.372606 
2815.000000	99.372376 
2814.000000	99.372451 
2813.000000	99.372751 
2812.000000	99.373135 
2811.000000	99.373431 
2810.000000	99.373492 
2809.000000	99.373253 
2808.000000	99.372759 
2807.000000	99.372190 
2806.000000	99.371795 
2805.000000	99.371750 
2804.000000	99.372074 
2803.000000	99.372661 
2802.000000	99.373341 
2801.000000	99.373923 
2800.000000	99.374245 
2799.000000	99.374252 
2798.000000	99.374024 
2797.000000	99.373727 
2796.000000	99.373520 
2795.000000	99.373514 
2794.000000	99.373746 
2793.000000	99.374169 
2792.000000	99.374658 
2791.000000	99.375077 
2790.000000	99.375330 
2789.000000	99.375377 
2788.000000	99.375229 
2787.000000	99.374951 
2786.000000	99.374649 
2785.000000	99.374435 
2784.000000	99.374420 
2783.000000	99.374692 
2782.000000	99.375253 
2781.000000	99.375958 
2780.000000	99.376566 
2779.000000	99.376906 
2778.000000	99.376974 
2777.000000	99.376884 
2776.000000	99.376746 
2775.000000	99.376626 
2774.000000	99.376576 
2773.000000	99.376666 
2772.000000	99.376930 
2771.000000	99.377333 
2770.000000	99.377774 
2769.000000	99.378127 
2768.000000	99.378309 
2767.000000	99.378305 
2766.000000	99.378156 
2765.000000	99.377922 
2764.000000	99.377685 
2763.000000	99.377564 
2762.000000	99.377659 
2761.000000	99.377965 
2760.000000	99.378353 
2759.000000	99.378657 
2758.000000	99.378790 
2757.000000	99.378741 
2756.000000	99.378522 
2755.000000	99.378196 
2754.000000	99.377914 
2753.000000	99.377851 
2752.000000	99.378072 
2751.000000	99.378488 
2750.000000	99.378941 
2749.000000	99.379313 
2748.000000	99.379536 
2747.000000	99.379580 
2746.000000	99.379478 
2745.000000	99.379322 
2744.000000	99.379196 
2743.000000	99.379134 
2742.000000	99.379167 
2741.000000	99.379361 
2740.000000	99.379759 
2739.000000	99.380300 
2738.000000	99.380827 
2737.000000	99.381184 
2736.000000	99.381279 
2735.000000	99.381076 
2734.000000	99.380603 
2733.000000	99.380005 
2732.000000	99.379573 
2731.000000	99.379593 
2730.000000	99.380158 
2729.000000	99.381105 
2728.000000	99.382137 
2727.000000	99.383021 
2726.000000	99.383652 
2725.000000	99.383979 
2724.000000	99.383988 
2723.000000	99.383747 
2722.000000	99.383456 
2721.000000	99.383351 
2720.000000	99.383550 
2719.000000	99.383995 
2718.000000	99.384522 
2717.000000	99.384969 
2716.000000	99.385235 
2715.000000	99.385291 
2714.000000	99.385184 
2713.000000	99.385023 
2712.000000	99.384920 
2711.000000	99.384959 
2710.000000	99.385196 
2709.000000	99.385654 
2708.000000	99.386278 
2707.000000	99.386924 
2706.000000	99.387407 
2705.000000	99.387616 
2704.000000	99.387573 
2703.000000	99.387402 
2702.000000	99.387246 
2701.000000	99.387204 
2700.000000	99.387313 
2699.000000	99.387562 
2698.000000	99.387915 
2697.000000	99.388297 
2696.000000	99.388593 
2695.000000	99.388690 
2694.000000	99.388551 
2693.000000	99.388245 
2692.000000	99.387914 
2691.000000	99.387699 
2690.000000	99.387674 
2689.000000	99.387836 
2688.000000	99.388126 
2687.000000	99.388463 
2686.000000	99.388765 
2685.000000	99.388959 
2684.000000	99.388972 
2683.000000	99.388773 
2682.000000	99.388412 
2681.000000	99.388033 
2680.000000	99.387800 
2679.000000	99.387782 
2678.000000	99.387929 
2677.000000	99.388148 
2676.000000	99.388389 
2675.000000	99.388618 
2674.000000	99.388755 
2673.000000	99.388715 
2672.000000	99.388501 
2671.000000	99.388225 
2670.000000	99.388026 
2669.000000	99.387976 
2668.000000	99.388081 
2667.000000	99.388333 
2666.000000	99.388711 
2665.000000	99.389151 
2664.000000	99.389540 
2663.000000	99.389750 
2662.000000	99.389719 
2661.000000	99.389503 
2660.000000	99.389277 
2659.000000	99.389223 
2658.000000	99.389398 
2657.000000	99.389700 
2656.000000	99.389994 
2655.000000	99.390226 
2654.000000	99.390363 
2653.000000	99.390313 
2652.000000	99.390033 
2651.000000	99.389668 
2650.000000	99.389423 
2649.000000	99.389306 
2648.000000	99.389184 
2647.000000	99.389105 
2646.000000	99.389337 
2645.000000	99.390024 
2644.000000	99.390987 
2643.000000	99.391878 
2642.000000	99.392413 
2641.000000	99.392400 
2640.000000	99.391817 
2639.000000	99.391045 
2638.000000	99.390753 
2637.000000	99.391338 
2636.000000	99.392551 
2635.000000	99.393764 
2634.000000	99.394572 
2633.000000	99.394966 
2632.000000	99.395103 
2631.000000	99.395167 
2630.000000	99.395377 
2629.000000	99.395846 
2628.000000	99.396385 
2627.000000	99.396650 
2626.000000	99.396554 
2625.000000	99.396385 
2624.000000	99.396445 
2623.000000	99.396648 
2622.000000	99.396550 
2621.000000	99.395755 
2620.000000	99.394260 
2619.000000	99.392467 
2618.000000	99.390932 
2617.000000	99.390146 
2616.000000	99.390401 
2615.000000	99.391611 
2614.000000	99.393135 
2613.000000	99.394016 
2612.000000	99.393746 
2611.000000	99.392730 
2610.000000	99.391871 
2609.000000	99.391667 
2608.000000	99.391964 
2607.000000	99.392504 
2606.000000	99.393361 
2605.000000	99.394712 
2604.000000	99.396424 
2603.000000	99.398014 
2602.000000	99.398907 
2601.000000	99.398707 
2600.000000	99.397441 
2599.000000	99.395690 
2598.000000	99.394297 
2597.000000	99.393705 
2596.000000	99.393750 
2595.000000	99.394084 
2594.000000	99.394577 
2593.000000	99.395176 
2592.000000	99.395590 
2591.000000	99.395435 
2590.000000	99.394666 
2589.000000	99.393692 
2588.000000	99.393078 
2587.000000	99.393203 
2586.000000	99.394107 
2585.000000	99.395501 
2584.000000	99.396866 
2583.000000	99.397745 
2582.000000	99.398013 
2581.000000	99.397817 
2580.000000	99.397308 
2579.000000	99.396518 
2578.000000	99.395508 
2577.000000	99.394517 
2576.000000	99.393887 
2575.000000	99.393856 
2574.000000	99.394461 
2573.000000	99.395553 
2572.000000	99.396857 
2571.000000	99.398050 
2570.000000	99.398841 
2569.000000	99.399078 
2568.000000	99.398846 
2567.000000	99.398454 
2566.000000	99.398283 
2565.000000	99.398538 
2564.000000	99.399153 
2563.000000	99.399891 
2562.000000	99.400510 
2561.000000	99.400869 
2560.000000	99.400930 
2559.000000	99.400747 
2558.000000	99.400471 
2557.000000	99.400304 
2556.000000	99.400366 
2555.000000	99.400614 
2554.000000	99.400924 
2553.000000	99.401264 
2552.000000	99.401727 
2551.000000	99.402360 
2550.000000	99.403017 
2549.000000	99.403445 
2548.000000	99.403529 
2547.000000	99.403402 
2546.000000	99.403355 
2545.000000	99.403576 
2544.000000	99.404044 
2543.000000	99.404595 
2542.000000	99.405035 
2541.000000	99.405270 
2540.000000	99.405331 
2539.000000	99.405310 
2538.000000	99.405255 
2537.000000	99.405147 
2536.000000	99.404991 
2535.000000	99.404915 
2534.000000	99.405079 
2533.000000	99.405515 
2532.000000	99.406090 
2531.000000	99.406627 
2530.000000	99.407028 
2529.000000	99.407286 
2528.000000	99.407433 
2527.000000	99.407533 
2526.000000	99.407637 
2525.000000	99.407722 
2524.000000	99.407678 
2523.000000	99.407457 
2522.000000	99.407206 
2521.000000	99.407164 
2520.000000	99.407408 
2519.000000	99.407761 
2518.000000	99.407954 
2517.000000	99.407870 
2516.000000	99.407612 
2515.000000	99.407401 
2514.000000	99.407441 
2513.000000	99.407853 
2512.000000	99.408637 
2511.000000	99.409621 
2510.000000	99.410480 
2509.000000	99.410943 
2508.000000	99.410985 
2507.000000	99.410760 
2506.000000	99.410372 
2505.000000	99.409871 
2504.000000	99.409454 
2503.000000	99.409426 
2502.000000	99.409876 
2501.000000	99.410473 
2500.000000	99.410787 
2499.000000	99.410694 
2498.000000	99.410363 
2497.000000	99.409991 
2496.000000	99.409670 
2495.000000	99.409461 
2494.000000	99.409412 
2493.000000	99.409521 
2492.000000	99.409758 
2491.000000	99.410088 
2490.000000	99.410434 
2489.000000	99.410663 
2488.000000	99.410719 
2487.000000	99.410723 
2486.000000	99.410821 
2485.000000	99.410972 
2484.000000	99.411020 
2483.000000	99.410930 
2482.000000	99.410850 
2481.000000	99.410942 
2480.000000	99.411216 
2479.000000	99.411529 
2478.000000	99.411709 
2477.000000	99.411701 
2476.000000	99.411592 
2475.000000	99.411507 
2474.000000	99.411453 
2473.000000	99.411324 
2472.000000	99.411064 
2471.000000	99.410759 
2470.000000	99.410545 
2469.000000	99.410483 
2468.000000	99.410556 
2467.000000	99.410724 
2466.000000	99.410927 
2465.000000	99.411061 
2464.000000	99.411047 
2463.000000	99.410902 
2462.000000	99.410718 
2461.000000	99.410565 
2460.000000	99.410454 
2459.000000	99.410390 
2458.000000	99.410397 
2457.000000	99.410462 
2456.000000	99.410535 
2455.000000	99.410567 
2454.000000	99.410532 
2453.000000	99.410421 
2452.000000	99.410250 
2451.000000	99.410116 
2450.000000	99.410134 
2449.000000	99.410326 
2448.000000	99.410602 
2447.000000	99.410828 
2446.000000	99.410946 
2445.000000	99.410964 
2444.000000	99.410912 
2443.000000	99.410840 
2442.000000	99.410803 
2441.000000	99.410830 
2440.000000	99.410897 
2439.000000	99.410959 
2438.000000	99.411016 
2437.000000	99.411116 
2436.000000	99.411292 
2435.000000	99.411522 
2434.000000	99.411732 
2433.000000	99.411849 
2432.000000	99.411867 
2431.000000	99.411843 
2430.000000	99.411850 
2429.000000	99.411891 
2428.000000	99.411919 
2427.000000	99.411909 
2426.000000	99.411896 
2425.000000	99.411914 
2424.000000	99.411941 
2423.000000	99.411921 
2422.000000	99.411838 
2421.000000	99.411733 
2420.000000	99.411661 
2419.000000	99.411665 
2418.000000	99.411766 
2417.000000	99.411949 
2416.000000	99.412126 
2415.000000	99.412181 
2414.000000	99.412082 
2413.000000	99.411905 
2412.000000	99.411763 
2411.000000	99.411693 
2410.000000	99.411630 
2409.000000	99.411492 
2408.000000	99.411276 
2407.000000	99.411095 
2406.000000	99.411070 
2405.000000	99.411186 
2404.000000	99.411342 
2403.000000	99.411429 
2402.000000	99.411416 
2401.000000	99.411328 
2400.000000	99.411193 
2399.000000	99.411044 
2398.000000	99.410905 
2397.000000	99.410780 
2396.000000	99.410671 
2395.000000	99.410587 
2394.000000	99.410530 
2393.000000	99.410475 
2392.000000	99.410397 
2391.000000	99.410299 
2390.000000	99.410194 
2389.000000	99.410094 
2388.000000	99.410005 
2387.000000	99.409930 
2386.000000	99.409868 
2385.000000	99.409817 
2384.000000	99.409772 
2383.000000	99.409732 
2382.000000	99.409698 
2381.000000	99.409675 
2380.000000	99.409662 
2379.000000	99.409654 
2378.000000	99.409640 
2377.000000	99.409610 
2376.000000	99.409555 
2375.000000	99.409476 
2374.000000	99.409379 
2373.000000	99.409276 
2372.000000	99.409175 
2371.000000	99.409075 
2370.000000	99.408973 
2369.000000	99.408862 
2368.000000	99.408744 
2367.000000	99.408619 
2366.000000	99.408481 
2365.000000	99.408318 
2364.000000	99.408123 
2363.000000	99.407898 
2362.000000	99.407663 
2361.000000	99.407436 
2360.000000	99.407230 
2359.000000	99.407044 
2358.000000	99.406868 
2357.000000	99.406695 
2356.000000	99.406519 
2355.000000	99.406343 
2354.000000	99.406167 
2353.000000	99.405989 
2352.000000	99.405801 
2351.000000	99.405598 
2350.000000	99.405397 
2349.000000	99.405222 
2348.000000	99.405089 
2347.000000	99.405002 
2346.000000	99.404960 
2345.000000	99.404947 
2344.000000	99.404939 
2343.000000	99.404932 
2342.000000	99.404946 
2341.000000	99.405013 
2340.000000	99.405132 
2339.000000	99.405238 
2338.000000	99.405251 
2337.000000	99.405158 
2336.000000	99.405013 
2335.000000	99.404855 
2334.000000	99.404656 
2333.000000	99.404392 
2332.000000	99.404134 
2331.000000	99.404091 
2330.000000	99.404484 
2329.000000	99.405083 
2328.000000	99.405371 
2327.000000	99.405019 
2326.000000	99.404418 
2325.000000	99.404274 
2324.000000	99.404621 
2323.000000	99.404821 
2322.000000	99.404192 
2321.000000	99.403096 
2320.000000	99.402463 
2319.000000	99.402817 
2318.000000	99.403770 
2317.000000	99.404538 
2316.000000	99.404866 
2315.000000	99.405112 
2314.000000	99.405746 
2313.000000	99.406666 
2312.000000	99.407392 
2311.000000	99.407622 
2310.000000	99.407739 
2309.000000	99.408455 
2308.000000	99.410173 
2307.000000	99.412484 
2306.000000	99.414225 
2305.000000	99.414290 
2304.000000	99.412659 
2303.000000	99.410662 
2302.000000	99.409781 
2301.000000	99.410233 
2300.000000	99.411116 
2299.000000	99.411712 
2298.000000	99.412099 
2297.000000	99.412254 
2296.000000	99.411525 
2295.000000	99.409425 
2294.000000	99.406582 
2293.000000	99.404281 
2292.000000	99.403162 
2291.000000	99.402775 
2290.000000	99.402361 
2289.000000	99.401723 
2288.000000	99.401227 
2287.000000	99.401203 
2286.000000	99.401462 
2285.000000	99.401400 
2284.000000	99.400581 
2283.000000	99.399268 
2282.000000	99.398248 
2281.000000	99.398090 
2280.000000	99.398664 
2279.000000	99.399428 
2278.000000	99.399958 
2277.000000	99.400114 
2276.000000	99.399858 
2275.000000	99.399217 
2274.000000	99.398444 
2273.000000	99.398007 
2272.000000	99.398223 
2271.000000	99.398978 
2270.000000	99.399791 
2269.000000	99.400173 
2268.000000	99.399901 
2267.000000	99.399047 
2266.000000	99.397919 
2265.000000	99.396980 
2264.000000	99.396612 
2263.000000	99.396850 
2262.000000	99.397283 
2261.000000	99.397344 
2260.000000	99.396862 
2259.000000	99.396295 
2258.000000	99.396302 
2257.000000	99.397119 
2256.000000	99.398417 
2255.000000	99.399581 
2254.000000	99.400121 
2253.000000	99.399918 
2252.000000	99.399224 
2251.000000	99.398519 
2250.000000	99.398238 
2249.000000	99.398557 
2248.000000	99.399386 
2247.000000	99.400416 
2246.000000	99.401236 
2245.000000	99.401638 
2244.000000	99.401814 
2243.000000	99.401994 
2242.000000	99.401797 
2241.000000	99.400427 
2240.000000	99.397872 
2239.000000	99.395526 
2238.000000	99.394845 
2237.000000	99.395760 
2236.000000	99.397078 
2235.000000	99.398233 
2234.000000	99.399703 
2233.000000	99.401723 
2232.000000	99.403785 
2231.000000	99.405525 
2230.000000	99.407090 
2229.000000	99.408399 
2228.000000	99.408967 
2227.000000	99.408729 
2226.000000	99.408346 
2225.000000	99.408474 
2224.000000	99.409261 
2223.000000	99.410684 
2222.000000	99.412597 
2221.000000	99.414094 
2220.000000	99.413797 
2219.000000	99.411411 
2218.000000	99.408492 
2217.000000	99.407027 
2216.000000	99.407506 
2215.000000	99.409127 
2214.000000	99.411020 
2213.000000	99.412448 
2212.000000	99.412380 
2211.000000	99.410207 
2210.000000	99.406972 
2209.000000	99.404782 
2208.000000	99.404620 
2207.000000	99.405710 
2206.000000	99.407157 
2205.000000	99.409191 
2204.000000	99.412121 
2203.000000	99.414964 
2202.000000	99.416108 
2201.000000	99.415115 
2200.000000	99.413005 
2199.000000	99.410869 
2198.000000	99.409018 
2197.000000	99.407556 
2196.000000	99.406931 
2195.000000	99.407198 
2194.000000	99.407122 
2193.000000	99.405102 
2192.000000	99.401279 
2191.000000	99.398016 
2190.000000	99.397443 
2189.000000	99.398992 
2188.000000	99.400044 
2187.000000	99.398826 
2186.000000	99.395806 
2185.000000	99.392517 
2184.000000	99.390253 
2183.000000	99.389944 
2182.000000	99.391865 
2181.000000	99.394848 
2180.000000	99.397028 
2179.000000	99.397987 
2178.000000	99.398997 
2177.000000	99.400856 
2176.000000	99.402741 
2175.000000	99.403765 
2174.000000	99.404494 
2173.000000	99.405997 
2172.000000	99.408245 
2171.000000	99.410327 
2170.000000	99.411602 
2169.000000	99.411888 
2168.000000	99.411070 
2167.000000	99.409409 
2166.000000	99.407990 
2165.000000	99.407992 
2164.000000	99.409350 
2163.000000	99.410779 
2162.000000	99.411224 
2161.000000	99.410984 
2160.000000	99.411238 
2159.000000	99.412712 
2158.000000	99.414925 
2157.000000	99.416618 
2156.000000	99.416930 
2155.000000	99.415970 
2154.000000	99.414580 
2153.000000	99.413740 
2152.000000	99.413970 
2151.000000	99.415102 
2150.000000	99.416349 
2149.000000	99.416808 
2148.000000	99.416133 
2147.000000	99.414673 
2146.000000	99.413092 
2145.000000	99.411898 
2144.000000	99.411398 
2143.000000	99.411743 
2142.000000	99.412785 
2141.000000	99.413993 
2140.000000	99.414763 
2139.000000	99.414861 
2138.000000	99.414417 
2137.000000	99.413654 
2136.000000	99.412869 
2135.000000	99.412495 
2134.000000	99.412750 
2133.000000	99.413194 
2132.000000	99.413058 
2131.000000	99.412150 
2130.000000	99.410965 
2129.000000	99.409868 
2128.000000	99.408697 
2127.000000	99.407437 
2126.000000	99.406656 
2125.000000	99.406748 
2124.000000	99.407108 
2123.000000	99.406644 
2122.000000	99.404976 
2121.000000	99.402742 
2120.000000	99.400926 
2119.000000	99.400294 
2118.000000	99.401172 
2117.000000	99.403258 
2116.000000	99.405707 
2115.000000	99.407728 
2114.000000	99.409052 
2113.000000	99.409691 
2112.000000	99.409686 
2111.000000	99.409336 
2110.000000	99.409301 
2109.000000	99.410005 
2108.000000	99.411071 
2107.000000	99.411777 
2106.000000	99.411951 
2105.000000	99.412114 
2104.000000	99.412747 
2103.000000	99.413636 
2102.000000	99.414044 
2101.000000	99.413476 
2100.000000	99.412167 
2099.000000	99.410944 
2098.000000	99.410597 
2097.000000	99.411387 
2096.000000	99.413015 
2095.000000	99.414780 
2094.000000	99.415867 
2093.000000	99.415767 
2092.000000	99.414561 
2091.000000	99.412922 
2090.000000	99.411619 
2089.000000	99.410883 
2088.000000	99.410474 
2087.000000	99.410179 
2086.000000	99.410030 
2085.000000	99.410064 
2084.000000	99.410129 
2083.000000	99.410042 
2082.000000	99.409781 
2081.000000	99.409461 
2080.000000	99.409286 
2079.000000	99.409505 
2078.000000	99.410175 
2077.000000	99.410856 
2076.000000	99.410818 
2075.000000	99.409723 
2074.000000	99.407932 
2073.000000	99.406177 
2072.000000	99.404988 
2071.000000	99.404657 
2070.000000	99.405339 
2069.000000	99.406611 
2068.000000	99.407267 
2067.000000	99.406352 
2066.000000	99.404455 
2065.000000	99.403173 
2064.000000	99.403210 
2063.000000	99.403782 
2062.000000	99.404052 
2061.000000	99.404283 
2060.000000	99.405081 
2059.000000	99.406262 
2058.000000	99.407108 
2057.000000	99.407310 
2056.000000	99.407059 
2055.000000	99.406360 
2054.000000	99.404877 
2053.000000	99.402555 
2052.000000	99.400043 
2051.000000	99.398331 
2050.000000	99.398225 
2049.000000	99.400162 
2048.000000	99.404122 
2047.000000	99.409278 
2046.000000	99.413920 
2045.000000	99.416483 
2044.000000	99.416749 
2043.000000	99.415758 
2042.000000	99.414569 
2041.000000	99.413454 
2040.000000	99.412536 
2039.000000	99.412430 
2038.000000	99.413560 
2037.000000	99.415307 
2036.000000	99.416669 
2035.000000	99.417560 
2034.000000	99.418612 
2033.000000	99.419883 
2032.000000	99.420834 
2031.000000	99.421450 
2030.000000	99.422060 
2029.000000	99.422040 
2028.000000	99.420198 
2027.000000	99.416659 
2026.000000	99.413379 
2025.000000	99.412275 
2024.000000	99.413420 
2023.000000	99.415414 
2022.000000	99.416656 
2021.000000	99.416434 
2020.000000	99.414983 
2019.000000	99.413179 
2018.000000	99.412017 
2017.000000	99.411845 
2016.000000	99.412086 
2015.000000	99.411921 
2014.000000	99.411242 
2013.000000	99.410643 
2012.000000	99.410589 
2011.000000	99.410955 
2010.000000	99.411330 
2009.000000	99.411419 
2008.000000	99.411172 
2007.000000	99.410733 
2006.000000	99.410295 
2005.000000	99.409872 
2004.000000	99.409280 
2003.000000	99.408428 
2002.000000	99.407533 
2001.000000	99.406857 
2000.000000	99.406419 
1999.000000	99.406123 
1998.000000	99.406015 
1997.000000	99.406240 
1996.000000	99.406786 
1995.000000	99.407363 
1994.000000	99.407496 
1993.000000	99.406855 
1992.000000	99.405741 
1991.000000	99.405093 
1990.000000	99.405598 
1989.000000	99.406932 
1988.000000	99.408252 
1987.000000	99.409307 
1986.000000	99.410517 
1985.000000	99.411939 
1984.000000	99.412887 
1983.000000	99.412951 
1982.000000	99.412645 
1981.000000	99.412601 
1980.000000	99.412678 
1979.000000	99.412558 
1978.000000	99.412642 
1977.000000	99.413531 
1976.000000	99.414892 
1975.000000	99.415487 
1974.000000	99.414270 
1973.000000	99.411137 
1972.000000	99.407031 
1971.000000	99.403645 
1970.000000	99.402313 
1969.000000	99.403097 
1968.000000	99.404859 
1967.000000	99.406238 
1966.000000	99.406649 
1965.000000	99.406157 
1964.000000	99.404982 
1963.000000	99.403578 
1962.000000	99.402781 
1961.000000	99.403274 
1960.000000	99.404942 
1959.000000	99.406917 
1958.000000	99.408228 
1957.000000	99.408448 
1956.000000	99.407782 
1955.000000	99.406873 
1954.000000	99.406390 
1953.000000	99.406566 
1952.000000	99.407126 
1951.000000	99.407636 
1950.000000	99.407891 
1949.000000	99.407936 
1948.000000	99.407842 
1947.000000	99.407621 
1946.000000	99.407274 
1945.000000	99.406820 
1944.000000	99.406274 
1943.000000	99.405682 
1942.000000	99.405188 
1941.000000	99.404980 
1940.000000	99.405111 
1939.000000	99.405429 
1938.000000	99.405663 
1937.000000	99.405637 
1936.000000	99.405426 
1935.000000	99.405242 
1934.000000	99.405165 
1933.000000	99.405067 
1932.000000	99.404823 
1931.000000	99.404479 
1930.000000	99.404222 
1929.000000	99.404157 
1928.000000	99.404204 
1927.000000	99.404189 
1926.000000	99.404041 
1925.000000	99.403821 
1924.000000	99.403638 
1923.000000	99.403533 
1922.000000	99.403436 
1921.000000	99.403228 
1920.000000	99.402858 
1919.000000	99.402384 
1918.000000	99.401935 
1917.000000	99.401578 
1916.000000	99.401274 
1915.000000	99.401021 
1914.000000	99.400898 
1913.000000	99.400904 
1912.000000	99.400943 
1911.000000	99.400922 
1910.000000	99.400803 
1909.000000	99.400551 
1908.000000	99.400172 
1907.000000	99.399811 
1906.000000	99.399687 
1905.000000	99.399894 
1904.000000	99.400268 
1903.000000	99.400474 
1902.000000	99.400326 
1901.000000	99.399910 
1900.000000	99.399473 
1899.000000	99.399178 
1898.000000	99.399035 
1897.000000	99.398925 
1896.000000	99.398679 
1895.000000	99.398249 
1894.000000	99.397806 
1893.000000	99.397552 
1892.000000	99.397531 
1891.000000	99.397724 
1890.000000	99.398173 
1889.000000	99.398831 
1888.000000	99.399375 
1887.000000	99.399405 
1886.000000	99.398761 
1885.000000	99.397650 
1884.000000	99.396545 
1883.000000	99.395870 
1882.000000	99.395658 
1881.000000	99.395603 
1880.000000	99.395577 
1879.000000	99.395828 
1878.000000	99.396328 
1877.000000	99.396327 
1876.000000	99.395192 
1875.000000	99.393461 
1874.000000	99.392305 
1873.000000	99.391887 
1872.000000	99.391292 
1871.000000	99.390368 
1870.000000	99.390616 
1869.000000	99.393196 
1868.000000	99.396813 
1867.000000	99.399201 
1866.000000	99.400130 
1865.000000	99.400737 
1864.000000	99.401405 
1863.000000	99.401473 
1862.000000	99.400542 
1861.000000	99.399014 
1860.000000	99.397352 
1859.000000	99.395692 
1858.000000	99.394179 
1857.000000	99.393075 
1856.000000	99.392532 
1855.000000	99.392627 
1854.000000	99.393375 
1853.000000	99.394393 
1852.000000	99.395013 
1851.000000	99.395069 
1850.000000	99.395151 
1849.000000	99.395795 
1848.000000	99.396654 
1847.000000	99.396934 
1846.000000	99.396406 
1845.000000	99.395641 
1844.000000	99.395236 
1843.000000	99.395055 
1842.000000	99.394550 
1841.000000	99.393480 
1840.000000	99.392198 
1839.000000	99.391491 
1838.000000	99.392004 
1837.000000	99.393649 
1836.000000	99.395653 
1835.000000	99.397278 
1834.000000	99.398253 
1833.000000	99.398580 
1832.000000	99.398328 
1831.000000	99.397614 
1830.000000	99.396784 
1829.000000	99.396414 
1828.000000	99.396843 
1827.000000	99.397880 
1826.000000	99.398963 
1825.000000	99.399538 
1824.000000	99.399441 
1823.000000	99.399019 
1822.000000	99.398715 
1821.000000	99.398614 
1820.000000	99.398490 
1819.000000	99.398141 
1818.000000	99.397659 
1817.000000	99.397321 
1816.000000	99.397258 
1815.000000	99.397382 
1814.000000	99.397548 
1813.000000	99.397683 
1812.000000	99.397761 
1811.000000	99.397774 
1810.000000	99.397769 
1809.000000	99.397801 
1808.000000	99.397857 
1807.000000	99.397901 
1806.000000	99.397930 
1805.000000	99.397952 
1804.000000	99.397977 
1803.000000	99.398007 
1802.000000	99.398035 
1801.000000	99.398052 
1800.000000	99.398060 
1799.000000	99.398066 
1798.000000	99.398068 
1797.000000	99.398064 
1796.000000	99.398048 
1795.000000	99.398022 
1794.000000	99.397995 
1793.000000	99.397982 
1792.000000	99.397991 
1791.000000	99.398021 
1790.000000	99.398068 
1789.000000	99.398122 
1788.000000	99.398175 
1787.000000	99.398222 
1786.000000	99.398266 
1785.000000	99.398311 
1784.000000	99.398364 
1783.000000	99.398426 
1782.000000	99.398498 
1781.000000	99.398579 
1780.000000	99.398670 
1779.000000	99.398773 
1778.000000	99.398890 
1777.000000	99.399020 
1776.000000	99.399155 
1775.000000	99.399285 
1774.000000	99.399404 
1773.000000	99.399509 
1772.000000	99.399606 
1771.000000	99.399705 
1770.000000	99.399817 
1769.000000	99.399947 
1768.000000	99.400092 
1767.000000	99.400246 
1766.000000	99.400404 
1765.000000	99.400560 
1764.000000	99.400709 
1763.000000	99.400847 
1762.000000	99.400973 
1761.000000	99.401097 
1760.000000	99.401229 
1759.000000	99.401374 
1758.000000	99.401530 
1757.000000	99.401687 
1756.000000	99.401837 
1755.000000	99.401979 
1754.000000	99.402113 
1753.000000	99.402242 
1752.000000	99.402364 
1751.000000	99.402471 
1750.000000	99.402557 
1749.000000	99.402617 
1748.000000	99.402656 
1747.000000	99.402684 
1746.000000	99.402713 
1745.000000	99.402749 
1744.000000	99.402793 
1743.000000	99.402840 
1742.000000	99.402888 
1741.000000	99.402934 
1740.000000	99.402975 
1739.000000	99.403006 
1738.000000	99.403013 
1737.000000	99.402981 
1736.000000	99.402911 
1735.000000	99.402817 
1734.000000	99.402716 
1733.000000	99.402603 
1732.000000	99.402478 
1731.000000	99.402367 
1730.000000	99.402277 
1729.000000	99.402177 
1728.000000	99.402055 
1727.000000	99.401960 
1726.000000	99.401936 
1725.000000	99.401949 
1724.000000	99.401871 
1723.000000	99.401596 
1722.000000	99.401128 
1721.000000	99.400559 
1720.000000	99.400020 
1719.000000	99.399649 
1718.000000	99.399546 
1717.000000	99.399624 
1716.000000	99.399561 
1715.000000	99.399214 
1714.000000	99.398777 
1713.000000	99.398448 
1712.000000	99.398209 
1711.000000	99.397960 
1710.000000	99.397671 
1709.000000	99.397338 
1708.000000	99.396953 
1707.000000	99.396594 
1706.000000	99.396480 
1705.000000	99.396724 
1704.000000	99.397012 
1703.000000	99.397000 
1702.000000	99.396670 
1701.000000	99.396352 
1700.000000	99.396038 
1699.000000	99.395138 
1698.000000	99.393641 
1697.000000	99.392018 
1696.000000	99.390772 
1695.000000	99.390184 
1694.000000	99.390065 
1693.000000	99.390012 
1692.000000	99.389846 
1691.000000	99.389645 
1690.000000	99.389531 
1689.000000	99.389414 
1688.000000	99.389051 
1687.000000	99.388366 
1686.000000	99.387570 
1685.000000	99.387179 
1684.000000	99.387215 
1683.000000	99.386990 
1682.000000	99.386294 
1681.000000	99.385330 
1680.000000	99.384348 
1679.000000	99.383458 
1678.000000	99.382693 
1677.000000	99.382129 
1676.000000	99.382016 
1675.000000	99.382350 
1674.000000	99.382526 
1673.000000	99.382132 
1672.000000	99.381390 
1671.000000	99.380679 
1670.000000	99.380099 
1669.000000	99.379420 
1668.000000	99.378720 
1667.000000	99.378344 
1666.000000	99.378230 
1665.000000	99.378031 
1664.000000	99.377549 
1663.000000	99.376875 
1662.000000	99.376058 
1661.000000	99.374904 
1660.000000	99.373569 
1659.000000	99.372692 
1658.000000	99.372890 
1657.000000	99.374021 
1656.000000	99.375476 
1655.000000	99.376421 
1654.000000	99.376184 
1653.000000	99.374131 
1652.000000	99.370961 
1651.000000	99.368369 
1650.000000	99.366461 
1649.000000	99.365097 
1648.000000	99.363613 
1647.000000	99.361718 
1646.000000	99.360151 
1645.000000	99.359856 
1644.000000	99.360317 
1643.000000	99.360758 
1642.000000	99.360777 
1641.000000	99.360092 
1640.000000	99.358538 
1639.000000	99.356620 
1638.000000	99.355414 
1637.000000	99.355450 
1636.000000	99.355679 
1635.000000	99.355225 
1634.000000	99.355345 
1633.000000	99.357050 
1632.000000	99.359529 
1631.000000	99.361406 
1630.000000	99.362012 
1629.000000	99.361507 
1628.000000	99.360354 
1627.000000	99.358901 
1626.000000	99.357349 
1625.000000	99.355930 
1624.000000	99.355108 
1623.000000	99.355405 
1622.000000	99.356752 
1621.000000	99.358318 
1620.000000	99.359409 
1619.000000	99.359854 
1618.000000	99.359756 
1617.000000	99.359205 
1616.000000	99.358367 
1615.000000	99.357888 
1614.000000	99.358293 
1613.000000	99.359576 
1612.000000	99.361440 
1611.000000	99.363554 
1610.000000	99.365614 
1609.000000	99.367382 
1608.000000	99.368798 
1607.000000	99.369890 
1606.000000	99.370524 
1605.000000	99.370621 
1604.000000	99.370521 
1603.000000	99.370730 
1602.000000	99.371444 
1601.000000	99.372497 
1600.000000	99.373790 
1599.000000	99.375387 
1598.000000	99.377178 
1597.000000	99.378812 
1596.000000	99.380013 
1595.000000	99.380823 
1594.000000	99.381525 
1593.000000	99.382406 
1592.000000	99.383589 
1591.000000	99.385039 
1590.000000	99.386598 
1589.000000	99.388057 
1588.000000	99.389330 
1587.000000	99.390529 
1586.000000	99.391805 
1585.000000	99.393150 
1584.000000	99.394468 
1583.000000	99.395729 
1582.000000	99.396975 
1581.000000	99.398222 
1580.000000	99.399447 
1579.000000	99.400652 
1578.000000	99.401892 
1577.000000	99.403226 
1576.000000	99.404607 
1575.000000	99.405899 
1574.000000	99.407021 
1573.000000	99.407993 
1572.000000	99.408891 
1571.000000	99.409833 
1570.000000	99.410974 
1569.000000	99.412363 
1568.000000	99.413912 
1567.000000	99.415456 
1566.000000	99.416795 
1565.000000	99.417769 
1564.000000	99.418424 
1563.000000	99.418902 
1562.000000	99.419314 
1561.000000	99.419628 
1560.000000	99.420182 
1559.000000	99.421473 
1558.000000	99.423180 
1557.000000	99.424699 
1556.000000	99.425985 
1555.000000	99.427287 
1554.000000	99.428293 
1553.000000	99.428728 
1552.000000	99.428636 
1551.000000	99.428499 
1550.000000	99.428724 
1549.000000	99.429377 
1548.000000	99.430189 
1547.000000	99.430920 
1546.000000	99.431522 
1545.000000	99.432072 
1544.000000	99.432538 
1543.000000	99.432744 
1542.000000	99.432616 
1541.000000	99.432376 
1540.000000	99.432294 
1539.000000	99.432503 
1538.000000	99.432836 
1537.000000	99.432956 
1536.000000	99.432895 
1535.000000	99.432942 
1534.000000	99.433362 
1533.000000	99.433910 
1532.000000	99.434060 
1531.000000	99.433713 
1530.000000	99.433242 
1529.000000	99.432945 
1528.000000	99.432735 
1527.000000	99.432338 
1526.000000	99.431713 
1525.000000	99.431098 
1524.000000	99.430670 
1523.000000	99.430420 
1522.000000	99.430314 
1521.000000	99.430277 
1520.000000	99.430191 
1519.000000	99.430107 
1518.000000	99.430222 
1517.000000	99.430538 
1516.000000	99.430655 
1515.000000	99.430290 
1514.000000	99.429588 
1513.000000	99.428909 
1512.000000	99.428498 
1511.000000	99.428347 
1510.000000	99.428369 
1509.000000	99.428550 
1508.000000	99.428848 
1507.000000	99.428753 
1506.000000	99.427970 
1505.000000	99.426993 
1504.000000	99.426172 
1503.000000	99.425521 
1502.000000	99.425009 
1501.000000	99.424609 
1500.000000	99.424237 
1499.000000	99.423816 
1498.000000	99.423382 
1497.000000	99.423124 
1496.000000	99.422982 
1495.000000	99.422610 
1494.000000	99.421978 
1493.000000	99.421400 
1492.000000	99.421052 
1491.000000	99.420809 
1490.000000	99.420447 
1489.000000	99.420003 
1488.000000	99.419601 
1487.000000	99.419265 
1486.000000	99.419226 
1485.000000	99.419643 
1484.000000	99.420382 
1483.000000	99.421100 
1482.000000	99.421391 
1481.000000	99.421037 
1480.000000	99.420108 
1479.000000	99.418881 
1478.000000	99.417693 
1477.000000	99.416857 
1476.000000	99.416424 
1475.000000	99.416112 
1474.000000	99.415583 
1473.000000	99.414727 
1472.000000	99.413793 
1471.000000	99.413185 
1470.000000	99.413169 
1469.000000	99.413689 
1468.000000	99.414370 
1467.000000	99.414728 
1466.000000	99.414485 
1465.000000	99.413765 
1464.000000	99.412981 
1463.000000	99.412321 
1462.000000	99.411615 
1461.000000	99.410571 
1460.000000	99.409054 
1459.000000	99.407290 
1458.000000	99.405773 
1457.000000	99.404965 
1456.000000	99.404886 
1455.000000	99.405219 
1454.000000	99.406039 
1453.000000	99.407778 
1452.000000	99.409785 
1451.000000	99.410610 
1450.000000	99.409561 
1449.000000	99.407503 
1448.000000	99.405652 
1447.000000	99.404317 
1446.000000	99.403222 
1445.000000	99.402433 
1444.000000	99.402051 
1443.000000	99.401559 
1442.000000	99.400453 
1441.000000	99.398937 
1440.000000	99.397536 
1439.000000	99.396302 
1438.000000	99.394939 
1437.000000	99.393634 
1436.000000	99.392935 
1435.000000	99.392866 
1434.000000	99.393292 
1433.000000	99.394467 
1432.000000	99.396175 
1431.000000	99.397421 
1430.000000	99.397406 
1429.000000	99.396619 
1428.000000	99.396012 
1427.000000	99.395712 
1426.000000	99.395367 
1425.000000	99.395247 
1424.000000	99.396312 
1423.000000	99.398587 
1422.000000	99.400906 
1421.000000	99.402532 
1420.000000	99.404047 
1419.000000	99.405846 
1418.000000	99.406743 
1417.000000	99.405949 
1416.000000	99.404113 
1415.000000	99.402367 
1414.000000	99.401568 
1413.000000	99.401891 
1412.000000	99.402722 
1411.000000	99.403268 
1410.000000	99.403537 
1409.000000	99.404502 
1408.000000	99.406746 
1407.000000	99.409581 
1406.000000	99.411789 
1405.000000	99.412925 
1404.000000	99.413629 
1403.000000	99.414488 
1402.000000	99.415502 
1401.000000	99.416611 
1400.000000	99.417794 
1399.000000	99.418810 
1398.000000	99.419428 
1397.000000	99.419854 
1396.000000	99.420385 
1395.000000	99.420983 
1394.000000	99.421399 
1393.000000	99.421731 
1392.000000	99.422404 
1391.000000	99.423532 
1390.000000	99.424929 
1389.000000	99.426439 
1388.000000	99.427905 
1387.000000	99.428994 
1386.000000	99.429406 
1385.000000	99.429229 
1384.000000	99.428879 
1383.000000	99.428778 
1382.000000	99.429137 
1381.000000	99.429913 
1380.000000	99.430833 
1379.000000	99.431629 
1378.000000	99.432231 
1377.000000	99.432717 
1376.000000	99.433125 
1375.000000	99.433397 
1374.000000	99.433500 
1373.000000	99.433532 
1372.000000	99.433632 
1371.000000	99.433856 
1370.000000	99.434199 
1369.000000	99.434635 
1368.000000	99.435148 
1367.000000	99.435679 
1366.000000	99.436116 
1365.000000	99.436381 
1364.000000	99.436480 
1363.000000	99.436499 
1362.000000	99.436551 
1361.000000	99.436683 
1360.000000	99.436876 
1359.000000	99.437106 
1358.000000	99.437348 
1357.000000	99.437548 
1356.000000	99.437656 
1355.000000	99.437681 
1354.000000	99.437682 
1353.000000	99.437715 
1352.000000	99.437784 
1351.000000	99.437867 
1350.000000	99.437947 
1349.000000	99.438002 
1348.000000	99.438006 
1347.000000	99.437970 
1346.000000	99.437941 
1345.000000	99.437949 
1344.000000	99.437976 
1343.000000	99.437980 
1342.000000	99.437962 
1341.000000	99.437967 
1340.000000	99.438012 
1339.000000	99.438033 
1338.000000	99.437976 
1337.000000	99.437883 
1336.000000	99.437846 
1335.000000	99.437905 
1334.000000	99.438012 
1333.000000	99.438070 
1332.000000	99.438007 
1331.000000	99.437825 
1330.000000	99.437601 
1329.000000	99.437416 
1328.000000	99.437307 
1327.000000	99.437308 
1326.000000	99.437495 
1325.000000	99.437875 
1324.000000	99.438285 
1323.000000	99.438489 
1322.000000	99.438408 
1321.000000	99.438223 
1320.000000	99.438169 
1319.000000	99.438241 
1318.000000	99.438204 
1317.000000	99.437919 
1316.000000	99.437577 
1315.000000	99.437518 
1314.000000	99.437841 
1313.000000	99.438238 
1312.000000	99.438327 
1311.000000	99.438111 
1310.000000	99.437945 
1309.000000	99.438052 
1308.000000	99.438260 
1307.000000	99.438302 
1306.000000	99.438182 
1305.000000	99.438093 
1304.000000	99.438129 
1303.000000	99.438202 
1302.000000	99.438152 
1301.000000	99.437821 
1300.000000	99.437124 
1299.000000	99.436281 
1298.000000	99.435875 
1297.000000	99.436365 
1296.000000	99.437510 
1295.000000	99.438488 
1294.000000	99.438717 
1293.000000	99.438328 
1292.000000	99.437852 
1291.000000	99.437704 
1290.000000	99.438056 
1289.000000	99.438825 
1288.000000	99.439540 
1287.000000	99.439548 
1286.000000	99.438631 
1285.000000	99.437248 
1284.000000	99.435996 
1283.000000	99.435041 
1282.000000	99.434175 
1281.000000	99.433240 
1280.000000	99.432448 
1279.000000	99.432498 
1278.000000	99.434080 
1277.000000	99.436750 
1276.000000	99.438465 
1275.000000	99.437220 
1274.000000	99.433359 
1273.000000	99.429545 
1272.000000	99.427970 
1271.000000	99.428362 
1270.000000	99.429228 
1269.000000	99.430103 
1268.000000	99.431649 
1267.000000	99.434074 
1266.000000	99.436647 
1265.000000	99.438806 
1264.000000	99.440774 
1263.000000	99.442717 
1262.000000	99.443933 
1261.000000	99.443359 
1260.000000	99.440796 
1259.000000	99.437365 
1258.000000	99.434672 
1257.000000	99.433679 
1256.000000	99.434359 
1255.000000	99.436029 
1254.000000	99.437703 
1253.000000	99.438458 
1252.000000	99.438135 
1251.000000	99.437809 
1250.000000	99.438787 
1249.000000	99.440764 
1248.000000	99.441725 
1247.000000	99.440241 
1246.000000	99.437194 
1245.000000	99.434468 
1244.000000	99.432455 
1243.000000	99.429988 
1242.000000	99.426662 
1241.000000	99.424092 
1240.000000	99.424406 
1239.000000	99.427976 
1238.000000	99.432857 
1237.000000	99.436154 
1236.000000	99.435992 
1235.000000	99.432736 
1234.000000	99.428488 
1233.000000	99.424948 
1232.000000	99.421789 
1231.000000	99.417568 
1230.000000	99.411999 
1229.000000	99.406543 
1228.000000	99.402561 
1227.000000	99.399450 
1226.000000	99.394952 
1225.000000	99.387028 
1224.000000	99.375376 
1223.000000	99.361578 
1222.000000	99.347803 
1221.000000	99.334946 
1220.000000	99.322038 
1219.000000	99.307722 
1218.000000	99.291976 
1217.000000	99.275988 
1216.000000	99.260673 
1215.000000	99.245970 
1214.000000	99.231273 
1213.000000	99.215621 
1212.000000	99.197561 
1211.000000	99.176135 
1210.000000	99.152683 
1209.000000	99.130751 
1208.000000	99.113157 
1207.000000	99.099308 
1206.000000	99.085992 
1205.000000	99.070518 
1204.000000	99.052433 
1203.000000	99.032641 
1202.000000	99.012057 
1201.000000	98.991382 
1200.000000	98.971236 
1199.000000	98.951843 
1198.000000	98.932968 
1197.000000	98.914613 
1196.000000	98.897193 
1195.000000	98.880494 
1194.000000	98.863094 
1193.000000	98.843693 
1192.000000	98.822537 
1191.000000	98.800575 
1190.000000	98.777644 
1189.000000	98.752826 
1188.000000	98.726537 
1187.000000	98.700683 
1186.000000	98.676211 
1185.000000	98.651837 
1184.000000	98.626042 
1183.000000	98.599291 
1182.000000	98.573317 
1181.000000	98.548794 
1180.000000	98.524499 
1179.000000	98.498326 
1178.000000	98.468698 
1177.000000	98.435777 
1176.000000	98.401914 
1175.000000	98.370168 
1174.000000	98.341526 
1173.000000	98.313889 
1172.000000	98.284191 
1171.000000	98.250951 
1170.000000	98.214817 
1169.000000	98.178091 
1168.000000	98.144346 
1167.000000	98.117102 
1166.000000	98.097798 
1165.000000	98.085921 
1164.000000	98.081494 
1163.000000	98.085771 
1162.000000	98.098465 
1161.000000	98.115719 
1160.000000	98.131944 
1159.000000	98.142497 
1158.000000	98.143954 
1157.000000	98.133996 
1156.000000	98.113247 
1155.000000	98.086321 
1154.000000	98.058798 
1153.000000	98.033025 
1152.000000	98.008101 
1151.000000	97.982894 
1150.000000	97.957030 
1149.000000	97.929787 
1148.000000	97.900652 
1147.000000	97.871165 
1146.000000	97.844023 
1145.000000	97.819780 
1144.000000	97.796051 
1143.000000	97.770561 
1142.000000	97.743662 
1141.000000	97.717334 
1140.000000	97.692665 
1139.000000	97.668760 
1138.000000	97.643355 
1137.000000	97.614328 
1136.000000	97.581310 
1135.000000	97.546163 
1134.000000	97.511451 
1133.000000	97.478317 
1132.000000	97.446132 
1131.000000	97.413881 
1130.000000	97.381466 
1129.000000	97.349876 
1128.000000	97.320154 
1127.000000	97.291601 
1126.000000	97.261115 
1125.000000	97.225607 
1124.000000	97.185487 
1123.000000	97.144578 
1122.000000	97.106052 
1121.000000	97.069946 
1120.000000	97.035406 
1119.000000	97.003225 
1118.000000	96.974400 
1117.000000	96.947678 
1116.000000	96.920584 
1115.000000	96.892229 
1114.000000	96.863449 
1113.000000	96.834622 
1112.000000	96.804991 
1111.000000	96.774029 
1110.000000	96.742361 
1109.000000	96.711367 
1108.000000	96.682338 
1107.000000	96.655358 
1106.000000	96.628777 
1105.000000	96.600637 
1104.000000	96.570789 
1103.000000	96.540686 
1102.000000	96.511195 
1101.000000	96.482311 
1100.000000	96.454790 
1099.000000	96.429719 
1098.000000	96.406645 
1097.000000	96.383749 
1096.000000	96.360506 
1095.000000	96.337853 
1094.000000	96.315618 
1093.000000	96.292447 
1092.000000	96.268764 
1091.000000	96.246803 
1090.000000	96.226791 
1089.000000	96.206040 
1088.000000	96.183031 
1087.000000	96.159551 
1086.000000	96.137431 
1085.000000	96.115983 
1084.000000	96.094366 
1083.000000	96.073829 
1082.000000	96.055692 
1081.000000	96.039210 
1080.000000	96.022917 
1079.000000	96.005941 
1078.000000	95.986729 
1077.000000	95.962920 
1076.000000	95.933954 
1075.000000	95.901600 
1074.000000	95.866741 
1073.000000	95.828044 
1072.000000	95.784825 
1071.000000	95.738255 
1070.000000	95.688442 
1069.000000	95.633614 
1068.000000	95.574119 
1067.000000	95.513945 
1066.000000	95.455715 
1065.000000	95.396956 
1064.000000	95.333960 
1063.000000	95.266745 
1062.000000	95.197907 
1061.000000	95.129408 
1060.000000	95.063101 
1059.000000	95.001648 
1058.000000	94.945806 
1057.000000	94.892789 
1056.000000	94.839574 
1055.000000	94.785320 
1054.000000	94.728277 
1053.000000	94.663405 
1052.000000	94.586808 
1051.000000	94.501132 
1050.000000	94.413489 
1049.000000	94.329190 
1048.000000	94.249605 
1047.000000	94.173368 
1046.000000	94.096965 
1045.000000	94.016994 
1044.000000	93.934426 
1043.000000	93.854224 
1042.000000	93.778764 
1041.000000	93.704463 
1040.000000	93.627141 
1039.000000	93.547971 
1038.000000	93.471764 
1037.000000	93.402138 
1036.000000	93.340667 
1035.000000	93.287737 
1034.000000	93.241572 
1033.000000	93.198965 
1032.000000	93.159217 
1031.000000	93.124878 
1030.000000	93.096982 
1029.000000	93.072665 
1028.000000	93.049498 
1027.000000	93.028974 
1026.000000	93.013245 
1025.000000	93.001031 
1024.000000	92.989243 
1023.000000	92.976521 
1022.000000	92.963003 
1021.000000	92.948309 
1020.000000	92.931568 
1019.000000	92.912493 
1018.000000	92.891792 
1017.000000	92.871488 
1016.000000	92.854303 
1015.000000	92.840627 
1014.000000	92.826842 
1013.000000	92.809273 
1012.000000	92.788961 
1011.000000	92.769555 
1010.000000	92.751864 
1009.000000	92.734456 
1008.000000	92.718399 
1007.000000	92.706491 
1006.000000	92.698347 
1005.000000	92.691532 
1004.000000	92.687606 
1003.000000	92.691409 
1002.000000	92.703445 
1001.000000	92.718245 
1000.000000	92.731594 
999.000000	 92.744695 
998.000000	 92.759906 
997.000000	 92.777118 
996.000000	 92.795942 
995.000000	 92.817147 
994.000000	 92.840114 
993.000000	 92.862465 
992.000000	 92.883704 
991.000000	 92.906219 
990.000000	 92.932102 
989.000000	 92.961975 
988.000000	 92.996563 
987.000000	 93.035549 
986.000000	 93.075516 
985.000000	 93.113958 
984.000000	 93.155070 
983.000000	 93.206148 
982.000000	 93.267775 
981.000000	 93.332690 
980.000000	 93.395281 
979.000000	 93.457313 
978.000000	 93.523208 
977.000000	 93.594796 
976.000000	 93.672059 
975.000000	 93.754081 
974.000000	 93.837440 
973.000000	 93.917977 
972.000000	 93.995827 
971.000000	 94.074872 
970.000000	 94.156276 
969.000000	 94.236890 
968.000000	 94.315248 
967.000000	 94.394329 
966.000000	 94.476412 
965.000000	 94.559539 
964.000000	 94.641427 
963.000000	 94.722818 
962.000000	 94.804155 
961.000000	 94.882442 
960.000000	 94.954746 
959.000000	 95.022454 
958.000000	 95.089007 
957.000000	 95.154880 
956.000000	 95.217321 
955.000000	 95.274200 
954.000000	 95.326424 
953.000000	 95.377140 
952.000000	 95.429148 
951.000000	 95.481919 
950.000000	 95.531071 
949.000000	 95.572693 
948.000000	 95.608147 
947.000000	 95.641965 
946.000000	 95.674731 
945.000000	 95.701915 
944.000000	 95.721585 
943.000000	 95.739667 
942.000000	 95.764369 
941.000000	 95.797222 
940.000000	 95.832429 
939.000000	 95.863332 
938.000000	 95.886944 
937.000000	 95.904019 
936.000000	 95.917989 
935.000000	 95.933396 
934.000000	 95.952903 
933.000000	 95.975776 
932.000000	 96.000404 
931.000000	 96.026938 
930.000000	 96.055757 
929.000000	 96.084934 
928.000000	 96.111696 
927.000000	 96.135441 
926.000000	 96.157000 
925.000000	 96.175916 
924.000000	 96.191312 
923.000000	 96.205040 
922.000000	 96.220700 
921.000000	 96.238746 
920.000000	 96.255177 
919.000000	 96.266321 
918.000000	 96.272985 
917.000000	 96.278461 
916.000000	 96.284084 
915.000000	 96.288994 
914.000000	 96.294013 
913.000000	 96.303805 
912.000000	 96.323994 
911.000000	 96.356359 
910.000000	 96.397696 
909.000000	 96.443883 
908.000000	 96.494398 
907.000000	 96.551661 
906.000000	 96.616441 
905.000000	 96.685795 
904.000000	 96.755910 
903.000000	 96.825262 
902.000000	 96.894167 
901.000000	 96.963075 
900.000000	 97.033116 
899.000000	 97.107077 
898.000000	 97.186921 
897.000000	 97.269669 
896.000000	 97.347878 
895.000000	 97.415625 
894.000000	 97.473163 
893.000000	 97.524947 
892.000000	 97.574937 
891.000000	 97.625575 
890.000000	 97.679139 
889.000000	 97.736127 
888.000000	 97.792323 
887.000000	 97.841269 
886.000000	 97.881494 
885.000000	 97.918998 
884.000000	 97.960716 
883.000000	 98.007114 
882.000000	 98.053041 
881.000000	 98.094498 
880.000000	 98.132255 
879.000000	 98.169302 
878.000000	 98.206816 
877.000000	 98.243422 
876.000000	 98.277966 
875.000000	 98.312256 
874.000000	 98.350070 
873.000000	 98.392839 
872.000000	 98.437586 
871.000000	 98.480641 
870.000000	 98.522099 
869.000000	 98.564194 
868.000000	 98.606404 
867.000000	 98.645546 
866.000000	 98.680697 
865.000000	 98.714748 
864.000000	 98.750564 
863.000000	 98.788719 
862.000000	 98.829227 
861.000000	 98.871456 
860.000000	 98.911118 
859.000000	 98.941724 
858.000000	 98.961702 
857.000000	 98.977265 
856.000000	 98.996195 
855.000000	 99.021178 
854.000000	 99.050474 
853.000000	 99.081208 
852.000000	 99.109431 
851.000000	 99.130810 
850.000000	 99.145021 
849.000000	 99.156997 
848.000000	 99.170765 
847.000000	 99.184457 
846.000000	 99.194037 
845.000000	 99.198891 
844.000000	 99.200647 
843.000000	 99.199667 
842.000000	 99.196703 
841.000000	 99.195295 
840.000000	 99.197731 
839.000000	 99.199779 
838.000000	 99.193711 
837.000000	 99.176540 
836.000000	 99.152641 
835.000000	 99.129151 
834.000000	 99.111145 
833.000000	 99.100020 
832.000000	 99.093836 
831.000000	 99.090063 
830.000000	 99.090114 
829.000000	 99.099124 
828.000000	 99.117837 
827.000000	 99.137187 
826.000000	 99.146636 
825.000000	 99.147100 
824.000000	 99.149316 
823.000000	 99.159918 
822.000000	 99.176390 
821.000000	 99.195786 
820.000000	 99.219258 
819.000000	 99.244841 
818.000000	 99.263087 
817.000000	 99.265086 
816.000000	 99.251681 
815.000000	 99.231034 
814.000000	 99.208401 
813.000000	 99.181244 
812.000000	 99.143506 
811.000000	 99.090774 
810.000000	 99.020314 
809.000000	 98.929545 
808.000000	 98.817926 
807.000000	 98.689880 
806.000000	 98.553232 
805.000000	 98.414388 
804.000000	 98.277151 
803.000000	 98.145968 
802.000000	 98.026981 
801.000000	 97.925131 
800.000000	 97.843336 
799.000000	 97.785477 
798.000000	 97.756775 
797.000000	 97.758676 
796.000000	 97.784849 
795.000000	 97.824280 
794.000000	 97.867688 
793.000000	 97.909479 
792.000000	 97.945365 
791.000000	 97.972564 
790.000000	 97.992715 
789.000000	 98.009472 
788.000000	 98.020851 
787.000000	 98.018228 
786.000000	 97.996154 
785.000000	 97.959229 
784.000000	 97.915542 
783.000000	 97.867483 
782.000000	 97.814605 
781.000000	 97.762868 
780.000000	 97.723775 
779.000000	 97.703579 
778.000000	 97.698736 
777.000000	 97.703554 
776.000000	 97.717783 
775.000000	 97.744484 
774.000000	 97.784464 
773.000000	 97.835268 
772.000000	 97.891990 
771.000000	 97.946336 
770.000000	 97.988714 
769.000000	 98.015141 
768.000000	 98.030386 
767.000000	 98.042348 
766.000000	 98.055237 
765.000000	 98.069645 
764.000000	 98.085960 
763.000000	 98.104152 
762.000000	 98.121651 
761.000000	 98.134820 
760.000000	 98.142686 
759.000000	 98.147931 
758.000000	 98.155044 
757.000000	 98.168481 
756.000000	 98.190892 
755.000000	 98.220735 
754.000000	 98.251957 
753.000000	 98.277684 
752.000000	 98.294436 
751.000000	 98.303171 
750.000000	 98.308461 
749.000000	 98.317215 
748.000000	 98.335191 
747.000000	 98.362096 
746.000000	 98.391652 
745.000000	 98.419391 
744.000000	 98.449131 
743.000000	 98.488100 
742.000000	 98.535992 
741.000000	 98.582904 
740.000000	 98.619910 
739.000000	 98.648995 
738.000000	 98.680181 
737.000000	 98.720195 
736.000000	 98.766131 
735.000000	 98.809343 
734.000000	 98.842384 
733.000000	 98.861965 
732.000000	 98.869102 
731.000000	 98.869538 
730.000000	 98.871945 
729.000000	 98.881423 
728.000000	 98.895203 
727.000000	 98.907613 
726.000000	 98.918690 
725.000000	 98.934927 
724.000000	 98.961062 
723.000000	 98.994230 
722.000000	 99.027125 
721.000000	 99.053972 
720.000000	 99.072391 
719.000000	 99.082881 
718.000000	 99.089040 
717.000000	 99.096152 
716.000000	 99.106846 
715.000000	 99.119258 
714.000000	 99.131058 
713.000000	 99.143585 
712.000000	 99.159697 
711.000000	 99.178366 
710.000000	 99.193748 
709.000000	 99.199229 
708.000000	 99.192035 
707.000000	 99.175403 
706.000000	 99.156508 
705.000000	 99.141096 
704.000000	 99.129258 
703.000000	 99.116510 
702.000000	 99.098225 
701.000000	 99.070376 
700.000000	 99.026666 
699.000000	 98.961229 
698.000000	 98.877596 
697.000000	 98.793107 
696.000000	 98.730624 
695.000000	 98.704439 
694.000000	 98.714280 
693.000000	 98.748707 
692.000000	 98.791810 
691.000000	 98.830540 
690.000000	 98.859633 
689.000000	 98.881026 
688.000000	 98.899196 
687.000000	 98.918552 
686.000000	 98.943774 
685.000000	 98.975852 
684.000000	 99.006699 
683.000000	 99.025194 
682.000000	 99.031494 
681.000000	 99.038781 
680.000000	 99.056555 
679.000000	 99.079172 
678.000000	 99.097170 
677.000000	 99.112365 
676.000000	 99.133889 
675.000000	 99.165286 
674.000000	 99.201294 
673.000000	 99.236252 
672.000000	 99.269493 
671.000000	 99.301343 
670.000000	 99.327927 
669.000000	 99.339042 
668.000000	 99.325675 
667.000000	 99.302785 
666.000000	 99.295487 
665.000000	 99.306513 
664.000000	 99.330637 
663.000000	 99.361770 
662.000000	 99.388880 
661.000000	 99.398335 
660.000000	 99.383516 
659.000000	 99.353453 
658.000000	 99.331193 
657.000000	 99.335217 
656.000000	 99.363543 
655.000000	 99.399112 
654.000000	 99.425811 
653.000000	 99.439009 
652.000000	 99.441946 
651.000000	 99.439197 
650.000000	 99.436542 

