4000.000000	99.271032 
3999.000000	99.268232 
3998.000000	99.265896 
3997.000000	99.266297 
3996.000000	99.268822 
3995.000000	99.270922 
3994.000000	99.271229 
3993.000000	99.270986 
3992.000000	99.272153 
3991.000000	99.274662 
3990.000000	99.276259 
3989.000000	99.274796 
3988.000000	99.270136 
3987.000000	99.264038 
3986.000000	99.258835 
3985.000000	99.256264 
3984.000000	99.256897 
3983.000000	99.260348 
3982.000000	99.265926 
3981.000000	99.272835 
3980.000000	99.279724 
3979.000000	99.284622 
3978.000000	99.286018 
3977.000000	99.284112 
3976.000000	99.280569 
3975.000000	99.276833 
3974.000000	99.273078 
3973.000000	99.269006 
3972.000000	99.265320 
3971.000000	99.263810 
3970.000000	99.266014 
3969.000000	99.271770 
3968.000000	99.278829 
3967.000000	99.284024 
3966.000000	99.285195 
3965.000000	99.282549 
3964.000000	99.278200 
3963.000000	99.274580 
3962.000000	99.272987 
3961.000000	99.273098 
3960.000000	99.273450 
3959.000000	99.272449 
3958.000000	99.269844 
3957.000000	99.267355 
3956.000000	99.267067 
3955.000000	99.269054 
3954.000000	99.271062 
3953.000000	99.270939 
3952.000000	99.268577 
3951.000000	99.265573 
3950.000000	99.263410 
3949.000000	99.262037 
3948.000000	99.260391 
3947.000000	99.258364 
3946.000000	99.257640 
3945.000000	99.259638 
3944.000000	99.263016 
3943.000000	99.264364 
3942.000000	99.262051 
3941.000000	99.258587 
3940.000000	99.257609 
3939.000000	99.259153 
3938.000000	99.260087 
3937.000000	99.258319 
3936.000000	99.254740 
3935.000000	99.251674 
3934.000000	99.250646 
3933.000000	99.252405 
3932.000000	99.257061 
3931.000000	99.263348 
3930.000000	99.268806 
3929.000000	99.271174 
3928.000000	99.270322 
3927.000000	99.267880 
3926.000000	99.264935 
3925.000000	99.261279 
3924.000000	99.257294 
3923.000000	99.254611 
3922.000000	99.253143 
3921.000000	99.250568 
3920.000000	99.246617 
3919.000000	99.244466 
3918.000000	99.245920 
3917.000000	99.248514 
3916.000000	99.249512 
3915.000000	99.250253 
3914.000000	99.253437 
3913.000000	99.258476 
3912.000000	99.262345 
3911.000000	99.262781 
3910.000000	99.259339 
3909.000000	99.253352 
3908.000000	99.247189 
3907.000000	99.243815 
3906.000000	99.244083 
3905.000000	99.245271 
3904.000000	99.243145 
3903.000000	99.238204 
3902.000000	99.236465 
3901.000000	99.241058 
3900.000000	99.247339 
3899.000000	99.249230 
3898.000000	99.246510 
3897.000000	99.242313 
3896.000000	99.237404 
3895.000000	99.231793 
3894.000000	99.229813 
3893.000000	99.236235 
3892.000000	99.246620 
3891.000000	99.249281 
3890.000000	99.242150 
3889.000000	99.237134 
3888.000000	99.241549 
3887.000000	99.250289 
3886.000000	99.253048 
3885.000000	99.244715 
3884.000000	99.233769 
3883.000000	99.232016 
3882.000000	99.238323 
3881.000000	99.243787 
3880.000000	99.242220 
3879.000000	99.235490 
3878.000000	99.232502 
3877.000000	99.236827 
3876.000000	99.242179 
3875.000000	99.240682 
3874.000000	99.230340 
3873.000000	99.219582 
3872.000000	99.218922 
3871.000000	99.225692 
3870.000000	99.226128 
3869.000000	99.216281 
3868.000000	99.211472 
3867.000000	99.222146 
3866.000000	99.237094 
3865.000000	99.244076 
3864.000000	99.244730 
3863.000000	99.245634 
3862.000000	99.247741 
3861.000000	99.246386 
3860.000000	99.238347 
3859.000000	99.223822 
3858.000000	99.203449 
3857.000000	99.181411 
3856.000000	99.167839 
3855.000000	99.174268 
3854.000000	99.193238 
3853.000000	99.197089 
3852.000000	99.187868 
3851.000000	99.197933 
3850.000000	99.225517 
3849.000000	99.245289 
3848.000000	99.250151 
3847.000000	99.247565 
3846.000000	99.243853 
3845.000000	99.240100 
3844.000000	99.235355 
3843.000000	99.228769 
3842.000000	99.221718 
3841.000000	99.217862 
3840.000000	99.219326 
3839.000000	99.224636 
3838.000000	99.229013 
3837.000000	99.229183 
3836.000000	99.227037 
3835.000000	99.227040 
3834.000000	99.230413 
3833.000000	99.235358 
3832.000000	99.239076 
3831.000000	99.240406 
3830.000000	99.241835 
3829.000000	99.246123 
3828.000000	99.251157 
3827.000000	99.250348 
3826.000000	99.239854 
3825.000000	99.225940 
3824.000000	99.219984 
3823.000000	99.226425 
3822.000000	99.236767 
3821.000000	99.234346 
3820.000000	99.217818 
3819.000000	99.210118 
3818.000000	99.221676 
3817.000000	99.237999 
3816.000000	99.243745 
3815.000000	99.238416 
3814.000000	99.236890 
3813.000000	99.245382 
3812.000000	99.250631 
3811.000000	99.243791 
3810.000000	99.232834 
3809.000000	99.229401 
3808.000000	99.233849 
3807.000000	99.233862 
3806.000000	99.222535 
3805.000000	99.211094 
3804.000000	99.210647 
3803.000000	99.217322 
3802.000000	99.220713 
3801.000000	99.212276 
3800.000000	99.200091 
3799.000000	99.202408 
3798.000000	99.216366 
3797.000000	99.226927 
3796.000000	99.229842 
3795.000000	99.231342 
3794.000000	99.238120 
3793.000000	99.248877 
3792.000000	99.257795 
3791.000000	99.262051 
3790.000000	99.262488 
3789.000000	99.260526 
3788.000000	99.258489 
3787.000000	99.259404 
3786.000000	99.263864 
3785.000000	99.268084 
3784.000000	99.268420 
3783.000000	99.266179 
3782.000000	99.265164 
3781.000000	99.265898 
3780.000000	99.265283 
3779.000000	99.260781 
3778.000000	99.254869 
3777.000000	99.252813 
3776.000000	99.254356 
3775.000000	99.254121 
3774.000000	99.249970 
3773.000000	99.245962 
3772.000000	99.245753 
3771.000000	99.246756 
3770.000000	99.243326 
3769.000000	99.236277 
3768.000000	99.233798 
3767.000000	99.239559 
3766.000000	99.246838 
3765.000000	99.248536 
3764.000000	99.246552 
3763.000000	99.247863 
3762.000000	99.253265 
3761.000000	99.256844 
3760.000000	99.255555 
3759.000000	99.251434 
3758.000000	99.246199 
3757.000000	99.239430 
3756.000000	99.231096 
3755.000000	99.222777 
3754.000000	99.214897 
3753.000000	99.208076 
3752.000000	99.204644 
3751.000000	99.202780 
3750.000000	99.194617 
3749.000000	99.179370 
3748.000000	99.168143 
3747.000000	99.169306 
3746.000000	99.180822 
3745.000000	99.193116 
3744.000000	99.192126 
3743.000000	99.184834 
3742.000000	99.195264 
3741.000000	99.214398 
3740.000000	99.217778 
3739.000000	99.206750 
3738.000000	99.196611 
3737.000000	99.194955 
3736.000000	99.198032 
3735.000000	99.202659 
3734.000000	99.210535 
3733.000000	99.219938 
3732.000000	99.224515 
3731.000000	99.224312 
3730.000000	99.226743 
3729.000000	99.234044 
3728.000000	99.240547 
3727.000000	99.242190 
3726.000000	99.241581 
3725.000000	99.244185 
3724.000000	99.250875 
3723.000000	99.256106 
3722.000000	99.256070 
3721.000000	99.253237 
3720.000000	99.252407 
3719.000000	99.254218 
3718.000000	99.254134 
3717.000000	99.247960 
3716.000000	99.236355 
3715.000000	99.222972 
3714.000000	99.209999 
3713.000000	99.198634 
3712.000000	99.189699 
3711.000000	99.183533 
3710.000000	99.182210 
3709.000000	99.187028 
3708.000000	99.193786 
3707.000000	99.196604 
3706.000000	99.194016 
3705.000000	99.189608 
3704.000000	99.187632 
3703.000000	99.189257 
3702.000000	99.191342 
3701.000000	99.189835 
3700.000000	99.185630 
3699.000000	99.182485 
3698.000000	99.179941 
3697.000000	99.174374 
3696.000000	99.165584 
3695.000000	99.157336 
3694.000000	99.151380 
3693.000000	99.145380 
3692.000000	99.138924 
3691.000000	99.135886 
3690.000000	99.137672 
3689.000000	99.138319 
3688.000000	99.133767 
3687.000000	99.131802 
3686.000000	99.139878 
3685.000000	99.151612 
3684.000000	99.156284 
3683.000000	99.152626 
3682.000000	99.146267 
3681.000000	99.139111 
3680.000000	99.126342 
3679.000000	99.106486 
3678.000000	99.087496 
3677.000000	99.078134 
3676.000000	99.075126 
3675.000000	99.065612 
3674.000000	99.055413 
3673.000000	99.062584 
3672.000000	99.081721 
3671.000000	99.097602 
3670.000000	99.104432 
3669.000000	99.102154 
3668.000000	99.099246 
3667.000000	99.101121 
3666.000000	99.102646 
3665.000000	99.101204 
3664.000000	99.100037 
3663.000000	99.101340 
3662.000000	99.102662 
3661.000000	99.100401 
3660.000000	99.095089 
3659.000000	99.091990 
3658.000000	99.094822 
3657.000000	99.099430 
3656.000000	99.096759 
3655.000000	99.086560 
3654.000000	99.079291 
3653.000000	99.079487 
3652.000000	99.083681 
3651.000000	99.089649 
3650.000000	99.094000 
3649.000000	99.089618 
3648.000000	99.077502 
3647.000000	99.068039 
3646.000000	99.068363 
3645.000000	99.077324 
3644.000000	99.089084 
3643.000000	99.098245 
3642.000000	99.102987 
3641.000000	99.105312 
3640.000000	99.108034 
3639.000000	99.111787 
3638.000000	99.115258 
3637.000000	99.118561 
3636.000000	99.121799 
3635.000000	99.120822 
3634.000000	99.109839 
3633.000000	99.090238 
3632.000000	99.073078 
3631.000000	99.070123 
3630.000000	99.083925 
3629.000000	99.099299 
3628.000000	99.098792 
3627.000000	99.092659 
3626.000000	99.096211 
3625.000000	99.102459 
3624.000000	99.102150 
3623.000000	99.096810 
3622.000000	99.092054 
3621.000000	99.091029 
3620.000000	99.092883 
3619.000000	99.094551 
3618.000000	99.095473 
3617.000000	99.099590 
3616.000000	99.108379 
3615.000000	99.117143 
3614.000000	99.119877 
3613.000000	99.114381 
3612.000000	99.104455 
3611.000000	99.097071 
3610.000000	99.096748 
3609.000000	99.103114 
3608.000000	99.112302 
3607.000000	99.120310 
3606.000000	99.125735 
3605.000000	99.128931 
3604.000000	99.130878 
3603.000000	99.133318 
3602.000000	99.136907 
3601.000000	99.140223 
3600.000000	99.142274 
3599.000000	99.144288 
3598.000000	99.147300 
3597.000000	99.150390 
3596.000000	99.152206 
3595.000000	99.151779 
3594.000000	99.149128 
3593.000000	99.146160 
3592.000000	99.146031 
3591.000000	99.150077 
3590.000000	99.156956 
3589.000000	99.163052 
3588.000000	99.163816 
3587.000000	99.157822 
3586.000000	99.150961 
3585.000000	99.150503 
3584.000000	99.156024 
3583.000000	99.161889 
3582.000000	99.164143 
3581.000000	99.162145 
3580.000000	99.156995 
3579.000000	99.150308 
3578.000000	99.143796 
3577.000000	99.139075 
3576.000000	99.137671 
3575.000000	99.139828 
3574.000000	99.143648 
3573.000000	99.145842 
3572.000000	99.144055 
3571.000000	99.138451 
3570.000000	99.131351 
3569.000000	99.125543 
3568.000000	99.122529 
3567.000000	99.122450 
3566.000000	99.125991 
3565.000000	99.134361 
3564.000000	99.145117 
3563.000000	99.152910 
3562.000000	99.155248 
3561.000000	99.154073 
3560.000000	99.152423 
3559.000000	99.151353 
3558.000000	99.150019 
3557.000000	99.147703 
3556.000000	99.145422 
3555.000000	99.145382 
3554.000000	99.148450 
3553.000000	99.152449 
3552.000000	99.153549 
3551.000000	99.149806 
3550.000000	99.142502 
3549.000000	99.134649 
3548.000000	99.129582 
3547.000000	99.129894 
3546.000000	99.135282 
3545.000000	99.142121 
3544.000000	99.146474 
3543.000000	99.146999 
3542.000000	99.144981 
3541.000000	99.142616 
3540.000000	99.141737 
3539.000000	99.143257 
3538.000000	99.146650 
3537.000000	99.150078 
3536.000000	99.151543 
3535.000000	99.150394 
3534.000000	99.147336 
3533.000000	99.143447 
3532.000000	99.139763 
3531.000000	99.137362 
3530.000000	99.136809 
3529.000000	99.137416 
3528.000000	99.138285 
3527.000000	99.139909 
3526.000000	99.143694 
3525.000000	99.149354 
3524.000000	99.154301 
3523.000000	99.156214 
3522.000000	99.155392 
3521.000000	99.153766 
3520.000000	99.152347 
3519.000000	99.150743 
3518.000000	99.148691 
3517.000000	99.146880 
3516.000000	99.145962 
3515.000000	99.145760 
3514.000000	99.146073 
3513.000000	99.147459 
3512.000000	99.150280 
3511.000000	99.153402 
3510.000000	99.154938 
3509.000000	99.154225 
3508.000000	99.152599 
3507.000000	99.151861 
3506.000000	99.152062 
3505.000000	99.150983 
3504.000000	99.146085 
3503.000000	99.137626 
3502.000000	99.130243 
3501.000000	99.130009 
3500.000000	99.138540 
3499.000000	99.150270 
3498.000000	99.156515 
3497.000000	99.153114 
3496.000000	99.144302 
3495.000000	99.138335 
3494.000000	99.139431 
3493.000000	99.144583 
3492.000000	99.147749 
3491.000000	99.145862 
3490.000000	99.140808 
3489.000000	99.136707 
3488.000000	99.136172 
3487.000000	99.138886 
3486.000000	99.142701 
3485.000000	99.145552 
3484.000000	99.146652 
3483.000000	99.146423 
3482.000000	99.145369 
3481.000000	99.143261 
3480.000000	99.139909 
3479.000000	99.136475 
3478.000000	99.135099 
3477.000000	99.136585 
3476.000000	99.138956 
3475.000000	99.139182 
3474.000000	99.136571 
3473.000000	99.133605 
3472.000000	99.133094 
3471.000000	99.135198 
3470.000000	99.137732 
3469.000000	99.138679 
3468.000000	99.137627 
3467.000000	99.135384 
3466.000000	99.133170 
3465.000000	99.132084 
3464.000000	99.132443 
3463.000000	99.133396 
3462.000000	99.133542 
3461.000000	99.132136 
3460.000000	99.129608 
3459.000000	99.127113 
3458.000000	99.125780 
3457.000000	99.126065 
3456.000000	99.127310 
3455.000000	99.128170 
3454.000000	99.127921 
3453.000000	99.127128 
3452.000000	99.126878 
3451.000000	99.127649 
3450.000000	99.129119 
3449.000000	99.130512 
3448.000000	99.130868 
3447.000000	99.129419 
3446.000000	99.126629 
3445.000000	99.124494 
3444.000000	99.124792 
3443.000000	99.126988 
3442.000000	99.128503 
3441.000000	99.127369 
3440.000000	99.124293 
3439.000000	99.121612 
3438.000000	99.120581 
3437.000000	99.120320 
3436.000000	99.119371 
3435.000000	99.117741 
3434.000000	99.116977 
3433.000000	99.118407 
3432.000000	99.121690 
3431.000000	99.124950 
3430.000000	99.125970 
3429.000000	99.123453 
3428.000000	99.117948 
3427.000000	99.111693 
3426.000000	99.107263 
3425.000000	99.106060 
3424.000000	99.107866 
3423.000000	99.111301 
3422.000000	99.114276 
3421.000000	99.114585 
3420.000000	99.111272 
3419.000000	99.105991 
3418.000000	99.102298 
3417.000000	99.102625 
3416.000000	99.105775 
3415.000000	99.107896 
3414.000000	99.106245 
3413.000000	99.101846 
3412.000000	99.098219 
3411.000000	99.097871 
3410.000000	99.100565 
3409.000000	99.104539 
3408.000000	99.108252 
3407.000000	99.110567 
3406.000000	99.110394 
3405.000000	99.107514 
3404.000000	99.103642 
3403.000000	99.101641 
3402.000000	99.103236 
3401.000000	99.107751 
3400.000000	99.112986 
3399.000000	99.116919 
3398.000000	99.118833 
3397.000000	99.119386 
3396.000000	99.119606 
3395.000000	99.119561 
3394.000000	99.118368 
3393.000000	99.115812 
3392.000000	99.113364 
3391.000000	99.112710 
3390.000000	99.113542 
3389.000000	99.113858 
3388.000000	99.112538 
3387.000000	99.110721 
3386.000000	99.110312 
3385.000000	99.111879 
3384.000000	99.114388 
3383.000000	99.116417 
3382.000000	99.117021 
3381.000000	99.115796 
3380.000000	99.112804 
3379.000000	99.108612 
3378.000000	99.104369 
3377.000000	99.101714 
3376.000000	99.102180 
3375.000000	99.106013 
3374.000000	99.111511 
3373.000000	99.115932 
3372.000000	99.117406 
3371.000000	99.115958 
3370.000000	99.112958 
3369.000000	99.110077 
3368.000000	99.108632 
3367.000000	99.109049 
3366.000000	99.110369 
3365.000000	99.110781 
3364.000000	99.109385 
3363.000000	99.107407 
3362.000000	99.107109 
3361.000000	99.109318 
3360.000000	99.112491 
3359.000000	99.114507 
3358.000000	99.115114 
3357.000000	99.116063 
3356.000000	99.118693 
3355.000000	99.121782 
3354.000000	99.122422 
3353.000000	99.119155 
3352.000000	99.113839 
3351.000000	99.110156 
3350.000000	99.110528 
3349.000000	99.114668 
3348.000000	99.120509 
3347.000000	99.125735 
3346.000000	99.128629 
3345.000000	99.128610 
3344.000000	99.126602 
3343.000000	99.124334 
3342.000000	99.122739 
3341.000000	99.121355 
3340.000000	99.119574 
3339.000000	99.117848 
3338.000000	99.117006 
3337.000000	99.116784 
3336.000000	99.116025 
3335.000000	99.114527 
3334.000000	99.113890 
3333.000000	99.115970 
3332.000000	99.120701 
3331.000000	99.125766 
3330.000000	99.128464 
3329.000000	99.127980 
3328.000000	99.125967 
3327.000000	99.124852 
3326.000000	99.125510 
3325.000000	99.126828 
3324.000000	99.127645 
3323.000000	99.128457 
3322.000000	99.130411 
3321.000000	99.132937 
3320.000000	99.133519 
3319.000000	99.130435 
3318.000000	99.125131 
3317.000000	99.121130 
3316.000000	99.120737 
3315.000000	99.123241 
3314.000000	99.126210 
3313.000000	99.128007 
3312.000000	99.128939 
3311.000000	99.130381 
3310.000000	99.133088 
3309.000000	99.136379 
3308.000000	99.138897 
3307.000000	99.139906 
3306.000000	99.139450 
3305.000000	99.137277 
3304.000000	99.132472 
3303.000000	99.124962 
3302.000000	99.117141 
3301.000000	99.112939 
3300.000000	99.114658 
3299.000000	99.120965 
3298.000000	99.128167 
3297.000000	99.133200 
3296.000000	99.135374 
3295.000000	99.135906 
3294.000000	99.136509 
3293.000000	99.138349 
3292.000000	99.141598 
3291.000000	99.145486 
3290.000000	99.148846 
3289.000000	99.150723 
3288.000000	99.150711 
3287.000000	99.149036 
3286.000000	99.146475 
3285.000000	99.144004 
3284.000000	99.142240 
3283.000000	99.141170 
3282.000000	99.140422 
3281.000000	99.139595 
3280.000000	99.138246 
3279.000000	99.136021 
3278.000000	99.133285 
3277.000000	99.131350 
3276.000000	99.131507 
3275.000000	99.133820 
3274.000000	99.137167 
3273.000000	99.140146 
3272.000000	99.141411 
3271.000000	99.139618 
3270.000000	99.134359 
3269.000000	99.127607 
3268.000000	99.123318 
3267.000000	99.124616 
3266.000000	99.131302 
3265.000000	99.140271 
3264.000000	99.148075 
3263.000000	99.152895 
3262.000000	99.154796 
3261.000000	99.154935 
3260.000000	99.154430 
3259.000000	99.153486 
3258.000000	99.151464 
3257.000000	99.147797 
3256.000000	99.142731 
3255.000000	99.137378 
3254.000000	99.133454 
3253.000000	99.132794 
3252.000000	99.136138 
3251.000000	99.141872 
3250.000000	99.146697 
3249.000000	99.148386 
3248.000000	99.147636 
3247.000000	99.146624 
3246.000000	99.146127 
3245.000000	99.144975 
3244.000000	99.142357 
3243.000000	99.139819 
3242.000000	99.140458 
3241.000000	99.146142 
3240.000000	99.155266 
3239.000000	99.163085 
3238.000000	99.164929 
3237.000000	99.159993 
3236.000000	99.152082 
3235.000000	99.146324 
3234.000000	99.145227 
3233.000000	99.148034 
3232.000000	99.153038 
3231.000000	99.159255 
3230.000000	99.165792 
3229.000000	99.170847 
3228.000000	99.172243 
3227.000000	99.168924 
3226.000000	99.161881 
3225.000000	99.153895 
3224.000000	99.148189 
3223.000000	99.146474 
3222.000000	99.147840 
3221.000000	99.149920 
3220.000000	99.151254 
3219.000000	99.152097 
3218.000000	99.153049 
3217.000000	99.153902 
3216.000000	99.154380 
3215.000000	99.155197 
3214.000000	99.157330 
3213.000000	99.160362 
3212.000000	99.162536 
3211.000000	99.162738 
3210.000000	99.161807 
3209.000000	99.161483 
3208.000000	99.162499 
3207.000000	99.164235 
3206.000000	99.166043 
3205.000000	99.168227 
3204.000000	99.171365 
3203.000000	99.175072 
3202.000000	99.178123 
3201.000000	99.179930 
3200.000000	99.181222 
3199.000000	99.182751 
3198.000000	99.183809 
3197.000000	99.182957 
3196.000000	99.180188 
3195.000000	99.177310 
3194.000000	99.175658 
3193.000000	99.174353 
3192.000000	99.171800 
3191.000000	99.168481 
3190.000000	99.167087 
3189.000000	99.169588 
3188.000000	99.174954 
3187.000000	99.180087 
3186.000000	99.182515 
3185.000000	99.181924 
3184.000000	99.179723 
3183.000000	99.177851 
3182.000000	99.177660 
3181.000000	99.179032 
3180.000000	99.180361 
3179.000000	99.179916 
3178.000000	99.177446 
3177.000000	99.174256 
3176.000000	99.171766 
3175.000000	99.170585 
3174.000000	99.171089 
3173.000000	99.174009 
3172.000000	99.179490 
3171.000000	99.185731 
3170.000000	99.189667 
3169.000000	99.189695 
3168.000000	99.187384 
3167.000000	99.185930 
3166.000000	99.187053 
3165.000000	99.189845 
3164.000000	99.192482 
3163.000000	99.194331 
3162.000000	99.196008 
3161.000000	99.197889 
3160.000000	99.199339 
3159.000000	99.199519 
3158.000000	99.198438 
3157.000000	99.196920 
3156.000000	99.195724 
3155.000000	99.194949 
3154.000000	99.194307 
3153.000000	99.193835 
3152.000000	99.194119 
3151.000000	99.195514 
3150.000000	99.197205 
3149.000000	99.197636 
3148.000000	99.196336 
3147.000000	99.194919 
3146.000000	99.195461 
3145.000000	99.197910 
3144.000000	99.199960 
3143.000000	99.199847 
3142.000000	99.198511 
3141.000000	99.198307 
3140.000000	99.199991 
3139.000000	99.201876 
3138.000000	99.202059 
3137.000000	99.200791 
3136.000000	99.200114 
3135.000000	99.201456 
3134.000000	99.204083 
3133.000000	99.205916 
3132.000000	99.205519 
3131.000000	99.203139 
3130.000000	99.200013 
3129.000000	99.197093 
3128.000000	99.194703 
3127.000000	99.193159 
3126.000000	99.193136 
3125.000000	99.195073 
3124.000000	99.198452 
3123.000000	99.201940 
3122.000000	99.204205 
3121.000000	99.204803 
3120.000000	99.204629 
3119.000000	99.205313 
3118.000000	99.207472 
3117.000000	99.209460 
3116.000000	99.208632 
3115.000000	99.204354 
3114.000000	99.199070 
3113.000000	99.195773 
3112.000000	99.195156 
3111.000000	99.196120 
3110.000000	99.198134 
3109.000000	99.201317 
3108.000000	99.204426 
3107.000000	99.204889 
3106.000000	99.201883 
3105.000000	99.198136 
3104.000000	99.197546 
3103.000000	99.201531 
3102.000000	99.208351 
3101.000000	99.215272 
3100.000000	99.220305 
3099.000000	99.222234 
3098.000000	99.220563 
3097.000000	99.216252 
3096.000000	99.211742 
3095.000000	99.209422 
3094.000000	99.210069 
3093.000000	99.212804 
3092.000000	99.216033 
3091.000000	99.218145 
3090.000000	99.218042 
3089.000000	99.215950 
3088.000000	99.213763 
3087.000000	99.213813 
3086.000000	99.216770 
3085.000000	99.220958 
3084.000000	99.224006 
3083.000000	99.224998 
3082.000000	99.224824 
3081.000000	99.224710 
3080.000000	99.224898 
3079.000000	99.224746 
3078.000000	99.223626 
3077.000000	99.221435 
3076.000000	99.218544 
3075.000000	99.215692 
3074.000000	99.213810 
3073.000000	99.213537 
3072.000000	99.214864 
3071.000000	99.217392 
3070.000000	99.220595 
3069.000000	99.223392 
3068.000000	99.223827 
3067.000000	99.220295 
3066.000000	99.213680 
3065.000000	99.207590 
3064.000000	99.205436 
3063.000000	99.207193 
3062.000000	99.209662 
3061.000000	99.210072 
3060.000000	99.208940 
3059.000000	99.209113 
3058.000000	99.212455 
3057.000000	99.217991 
3056.000000	99.223166 
3055.000000	99.226341 
3054.000000	99.227725 
3053.000000	99.228165 
3052.000000	99.227713 
3051.000000	99.225704 
3050.000000	99.221968 
3049.000000	99.217409 
3048.000000	99.213214 
3047.000000	99.209845 
3046.000000	99.207155 
3045.000000	99.205146 
3044.000000	99.204058 
3043.000000	99.203780 
3042.000000	99.203781 
3041.000000	99.203818 
3040.000000	99.204293 
3039.000000	99.205627 
3038.000000	99.207499 
3037.000000	99.208931 
3036.000000	99.209036 
3035.000000	99.207569 
3034.000000	99.204899 
3033.000000	99.201603 
3032.000000	99.197962 
3031.000000	99.193804 
3030.000000	99.188801 
3029.000000	99.182798 
3028.000000	99.175806 
3027.000000	99.168081 
3026.000000	99.160479 
3025.000000	99.154271 
3024.000000	99.149867 
3023.000000	99.145841 
3022.000000	99.140020 
3021.000000	99.131780 
3020.000000	99.122819 
3019.000000	99.115467 
3018.000000	99.110656 
3017.000000	99.107610 
3016.000000	99.104778 
3015.000000	99.100662 
3014.000000	99.094337 
3013.000000	99.085816 
3012.000000	99.075704 
3011.000000	99.064258 
3010.000000	99.051409 
3009.000000	99.038086 
3008.000000	99.026798 
3007.000000	99.019966 
3006.000000	99.017698 
3005.000000	99.017515 
3004.000000	99.015879 
3003.000000	99.009783 
3002.000000	98.998026 
3001.000000	98.982419 
3000.000000	98.967450 
2999.000000	98.957119 
2998.000000	98.951645 
2997.000000	98.948209 
2996.000000	98.944859 
2995.000000	98.941991 
2994.000000	98.939285 
2993.000000	98.933151 
2992.000000	98.919617 
2991.000000	98.899659 
2990.000000	98.879891 
2989.000000	98.867118 
2988.000000	98.862889 
2987.000000	98.863834 
2986.000000	98.866391 
2985.000000	98.870028 
2984.000000	98.875837 
2983.000000	98.883279 
2982.000000	98.889573 
2981.000000	98.892396 
2980.000000	98.892392 
2979.000000	98.892244 
2978.000000	98.893555 
2977.000000	98.895429 
2976.000000	98.896158 
2975.000000	98.895368 
2974.000000	98.893983 
2973.000000	98.892754 
2972.000000	98.891740 
2971.000000	98.891090 
2970.000000	98.891601 
2969.000000	98.894282 
2968.000000	98.899712 
2967.000000	98.907742 
2966.000000	98.917471 
2965.000000	98.927547 
2964.000000	98.936967 
2963.000000	98.945629 
2962.000000	98.953752 
2961.000000	98.960828 
2960.000000	98.965782 
2959.000000	98.968462 
2958.000000	98.970472 
2957.000000	98.973887 
2956.000000	98.978988 
2955.000000	98.983561 
2954.000000	98.984963 
2953.000000	98.983416 
2952.000000	98.983119 
2951.000000	98.989034 
2950.000000	99.001649 
2949.000000	99.015416 
2948.000000	99.023567 
2947.000000	99.024537 
2946.000000	99.022750 
2945.000000	99.023177 
2944.000000	99.026663 
2943.000000	99.030969 
2942.000000	99.034413 
2941.000000	99.036748 
2940.000000	99.037597 
2939.000000	99.036378 
2938.000000	99.033892 
2937.000000	99.032257 
2936.000000	99.032764 
2935.000000	99.034984 
2934.000000	99.038259 
2933.000000	99.042620 
2932.000000	99.047594 
2931.000000	99.051420 
2930.000000	99.052555 
2929.000000	99.051277 
2928.000000	99.049029 
2927.000000	99.046826 
2926.000000	99.045064 
2925.000000	99.044037 
2924.000000	99.043600 
2923.000000	99.042838 
2922.000000	99.041106 
2921.000000	99.039019 
2920.000000	99.037434 
2919.000000	99.035809 
2918.000000	99.032680 
2917.000000	99.027663 
2916.000000	99.022061 
2915.000000	99.017521 
2914.000000	99.014879 
2913.000000	99.014152 
2912.000000	99.014520 
2911.000000	99.014162 
2910.000000	99.011234 
2909.000000	99.005643 
2908.000000	98.999312 
2907.000000	98.994211 
2906.000000	98.990560 
2905.000000	98.987072 
2904.000000	98.982284 
2903.000000	98.975598 
2902.000000	98.968082 
2901.000000	98.962939 
2900.000000	98.964034 
2899.000000	98.972505 
2898.000000	98.984733 
2897.000000	98.994747 
2896.000000	98.999276 
2895.000000	99.000193 
2894.000000	99.001917 
2893.000000	99.006757 
2892.000000	99.012984 
2891.000000	99.016984 
2890.000000	99.016746 
2889.000000	99.013276 
2888.000000	99.009172 
2887.000000	99.006482 
2886.000000	99.006041 
2885.000000	99.008063 
2884.000000	99.012459 
2883.000000	99.018542 
2882.000000	99.025181 
2881.000000	99.031789 
2880.000000	99.038907 
2879.000000	99.047553 
2878.000000	99.058077 
2877.000000	99.069577 
2876.000000	99.079974 
2875.000000	99.086641 
2874.000000	99.087820 
2873.000000	99.084366 
2872.000000	99.079953 
2871.000000	99.078775 
2870.000000	99.082556 
2869.000000	99.089710 
2868.000000	99.097362 
2867.000000	99.104166 
2866.000000	99.111410 
2865.000000	99.121484 
2864.000000	99.135023 
2863.000000	99.149367 
2862.000000	99.160272 
2861.000000	99.165597 
2860.000000	99.167305 
2859.000000	99.169504 
2858.000000	99.174568 
2857.000000	99.181396 
2856.000000	99.187175 
2855.000000	99.190391 
2854.000000	99.191956 
2853.000000	99.193668 
2852.000000	99.196033 
2851.000000	99.197976 
2850.000000	99.198774 
2849.000000	99.199681 
2848.000000	99.202833 
2847.000000	99.208552 
2846.000000	99.214427 
2845.000000	99.217455 
2844.000000	99.216802 
2843.000000	99.214348 
2842.000000	99.213040 
2841.000000	99.214775 
2840.000000	99.219120 
2839.000000	99.223499 
2838.000000	99.225014 
2837.000000	99.222705 
2836.000000	99.218089 
2835.000000	99.213667 
2834.000000	99.211421 
2833.000000	99.212545 
2832.000000	99.217258 
2831.000000	99.224122 
2830.000000	99.230536 
2829.000000	99.235025 
2828.000000	99.238538 
2827.000000	99.242470 
2826.000000	99.245983 
2825.000000	99.246593 
2824.000000	99.243328 
2823.000000	99.238186 
2822.000000	99.234330 
2821.000000	99.233756 
2820.000000	99.236625 
2819.000000	99.241671 
2818.000000	99.246823 
2817.000000	99.250284 
2816.000000	99.251627 
2815.000000	99.251590 
2814.000000	99.250906 
2813.000000	99.249960 
2812.000000	99.249393 
2811.000000	99.249878 
2810.000000	99.250926 
2809.000000	99.250912 
2808.000000	99.248953 
2807.000000	99.246179 
2806.000000	99.244627 
2805.000000	99.245303 
2804.000000	99.247691 
2803.000000	99.250578 
2802.000000	99.252838 
2801.000000	99.253813 
2800.000000	99.253557 
2799.000000	99.252653 
2798.000000	99.251640 
2797.000000	99.250740 
2796.000000	99.250076 
2795.000000	99.249707 
2794.000000	99.249392 
2793.000000	99.248788 
2792.000000	99.247944 
2791.000000	99.247204 
2790.000000	99.246825 
2789.000000	99.247283 
2788.000000	99.249580 
2787.000000	99.254044 
2786.000000	99.258920 
2785.000000	99.261600 
2784.000000	99.261682 
2783.000000	99.261297 
2782.000000	99.261814 
2781.000000	99.261835 
2780.000000	99.259732 
2779.000000	99.256722 
2778.000000	99.255559 
2777.000000	99.256901 
2776.000000	99.258766 
2775.000000	99.259323 
2774.000000	99.258508 
2773.000000	99.256908 
2772.000000	99.254716 
2771.000000	99.252321 
2770.000000	99.250726 
2769.000000	99.250770 
2768.000000	99.252597 
2767.000000	99.256012 
2766.000000	99.260474 
2765.000000	99.264671 
2764.000000	99.267196 
2763.000000	99.268090 
2762.000000	99.268869 
2761.000000	99.270612 
2760.000000	99.272772 
2759.000000	99.274231 
2758.000000	99.274795 
2757.000000	99.275276 
2756.000000	99.276706 
2755.000000	99.279548 
2754.000000	99.282807 
2753.000000	99.283780 
2752.000000	99.280015 
2751.000000	99.272332 
2750.000000	99.264911 
2749.000000	99.261449 
2748.000000	99.261771 
2747.000000	99.262934 
2746.000000	99.262836 
2745.000000	99.261691 
2744.000000	99.260656 
2743.000000	99.260410 
2742.000000	99.261044 
2741.000000	99.262251 
2740.000000	99.263471 
2739.000000	99.264569 
2738.000000	99.266305 
2737.000000	99.269321 
2736.000000	99.272655 
2735.000000	99.274238 
2734.000000	99.273175 
2733.000000	99.270817 
2732.000000	99.269155 
2731.000000	99.268728 
2730.000000	99.268631 
2729.000000	99.268231 
2728.000000	99.268254 
2727.000000	99.269986 
2726.000000	99.273531 
2725.000000	99.277138 
2724.000000	99.278612 
2723.000000	99.277573 
2722.000000	99.275962 
2721.000000	99.276047 
2720.000000	99.278148 
2719.000000	99.280655 
2718.000000	99.281830 
2717.000000	99.281103 
2716.000000	99.279156 
2715.000000	99.277625 
2714.000000	99.278383 
2713.000000	99.281957 
2712.000000	99.286450 
2711.000000	99.289037 
2710.000000	99.288874 
2709.000000	99.287685 
2708.000000	99.287150 
2707.000000	99.286749 
2706.000000	99.284889 
2705.000000	99.281393 
2704.000000	99.277886 
2703.000000	99.275986 
2702.000000	99.275916 
2701.000000	99.276780 
2700.000000	99.277547 
2699.000000	99.277679 
2698.000000	99.277170 
2697.000000	99.276154 
2696.000000	99.274622 
2695.000000	99.272881 
2694.000000	99.272108 
2693.000000	99.273488 
2692.000000	99.276303 
2691.000000	99.277867 
2690.000000	99.276451 
2689.000000	99.273890 
2688.000000	99.274011 
2687.000000	99.278284 
2686.000000	99.283876 
2685.000000	99.286463 
2684.000000	99.284532 
2683.000000	99.280629 
2682.000000	99.278639 
2681.000000	99.280081 
2680.000000	99.282957 
2679.000000	99.284117 
2678.000000	99.282618 
2677.000000	99.280482 
2676.000000	99.280157 
2675.000000	99.281941 
2674.000000	99.284307 
2673.000000	99.285976 
2672.000000	99.286632 
2671.000000	99.285893 
2670.000000	99.282864 
2669.000000	99.277286 
2668.000000	99.270628 
2667.000000	99.265567 
2666.000000	99.264375 
2665.000000	99.267507 
2664.000000	99.273291 
2663.000000	99.279112 
2662.000000	99.283363 
2661.000000	99.286125 
2660.000000	99.287630 
2659.000000	99.286754 
2658.000000	99.282157 
2657.000000	99.274777 
2656.000000	99.267917 
2655.000000	99.264433 
2654.000000	99.264562 
2653.000000	99.266607 
2652.000000	99.268729 
2651.000000	99.269772 
2650.000000	99.269563 
2649.000000	99.269141 
2648.000000	99.269904 
2647.000000	99.271874 
2646.000000	99.273531 
2645.000000	99.273896 
2644.000000	99.273781 
2643.000000	99.274132 
2642.000000	99.274069 
2641.000000	99.271953 
2640.000000	99.268115 
2639.000000	99.265424 
2638.000000	99.266927 
2637.000000	99.273124 
2636.000000	99.281112 
2635.000000	99.286169 
2634.000000	99.285209 
2633.000000	99.279634 
2632.000000	99.274211 
2631.000000	99.272349 
2630.000000	99.273180 
2629.000000	99.273911 
2628.000000	99.273641 
2627.000000	99.273305 
2626.000000	99.273008 
2625.000000	99.271903 
2624.000000	99.270641 
2623.000000	99.271481 
2622.000000	99.275089 
2621.000000	99.278936 
2620.000000	99.280034 
2619.000000	99.278288 
2618.000000	99.276229 
2617.000000	99.276141 
2616.000000	99.278148 
2615.000000	99.280517 
2614.000000	99.281143 
2613.000000	99.279212 
2612.000000	99.276026 
2611.000000	99.274035 
2610.000000	99.274713 
2609.000000	99.277461 
2608.000000	99.280485 
2607.000000	99.282472 
2606.000000	99.283598 
2605.000000	99.285199 
2604.000000	99.288050 
2603.000000	99.290560 
2602.000000	99.289654 
2601.000000	99.284599 
2600.000000	99.279188 
2599.000000	99.278380 
2598.000000	99.282905 
2597.000000	99.288725 
2596.000000	99.291515 
2595.000000	99.289810 
2594.000000	99.284156 
2593.000000	99.276212 
2592.000000	99.269732 
2591.000000	99.269494 
2590.000000	99.276778 
2589.000000	99.287131 
2588.000000	99.294436 
2587.000000	99.296153 
2586.000000	99.293206 
2585.000000	99.286652 
2584.000000	99.277259 
2583.000000	99.267630 
2582.000000	99.261626 
2581.000000	99.260806 
2580.000000	99.262985 
2579.000000	99.264761 
2578.000000	99.264364 
2577.000000	99.262229 
2576.000000	99.260451 
2575.000000	99.261778 
2574.000000	99.267351 
2573.000000	99.274770 
2572.000000	99.279695 
2571.000000	99.279875 
2570.000000	99.276500 
2569.000000	99.271611 
2568.000000	99.266123 
2567.000000	99.261104 
2566.000000	99.258818 
2565.000000	99.260537 
2564.000000	99.264224 
2563.000000	99.266119 
2562.000000	99.264418 
2561.000000	99.260552 
2560.000000	99.257642 
2559.000000	99.258659 
2558.000000	99.264789 
2557.000000	99.273569 
2556.000000	99.279417 
2555.000000	99.278585 
2554.000000	99.273929 
2553.000000	99.272548 
2552.000000	99.277871 
2551.000000	99.285994 
2550.000000	99.290782 
2549.000000	99.290442 
2548.000000	99.287247 
2547.000000	99.282746 
2546.000000	99.276477 
2545.000000	99.269271 
2544.000000	99.264712 
2543.000000	99.265739 
2542.000000	99.271168 
2541.000000	99.276850 
2540.000000	99.279569 
2539.000000	99.278969 
2538.000000	99.276372 
2537.000000	99.272899 
2536.000000	99.268836 
2535.000000	99.264321 
2534.000000	99.260408 
2533.000000	99.259205 
2532.000000	99.262260 
2531.000000	99.268589 
2530.000000	99.274854 
2529.000000	99.278056 
2528.000000	99.277997 
2527.000000	99.277097 
2526.000000	99.278215 
2525.000000	99.282653 
2524.000000	99.289513 
2523.000000	99.296525 
2522.000000	99.301795 
2521.000000	99.304956 
2520.000000	99.306429 
2519.000000	99.305895 
2518.000000	99.302411 
2517.000000	99.296087 
2516.000000	99.288698 
2515.000000	99.282359 
2514.000000	99.278369 
2513.000000	99.277191 
2512.000000	99.278108 
2511.000000	99.278696 
2510.000000	99.276609 
2509.000000	99.272937 
2508.000000	99.272044 
2507.000000	99.276362 
2506.000000	99.282598 
2505.000000	99.284942 
2504.000000	99.281247 
2503.000000	99.274180 
2502.000000	99.267127 
2501.000000	99.261538 
2500.000000	99.258311 
2499.000000	99.259154 
2498.000000	99.265155 
2497.000000	99.275035 
2496.000000	99.285619 
2495.000000	99.293388 
2494.000000	99.295606 
2493.000000	99.291438 
2492.000000	99.282857 
2491.000000	99.273747 
2490.000000	99.267480 
2489.000000	99.265393 
2488.000000	99.267053 
2487.000000	99.270800 
2486.000000	99.274249 
2485.000000	99.275844 
2484.000000	99.276396 
2483.000000	99.277861 
2482.000000	99.280316 
2481.000000	99.281611 
2480.000000	99.280570 
2479.000000	99.278901 
2478.000000	99.278802 
2477.000000	99.280022 
2476.000000	99.280759 
2475.000000	99.280625 
2474.000000	99.281049 
2473.000000	99.283085 
2472.000000	99.286344 
2471.000000	99.290125 
2470.000000	99.294041 
2469.000000	99.296845 
2468.000000	99.295803 
2467.000000	99.288807 
2466.000000	99.277487 
2465.000000	99.267454 
2464.000000	99.264299 
2463.000000	99.268729 
2462.000000	99.275835 
2461.000000	99.279610 
2460.000000	99.278232 
2459.000000	99.274716 
2458.000000	99.272856 
2457.000000	99.273330 
2456.000000	99.273777 
2455.000000	99.271773 
2454.000000	99.267216 
2453.000000	99.262298 
2452.000000	99.259720 
2451.000000	99.260782 
2450.000000	99.264731 
2449.000000	99.269553 
2448.000000	99.273226 
2447.000000	99.274599 
2446.000000	99.274011 
2445.000000	99.273512 
2444.000000	99.275545 
2443.000000	99.280357 
2442.000000	99.285106 
2441.000000	99.286569 
2440.000000	99.284441 
2439.000000	99.280982 
2438.000000	99.277960 
2437.000000	99.275398 
2436.000000	99.272966 
2435.000000	99.270603 
2434.000000	99.267478 
2433.000000	99.262416 
2432.000000	99.256406 
2431.000000	99.252938 
2430.000000	99.254381 
2429.000000	99.259193 
2428.000000	99.264285 
2427.000000	99.269090 
2426.000000	99.275160 
2425.000000	99.281946 
2424.000000	99.285324 
2423.000000	99.281650 
2422.000000	99.272403 
2421.000000	99.263648 
2420.000000	99.260756 
2419.000000	99.264093 
2418.000000	99.269779 
2417.000000	99.274012 
2416.000000	99.275981 
2415.000000	99.276802 
2414.000000	99.276966 
2413.000000	99.276036 
2412.000000	99.274319 
2411.000000	99.273191 
2410.000000	99.273303 
2409.000000	99.273688 
2408.000000	99.273453 
2407.000000	99.273431 
2406.000000	99.275071 
2405.000000	99.278172 
2404.000000	99.280778 
2403.000000	99.281207 
2402.000000	99.279341 
2401.000000	99.275995 
2400.000000	99.271893 
2399.000000	99.267534 
2398.000000	99.263522 
2397.000000	99.260646 
2396.000000	99.259815 
2395.000000	99.261892 
2394.000000	99.267069 
2393.000000	99.274025 
2392.000000	99.280076 
2391.000000	99.283036 
2390.000000	99.283208 
2389.000000	99.283080 
2388.000000	99.284504 
2387.000000	99.286473 
2386.000000	99.286366 
2385.000000	99.283229 
2384.000000	99.278983 
2383.000000	99.276231 
2382.000000	99.275881 
2381.000000	99.277193 
2380.000000	99.278748 
2379.000000	99.278325 
2378.000000	99.273304 
2377.000000	99.263780 
2376.000000	99.255121 
2375.000000	99.254414 
2374.000000	99.263073 
2373.000000	99.274473 
2372.000000	99.280987 
2371.000000	99.282061 
2370.000000	99.283294 
2369.000000	99.288254 
2368.000000	99.293637 
2367.000000	99.292553 
2366.000000	99.281628 
2365.000000	99.265299 
2364.000000	99.253724 
2363.000000	99.253781 
2362.000000	99.262954 
2361.000000	99.273134 
2360.000000	99.277873 
2359.000000	99.277655 
2358.000000	99.277058 
2357.000000	99.278617 
2356.000000	99.283024 
2355.000000	99.288361 
2354.000000	99.292540 
2353.000000	99.294186 
2352.000000	99.294368 
2351.000000	99.294917 
2350.000000	99.292534 
2349.000000	99.282683 
2348.000000	99.264706 
2347.000000	99.245108 
2346.000000	99.234322 
2345.000000	99.235329 
2344.000000	99.244426 
2343.000000	99.254980 
2342.000000	99.266081 
2341.000000	99.278111 
2340.000000	99.287876 
2339.000000	99.291992 
2338.000000	99.289360 
2337.000000	99.283737 
2336.000000	99.279146 
2335.000000	99.279137 
2334.000000	99.282777 
2333.000000	99.287981 
2332.000000	99.290640 
2331.000000	99.291060 
2330.000000	99.288399 
2329.000000	99.285145 
2328.000000	99.281753 
2327.000000	99.279821 
2326.000000	99.279547 
2325.000000	99.279018 
2324.000000	99.276852 
2323.000000	99.273123 
2322.000000	99.271540 
2321.000000	99.275725 
2320.000000	99.284810 
2319.000000	99.294527 
2318.000000	99.298893 
2317.000000	99.297336 
2316.000000	99.291880 
2315.000000	99.287433 
2314.000000	99.284606 
2313.000000	99.283177 
2312.000000	99.281497 
2311.000000	99.281817 
2310.000000	99.285630 
2309.000000	99.292825 
2308.000000	99.298501 
2307.000000	99.298378 
2306.000000	99.291350 
2305.000000	99.281679 
2304.000000	99.273518 
2303.000000	99.268216 
2302.000000	99.263606 
2301.000000	99.259733 
2300.000000	99.258616 
2299.000000	99.261660 
2298.000000	99.265242 
2297.000000	99.265526 
2296.000000	99.263046 
2295.000000	99.262494 
2294.000000	99.265083 
2293.000000	99.266257 
2292.000000	99.261081 
2291.000000	99.250302 
2290.000000	99.238942 
2289.000000	99.230827 
2288.000000	99.226785 
2287.000000	99.226006 
2286.000000	99.226964 
2285.000000	99.227142 
2284.000000	99.225121 
2283.000000	99.222268 
2282.000000	99.220742 
2281.000000	99.219723 
2280.000000	99.216623 
2279.000000	99.212183 
2278.000000	99.211569 
2277.000000	99.218850 
2276.000000	99.231951 
2275.000000	99.244818 
2274.000000	99.252665 
2273.000000	99.253868 
2272.000000	99.248123 
2271.000000	99.236095 
2270.000000	99.221437 
2269.000000	99.210985 
2268.000000	99.210538 
2267.000000	99.220166 
2266.000000	99.234000 
2265.000000	99.244584 
2264.000000	99.247343 
2263.000000	99.242397 
2262.000000	99.234360 
2261.000000	99.230213 
2260.000000	99.234594 
2259.000000	99.244736 
2258.000000	99.251863 
2257.000000	99.249806 
2256.000000	99.241407 
2255.000000	99.234016 
2254.000000	99.229955 
2253.000000	99.225691 
2252.000000	99.220108 
2251.000000	99.218533 
2250.000000	99.225679 
2249.000000	99.238365 
2248.000000	99.248675 
2247.000000	99.252438 
2246.000000	99.250916 
2245.000000	99.245664 
2244.000000	99.236201 
2243.000000	99.223560 
2242.000000	99.212628 
2241.000000	99.208490 
2240.000000	99.211406 
2239.000000	99.216770 
2238.000000	99.219446 
2237.000000	99.217020 
2236.000000	99.209437 
2235.000000	99.197461 
2234.000000	99.183199 
2233.000000	99.171833 
2232.000000	99.170265 
2231.000000	99.181673 
2230.000000	99.201534 
2229.000000	99.220701 
2228.000000	99.232955 
2227.000000	99.238351 
2226.000000	99.239246 
2225.000000	99.235706 
2224.000000	99.226421 
2223.000000	99.212865 
2222.000000	99.200581 
2221.000000	99.195772 
2220.000000	99.200522 
2219.000000	99.211202 
2218.000000	99.221991 
2217.000000	99.230587 
2216.000000	99.239657 
2215.000000	99.251266 
2214.000000	99.260925 
2213.000000	99.260107 
2212.000000	99.245637 
2211.000000	99.224888 
2210.000000	99.210753 
2209.000000	99.211710 
2208.000000	99.225459 
2207.000000	99.240442 
2206.000000	99.244143 
2205.000000	99.232545 
2204.000000	99.212509 
2203.000000	99.194540 
2202.000000	99.184583 
2201.000000	99.183141 
2200.000000	99.188018 
2199.000000	99.193850 
2198.000000	99.192314 
2197.000000	99.179797 
2196.000000	99.164930 
2195.000000	99.162257 
2194.000000	99.176957 
2193.000000	99.199997 
2192.000000	99.218518 
2191.000000	99.225775 
2190.000000	99.220651 
2189.000000	99.205418 
2188.000000	99.187611 
2187.000000	99.177886 
2186.000000	99.181151 
2185.000000	99.192620 
2184.000000	99.204638 
2183.000000	99.213044 
2182.000000	99.215172 
2181.000000	99.208824 
2180.000000	99.197889 
2179.000000	99.192604 
2178.000000	99.198292 
2177.000000	99.207607 
2176.000000	99.208833 
2175.000000	99.199051 
2174.000000	99.184856 
2173.000000	99.173349 
2172.000000	99.166818 
2171.000000	99.163791 
2170.000000	99.161713 
2169.000000	99.160607 
2168.000000	99.165666 
2167.000000	99.181786 
2166.000000	99.203234 
2165.000000	99.214814 
2164.000000	99.208378 
2163.000000	99.193056 
2162.000000	99.184461 
2161.000000	99.189370 
2160.000000	99.204716 
2159.000000	99.223797 
2158.000000	99.237272 
2157.000000	99.237196 
2156.000000	99.228203 
2155.000000	99.225610 
2154.000000	99.235230 
2153.000000	99.243151 
2152.000000	99.233619 
2151.000000	99.211181 
2150.000000	99.196406 
2149.000000	99.203755 
2148.000000	99.230691 
2147.000000	99.263715 
2146.000000	99.286134 
2145.000000	99.284648 
2144.000000	99.260247 
2143.000000	99.231745 
2142.000000	99.219553 
2141.000000	99.225790 
2140.000000	99.236599 
2139.000000	99.241829 
2138.000000	99.243077 
2137.000000	99.243490 
2136.000000	99.241068 
2135.000000	99.235533 
2134.000000	99.232847 
2133.000000	99.237319 
2132.000000	99.244507 
2131.000000	99.246398 
2130.000000	99.240113 
2129.000000	99.228894 
2128.000000	99.217605 
2127.000000	99.209556 
2126.000000	99.205800 
2125.000000	99.205859 
2124.000000	99.210154 
2123.000000	99.221118 
2122.000000	99.238937 
2121.000000	99.256622 
2120.000000	99.263795 
2119.000000	99.257012 
2118.000000	99.243141 
2117.000000	99.231357 
2116.000000	99.224833 
2115.000000	99.221742 
2114.000000	99.220680 
2113.000000	99.221712 
2112.000000	99.223901 
2111.000000	99.225217 
2110.000000	99.225030 
2109.000000	99.225087 
2108.000000	99.227587 
2107.000000	99.232152 
2106.000000	99.234163 
2105.000000	99.227240 
2104.000000	99.209962 
2103.000000	99.190270 
2102.000000	99.180343 
2101.000000	99.185473 
2100.000000	99.199350 
2099.000000	99.211184 
2098.000000	99.216008 
2097.000000	99.217149 
2096.000000	99.219997 
2095.000000	99.224396 
2094.000000	99.223174 
2093.000000	99.209324 
2092.000000	99.185767 
2091.000000	99.166050 
2090.000000	99.162208 
2089.000000	99.171979 
2088.000000	99.181301 
2087.000000	99.180200 
2086.000000	99.172483 
2085.000000	99.168646 
2084.000000	99.173223 
2083.000000	99.182211 
2082.000000	99.190554 
2081.000000	99.198048 
2080.000000	99.207643 
2079.000000	99.220195 
2078.000000	99.232376 
2077.000000	99.239975 
2076.000000	99.242959 
2075.000000	99.245740 
2074.000000	99.251071 
2073.000000	99.255567 
2072.000000	99.253727 
2071.000000	99.245506 
2070.000000	99.236699 
2069.000000	99.231912 
2068.000000	99.230327 
2067.000000	99.228817 
2066.000000	99.225679 
2065.000000	99.220062 
2064.000000	99.211327 
2063.000000	99.201500 
2062.000000	99.195957 
2061.000000	99.198917 
2060.000000	99.209091 
2059.000000	99.221500 
2058.000000	99.232498 
2057.000000	99.241284 
2056.000000	99.247293 
2055.000000	99.248129 
2054.000000	99.241210 
2053.000000	99.227998 
2052.000000	99.215858 
2051.000000	99.213419 
2050.000000	99.222088 
2049.000000	99.232445 
2048.000000	99.232192 
2047.000000	99.218681 
2046.000000	99.200779 
2045.000000	99.188915 
2044.000000	99.186758 
2043.000000	99.191770 
2042.000000	99.199259 
2041.000000	99.204922 
2040.000000	99.207577 
2039.000000	99.210697 
2038.000000	99.218019 
2037.000000	99.226836 
2036.000000	99.229073 
2035.000000	99.220471 
2034.000000	99.205483 
2033.000000	99.191816 
2032.000000	99.183365 
2031.000000	99.179993 
2030.000000	99.180454 
2029.000000	99.182790 
2028.000000	99.184144 
2027.000000	99.183035 
2026.000000	99.180906 
2025.000000	99.180737 
2024.000000	99.184470 
2023.000000	99.190678 
2022.000000	99.193549 
2021.000000	99.186453 
2020.000000	99.170656 
2019.000000	99.158560 
2018.000000	99.162708 
2017.000000	99.180556 
2016.000000	99.195559 
2015.000000	99.195537 
2014.000000	99.183910 
2013.000000	99.171694 
2012.000000	99.165005 
2011.000000	99.163770 
2010.000000	99.168212 
2009.000000	99.180834 
2008.000000	99.201908 
2007.000000	99.226059 
2006.000000	99.244196 
2005.000000	99.249591 
2004.000000	99.243470 
2003.000000	99.233763 
2002.000000	99.227102 
2001.000000	99.222229 
2000.000000	99.213563 
1999.000000	99.199842 
1998.000000	99.186326 
1997.000000	99.179251 
1996.000000	99.180659 
1995.000000	99.189195 
1994.000000	99.202549 
1993.000000	99.217004 
1992.000000	99.226657 
1991.000000	99.226232 
1990.000000	99.215114 
1989.000000	99.198899 
1988.000000	99.187594 
1987.000000	99.189632 
1986.000000	99.204216 
1985.000000	99.220569 
1984.000000	99.227982 
1983.000000	99.225567 
1982.000000	99.219193 
1981.000000	99.210940 
1980.000000	99.197760 
1979.000000	99.180059 
1978.000000	99.165160 
1977.000000	99.159133 
1976.000000	99.159604 
1975.000000	99.161553 
1974.000000	99.166214 
1973.000000	99.179571 
1972.000000	99.203664 
1971.000000	99.232173 
1970.000000	99.253445 
1969.000000	99.257617 
1968.000000	99.244068 
1967.000000	99.223290 
1966.000000	99.208140 
1965.000000	99.202008 
1964.000000	99.198628 
1963.000000	99.193063 
1962.000000	99.187963 
1961.000000	99.187908 
1960.000000	99.192272 
1959.000000	99.197117 
1958.000000	99.201078 
1957.000000	99.205291 
1956.000000	99.209600 
1955.000000	99.212802 
1954.000000	99.215358 
1953.000000	99.218409 
1952.000000	99.219801 
1951.000000	99.215056 
1950.000000	99.203398 
1949.000000	99.190076 
1948.000000	99.181838 
1947.000000	99.180336 
1946.000000	99.180585 
1945.000000	99.176011 
1944.000000	99.165338 
1943.000000	99.154822 
1942.000000	99.152525 
1941.000000	99.159563 
1940.000000	99.169098 
1939.000000	99.174588 
1938.000000	99.177090 
1937.000000	99.183355 
1936.000000	99.196748 
1935.000000	99.211483 
1934.000000	99.217961 
1933.000000	99.214243 
1932.000000	99.209447 
1931.000000	99.214441 
1930.000000	99.229779 
1929.000000	99.244712 
1928.000000	99.250006 
1927.000000	99.246985 
1926.000000	99.243196 
1925.000000	99.241589 
1924.000000	99.238215 
1923.000000	99.231070 
1922.000000	99.224975 
1921.000000	99.225182 
1920.000000	99.229297 
1919.000000	99.228878 
1918.000000	99.218356 
1917.000000	99.201743 
1916.000000	99.188890 
1915.000000	99.185340 
1914.000000	99.189063 
1913.000000	99.195339 
1912.000000	99.201435 
1911.000000	99.207180 
1910.000000	99.211772 
1909.000000	99.213244 
1908.000000	99.212858 
1907.000000	99.214840 
1906.000000	99.221089 
1905.000000	99.227666 
1904.000000	99.228910 
1903.000000	99.224600 
1902.000000	99.218530 
1901.000000	99.213144 
1900.000000	99.209104 
1899.000000	99.207448 
1898.000000	99.209497 
1897.000000	99.214420 
1896.000000	99.219095 
1895.000000	99.221395 
1894.000000	99.221236 
1893.000000	99.219615 
1892.000000	99.218492 
1891.000000	99.220157 
1890.000000	99.223970 
1889.000000	99.225260 
1888.000000	99.221340 
1887.000000	99.215687 
1886.000000	99.213101 
1885.000000	99.214473 
1884.000000	99.218009 
1883.000000	99.223294 
1882.000000	99.229965 
1881.000000	99.234633 
1880.000000	99.234843 
1879.000000	99.234052 
1878.000000	99.238666 
1877.000000	99.249948 
1876.000000	99.261332 
1875.000000	99.265542 
1874.000000	99.261443 
1873.000000	99.252919 
1872.000000	99.244499 
1871.000000	99.238779 
1870.000000	99.235023 
1869.000000	99.229221 
1868.000000	99.220052 
1867.000000	99.213765 
1866.000000	99.215988 
1865.000000	99.222765 
1864.000000	99.224248 
1863.000000	99.215438 
1862.000000	99.201288 
1861.000000	99.191150 
1860.000000	99.190576 
1859.000000	99.198866 
1858.000000	99.211125 
1857.000000	99.221228 
1856.000000	99.226087 
1855.000000	99.228543 
1854.000000	99.233541 
1853.000000	99.240602 
1852.000000	99.244961 
1851.000000	99.244069 
1850.000000	99.240706 
1849.000000	99.240065 
1848.000000	99.243628 
1847.000000	99.248314 
1846.000000	99.250008 
1845.000000	99.247392 
1844.000000	99.242723 
1843.000000	99.240240 
1842.000000	99.241625 
1841.000000	99.243896 
1840.000000	99.244246 
1839.000000	99.242306 
1838.000000	99.239424 
1837.000000	99.236564 
1836.000000	99.233897 
1835.000000	99.232639 
1834.000000	99.233967 
1833.000000	99.236928 
1832.000000	99.238925 
1831.000000	99.237193 
1830.000000	99.231794 
1829.000000	99.227280 
1828.000000	99.227332 
1827.000000	99.230069 
1826.000000	99.231843 
1825.000000	99.231839 
1824.000000	99.230788 
1823.000000	99.228370 
1822.000000	99.223003 
1821.000000	99.215418 
1820.000000	99.210622 
1819.000000	99.213656 
1818.000000	99.224290 
1817.000000	99.235515 
1816.000000	99.240343 
1815.000000	99.239800 
1814.000000	99.239082 
1813.000000	99.240126 
1812.000000	99.240230 
1811.000000	99.238311 
1810.000000	99.238314 
1809.000000	99.241550 
1808.000000	99.243569 
1807.000000	99.241090 
1806.000000	99.236281 
1805.000000	99.232955 
1804.000000	99.232204 
1803.000000	99.233009 
1802.000000	99.232452 
1801.000000	99.227237 
1800.000000	99.217290 
1799.000000	99.208584 
1798.000000	99.208651 
1797.000000	99.217457 
1796.000000	99.228265 
1795.000000	99.235575 
1794.000000	99.238693 
1793.000000	99.238912 
1792.000000	99.236014 
1791.000000	99.231525 
1790.000000	99.229876 
1789.000000	99.231829 
1788.000000	99.234962 
1787.000000	99.238201 
1786.000000	99.242532 
1785.000000	99.246889 
1784.000000	99.247528 
1783.000000	99.243375 
1782.000000	99.236190 
1781.000000	99.229486 
1780.000000	99.225195 
1779.000000	99.222355 
1778.000000	99.220902 
1777.000000	99.221598 
1776.000000	99.225279 
1775.000000	99.229961 
1774.000000	99.232241 
1773.000000	99.232219 
1772.000000	99.233150 
1771.000000	99.236255 
1770.000000	99.239735 
1769.000000	99.240572 
1768.000000	99.237369 
1767.000000	99.231634 
1766.000000	99.226569 
1765.000000	99.224620 
1764.000000	99.225709 
1763.000000	99.228112 
1762.000000	99.229516 
1761.000000	99.229850 
1760.000000	99.230310 
1759.000000	99.231203 
1758.000000	99.233169 
1757.000000	99.237239 
1756.000000	99.243547 
1755.000000	99.248588 
1754.000000	99.248898 
1753.000000	99.245564 
1752.000000	99.243046 
1751.000000	99.241959 
1750.000000	99.239097 
1749.000000	99.233913 
1748.000000	99.230300 
1747.000000	99.231642 
1746.000000	99.235595 
1745.000000	99.238748 
1744.000000	99.239164 
1743.000000	99.236281 
1742.000000	99.231746 
1741.000000	99.228555 
1740.000000	99.228721 
1739.000000	99.232578 
1738.000000	99.238945 
1737.000000	99.244418 
1736.000000	99.246643 
1735.000000	99.247486 
1734.000000	99.248015 
1733.000000	99.246993 
1732.000000	99.245559 
1731.000000	99.242266 
1730.000000	99.237811 
1729.000000	99.234789 
1728.000000	99.234693 
1727.000000	99.236413 
1726.000000	99.237781 
1725.000000	99.238791 
1724.000000	99.238654 
1723.000000	99.236070 
1722.000000	99.232272 
1721.000000	99.229073 
1720.000000	99.227795 
1719.000000	99.229499 
1718.000000	99.233750 
1717.000000	99.235345 
1716.000000	99.231260 
1715.000000	99.226547 
1714.000000	99.226058 
1713.000000	99.227768 
1712.000000	99.226971 
1711.000000	99.224101 
1710.000000	99.223046 
1709.000000	99.224876 
1708.000000	99.226863 
1707.000000	99.226373 
1706.000000	99.224309 
1705.000000	99.222282 
1704.000000	99.220659 
1703.000000	99.218949 
1702.000000	99.217058 
1701.000000	99.215937 
1700.000000	99.213318 
1699.000000	99.211715 
1698.000000	99.216779 
1697.000000	99.222588 
1696.000000	99.223197 
1695.000000	99.218604 
1694.000000	99.214397 
1693.000000	99.210896 
1692.000000	99.204976 
1691.000000	99.198619 
1690.000000	99.195476 
1689.000000	99.196254 
1688.000000	99.200350 
1687.000000	99.205616 
1686.000000	99.211739 
1685.000000	99.218373 
1684.000000	99.218921 
1683.000000	99.213036 
1682.000000	99.207626 
1681.000000	99.201581 
1680.000000	99.196729 
1679.000000	99.195191 
1678.000000	99.194928 
1677.000000	99.192961 
1676.000000	99.189645 
1675.000000	99.186758 
1674.000000	99.184505 
1673.000000	99.183727 
1672.000000	99.184328 
1671.000000	99.186909 
1670.000000	99.190467 
1669.000000	99.190717 
1668.000000	99.188029 
1667.000000	99.184649 
1666.000000	99.180539 
1665.000000	99.176131 
1664.000000	99.172931 
1663.000000	99.172248 
1662.000000	99.172019 
1661.000000	99.170564 
1660.000000	99.170448 
1659.000000	99.173213 
1658.000000	99.176960 
1657.000000	99.179121 
1656.000000	99.178923 
1655.000000	99.177336 
1654.000000	99.178501 
1653.000000	99.179529 
1652.000000	99.176767 
1651.000000	99.178754 
1650.000000	99.178650 
1649.000000	99.174278 
1648.000000	99.169774 
1647.000000	99.167483 
1646.000000	99.166712 
1645.000000	99.168129 
1644.000000	99.170452 
1643.000000	99.172215 
1642.000000	99.172683 
1641.000000	99.171123 
1640.000000	99.167863 
1639.000000	99.163345 
1638.000000	99.158973 
1637.000000	99.157441 
1636.000000	99.161405 
1635.000000	99.168332 
1634.000000	99.174848 
1633.000000	99.178643 
1632.000000	99.177289 
1631.000000	99.172768 
1630.000000	99.167887 
1629.000000	99.164503 
1628.000000	99.163897 
1627.000000	99.166512 
1626.000000	99.169585 
1625.000000	99.169910 
1624.000000	99.168211 
1623.000000	99.168262 
1622.000000	99.171381 
1621.000000	99.175033 
1620.000000	99.176718 
1619.000000	99.175982 
1618.000000	99.175204 
1617.000000	99.176840 
1616.000000	99.181864 
1615.000000	99.189005 
1614.000000	99.193961 
1613.000000	99.194706 
1612.000000	99.195000 
1611.000000	99.199150 
1610.000000	99.205351 
1609.000000	99.208845 
1608.000000	99.209346 
1607.000000	99.210062 
1606.000000	99.211173 
1605.000000	99.211262 
1604.000000	99.211618 
1603.000000	99.213506 
1602.000000	99.216083 
1601.000000	99.217923 
1600.000000	99.219401 
1599.000000	99.221522 
1598.000000	99.224104 
1597.000000	99.226588 
1596.000000	99.228614 
1595.000000	99.229470 
1594.000000	99.228142 
1593.000000	99.225237 
1592.000000	99.223527 
1591.000000	99.224949 
1590.000000	99.228091 
1589.000000	99.230532 
1588.000000	99.232373 
1587.000000	99.235259 
1586.000000	99.238846 
1585.000000	99.240815 
1584.000000	99.241696 
1583.000000	99.243219 
1582.000000	99.244032 
1581.000000	99.242220 
1580.000000	99.238622 
1579.000000	99.234471 
1578.000000	99.229569 
1577.000000	99.224888 
1576.000000	99.222777 
1575.000000	99.225216 
1574.000000	99.230176 
1573.000000	99.233341 
1572.000000	99.233857 
1571.000000	99.234018 
1570.000000	99.235186 
1569.000000	99.236300 
1568.000000	99.238053 
1567.000000	99.238960 
1566.000000	99.236167 
1565.000000	99.230892 
1564.000000	99.227559 
1563.000000	99.227350 
1562.000000	99.226768 
1561.000000	99.223526 
1560.000000	99.224481 
1559.000000	99.230151 
1558.000000	99.231237 
1557.000000	99.234814 
1556.000000	99.239928 
1555.000000	99.243070 
1554.000000	99.242563 
1553.000000	99.239816 
1552.000000	99.236935 
1551.000000	99.234089 
1550.000000	99.232550 
1549.000000	99.233079 
1548.000000	99.234588 
1547.000000	99.234176 
1546.000000	99.229158 
1545.000000	99.221258 
1544.000000	99.215776 
1543.000000	99.216316 
1542.000000	99.222573 
1541.000000	99.230418 
1540.000000	99.232670 
1539.000000	99.229907 
1538.000000	99.230096 
1537.000000	99.233198 
1536.000000	99.235593 
1535.000000	99.237626 
1534.000000	99.238718 
1533.000000	99.236943 
1532.000000	99.233310 
1531.000000	99.230432 
1530.000000	99.229451 
1529.000000	99.229360 
1528.000000	99.228455 
1527.000000	99.226782 
1526.000000	99.225926 
1525.000000	99.227369 
1524.000000	99.230986 
1523.000000	99.236251 
1522.000000	99.243182 
1521.000000	99.248612 
1520.000000	99.248942 
1519.000000	99.243758 
1518.000000	99.234730 
1517.000000	99.226548 
1516.000000	99.222430 
1515.000000	99.221538 
1514.000000	99.221395 
1513.000000	99.221986 
1512.000000	99.223692 
1511.000000	99.224729 
1510.000000	99.223642 
1509.000000	99.221294 
1508.000000	99.221987 
1507.000000	99.227530 
1506.000000	99.232646 
1505.000000	99.234626 
1504.000000	99.234972 
1503.000000	99.234285 
1502.000000	99.233748 
1501.000000	99.233489 
1500.000000	99.231698 
1499.000000	99.226786 
1498.000000	99.220288 
1497.000000	99.215392 
1496.000000	99.212403 
1495.000000	99.212103 
1494.000000	99.216069 
1493.000000	99.223305 
1492.000000	99.231483 
1491.000000	99.238688 
1490.000000	99.243455 
1489.000000	99.244158 
1488.000000	99.239880 
1487.000000	99.233495 
1486.000000	99.228681 
1485.000000	99.224177 
1484.000000	99.219001 
1483.000000	99.214470 
1482.000000	99.212710 
1481.000000	99.213912 
1480.000000	99.215386 
1479.000000	99.215555 
1478.000000	99.214955 
1477.000000	99.214233 
1476.000000	99.212614 
1475.000000	99.211522 
1474.000000	99.213667 
1473.000000	99.218987 
1472.000000	99.223058 
1471.000000	99.223054 
1470.000000	99.221196 
1469.000000	99.219205 
1468.000000	99.217172 
1467.000000	99.215492 
1466.000000	99.214832 
1465.000000	99.215233 
1464.000000	99.216376 
1463.000000	99.216865 
1462.000000	99.215626 
1461.000000	99.212134 
1460.000000	99.206795 
1459.000000	99.200514 
1458.000000	99.194755 
1457.000000	99.190352 
1456.000000	99.186858 
1455.000000	99.184370 
1454.000000	99.182138 
1453.000000	99.182431 
1452.000000	99.187588 
1451.000000	99.195310 
1450.000000	99.201131 
1449.000000	99.202519 
1448.000000	99.199956 
1447.000000	99.196849 
1446.000000	99.195493 
1445.000000	99.196188 
1444.000000	99.198070 
1443.000000	99.199022 
1442.000000	99.198856 
1441.000000	99.198988 
1440.000000	99.200214 
1439.000000	99.201336 
1438.000000	99.202727 
1437.000000	99.205693 
1436.000000	99.207782 
1435.000000	99.205547 
1434.000000	99.199762 
1433.000000	99.193823 
1432.000000	99.190258 
1431.000000	99.188693 
1430.000000	99.187265 
1429.000000	99.185523 
1428.000000	99.183387 
1427.000000	99.181007 
1426.000000	99.177942 
1425.000000	99.175373 
1424.000000	99.174996 
1423.000000	99.174639 
1422.000000	99.171289 
1421.000000	99.164624 
1420.000000	99.157193 
1419.000000	99.150549 
1418.000000	99.144916 
1417.000000	99.140085 
1416.000000	99.133562 
1415.000000	99.123557 
1414.000000	99.111361 
1413.000000	99.100623 
1412.000000	99.093856 
1411.000000	99.089537 
1410.000000	99.084789 
1409.000000	99.078899 
1408.000000	99.072986 
1407.000000	99.069438 
1406.000000	99.069575 
1405.000000	99.072874 
1404.000000	99.078119 
1403.000000	99.084242 
1402.000000	99.092018 
1401.000000	99.102594 
1400.000000	99.114767 
1399.000000	99.123378 
1398.000000	99.122883 
1397.000000	99.111194 
1396.000000	99.090138 
1395.000000	99.068127 
1394.000000	99.058307 
1393.000000	99.068134 
1392.000000	99.091739 
1391.000000	99.116162 
1390.000000	99.132224 
1389.000000	99.137919 
1388.000000	99.135529 
1387.000000	99.128504 
1386.000000	99.120768 
1385.000000	99.115773 
1384.000000	99.114483 
1383.000000	99.114693 
1382.000000	99.113998 
1381.000000	99.112443 
1380.000000	99.112363 
1379.000000	99.115768 
1378.000000	99.121963 
1377.000000	99.128359 
1376.000000	99.133068 
1375.000000	99.136475 
1374.000000	99.140552 
1373.000000	99.147187 
1372.000000	99.155992 
1371.000000	99.164518 
1370.000000	99.170318 
1369.000000	99.173255 
1368.000000	99.175493 
1367.000000	99.178540 
1366.000000	99.182512 
1365.000000	99.187278 
1364.000000	99.192871 
1363.000000	99.198234 
1362.000000	99.201249 
1361.000000	99.201047 
1360.000000	99.199313 
1359.000000	99.198896 
1358.000000	99.201733 
1357.000000	99.207733 
1356.000000	99.214949 
1355.000000	99.220907 
1354.000000	99.224668 
1353.000000	99.226964 
1352.000000	99.228192 
1351.000000	99.228231 
1350.000000	99.227157 
1349.000000	99.226104 
1348.000000	99.226370 
1347.000000	99.227477 
1346.000000	99.228258 
1345.000000	99.228559 
1344.000000	99.228914 
1343.000000	99.228945 
1342.000000	99.228064 
1341.000000	99.227269 
1340.000000	99.228380 
1339.000000	99.230962 
1338.000000	99.232470 
1337.000000	99.232083 
1336.000000	99.231740 
1335.000000	99.232966 
1334.000000	99.234836 
1333.000000	99.235608 
1332.000000	99.235001 
1331.000000	99.234000 
1330.000000	99.233444 
1329.000000	99.233772 
1328.000000	99.235131 
1327.000000	99.236718 
1326.000000	99.236626 
1325.000000	99.233957 
1324.000000	99.230532 
1323.000000	99.229174 
1322.000000	99.230954 
1321.000000	99.234625 
1320.000000	99.238357 
1319.000000	99.241109 
1318.000000	99.242547 
1317.000000	99.242301 
1316.000000	99.239874 
1315.000000	99.235373 
1314.000000	99.230125 
1313.000000	99.226048 
1312.000000	99.224148 
1311.000000	99.223971 
1310.000000	99.224644 
1309.000000	99.225806 
1308.000000	99.227177 
1307.000000	99.228077 
1306.000000	99.227884 
1305.000000	99.226834 
1304.000000	99.225757 
1303.000000	99.225122 
1302.000000	99.224986 
1301.000000	99.225253 
1300.000000	99.225614 
1299.000000	99.225677 
1298.000000	99.225772 
1297.000000	99.226745 
1296.000000	99.228290 
1295.000000	99.228308 
1294.000000	99.224993 
1293.000000	99.219067 
1292.000000	99.212917 
1291.000000	99.208239 
1290.000000	99.205535 
1289.000000	99.205013 
1288.000000	99.206240 
1287.000000	99.207144 
1286.000000	99.205255 
1285.000000	99.200397 
1284.000000	99.194804 
1283.000000	99.190312 
1282.000000	99.186622 
1281.000000	99.182639 
1280.000000	99.178386 
1279.000000	99.174723 
1278.000000	99.171978 
1277.000000	99.169726 
1276.000000	99.167500 
1275.000000	99.165057 
1274.000000	99.162104 
1273.000000	99.158295 
1272.000000	99.153488 
1271.000000	99.147930 
1270.000000	99.142268 
1269.000000	99.137222 
1268.000000	99.132847 
1267.000000	99.128171 
1266.000000	99.122179 
1265.000000	99.115187 
1264.000000	99.108444 
1263.000000	99.102264 
1262.000000	99.095387 
1261.000000	99.086848 
1260.000000	99.077968 
1259.000000	99.071458 
1258.000000	99.068540 
1257.000000	99.067896 
1256.000000	99.067647 
1255.000000	99.067432 
1254.000000	99.067702 
1253.000000	99.067638 
1252.000000	99.065437 
1251.000000	99.061200 
1250.000000	99.058044 
1249.000000	99.058919 
1248.000000	99.062977 
1247.000000	99.066285 
1246.000000	99.065445 
1245.000000	99.059132 
1244.000000	99.047253 
1243.000000	99.031820 
1242.000000	99.018685 
1241.000000	99.014636 
1240.000000	99.020599 
1239.000000	99.029641 
1238.000000	99.033692 
1237.000000	99.030903 
1236.000000	99.024888 
1235.000000	99.018961 
1234.000000	99.013765 
1233.000000	99.008948 
1232.000000	99.003744 
1231.000000	98.996224 
1230.000000	98.985130 
1229.000000	98.972982 
1228.000000	98.964866 
1227.000000	98.963150 
1226.000000	98.964907 
1225.000000	98.965176 
1224.000000	98.961400 
1223.000000	98.954271 
1222.000000	98.945965 
1221.000000	98.938575 
1220.000000	98.933246 
1219.000000	98.929632 
1218.000000	98.926233 
1217.000000	98.921436 
1216.000000	98.914137 
1215.000000	98.903982 
1214.000000	98.891770 
1213.000000	98.879065 
1212.000000	98.866424 
1211.000000	98.852747 
1210.000000	98.837571 
1209.000000	98.823014 
1208.000000	98.811551 
1207.000000	98.802357 
1206.000000	98.792039 
1205.000000	98.779009 
1204.000000	98.765066 
1203.000000	98.752431 
1202.000000	98.741303 
1201.000000	98.730848 
1200.000000	98.720485 
1199.000000	98.709316 
1198.000000	98.696191 
1197.000000	98.681362 
1196.000000	98.666341 
1195.000000	98.651211 
1194.000000	98.633943 
1193.000000	98.613694 
1192.000000	98.592931 
1191.000000	98.574465 
1190.000000	98.557773 
1189.000000	98.540295 
1188.000000	98.521446 
1187.000000	98.503178 
1186.000000	98.486921 
1185.000000	98.471859 
1184.000000	98.456300 
1183.000000	98.439404 
1182.000000	98.421507 
1181.000000	98.403758 
1180.000000	98.387249 
1179.000000	98.371611 
1178.000000	98.354852 
1177.000000	98.335503 
1176.000000	98.314228 
1175.000000	98.292124 
1174.000000	98.268235 
1173.000000	98.240639 
1172.000000	98.209945 
1171.000000	98.179928 
1170.000000	98.154054 
1169.000000	98.132358 
1168.000000	98.112147 
1167.000000	98.091186 
1166.000000	98.070375 
1165.000000	98.054139 
1164.000000	98.047783 
1163.000000	98.053163 
1162.000000	98.066773 
1161.000000	98.082796 
1160.000000	98.097457 
1159.000000	98.109308 
1158.000000	98.116256 
1157.000000	98.114683 
1156.000000	98.102211 
1155.000000	98.080487 
1154.000000	98.054763 
1153.000000	98.030828 
1152.000000	98.011679 
1151.000000	97.995890 
1150.000000	97.979055 
1149.000000	97.957919 
1148.000000	97.933481 
1147.000000	97.909650 
1146.000000	97.888991 
1145.000000	97.870376 
1144.000000	97.850566 
1143.000000	97.827335 
1142.000000	97.801318 
1141.000000	97.775656 
1140.000000	97.753668 
1139.000000	97.735941 
1138.000000	97.719600 
1137.000000	97.700915 
1136.000000	97.678446 
1135.000000	97.653319 
1134.000000	97.627212 
1133.000000	97.600834 
1132.000000	97.573907 
1131.000000	97.545988 
1130.000000	97.517836 
1129.000000	97.492029 
1128.000000	97.470539 
1127.000000	97.450717 
1126.000000	97.425849 
1125.000000	97.392138 
1124.000000	97.353940 
1123.000000	97.319607 
1122.000000	97.292709 
1121.000000	97.269711 
1120.000000	97.245674 
1119.000000	97.219206 
1118.000000	97.191551 
1117.000000	97.163768 
1116.000000	97.136178 
1115.000000	97.109063 
1114.000000	97.082925 
1113.000000	97.058819 
1112.000000	97.038155 
1111.000000	97.020634 
1110.000000	97.002591 
1109.000000	96.979539 
1108.000000	96.950799 
1107.000000	96.920229 
1106.000000	96.892050 
1105.000000	96.866901 
1104.000000	96.842067 
1103.000000	96.814537 
1102.000000	96.784024 
1101.000000	96.754018 
1100.000000	96.729261 
1099.000000	96.711311 
1098.000000	96.697250 
1097.000000	96.683404 
1096.000000	96.668635 
1095.000000	96.652414 
1094.000000	96.632161 
1093.000000	96.605353 
1092.000000	96.572779 
1091.000000	96.536970 
1090.000000	96.498846 
1089.000000	96.458833 
1088.000000	96.419855 
1087.000000	96.385551 
1086.000000	96.356276 
1085.000000	96.330165 
1084.000000	96.307007 
1083.000000	96.287029 
1082.000000	96.266766 
1081.000000	96.240943 
1080.000000	96.208774 
1079.000000	96.174467 
1078.000000	96.141502 
1077.000000	96.110590 
1076.000000	96.083393 
1075.000000	96.063222 
1074.000000	96.050402 
1073.000000	96.040539 
1072.000000	96.028017 
1071.000000	96.007414 
1070.000000	95.971894 
1069.000000	95.916672 
1068.000000	95.847237 
1067.000000	95.779920 
1066.000000	95.729858 
1065.000000	95.699378 
1064.000000	95.679602 
1063.000000	95.659780 
1062.000000	95.632338 
1061.000000	95.592758 
1060.000000	95.540247 
1059.000000	95.479593 
1058.000000	95.419797 
1057.000000	95.368866 
1056.000000	95.329053 
1055.000000	95.296072 
1054.000000	95.262727 
1053.000000	95.224441 
1052.000000	95.181678 
1051.000000	95.136799 
1050.000000	95.090151 
1049.000000	95.041055 
1048.000000	94.990879 
1047.000000	94.942311 
1046.000000	94.896697 
1045.000000	94.853961 
1044.000000	94.813172 
1043.000000	94.771229 
1042.000000	94.724027 
1041.000000	94.672242 
1040.000000	94.623379 
1039.000000	94.584322 
1038.000000	94.554220 
1037.000000	94.528710 
1036.000000	94.507949 
1035.000000	94.494679 
1034.000000	94.486769 
1033.000000	94.478202 
1032.000000	94.466229 
1031.000000	94.451627 
1030.000000	94.433855 
1029.000000	94.413361 
1028.000000	94.397894 
1027.000000	94.397788 
1026.000000	94.412694 
1025.000000	94.429644 
1024.000000	94.436659 
1023.000000	94.433026 
1022.000000	94.424986 
1021.000000	94.417475 
1020.000000	94.412751 
1019.000000	94.411843 
1018.000000	94.413453 
1017.000000	94.414307 
1016.000000	94.412893 
1015.000000	94.410475 
1014.000000	94.407580 
1013.000000	94.402653 
1012.000000	94.395055 
1011.000000	94.386229 
1010.000000	94.377311 
1009.000000	94.368978 
1008.000000	94.364170 
1007.000000	94.367177 
1006.000000	94.378880 
1005.000000	94.395864 
1004.000000	94.414599 
1003.000000	94.433403 
1002.000000	94.450504 
1001.000000	94.464052 
1000.000000	94.474577 
999.000000	 94.484287 
998.000000	 94.493998 
997.000000	 94.504090 
996.000000	 94.517850 
995.000000	 94.539250 
994.000000	 94.566877 
993.000000	 94.594284 
992.000000	 94.617293 
991.000000	 94.637455 
990.000000	 94.657864 
989.000000	 94.679338 
988.000000	 94.701685 
987.000000	 94.725451 
986.000000	 94.751362 
985.000000	 94.780427 
984.000000	 94.814494 
983.000000	 94.853886 
982.000000	 94.894924 
981.000000	 94.933259 
980.000000	 94.969515 
979.000000	 95.008482 
978.000000	 95.053112 
977.000000	 95.102612 
976.000000	 95.155591 
975.000000	 95.210900 
974.000000	 95.265608 
973.000000	 95.316642 
972.000000	 95.365218 
971.000000	 95.416107 
970.000000	 95.471700 
969.000000	 95.529519 
968.000000	 95.585766 
967.000000	 95.638539 
966.000000	 95.687698 
965.000000	 95.734484 
964.000000	 95.781121 
963.000000	 95.828178 
962.000000	 95.873041 
961.000000	 95.913883 
960.000000	 95.953821 
959.000000	 95.997054 
958.000000	 96.041617 
957.000000	 96.080831 
956.000000	 96.112434 
955.000000	 96.141688 
954.000000	 96.174173 
953.000000	 96.209458 
952.000000	 96.243621 
951.000000	 96.274357 
950.000000	 96.301294 
949.000000	 96.323974 
948.000000	 96.342021 
947.000000	 96.355984 
946.000000	 96.366472 
945.000000	 96.373756 
944.000000	 96.379340 
943.000000	 96.386519 
942.000000	 96.398015 
941.000000	 96.413581 
940.000000	 96.430309 
939.000000	 96.444743 
938.000000	 96.455293 
937.000000	 96.463936 
936.000000	 96.474950 
935.000000	 96.490343 
934.000000	 96.507141 
933.000000	 96.521084 
932.000000	 96.532225 
931.000000	 96.544444 
930.000000	 96.559807 
929.000000	 96.575808 
928.000000	 96.588168 
927.000000	 96.594338 
926.000000	 96.594838 
925.000000	 96.593668 
924.000000	 96.597063 
923.000000	 96.608854 
922.000000	 96.626140 
921.000000	 96.641319 
920.000000	 96.648619 
919.000000	 96.647505 
918.000000	 96.641101 
917.000000	 96.634002 
916.000000	 96.630884 
915.000000	 96.633843 
914.000000	 96.640503 
913.000000	 96.647220 
912.000000	 96.654254 
911.000000	 96.665431 
910.000000	 96.683109 
909.000000	 96.706480 
908.000000	 96.734628 
907.000000	 96.767748 
906.000000	 96.804770 
905.000000	 96.842974 
904.000000	 96.880833 
903.000000	 96.918885 
902.000000	 96.957557 
901.000000	 96.996603 
900.000000	 97.036766 
899.000000	 97.079046 
898.000000	 97.121486 
897.000000	 97.159180 
896.000000	 97.188632 
895.000000	 97.210782 
894.000000	 97.229710 
893.000000	 97.250026 
892.000000	 97.275493 
891.000000	 97.307931 
890.000000	 97.346405 
889.000000	 97.388248 
888.000000	 97.430488 
887.000000	 97.469274 
886.000000	 97.499735 
885.000000	 97.519460 
884.000000	 97.531924 
883.000000	 97.543869 
882.000000	 97.558897 
881.000000	 97.575616 
880.000000	 97.591891 
879.000000	 97.608145 
878.000000	 97.625937 
877.000000	 97.646019 
876.000000	 97.668789 
875.000000	 97.694231 
874.000000	 97.720088 
873.000000	 97.742033 
872.000000	 97.757206 
871.000000	 97.767011 
870.000000	 97.776294 
869.000000	 97.790827 
868.000000	 97.815000 
867.000000	 97.849093 
866.000000	 97.887391 
865.000000	 97.921099 
864.000000	 97.945259 
863.000000	 97.962510 
862.000000	 97.979125 
861.000000	 97.998039 
860.000000	 98.017090 
859.000000	 98.033364 
858.000000	 98.046821 
857.000000	 98.058773 
856.000000	 98.068933 
855.000000	 98.076462 
854.000000	 98.083214 
853.000000	 98.093027 
852.000000	 98.107048 
851.000000	 98.122171 
850.000000	 98.135524 
849.000000	 98.148306 
848.000000	 98.162881 
847.000000	 98.177679 
846.000000	 98.187828 
845.000000	 98.190313 
844.000000	 98.186381 
843.000000	 98.179782 
842.000000	 98.174919 
841.000000	 98.175042 
840.000000	 98.178527 
839.000000	 98.177515 
838.000000	 98.164585 
837.000000	 98.141600 
836.000000	 98.118488 
835.000000	 98.102665 
834.000000	 98.093444 
833.000000	 98.087748 
832.000000	 98.085964 
831.000000	 98.088128 
830.000000	 98.088329 
829.000000	 98.079393 
828.000000	 98.063379 
827.000000	 98.052691 
826.000000	 98.058326 
825.000000	 98.078558 
824.000000	 98.100702 
823.000000	 98.113511 
822.000000	 98.117118 
821.000000	 98.120529 
820.000000	 98.130145 
819.000000	 98.143088 
818.000000	 98.152607 
817.000000	 98.156891 
816.000000	 98.158387 
815.000000	 98.155567 
814.000000	 98.141498 
813.000000	 98.112920 
812.000000	 98.075639 
811.000000	 98.036362 
810.000000	 97.991931 
809.000000	 97.931437 
808.000000	 97.848154 
807.000000	 97.745843 
806.000000	 97.634031 
805.000000	 97.521152 
804.000000	 97.413659 
803.000000	 97.318493 
802.000000	 97.242805 
801.000000	 97.190397 
800.000000	 97.158749 
799.000000	 97.140406 
798.000000	 97.129325 
797.000000	 97.126145 
796.000000	 97.134495 
795.000000	 97.152310 
794.000000	 97.171786 
793.000000	 97.189484 
792.000000	 97.210276 
791.000000	 97.237195 
790.000000	 97.262977 
789.000000	 97.277294 
788.000000	 97.277913 
787.000000	 97.268520 
786.000000	 97.249447 
785.000000	 97.218143 
784.000000	 97.177397 
783.000000	 97.135935 
782.000000	 97.100421 
781.000000	 97.072016 
780.000000	 97.050326 
779.000000	 97.035104 
778.000000	 97.024222 
777.000000	 97.015964 
776.000000	 97.014128 
775.000000	 97.025575 
774.000000	 97.051495 
773.000000	 97.085501 
772.000000	 97.121086 
771.000000	 97.156597 
770.000000	 97.192134 
769.000000	 97.225738 
768.000000	 97.254050 
767.000000	 97.274368 
766.000000	 97.286066 
765.000000	 97.292440 
764.000000	 97.300203 
763.000000	 97.313590 
762.000000	 97.329126 
761.000000	 97.339420 
760.000000	 97.342009 
759.000000	 97.341751 
758.000000	 97.345193 
757.000000	 97.355172 
756.000000	 97.369398 
755.000000	 97.380954 
754.000000	 97.382146 
753.000000	 97.372745 
752.000000	 97.363941 
751.000000	 97.369643 
750.000000	 97.392876 
749.000000	 97.423222 
748.000000	 97.447177 
747.000000	 97.458418 
746.000000	 97.459739 
745.000000	 97.459337 
744.000000	 97.465505 
743.000000	 97.481920 
742.000000	 97.507168 
741.000000	 97.539170 
740.000000	 97.577268 
739.000000	 97.618044 
738.000000	 97.653046 
737.000000	 97.674773 
736.000000	 97.682653 
735.000000	 97.680516 
734.000000	 97.672386 
733.000000	 97.664748 
732.000000	 97.667801 
731.000000	 97.686985 
730.000000	 97.715140 
729.000000	 97.739410 
728.000000	 97.754268 
727.000000	 97.761978 
726.000000	 97.763516 
725.000000	 97.757415 
724.000000	 97.746500 
723.000000	 97.737793 
722.000000	 97.735428 
721.000000	 97.740086 
720.000000	 97.754418 
719.000000	 97.780587 
718.000000	 97.811981 
717.000000	 97.835843 
716.000000	 97.845745 
715.000000	 97.845536 
714.000000	 97.841344 
713.000000	 97.836910 
712.000000	 97.837253 
711.000000	 97.847634 
710.000000	 97.864938 
709.000000	 97.876895 
708.000000	 97.873888 
707.000000	 97.856712 
706.000000	 97.830638 
705.000000	 97.798907 
704.000000	 97.765967 
703.000000	 97.739683 
702.000000	 97.723383 
701.000000	 97.708869 
700.000000	 97.682480 
699.000000	 97.637533 
698.000000	 97.579934 
697.000000	 97.524459 
696.000000	 97.485902 
695.000000	 97.469280 
694.000000	 97.467303 
693.000000	 97.470531 
692.000000	 97.478758 
691.000000	 97.497448 
690.000000	 97.525531 
689.000000	 97.555498 
688.000000	 97.585047 
687.000000	 97.617354 
686.000000	 97.647307 
685.000000	 97.659950 
684.000000	 97.649211 
683.000000	 97.629305 
682.000000	 97.621137 
681.000000	 97.632697 
680.000000	 97.655446 
679.000000	 97.674163 
678.000000	 97.677612 
677.000000	 97.666750 
676.000000	 97.657667 
675.000000	 97.667457 
674.000000	 97.692112 
673.000000	 97.707357 
672.000000	 97.696922 
671.000000	 97.673716 
670.000000	 97.667397 
669.000000	 97.704117 
668.000000	 97.778346 
667.000000	 97.833685 
666.000000	 97.829366 
665.000000	 97.786172 
664.000000	 97.748014 
663.000000	 97.748914 
662.000000	 97.789511 
661.000000	 97.832496 
660.000000	 97.839635 
659.000000	 97.807398 
658.000000	 97.760456 
657.000000	 97.720021 
656.000000	 97.691227 
655.000000	 97.672645 
654.000000	 97.661695 
653.000000	 97.655775 
652.000000	 97.659721 
651.000000	 97.684755 
650.000000	 97.728308 

