4000.000000	99.653805 
3999.000000	99.652917 
3998.000000	99.649971 
3997.000000	99.646070 
3996.000000	99.643147 
3995.000000	99.642498 
3994.000000	99.643923 
3993.000000	99.646202 
3992.000000	99.648025 
3991.000000	99.648485 
3990.000000	99.647372 
3989.000000	99.645510 
3988.000000	99.644371 
3987.000000	99.644772 
3986.000000	99.646051 
3985.000000	99.646795 
3984.000000	99.646122 
3983.000000	99.644004 
3982.000000	99.640799 
3981.000000	99.637080 
3980.000000	99.633829 
3979.000000	99.632387 
3978.000000	99.633979 
3977.000000	99.639036 
3976.000000	99.646535 
3975.000000	99.653934 
3974.000000	99.658398 
3973.000000	99.658655 
3972.000000	99.655667 
3971.000000	99.651420 
3970.000000	99.647363 
3969.000000	99.644130 
3968.000000	99.642133 
3967.000000	99.641667 
3966.000000	99.642577 
3965.000000	99.644360 
3964.000000	99.646480 
3963.000000	99.648206 
3962.000000	99.648345 
3961.000000	99.645773 
3960.000000	99.640596 
3959.000000	99.634655 
3958.000000	99.630401 
3957.000000	99.629145 
3956.000000	99.630310 
3955.000000	99.632319 
3954.000000	99.634369 
3953.000000	99.637095 
3952.000000	99.641375 
3951.000000	99.646601 
3950.000000	99.650676 
3949.000000	99.652227 
3948.000000	99.652189 
3947.000000	99.652452 
3946.000000	99.653428 
3945.000000	99.653728 
3944.000000	99.651971 
3943.000000	99.648305 
3942.000000	99.644530 
3941.000000	99.642634 
3940.000000	99.643021 
3939.000000	99.644371 
3938.000000	99.644963 
3937.000000	99.644052 
3936.000000	99.642133 
3935.000000	99.640112 
3934.000000	99.638645 
3933.000000	99.638032 
3932.000000	99.638555 
3931.000000	99.640476 
3930.000000	99.643762 
3929.000000	99.647866 
3928.000000	99.651274 
3927.000000	99.651811 
3926.000000	99.648152 
3925.000000	99.641337 
3924.000000	99.634633 
3923.000000	99.631083 
3922.000000	99.630997 
3921.000000	99.632416 
3920.000000	99.633377 
3919.000000	99.633416 
3918.000000	99.633420 
3917.000000	99.634523 
3916.000000	99.637109 
3915.000000	99.640155 
3914.000000	99.641674 
3913.000000	99.639964 
3912.000000	99.635052 
3911.000000	99.629310 
3910.000000	99.625764 
3909.000000	99.625701 
3908.000000	99.627590 
3907.000000	99.628133 
3906.000000	99.625291 
3905.000000	99.620436 
3904.000000	99.617618 
3903.000000	99.620022 
3902.000000	99.626840 
3901.000000	99.634550 
3900.000000	99.640633 
3899.000000	99.644809 
3898.000000	99.647878 
3897.000000	99.649870 
3896.000000	99.649786 
3895.000000	99.646917 
3894.000000	99.641705 
3893.000000	99.635929 
3892.000000	99.631974 
3891.000000	99.631194 
3890.000000	99.632627 
3889.000000	99.633470 
3888.000000	99.632228 
3887.000000	99.630823 
3886.000000	99.632022 
3885.000000	99.634396 
3884.000000	99.633310 
3883.000000	99.627225 
3882.000000	99.620434 
3881.000000	99.618553 
3880.000000	99.621945 
3879.000000	99.625186 
3878.000000	99.623631 
3877.000000	99.618575 
3876.000000	99.616217 
3875.000000	99.620807 
3874.000000	99.629012 
3873.000000	99.633277 
3872.000000	99.630374 
3871.000000	99.624319 
3870.000000	99.621169 
3869.000000	99.622480 
3868.000000	99.624683 
3867.000000	99.624428 
3866.000000	99.622878 
3865.000000	99.623715 
3864.000000	99.628432 
3863.000000	99.634846 
3862.000000	99.639709 
3861.000000	99.642093 
3860.000000	99.643413 
3859.000000	99.645634 
3858.000000	99.649455 
3857.000000	99.652938 
3856.000000	99.652383 
3855.000000	99.647648 
3854.000000	99.643564 
3853.000000	99.642567 
3852.000000	99.642420 
3851.000000	99.640874 
3850.000000	99.637704 
3849.000000	99.634799 
3848.000000	99.633312 
3847.000000	99.633077 
3846.000000	99.633307 
3845.000000	99.633715 
3844.000000	99.635225 
3843.000000	99.638261 
3842.000000	99.640675 
3841.000000	99.639416 
3840.000000	99.633476 
3839.000000	99.625715 
3838.000000	99.621150 
3837.000000	99.621511 
3836.000000	99.623229 
3835.000000	99.621710 
3834.000000	99.615899 
3833.000000	99.609153 
3832.000000	99.605848 
3831.000000	99.607061 
3830.000000	99.610091 
3829.000000	99.612231 
3828.000000	99.614677 
3827.000000	99.621039 
3826.000000	99.631269 
3825.000000	99.639664 
3824.000000	99.639774 
3823.000000	99.631635 
3822.000000	99.623181 
3821.000000	99.621589 
3820.000000	99.626130 
3819.000000	99.631572 
3818.000000	99.634231 
3817.000000	99.635303 
3816.000000	99.638445 
3815.000000	99.643676 
3814.000000	99.647399 
3813.000000	99.648181 
3812.000000	99.648173 
3811.000000	99.649578 
3810.000000	99.651632 
3809.000000	99.651971 
3808.000000	99.650772 
3807.000000	99.651075 
3806.000000	99.654061 
3805.000000	99.656917 
3804.000000	99.655809 
3803.000000	99.650219 
3802.000000	99.643024 
3801.000000	99.636350 
3800.000000	99.629652 
3799.000000	99.622270 
3798.000000	99.616572 
3797.000000	99.617035 
3796.000000	99.625181 
3795.000000	99.636710 
3794.000000	99.644900 
3793.000000	99.646340 
3792.000000	99.642613 
3791.000000	99.637588 
3790.000000	99.633708 
3789.000000	99.630706 
3788.000000	99.627223 
3787.000000	99.622643 
3786.000000	99.617628 
3785.000000	99.613495 
3784.000000	99.611178 
3783.000000	99.610779 
3782.000000	99.612251 
3781.000000	99.616194 
3780.000000	99.622816 
3779.000000	99.630228 
3778.000000	99.635270 
3777.000000	99.636413 
3776.000000	99.635059 
3775.000000	99.633918 
3774.000000	99.633896 
3773.000000	99.633212 
3772.000000	99.630537 
3771.000000	99.627885 
3770.000000	99.628610 
3769.000000	99.633020 
3768.000000	99.637609 
3767.000000	99.638930 
3766.000000	99.637355 
3765.000000	99.635711 
3764.000000	99.635126 
3763.000000	99.633702 
3762.000000	99.629825 
3761.000000	99.625098 
3760.000000	99.621969 
3759.000000	99.620285 
3758.000000	99.617762 
3757.000000	99.613601 
3756.000000	99.610026 
3755.000000	99.610193 
3754.000000	99.615860 
3753.000000	99.625890 
3752.000000	99.635125 
3751.000000	99.636412 
3750.000000	99.628400 
3749.000000	99.617968 
3748.000000	99.611466 
3747.000000	99.609881 
3746.000000	99.612018 
3745.000000	99.617268 
3744.000000	99.624092 
3743.000000	99.627717 
3742.000000	99.625539 
3741.000000	99.621677 
3740.000000	99.621572 
3739.000000	99.625579 
3738.000000	99.629161 
3737.000000	99.628312 
3736.000000	99.624470 
3735.000000	99.622504 
3734.000000	99.625735 
3733.000000	99.633236 
3732.000000	99.640951 
3731.000000	99.644627 
3730.000000	99.641822 
3729.000000	99.633733 
3728.000000	99.625715 
3727.000000	99.623342 
3726.000000	99.626326 
3725.000000	99.628475 
3724.000000	99.625890 
3723.000000	99.621872 
3722.000000	99.621962 
3721.000000	99.626752 
3720.000000	99.631263 
3719.000000	99.632166 
3718.000000	99.632053 
3717.000000	99.634908 
3716.000000	99.640070 
3715.000000	99.641754 
3714.000000	99.634844 
3713.000000	99.620790 
3712.000000	99.606501 
3711.000000	99.597669 
3710.000000	99.594863 
3709.000000	99.595779 
3708.000000	99.598258 
3707.000000	99.600742 
3706.000000	99.602318 
3705.000000	99.603198 
3704.000000	99.604826 
3703.000000	99.608599 
3702.000000	99.613698 
3701.000000	99.617604 
3700.000000	99.618589 
3699.000000	99.616844 
3698.000000	99.614335 
3697.000000	99.613229 
3696.000000	99.613758 
3695.000000	99.614020 
3694.000000	99.612603 
3693.000000	99.611076 
3692.000000	99.612619 
3691.000000	99.617550 
3690.000000	99.621068 
3689.000000	99.619083 
3688.000000	99.614465 
3687.000000	99.612464 
3686.000000	99.614456 
3685.000000	99.618794 
3684.000000	99.622743 
3683.000000	99.623853 
3682.000000	99.621511 
3681.000000	99.617592 
3680.000000	99.614910 
3679.000000	99.613514 
3678.000000	99.610504 
3677.000000	99.604761 
3676.000000	99.599050 
3675.000000	99.596594 
3674.000000	99.597456 
3673.000000	99.598146 
3672.000000	99.595477 
3671.000000	99.591214 
3670.000000	99.588751 
3669.000000	99.588880 
3668.000000	99.591720 
3667.000000	99.597550 
3666.000000	99.605590 
3665.000000	99.613755 
3664.000000	99.619181 
3663.000000	99.619978 
3662.000000	99.616209 
3661.000000	99.609533 
3660.000000	99.602731 
3659.000000	99.598950 
3658.000000	99.600839 
3657.000000	99.608191 
3656.000000	99.616283 
3655.000000	99.618832 
3654.000000	99.612477 
3653.000000	99.599102 
3652.000000	99.585655 
3651.000000	99.580773 
3650.000000	99.586158 
3649.000000	99.592919 
3648.000000	99.594019 
3647.000000	99.593141 
3646.000000	99.597026 
3645.000000	99.606638 
3644.000000	99.617077 
3643.000000	99.622834 
3642.000000	99.621879 
3641.000000	99.616195 
3640.000000	99.609621 
3639.000000	99.604584 
3638.000000	99.600498 
3637.000000	99.594888 
3636.000000	99.586826 
3635.000000	99.579083 
3634.000000	99.575581 
3633.000000	99.576757 
3632.000000	99.578918 
3631.000000	99.579030 
3630.000000	99.579013 
3629.000000	99.581073 
3628.000000	99.582107 
3627.000000	99.578658 
3626.000000	99.571411 
3625.000000	99.564785 
3624.000000	99.563214 
3623.000000	99.567295 
3622.000000	99.574198 
3621.000000	99.580978 
3620.000000	99.585924 
3619.000000	99.587575 
3618.000000	99.585199 
3617.000000	99.579917 
3616.000000	99.574548 
3615.000000	99.572513 
3614.000000	99.575379 
3613.000000	99.581160 
3612.000000	99.586397 
3611.000000	99.589664 
3610.000000	99.592544 
3609.000000	99.597013 
3608.000000	99.601978 
3607.000000	99.604568 
3606.000000	99.604023 
3605.000000	99.602248 
3604.000000	99.601325 
3603.000000	99.601465 
3602.000000	99.601252 
3601.000000	99.599471 
3600.000000	99.596364 
3599.000000	99.593342 
3598.000000	99.591601 
3597.000000	99.590961 
3596.000000	99.590627 
3595.000000	99.590304 
3594.000000	99.590271 
3593.000000	99.590591 
3592.000000	99.590254 
3591.000000	99.587974 
3590.000000	99.584267 
3589.000000	99.581553 
3588.000000	99.580947 
3587.000000	99.580933 
3586.000000	99.580714 
3585.000000	99.581151 
3584.000000	99.582592 
3583.000000	99.584436 
3582.000000	99.586303 
3581.000000	99.588102 
3580.000000	99.589170 
3579.000000	99.588051 
3578.000000	99.583731 
3577.000000	99.576774 
3576.000000	99.568892 
3575.000000	99.561958 
3574.000000	99.557417 
3573.000000	99.556118 
3572.000000	99.557819 
3571.000000	99.561163 
3570.000000	99.565224 
3569.000000	99.571088 
3568.000000	99.579956 
3567.000000	99.589404 
3566.000000	99.594926 
3565.000000	99.595015 
3564.000000	99.592121 
3563.000000	99.590233 
3562.000000	99.591853 
3561.000000	99.595947 
3560.000000	99.598505 
3559.000000	99.595990 
3558.000000	99.588795 
3557.000000	99.581317 
3556.000000	99.578328 
3555.000000	99.581204 
3554.000000	99.587286 
3553.000000	99.592444 
3552.000000	99.594096 
3551.000000	99.591801 
3550.000000	99.585935 
3549.000000	99.577463 
3548.000000	99.568974 
3547.000000	99.563853 
3546.000000	99.563394 
3545.000000	99.565449 
3544.000000	99.567109 
3543.000000	99.568033 
3542.000000	99.570268 
3541.000000	99.575137 
3540.000000	99.581004 
3539.000000	99.584186 
3538.000000	99.582040 
3537.000000	99.575121 
3536.000000	99.566716 
3535.000000	99.560182 
3534.000000	99.556663 
3533.000000	99.554985 
3532.000000	99.553276 
3531.000000	99.550636 
3530.000000	99.547577 
3529.000000	99.545231 
3528.000000	99.544300 
3527.000000	99.544819 
3526.000000	99.546856 
3525.000000	99.550967 
3524.000000	99.557455 
3523.000000	99.565292 
3522.000000	99.572397 
3521.000000	99.577119 
3520.000000	99.579246 
3519.000000	99.579487 
3518.000000	99.578479 
3517.000000	99.576361 
3516.000000	99.573127 
3515.000000	99.569060 
3514.000000	99.564654 
3513.000000	99.560305 
3512.000000	99.556247 
3511.000000	99.552866 
3510.000000	99.550676 
3509.000000	99.549326 
3508.000000	99.546429 
3507.000000	99.538648 
3506.000000	99.525542 
3505.000000	99.512321 
3504.000000	99.507140 
3503.000000	99.513984 
3502.000000	99.528952 
3501.000000	99.544190 
3500.000000	99.554253 
3499.000000	99.557993 
3498.000000	99.556445 
3497.000000	99.551269 
3496.000000	99.544668 
3495.000000	99.538754 
3494.000000	99.534322 
3493.000000	99.531229 
3492.000000	99.530058 
3491.000000	99.531914 
3490.000000	99.536137 
3489.000000	99.539592 
3488.000000	99.539395 
3487.000000	99.535811 
3486.000000	99.531656 
3485.000000	99.529346 
3484.000000	99.529394 
3483.000000	99.531122 
3482.000000	99.533598 
3481.000000	99.535832 
3480.000000	99.536928 
3479.000000	99.536633 
3478.000000	99.535825 
3477.000000	99.536249 
3476.000000	99.539238 
3475.000000	99.543986 
3474.000000	99.547246 
3473.000000	99.545685 
3472.000000	99.539187 
3471.000000	99.531408 
3470.000000	99.526453 
3469.000000	99.525355 
3468.000000	99.526206 
3467.000000	99.527144 
3466.000000	99.528201 
3465.000000	99.530165 
3464.000000	99.532746 
3463.000000	99.534431 
3462.000000	99.533679 
3461.000000	99.529976 
3460.000000	99.524226 
3459.000000	99.518638 
3458.000000	99.515722 
3457.000000	99.516460 
3456.000000	99.519362 
3455.000000	99.521717 
3454.000000	99.522027 
3453.000000	99.520866 
3452.000000	99.519408 
3451.000000	99.518025 
3450.000000	99.516869 
3449.000000	99.517032 
3448.000000	99.519501 
3447.000000	99.522678 
3446.000000	99.522630 
3445.000000	99.517382 
3444.000000	99.510253 
3443.000000	99.507368 
3442.000000	99.511384 
3441.000000	99.518398 
3440.000000	99.521827 
3439.000000	99.518629 
3438.000000	99.511193 
3437.000000	99.504037 
3436.000000	99.499890 
3435.000000	99.498828 
3434.000000	99.499864 
3433.000000	99.502328 
3432.000000	99.505794 
3431.000000	99.509570 
3430.000000	99.512955 
3429.000000	99.516165 
3428.000000	99.520433 
3427.000000	99.526456 
3426.000000	99.532850 
3425.000000	99.536878 
3424.000000	99.536986 
3423.000000	99.534109 
3422.000000	99.530276 
3421.000000	99.526618 
3420.000000	99.523361 
3419.000000	99.521160 
3418.000000	99.521416 
3417.000000	99.524939 
3416.000000	99.530447 
3415.000000	99.534496 
3414.000000	99.533385 
3413.000000	99.526085 
3412.000000	99.515599 
3411.000000	99.506740 
3410.000000	99.502202 
3409.000000	99.501215 
3408.000000	99.501827 
3407.000000	99.503208 
3406.000000	99.505112 
3405.000000	99.506533 
3404.000000	99.506591 
3403.000000	99.506294 
3402.000000	99.507865 
3401.000000	99.511972 
3400.000000	99.516571 
3399.000000	99.518781 
3398.000000	99.517403 
3397.000000	99.513584 
3396.000000	99.509611 
3395.000000	99.507121 
3394.000000	99.506019 
3393.000000	99.505047 
3392.000000	99.503538 
3391.000000	99.502181 
3390.000000	99.501630 
3389.000000	99.501042 
3388.000000	99.498958 
3387.000000	99.495416 
3386.000000	99.492332 
3385.000000	99.491753 
3384.000000	99.494292 
3383.000000	99.499022 
3382.000000	99.504115 
3381.000000	99.507906 
3380.000000	99.510346 
3379.000000	99.513261 
3378.000000	99.517909 
3377.000000	99.522431 
3376.000000	99.523349 
3375.000000	99.520024 
3374.000000	99.515906 
3373.000000	99.514418 
3372.000000	99.515056 
3371.000000	99.515103 
3370.000000	99.514091 
3369.000000	99.514332 
3368.000000	99.517123 
3367.000000	99.520567 
3366.000000	99.522053 
3365.000000	99.521491 
3364.000000	99.520647 
3363.000000	99.519956 
3362.000000	99.517567 
3361.000000	99.511907 
3360.000000	99.504258 
3359.000000	99.498163 
3358.000000	99.496464 
3357.000000	99.499147 
3356.000000	99.503679 
3355.000000	99.506946 
3354.000000	99.507136 
3353.000000	99.504645 
3352.000000	99.501634 
3351.000000	99.500298 
3350.000000	99.500989 
3349.000000	99.502090 
3348.000000	99.501942 
3347.000000	99.500659 
3346.000000	99.499809 
3345.000000	99.500624 
3344.000000	99.502999 
3343.000000	99.505970 
3342.000000	99.508494 
3341.000000	99.509879 
3340.000000	99.510141 
3339.000000	99.510130 
3338.000000	99.510875 
3337.000000	99.512616 
3336.000000	99.514824 
3335.000000	99.517180 
3334.000000	99.520007 
3333.000000	99.523536 
3332.000000	99.527071 
3331.000000	99.529113 
3330.000000	99.528207 
3329.000000	99.523952 
3328.000000	99.517693 
3327.000000	99.512052 
3326.000000	99.509018 
3325.000000	99.508259 
3324.000000	99.507873 
3323.000000	99.506908 
3322.000000	99.506509 
3321.000000	99.508393 
3320.000000	99.512948 
3319.000000	99.519084 
3318.000000	99.525116 
3317.000000	99.529206 
3316.000000	99.529847 
3315.000000	99.527117 
3314.000000	99.523277 
3313.000000	99.521172 
3312.000000	99.521791 
3311.000000	99.523773 
3310.000000	99.525167 
3309.000000	99.525188 
3308.000000	99.524389 
3307.000000	99.523892 
3306.000000	99.524595 
3305.000000	99.526590 
3304.000000	99.529062 
3303.000000	99.530977 
3302.000000	99.531816 
3301.000000	99.531199 
3300.000000	99.528043 
3299.000000	99.521079 
3298.000000	99.510790 
3297.000000	99.500312 
3296.000000	99.493657 
3295.000000	99.492918 
3294.000000	99.497249 
3293.000000	99.504172 
3292.000000	99.511533 
3291.000000	99.518420 
3290.000000	99.524695 
3289.000000	99.529828 
3288.000000	99.532448 
3287.000000	99.531674 
3286.000000	99.529128 
3285.000000	99.528709 
3284.000000	99.533085 
3283.000000	99.540407 
3282.000000	99.545527 
3281.000000	99.544787 
3280.000000	99.538943 
3279.000000	99.531334 
3278.000000	99.524595 
3277.000000	99.519953 
3276.000000	99.518296 
3275.000000	99.519829 
3274.000000	99.522588 
3273.000000	99.522999 
3272.000000	99.518954 
3271.000000	99.511862 
3270.000000	99.505337 
3269.000000	99.502367 
3268.000000	99.503734 
3267.000000	99.508018 
3266.000000	99.512314 
3265.000000	99.513716 
3264.000000	99.511401 
3263.000000	99.507547 
3262.000000	99.505599 
3261.000000	99.507449 
3260.000000	99.512516 
3259.000000	99.519317 
3258.000000	99.527084 
3257.000000	99.535303 
3256.000000	99.542070 
3255.000000	99.544032 
3254.000000	99.538991 
3253.000000	99.528768 
3252.000000	99.518817 
3251.000000	99.514345 
3250.000000	99.516599 
3249.000000	99.522855 
3248.000000	99.529443 
3247.000000	99.534261 
3246.000000	99.536910 
3245.000000	99.537620 
3244.000000	99.536559 
3243.000000	99.533719 
3242.000000	99.529179 
3241.000000	99.523750 
3240.000000	99.519288 
3239.000000	99.517692 
3238.000000	99.519379 
3237.000000	99.523156 
3236.000000	99.527505 
3235.000000	99.531201 
3234.000000	99.532809 
3233.000000	99.531000 
3232.000000	99.526217 
3231.000000	99.521108 
3230.000000	99.518236 
3229.000000	99.517726 
3228.000000	99.517951 
3227.000000	99.518024 
3226.000000	99.518618 
3225.000000	99.520449 
3224.000000	99.522885 
3223.000000	99.524341 
3222.000000	99.523707 
3221.000000	99.521439 
3220.000000	99.519510 
3219.000000	99.519897 
3218.000000	99.522550 
3217.000000	99.525021 
3216.000000	99.524761 
3215.000000	99.521917 
3214.000000	99.519556 
3213.000000	99.520946 
3212.000000	99.526557 
3211.000000	99.533362 
3210.000000	99.536924 
3209.000000	99.534855 
3208.000000	99.529010 
3207.000000	99.524150 
3206.000000	99.523822 
3205.000000	99.527405 
3204.000000	99.531235 
3203.000000	99.532340 
3202.000000	99.530799 
3201.000000	99.528949 
3200.000000	99.529100 
3199.000000	99.532048 
3198.000000	99.536963 
3197.000000	99.541998 
3196.000000	99.545024 
3195.000000	99.544482 
3194.000000	99.540401 
3193.000000	99.534847 
3192.000000	99.530652 
3191.000000	99.528954 
3190.000000	99.528388 
3189.000000	99.527356 
3188.000000	99.526486 
3187.000000	99.527798 
3186.000000	99.531981 
3185.000000	99.537974 
3184.000000	99.544729 
3183.000000	99.551170 
3182.000000	99.554322 
3181.000000	99.550434 
3180.000000	99.539716 
3179.000000	99.528106 
3178.000000	99.522123 
3177.000000	99.522825 
3176.000000	99.526350 
3175.000000	99.529073 
3174.000000	99.530195 
3173.000000	99.530456 
3172.000000	99.530953 
3171.000000	99.533049 
3170.000000	99.537236 
3169.000000	99.541773 
3168.000000	99.544201 
3167.000000	99.544451 
3166.000000	99.544871 
3165.000000	99.546940 
3164.000000	99.549485 
3163.000000	99.550616 
3162.000000	99.550093 
3161.000000	99.549162 
3160.000000	99.548868 
3159.000000	99.549013 
3158.000000	99.548401 
3157.000000	99.546213 
3156.000000	99.543464 
3155.000000	99.542235 
3154.000000	99.542644 
3153.000000	99.541846 
3152.000000	99.537804 
3151.000000	99.532965 
3150.000000	99.531622 
3149.000000	99.533969 
3148.000000	99.535649 
3147.000000	99.533615 
3146.000000	99.529850 
3145.000000	99.528307 
3144.000000	99.530369 
3143.000000	99.534492 
3142.000000	99.538333 
3141.000000	99.539824 
3140.000000	99.537980 
3139.000000	99.534464 
3138.000000	99.533083 
3137.000000	99.536049 
3136.000000	99.541399 
3135.000000	99.545129 
3134.000000	99.544723 
3133.000000	99.539619 
3132.000000	99.530361 
3131.000000	99.519822 
3130.000000	99.514020 
3129.000000	99.518210 
3128.000000	99.531129 
3127.000000	99.545084 
3126.000000	99.552911 
3125.000000	99.553820 
3124.000000	99.551825 
3123.000000	99.549864 
3122.000000	99.547017 
3121.000000	99.541167 
3120.000000	99.532974 
3119.000000	99.526381 
3118.000000	99.525180 
3117.000000	99.529318 
3116.000000	99.534882 
3115.000000	99.537797 
3114.000000	99.537199 
3113.000000	99.535169 
3112.000000	99.534002 
3111.000000	99.534642 
3110.000000	99.537269 
3109.000000	99.541699 
3108.000000	99.546365 
3107.000000	99.548156 
3106.000000	99.545138 
3105.000000	99.539654 
3104.000000	99.537042 
3103.000000	99.540148 
3102.000000	99.546074 
3101.000000	99.549761 
3100.000000	99.550072 
3099.000000	99.550103 
3098.000000	99.551717 
3097.000000	99.552787 
3096.000000	99.551225 
3095.000000	99.549158 
3094.000000	99.550297 
3093.000000	99.554355 
3092.000000	99.556933 
3091.000000	99.554819 
3090.000000	99.549059 
3089.000000	99.542641 
3088.000000	99.537431 
3087.000000	99.534005 
3086.000000	99.532368 
3085.000000	99.531577 
3084.000000	99.530025 
3083.000000	99.527371 
3082.000000	99.525533 
3081.000000	99.526990 
3080.000000	99.532523 
3079.000000	99.540783 
3078.000000	99.549161 
3077.000000	99.554928 
3076.000000	99.556816 
3075.000000	99.556084 
3074.000000	99.555112 
3073.000000	99.554557 
3072.000000	99.552946 
3071.000000	99.549434 
3070.000000	99.545529 
3069.000000	99.543278 
3068.000000	99.542870 
3067.000000	99.543013 
3066.000000	99.542838 
3065.000000	99.542412 
3064.000000	99.541895 
3063.000000	99.540967 
3062.000000	99.538777 
3061.000000	99.534404 
3060.000000	99.528287 
3059.000000	99.523336 
3058.000000	99.523036 
3057.000000	99.527475 
3056.000000	99.532465 
3055.000000	99.533878 
3054.000000	99.532002 
3053.000000	99.530449 
3052.000000	99.531604 
3051.000000	99.534419 
3050.000000	99.536167 
3049.000000	99.535126 
3048.000000	99.531847 
3047.000000	99.528800 
3046.000000	99.528604 
3045.000000	99.531618 
3044.000000	99.535337 
3043.000000	99.537050 
3042.000000	99.536978 
3041.000000	99.537853 
3040.000000	99.541273 
3039.000000	99.545308 
3038.000000	99.546259 
3037.000000	99.542451 
3036.000000	99.535979 
3035.000000	99.530716 
3034.000000	99.528805 
3033.000000	99.529276 
3032.000000	99.529996 
3031.000000	99.530211 
3030.000000	99.530447 
3029.000000	99.530622 
3028.000000	99.529775 
3027.000000	99.527823 
3026.000000	99.526049 
3025.000000	99.525270 
3024.000000	99.524813 
3023.000000	99.524169 
3022.000000	99.524272 
3021.000000	99.525692 
3020.000000	99.526474 
3019.000000	99.523576 
3018.000000	99.516450 
3017.000000	99.508017 
3016.000000	99.502085 
3015.000000	99.500753 
3014.000000	99.503976 
3013.000000	99.509957 
3012.000000	99.515359 
3011.000000	99.516532 
3010.000000	99.512115 
3009.000000	99.504626 
3008.000000	99.498838 
3007.000000	99.498201 
3006.000000	99.502654 
3005.000000	99.509521 
3004.000000	99.515866 
3003.000000	99.519650 
3002.000000	99.519365 
3001.000000	99.514281 
3000.000000	99.506073 
2999.000000	99.499085 
2998.000000	99.496918 
2997.000000	99.498290 
2996.000000	99.497757 
2995.000000	99.491511 
2994.000000	99.481771 
2993.000000	99.474529 
2992.000000	99.473466 
2991.000000	99.476816 
2990.000000	99.479683 
2989.000000	99.478456 
2988.000000	99.473166 
2987.000000	99.466770 
2986.000000	99.462758 
2985.000000	99.462843 
2984.000000	99.465922 
2983.000000	99.468742 
2982.000000	99.468044 
2981.000000	99.463127 
2980.000000	99.456831 
2979.000000	99.453271 
2978.000000	99.453746 
2977.000000	99.455263 
2976.000000	99.454012 
2975.000000	99.449859 
2974.000000	99.446023 
2973.000000	99.444422 
2972.000000	99.443108 
2971.000000	99.439080 
2970.000000	99.432142 
2969.000000	99.424763 
2968.000000	99.419092 
2967.000000	99.415448 
2966.000000	99.413191 
2965.000000	99.411504 
2964.000000	99.409159 
2963.000000	99.404748 
2962.000000	99.397932 
2961.000000	99.390240 
2960.000000	99.384294 
2959.000000	99.382089 
2958.000000	99.383675 
2957.000000	99.387234 
2956.000000	99.390504 
2955.000000	99.392361 
2954.000000	99.393103 
2953.000000	99.393430 
2952.000000	99.393532 
2951.000000	99.393117 
2950.000000	99.391877 
2949.000000	99.389849 
2948.000000	99.387544 
2947.000000	99.385483 
2946.000000	99.383158 
2945.000000	99.378965 
2944.000000	99.372000 
2943.000000	99.363524 
2942.000000	99.355410 
2941.000000	99.347373 
2940.000000	99.337419 
2939.000000	99.325257 
2938.000000	99.313291 
2937.000000	99.303158 
2936.000000	99.292971 
2935.000000	99.279689 
2934.000000	99.263322 
2933.000000	99.246997 
2932.000000	99.233224 
2931.000000	99.221600 
2930.000000	99.210179 
2929.000000	99.197775 
2928.000000	99.184679 
2927.000000	99.172121 
2926.000000	99.161660 
2925.000000	99.154715 
2924.000000	99.152150 
2923.000000	99.154016 
2922.000000	99.159514 
2921.000000	99.167502 
2920.000000	99.177600 
2919.000000	99.190652 
2918.000000	99.207130 
2917.000000	99.225027 
2916.000000	99.240644 
2915.000000	99.252216 
2914.000000	99.261864 
2913.000000	99.272937 
2912.000000	99.286090 
2911.000000	99.299135 
2910.000000	99.310498 
2909.000000	99.321473 
2908.000000	99.334534 
2907.000000	99.349909 
2906.000000	99.364358 
2905.000000	99.373532 
2904.000000	99.375809 
2903.000000	99.373898 
2902.000000	99.372816 
2901.000000	99.375775 
2900.000000	99.382356 
2899.000000	99.390031 
2898.000000	99.396502 
2897.000000	99.400752 
2896.000000	99.403006 
2895.000000	99.404743 
2894.000000	99.408265 
2893.000000	99.415110 
2892.000000	99.424396 
2891.000000	99.432956 
2890.000000	99.437608 
2889.000000	99.437851 
2888.000000	99.436555 
2887.000000	99.437513 
2886.000000	99.441825 
2885.000000	99.446942 
2884.000000	99.449758 
2883.000000	99.449942 
2882.000000	99.449259 
2881.000000	99.448409 
2880.000000	99.446511 
2879.000000	99.443826 
2878.000000	99.442837 
2877.000000	99.445274 
2876.000000	99.449167 
2875.000000	99.450231 
2874.000000	99.445878 
2873.000000	99.437289 
2872.000000	99.428158 
2871.000000	99.422081 
2870.000000	99.420681 
2869.000000	99.423207 
2868.000000	99.427625 
2867.000000	99.431913 
2866.000000	99.434118 
2865.000000	99.432052 
2864.000000	99.424614 
2863.000000	99.413593 
2862.000000	99.402465 
2861.000000	99.392744 
2860.000000	99.383019 
2859.000000	99.372260 
2858.000000	99.362122 
2857.000000	99.354447 
2856.000000	99.348122 
2855.000000	99.340614 
2854.000000	99.332039 
2853.000000	99.325942 
2852.000000	99.326076 
2851.000000	99.333487 
2850.000000	99.346406 
2849.000000	99.361772 
2848.000000	99.377143 
2847.000000	99.392326 
2846.000000	99.409155 
2845.000000	99.428826 
2844.000000	99.449634 
2843.000000	99.468076 
2842.000000	99.481805 
2841.000000	99.490772 
2840.000000	99.496151 
2839.000000	99.499464 
2838.000000	99.502386 
2837.000000	99.505959 
2836.000000	99.509749 
2835.000000	99.512688 
2834.000000	99.514673 
2833.000000	99.516294 
2832.000000	99.517164 
2831.000000	99.516104 
2830.000000	99.513554 
2829.000000	99.512459 
2828.000000	99.515603 
2827.000000	99.522405 
2826.000000	99.529181 
2825.000000	99.532504 
2824.000000	99.531892 
2823.000000	99.529495 
2822.000000	99.527776 
2821.000000	99.527738 
2820.000000	99.529033 
2819.000000	99.531135 
2818.000000	99.533908 
2817.000000	99.537047 
2816.000000	99.539608 
2815.000000	99.540581 
2814.000000	99.539855 
2813.000000	99.538364 
2812.000000	99.537354 
2811.000000	99.537530 
2810.000000	99.538569 
2809.000000	99.539235 
2808.000000	99.538299 
2807.000000	99.535692 
2806.000000	99.532686 
2805.000000	99.530811 
2804.000000	99.530742 
2803.000000	99.532082 
2802.000000	99.533736 
2801.000000	99.534416 
2800.000000	99.533514 
2799.000000	99.531890 
2798.000000	99.531423 
2797.000000	99.533461 
2796.000000	99.537908 
2795.000000	99.543701 
2794.000000	99.549384 
2793.000000	99.553204 
2792.000000	99.553851 
2791.000000	99.551797 
2790.000000	99.549110 
2789.000000	99.547242 
2788.000000	99.545734 
2787.000000	99.543743 
2786.000000	99.541912 
2785.000000	99.541657 
2784.000000	99.543262 
2783.000000	99.545877 
2782.000000	99.548934 
2781.000000	99.552247 
2780.000000	99.554853 
2779.000000	99.555253 
2778.000000	99.553305 
2777.000000	99.550910 
2776.000000	99.550109 
2775.000000	99.550918 
2774.000000	99.551567 
2773.000000	99.550722 
2772.000000	99.549048 
2771.000000	99.548414 
2770.000000	99.549667 
2769.000000	99.551605 
2768.000000	99.552505 
2767.000000	99.552212 
2766.000000	99.551909 
2765.000000	99.552047 
2764.000000	99.551842 
2763.000000	99.551140 
2762.000000	99.551202 
2761.000000	99.552619 
2760.000000	99.553760 
2759.000000	99.552791 
2758.000000	99.550344 
2757.000000	99.548486 
2756.000000	99.547778 
2755.000000	99.547438 
2754.000000	99.548188 
2753.000000	99.552245 
2752.000000	99.559351 
2751.000000	99.564781 
2750.000000	99.563320 
2749.000000	99.554782 
2748.000000	99.544328 
2747.000000	99.537562 
2746.000000	99.536231 
2745.000000	99.538318 
2744.000000	99.540831 
2743.000000	99.541967 
2742.000000	99.541509 
2741.000000	99.540275 
2740.000000	99.539415 
2739.000000	99.539750 
2738.000000	99.541293 
2737.000000	99.543262 
2736.000000	99.544693 
2735.000000	99.545250 
2734.000000	99.545493 
2733.000000	99.546315 
2732.000000	99.548031 
2731.000000	99.549985 
2730.000000	99.551120 
2729.000000	99.551073 
2728.000000	99.550675 
2727.000000	99.551096 
2726.000000	99.552442 
2725.000000	99.553732 
2724.000000	99.554533 
2723.000000	99.555877 
2722.000000	99.558674 
2721.000000	99.561700 
2720.000000	99.562500 
2719.000000	99.560325 
2718.000000	99.556899 
2717.000000	99.554025 
2716.000000	99.551922 
2715.000000	99.550586 
2714.000000	99.551065 
2713.000000	99.553755 
2712.000000	99.556530 
2711.000000	99.556604 
2710.000000	99.554077 
2709.000000	99.551867 
2708.000000	99.551888 
2707.000000	99.552861 
2706.000000	99.552479 
2705.000000	99.550481 
2704.000000	99.548715 
2703.000000	99.548956 
2702.000000	99.551483 
2701.000000	99.555294 
2700.000000	99.558967 
2699.000000	99.561473 
2698.000000	99.562631 
2697.000000	99.562844 
2696.000000	99.562445 
2695.000000	99.561633 
2694.000000	99.560886 
2693.000000	99.560562 
2692.000000	99.559876 
2691.000000	99.557272 
2690.000000	99.552636 
2689.000000	99.548480 
2688.000000	99.547853 
2687.000000	99.551310 
2686.000000	99.556741 
2685.000000	99.561744 
2684.000000	99.564897 
2683.000000	99.564932 
2682.000000	99.560797 
2681.000000	99.553805 
2680.000000	99.548271 
2679.000000	99.547899 
2678.000000	99.551786 
2677.000000	99.555692 
2676.000000	99.557331 
2675.000000	99.558437 
2674.000000	99.560925 
2673.000000	99.563136 
2672.000000	99.561749 
2671.000000	99.556346 
2670.000000	99.549984 
2669.000000	99.545521 
2668.000000	99.543339 
2667.000000	99.542883 
2666.000000	99.544362 
2665.000000	99.547729 
2664.000000	99.551305 
2663.000000	99.553046 
2662.000000	99.553015 
2661.000000	99.553450 
2660.000000	99.555991 
2659.000000	99.559363 
2658.000000	99.560278 
2657.000000	99.556773 
2656.000000	99.550386 
2655.000000	99.544643 
2654.000000	99.541635 
2653.000000	99.541063 
2652.000000	99.542723 
2651.000000	99.547902 
2650.000000	99.556439 
2649.000000	99.563736 
2648.000000	99.563954 
2647.000000	99.556888 
2646.000000	99.549228 
2645.000000	99.547522 
2644.000000	99.551466 
2643.000000	99.555453 
2642.000000	99.555225 
2641.000000	99.551345 
2640.000000	99.547297 
2639.000000	99.546257 
2638.000000	99.549365 
2637.000000	99.555213 
2636.000000	99.560667 
2635.000000	99.563221 
2634.000000	99.562923 
2633.000000	99.561750 
2632.000000	99.561479 
2631.000000	99.562516 
2630.000000	99.563929 
2629.000000	99.563883 
2628.000000	99.561038 
2627.000000	99.556499 
2626.000000	99.553379 
2625.000000	99.553196 
2624.000000	99.553813 
2623.000000	99.552602 
2622.000000	99.550575 
2621.000000	99.550937 
2620.000000	99.553880 
2619.000000	99.555518 
2618.000000	99.552703 
2617.000000	99.546846 
2616.000000	99.541862 
2615.000000	99.539995 
2614.000000	99.540913 
2613.000000	99.543450 
2612.000000	99.546338 
2611.000000	99.547864 
2610.000000	99.546932 
2609.000000	99.545036 
2608.000000	99.545677 
2607.000000	99.550523 
2606.000000	99.556722 
2605.000000	99.559635 
2604.000000	99.558582 
2603.000000	99.558167 
2602.000000	99.562471 
2601.000000	99.569085 
2600.000000	99.571319 
2599.000000	99.566328 
2598.000000	99.558382 
2597.000000	99.553047 
2596.000000	99.550829 
2595.000000	99.548841 
2594.000000	99.546679 
2593.000000	99.546992 
2592.000000	99.550411 
2591.000000	99.553367 
2590.000000	99.552474 
2589.000000	99.548966 
2588.000000	99.546908 
2587.000000	99.547954 
2586.000000	99.549716 
2585.000000	99.549307 
2584.000000	99.546984 
2583.000000	99.545251 
2582.000000	99.544955 
2581.000000	99.543946 
2580.000000	99.540515 
2579.000000	99.536813 
2578.000000	99.536597 
2577.000000	99.539644 
2576.000000	99.541172 
2575.000000	99.538275 
2574.000000	99.534621 
2573.000000	99.536130 
2572.000000	99.543167 
2571.000000	99.549975 
2570.000000	99.551805 
2569.000000	99.549856 
2568.000000	99.548487 
2567.000000	99.549842 
2566.000000	99.552651 
2565.000000	99.554720 
2564.000000	99.554860 
2563.000000	99.553023 
2562.000000	99.550105 
2561.000000	99.547701 
2560.000000	99.547055 
2559.000000	99.547899 
2558.000000	99.548801 
2557.000000	99.549038 
2556.000000	99.549832 
2555.000000	99.553125 
2554.000000	99.558913 
2553.000000	99.564573 
2552.000000	99.567784 
2551.000000	99.569629 
2550.000000	99.573041 
2549.000000	99.577791 
2548.000000	99.579179 
2547.000000	99.573655 
2546.000000	99.564646 
2545.000000	99.560193 
2544.000000	99.564340 
2543.000000	99.572634 
2542.000000	99.576995 
2541.000000	99.573604 
2540.000000	99.564742 
2539.000000	99.554136 
2538.000000	99.543190 
2537.000000	99.532794 
2536.000000	99.526644 
2535.000000	99.529389 
2534.000000	99.540578 
2533.000000	99.552945 
2532.000000	99.559248 
2531.000000	99.559842 
2530.000000	99.560837 
2529.000000	99.565271 
2528.000000	99.569621 
2527.000000	99.569976 
2526.000000	99.567784 
2525.000000	99.566440 
2524.000000	99.564781 
2523.000000	99.558664 
2522.000000	99.549082 
2521.000000	99.544363 
2520.000000	99.551405 
2519.000000	99.566218 
2518.000000	99.576143 
2517.000000	99.572378 
2516.000000	99.559242 
2515.000000	99.549817 
2514.000000	99.552806 
2513.000000	99.565108 
2512.000000	99.577284 
2511.000000	99.583718 
2510.000000	99.585403 
2509.000000	99.585047 
2508.000000	99.583440 
2507.000000	99.580146 
2506.000000	99.573427 
2505.000000	99.559152 
2504.000000	99.535281 
2503.000000	99.509894 
2502.000000	99.498918 
2501.000000	99.509895 
2500.000000	99.530806 
2499.000000	99.541566 
2498.000000	99.536100 
2497.000000	99.527128 
2496.000000	99.528759 
2495.000000	99.540623 
2494.000000	99.551888 
2493.000000	99.555733 
2492.000000	99.554999 
2491.000000	99.555845 
2490.000000	99.560363 
2489.000000	99.565403 
2488.000000	99.565994 
2487.000000	99.559697 
2486.000000	99.549376 
2485.000000	99.541701 
2484.000000	99.541523 
2483.000000	99.547724 
2482.000000	99.555466 
2481.000000	99.561813 
2480.000000	99.567538 
2479.000000	99.573736 
2478.000000	99.578914 
2477.000000	99.580668 
2476.000000	99.578942 
2475.000000	99.575893 
2474.000000	99.572681 
2473.000000	99.568143 
2472.000000	99.561460 
2471.000000	99.554751 
2470.000000	99.551275 
2469.000000	99.551463 
2468.000000	99.552826 
2467.000000	99.554211 
2466.000000	99.557861 
2465.000000	99.565579 
2464.000000	99.574453 
2463.000000	99.578787 
2462.000000	99.575959 
2461.000000	99.568625 
2460.000000	99.561435 
2459.000000	99.557393 
2458.000000	99.557184 
2457.000000	99.559644 
2456.000000	99.561917 
2455.000000	99.560929 
2454.000000	99.556180 
2453.000000	99.550554 
2452.000000	99.547682 
2451.000000	99.549111 
2450.000000	99.554288 
2449.000000	99.561950 
2448.000000	99.570230 
2447.000000	99.576070 
2446.000000	99.576206 
2445.000000	99.569825 
2444.000000	99.560272 
2443.000000	99.553456 
2442.000000	99.553493 
2441.000000	99.559074 
2440.000000	99.564442 
2439.000000	99.564828 
2438.000000	99.561110 
2437.000000	99.558854 
2436.000000	99.562980 
2435.000000	99.573607 
2434.000000	99.586275 
2433.000000	99.595178 
2432.000000	99.596699 
2431.000000	99.591313 
2430.000000	99.582681 
2429.000000	99.574634 
2428.000000	99.569029 
2427.000000	99.566398 
2426.000000	99.567166 
2425.000000	99.570707 
2424.000000	99.573965 
2423.000000	99.573239 
2422.000000	99.567898 
2421.000000	99.561326 
2420.000000	99.558019 
2419.000000	99.560543 
2418.000000	99.568606 
2417.000000	99.579002 
2416.000000	99.586302 
2415.000000	99.585950 
2414.000000	99.578253 
2413.000000	99.568371 
2412.000000	99.561384 
2411.000000	99.558037 
2410.000000	99.555804 
2409.000000	99.552854 
2408.000000	99.549914 
2407.000000	99.549001 
2406.000000	99.551329 
2405.000000	99.555989 
2404.000000	99.560149 
2403.000000	99.561363 
2402.000000	99.560379 
2401.000000	99.560666 
2400.000000	99.564104 
2399.000000	99.567942 
2398.000000	99.567488 
2397.000000	99.561607 
2396.000000	99.554340 
2395.000000	99.551019 
2394.000000	99.553693 
2393.000000	99.560136 
2392.000000	99.566018 
2391.000000	99.567589 
2390.000000	99.563422 
2389.000000	99.554935 
2388.000000	99.545571 
2387.000000	99.539032 
2386.000000	99.537529 
2385.000000	99.540810 
2384.000000	99.546401 
2383.000000	99.551370 
2382.000000	99.554876 
2381.000000	99.558942 
2380.000000	99.565666 
2379.000000	99.573259 
2378.000000	99.575953 
2377.000000	99.569214 
2376.000000	99.555056 
2375.000000	99.541415 
2374.000000	99.536119 
2373.000000	99.541710 
2372.000000	99.555300 
2371.000000	99.571530 
2370.000000	99.584897 
2369.000000	99.591067 
2368.000000	99.588717 
2367.000000	99.580839 
2366.000000	99.572613 
2365.000000	99.566687 
2364.000000	99.561367 
2363.000000	99.554176 
2362.000000	99.546249 
2361.000000	99.542076 
2360.000000	99.544791 
2359.000000	99.552972 
2358.000000	99.561842 
2357.000000	99.567316 
2356.000000	99.569019 
2355.000000	99.569858 
2354.000000	99.572128 
2353.000000	99.573822 
2352.000000	99.571635 
2351.000000	99.566388 
2350.000000	99.562645 
2349.000000	99.563472 
2348.000000	99.567061 
2347.000000	99.569073 
2346.000000	99.567306 
2345.000000	99.563942 
2344.000000	99.561621 
2343.000000	99.560035 
2342.000000	99.559015 
2341.000000	99.560557 
2340.000000	99.565736 
2339.000000	99.571440 
2338.000000	99.573493 
2337.000000	99.571185 
2336.000000	99.567633 
2335.000000	99.565574 
2334.000000	99.564291 
2333.000000	99.560528 
2332.000000	99.553508 
2331.000000	99.547551 
2330.000000	99.547815 
2329.000000	99.553719 
2328.000000	99.559304 
2327.000000	99.561005 
2326.000000	99.560917 
2325.000000	99.562348 
2324.000000	99.564826 
2323.000000	99.565654 
2322.000000	99.564331 
2321.000000	99.562108 
2320.000000	99.558984 
2319.000000	99.553580 
2318.000000	99.546494 
2317.000000	99.540632 
2316.000000	99.538489 
2315.000000	99.540688 
2314.000000	99.547003 
2313.000000	99.556503 
2312.000000	99.566467 
2311.000000	99.573742 
2310.000000	99.577853 
2309.000000	99.581216 
2308.000000	99.585113 
2307.000000	99.587140 
2306.000000	99.583906 
2305.000000	99.575549 
2304.000000	99.566356 
2303.000000	99.561055 
2302.000000	99.561247 
2301.000000	99.565043 
2300.000000	99.569441 
2299.000000	99.572713 
2298.000000	99.574502 
2297.000000	99.574038 
2296.000000	99.569382 
2295.000000	99.559974 
2294.000000	99.549274 
2293.000000	99.542882 
2292.000000	99.542721 
2291.000000	99.544655 
2290.000000	99.543037 
2289.000000	99.536920 
2288.000000	99.530420 
2287.000000	99.527522 
2286.000000	99.527961 
2285.000000	99.528248 
2284.000000	99.525748 
2283.000000	99.521440 
2282.000000	99.519130 
2281.000000	99.521623 
2280.000000	99.527245 
2279.000000	99.530874 
2278.000000	99.529579 
2277.000000	99.526574 
2276.000000	99.527932 
2275.000000	99.535508 
2274.000000	99.545162 
2273.000000	99.552665 
2272.000000	99.559312 
2271.000000	99.569588 
2270.000000	99.583776 
2269.000000	99.594819 
2268.000000	99.593467 
2267.000000	99.576551 
2266.000000	99.550782 
2265.000000	99.528944 
2264.000000	99.520833 
2263.000000	99.525580 
2262.000000	99.532287 
2261.000000	99.529969 
2260.000000	99.518197 
2259.000000	99.507482 
2258.000000	99.508905 
2257.000000	99.524398 
2256.000000	99.547281 
2255.000000	99.569367 
2254.000000	99.584870 
2253.000000	99.589671 
2252.000000	99.582238 
2251.000000	99.566972 
2250.000000	99.553358 
2249.000000	99.548627 
2248.000000	99.551787 
2247.000000	99.556202 
2246.000000	99.556762 
2245.000000	99.553119 
2244.000000	99.547367 
2243.000000	99.541544 
2242.000000	99.537754 
2241.000000	99.538190 
2240.000000	99.542940 
2239.000000	99.548166 
2238.000000	99.548082 
2237.000000	99.540030 
2236.000000	99.527839 
2235.000000	99.519304 
2234.000000	99.519537 
2233.000000	99.527224 
2232.000000	99.538046 
2231.000000	99.550557 
2230.000000	99.566343 
2229.000000	99.584596 
2228.000000	99.599599 
2227.000000	99.605260 
2226.000000	99.600791 
2225.000000	99.591275 
2224.000000	99.584087 
2223.000000	99.584741 
2222.000000	99.592972 
2221.000000	99.600659 
2220.000000	99.596278 
2219.000000	99.575049 
2218.000000	99.544491 
2217.000000	99.518384 
2216.000000	99.505920 
2215.000000	99.507519 
2214.000000	99.517807 
2213.000000	99.528746 
2212.000000	99.532623 
2211.000000	99.527975 
2210.000000	99.522828 
2209.000000	99.527085 
2208.000000	99.540546 
2207.000000	99.553046 
2206.000000	99.557611 
2205.000000	99.557695 
2204.000000	99.558230 
2203.000000	99.555794 
2202.000000	99.545020 
2201.000000	99.531820 
2200.000000	99.530684 
2199.000000	99.546478 
2198.000000	99.565845 
2197.000000	99.571035 
2196.000000	99.558090 
2195.000000	99.536922 
2194.000000	99.517991 
2193.000000	99.506192 
2192.000000	99.505328 
2191.000000	99.518722 
2190.000000	99.541731 
2189.000000	99.560430 
2188.000000	99.563895 
2187.000000	99.554494 
2186.000000	99.541356 
2185.000000	99.527756 
2184.000000	99.511526 
2183.000000	99.495279 
2182.000000	99.487415 
2181.000000	99.491421 
2180.000000	99.501311 
2179.000000	99.510373 
2178.000000	99.518152 
2177.000000	99.525994 
2176.000000	99.532216 
2175.000000	99.536315 
2174.000000	99.543051 
2173.000000	99.556530 
2172.000000	99.572742 
2171.000000	99.582738 
2170.000000	99.581553 
2169.000000	99.570887 
2168.000000	99.555636 
2167.000000	99.541961 
2166.000000	99.536702 
2165.000000	99.542793 
2164.000000	99.554546 
2163.000000	99.561735 
2162.000000	99.559064 
2161.000000	99.549408 
2160.000000	99.539502 
2159.000000	99.536224 
2158.000000	99.544776 
2157.000000	99.563354 
2156.000000	99.579447 
2155.000000	99.577993 
2154.000000	99.555734 
2153.000000	99.525910 
2152.000000	99.507554 
2151.000000	99.510244 
2150.000000	99.528281 
2149.000000	99.546805 
2148.000000	99.553719 
2147.000000	99.548560 
2146.000000	99.541077 
2145.000000	99.540690 
2144.000000	99.547520 
2143.000000	99.554688 
2142.000000	99.557845 
2141.000000	99.559466 
2140.000000	99.563686 
2139.000000	99.569857 
2138.000000	99.573151 
2137.000000	99.570577 
2136.000000	99.564902 
2135.000000	99.562148 
2134.000000	99.565184 
2133.000000	99.569936 
2132.000000	99.568632 
2131.000000	99.557005 
2130.000000	99.537576 
2129.000000	99.516233 
2128.000000	99.497683 
2127.000000	99.485569 
2126.000000	99.484582 
2125.000000	99.497856 
2124.000000	99.520869 
2123.000000	99.540850 
2122.000000	99.545320 
2121.000000	99.532299 
2120.000000	99.512211 
2119.000000	99.499642 
2118.000000	99.502607 
2117.000000	99.518406 
2116.000000	99.538737 
2115.000000	99.557866 
2114.000000	99.574479 
2113.000000	99.586318 
2112.000000	99.587503 
2111.000000	99.575120 
2110.000000	99.556672 
2109.000000	99.545442 
2108.000000	99.546747 
2107.000000	99.552921 
2106.000000	99.554337 
2105.000000	99.551629 
2104.000000	99.553153 
2103.000000	99.562743 
2102.000000	99.574604 
2101.000000	99.579732 
2100.000000	99.573537 
2099.000000	99.557542 
2098.000000	99.538619 
2097.000000	99.527984 
2096.000000	99.535325 
2095.000000	99.559082 
2094.000000	99.584344 
2093.000000	99.594530 
2092.000000	99.585432 
2091.000000	99.565967 
2090.000000	99.547131 
2089.000000	99.533650 
2088.000000	99.525444 
2087.000000	99.522599 
2086.000000	99.526011 
2085.000000	99.534763 
2084.000000	99.545390 
2083.000000	99.553621 
2082.000000	99.556384 
2081.000000	99.554005 
2080.000000	99.551742 
2079.000000	99.556573 
2078.000000	99.569343 
2077.000000	99.581212 
2076.000000	99.581549 
2075.000000	99.569488 
2074.000000	99.554620 
2073.000000	99.546484 
2072.000000	99.546826 
2071.000000	99.552288 
2070.000000	99.559618 
2069.000000	99.565312 
2068.000000	99.564918 
2067.000000	99.557921 
2066.000000	99.551263 
2065.000000	99.552425 
2064.000000	99.559058 
2063.000000	99.561040 
2062.000000	99.553915 
2061.000000	99.545207 
2060.000000	99.544931 
2059.000000	99.553487 
2058.000000	99.562301 
2057.000000	99.564045 
2056.000000	99.558780 
2055.000000	99.551625 
2054.000000	99.548094 
2053.000000	99.551015 
2052.000000	99.558222 
2051.000000	99.563318 
2050.000000	99.562486 
2049.000000	99.561181 
2048.000000	99.568467 
2047.000000	99.581763 
2046.000000	99.584387 
2045.000000	99.565025 
2044.000000	99.535274 
2043.000000	99.519893 
2042.000000	99.530819 
2041.000000	99.557185 
2040.000000	99.580469 
2039.000000	99.591510 
2038.000000	99.590156 
2037.000000	99.578616 
2036.000000	99.563368 
2035.000000	99.556941 
2034.000000	99.567440 
2033.000000	99.587474 
2032.000000	99.602085 
2031.000000	99.606936 
2030.000000	99.609704 
2029.000000	99.613929 
2028.000000	99.612247 
2027.000000	99.599843 
2026.000000	99.586104 
2025.000000	99.585055 
2024.000000	99.597389 
2023.000000	99.608993 
2022.000000	99.606496 
2021.000000	99.588917 
2020.000000	99.564449 
2019.000000	99.541467 
2018.000000	99.525417 
2017.000000	99.519997 
2016.000000	99.526312 
2015.000000	99.541584 
2014.000000	99.560839 
2013.000000	99.579104 
2012.000000	99.591486 
2011.000000	99.593870 
2010.000000	99.587142 
2009.000000	99.580030 
2008.000000	99.581482 
2007.000000	99.586947 
2006.000000	99.578965 
2005.000000	99.549823 
2004.000000	99.519477 
2003.000000	99.518723 
2002.000000	99.552548 
2001.000000	99.588722 
2000.000000	99.589516 
1999.000000	99.550669 
1998.000000	99.502221 
1997.000000	99.475961 
1996.000000	99.480305 
1995.000000	99.503939 
1994.000000	99.530974 
1993.000000	99.548299 
1992.000000	99.550143 
1991.000000	99.544133 
1990.000000	99.546663 
1989.000000	99.565562 
1988.000000	99.590354 
1987.000000	99.603323 
1986.000000	99.597536 
1985.000000	99.581101 
1984.000000	99.566986 
1983.000000	99.562918 
1982.000000	99.568546 
1981.000000	99.576957 
1980.000000	99.579978 
1979.000000	99.576121 
1978.000000	99.572233 
1977.000000	99.573838 
1976.000000	99.576379 
1975.000000	99.571422 
1974.000000	99.558412 
1973.000000	99.543818 
1972.000000	99.531281 
1971.000000	99.520330 
1970.000000	99.514784 
1969.000000	99.523958 
1968.000000	99.550420 
1967.000000	99.580517 
1966.000000	99.593476 
1965.000000	99.580277 
1964.000000	99.550744 
1963.000000	99.524167 
1962.000000	99.515914 
1961.000000	99.529236 
1960.000000	99.554917 
1959.000000	99.578322 
1958.000000	99.588448 
1957.000000	99.582880 
1956.000000	99.567069 
1955.000000	99.550436 
1954.000000	99.541670 
1953.000000	99.544266 
1952.000000	99.554905 
1951.000000	99.567060 
1950.000000	99.576258 
1949.000000	99.581073 
1948.000000	99.580818 
1947.000000	99.575328 
1946.000000	99.566678 
1945.000000	99.557755 
1944.000000	99.548388 
1943.000000	99.536468 
1942.000000	99.524756 
1941.000000	99.521762 
1940.000000	99.531893 
1939.000000	99.548410 
1938.000000	99.559294 
1937.000000	99.559368 
1936.000000	99.554794 
1935.000000	99.554687 
1934.000000	99.560829 
1933.000000	99.567444 
1932.000000	99.569057 
1931.000000	99.566554 
1930.000000	99.565417 
1929.000000	99.568541 
1928.000000	99.571809 
1927.000000	99.567806 
1926.000000	99.554268 
1925.000000	99.537676 
1924.000000	99.527407 
1923.000000	99.526913 
1922.000000	99.531900 
1921.000000	99.536996 
1920.000000	99.541322 
1919.000000	99.546491 
1918.000000	99.551820 
1917.000000	99.553577 
1916.000000	99.549309 
1915.000000	99.541251 
1914.000000	99.534968 
1913.000000	99.535662 
1912.000000	99.543863 
1911.000000	99.553363 
1910.000000	99.555081 
1909.000000	99.545492 
1908.000000	99.531667 
1907.000000	99.525498 
1906.000000	99.532869 
1905.000000	99.549021 
1904.000000	99.563618 
1903.000000	99.570125 
1902.000000	99.569838 
1901.000000	99.568123 
1900.000000	99.568502 
1899.000000	99.569712 
1898.000000	99.567356 
1897.000000	99.558148 
1896.000000	99.542960 
1895.000000	99.526468 
1894.000000	99.514026 
1893.000000	99.508607 
1892.000000	99.510473 
1891.000000	99.518599 
1890.000000	99.531152 
1889.000000	99.544954 
1888.000000	99.555916 
1887.000000	99.560641 
1886.000000	99.557802 
1885.000000	99.549622 
1884.000000	99.541417 
1883.000000	99.536929 
1882.000000	99.534988 
1881.000000	99.533806 
1880.000000	99.537129 
1879.000000	99.550095 
1878.000000	99.567722 
1877.000000	99.574461 
1876.000000	99.560618 
1875.000000	99.535431 
1874.000000	99.518220 
1873.000000	99.518229 
1872.000000	99.528686 
1871.000000	99.539336 
1870.000000	99.547582 
1869.000000	99.554899 
1868.000000	99.557982 
1867.000000	99.552096 
1866.000000	99.540172 
1865.000000	99.530493 
1864.000000	99.527773 
1863.000000	99.529818 
1862.000000	99.531835 
1861.000000	99.531989 
1860.000000	99.531935 
1859.000000	99.533441 
1858.000000	99.536098 
1857.000000	99.538313 
1856.000000	99.539587 
1855.000000	99.540867 
1854.000000	99.542381 
1853.000000	99.542422 
1852.000000	99.539870 
1851.000000	99.536502 
1850.000000	99.535238 
1849.000000	99.537186 
1848.000000	99.540827 
1847.000000	99.543395 
1846.000000	99.542267 
1845.000000	99.536741 
1844.000000	99.530207 
1843.000000	99.527230 
1842.000000	99.527485 
1841.000000	99.526643 
1840.000000	99.523011 
1839.000000	99.520621 
1838.000000	99.525184 
1837.000000	99.536728 
1836.000000	99.548771 
1835.000000	99.555653 
1834.000000	99.557077 
1833.000000	99.555221 
1832.000000	99.550906 
1831.000000	99.543829 
1830.000000	99.535927 
1829.000000	99.531777 
1828.000000	99.533599 
1827.000000	99.538933 
1826.000000	99.543700 
1825.000000	99.545583 
1824.000000	99.544985 
1823.000000	99.543573 
1822.000000	99.542695 
1821.000000	99.542553 
1820.000000	99.541807 
1819.000000	99.538546 
1818.000000	99.533150 
1817.000000	99.529044 
1816.000000	99.528589 
1815.000000	99.529974 
1814.000000	99.529696 
1813.000000	99.527113 
1812.000000	99.524637 
1811.000000	99.523554 
1810.000000	99.522858 
1809.000000	99.522364 
1808.000000	99.523869 
1807.000000	99.528231 
1806.000000	99.532810 
1805.000000	99.533697 
1804.000000	99.530574 
1803.000000	99.527344 
1802.000000	99.526919 
1801.000000	99.527940 
1800.000000	99.528036 
1799.000000	99.527958 
1798.000000	99.529654 
1797.000000	99.531677 
1796.000000	99.530743 
1795.000000	99.526800 
1794.000000	99.522878 
1793.000000	99.521096 
1792.000000	99.520667 
1791.000000	99.520531 
1790.000000	99.521748 
1789.000000	99.524546 
1788.000000	99.526833 
1787.000000	99.527087 
1786.000000	99.526323 
1785.000000	99.526197 
1784.000000	99.526742 
1783.000000	99.527381 
1782.000000	99.527293 
1781.000000	99.524801 
1780.000000	99.519203 
1779.000000	99.513211 
1778.000000	99.511679 
1777.000000	99.516842 
1776.000000	99.526320 
1775.000000	99.534870 
1774.000000	99.536309 
1773.000000	99.527116 
1772.000000	99.512409 
1771.000000	99.503003 
1770.000000	99.503756 
1769.000000	99.510396 
1768.000000	99.515642 
1767.000000	99.516353 
1766.000000	99.515684 
1765.000000	99.517462 
1764.000000	99.520859 
1763.000000	99.521488 
1762.000000	99.516916 
1761.000000	99.510082 
1760.000000	99.505394 
1759.000000	99.504309 
1758.000000	99.505778 
1757.000000	99.506786 
1756.000000	99.503024 
1755.000000	99.491009 
1754.000000	99.471275 
1753.000000	99.449830 
1752.000000	99.437380 
1751.000000	99.441376 
1750.000000	99.454418 
1749.000000	99.460832 
1748.000000	99.454954 
1747.000000	99.443752 
1746.000000	99.435180 
1745.000000	99.431301 
1744.000000	99.430073 
1743.000000	99.428956 
1742.000000	99.427302 
1741.000000	99.427106 
1740.000000	99.430912 
1739.000000	99.438004 
1738.000000	99.443766 
1737.000000	99.445419 
1736.000000	99.443875 
1735.000000	99.443894 
1734.000000	99.451095 
1733.000000	99.460975 
1732.000000	99.465299 
1731.000000	99.464828 
1730.000000	99.463742 
1729.000000	99.463154 
1728.000000	99.463314 
1727.000000	99.465427 
1726.000000	99.470510 
1725.000000	99.477252 
1724.000000	99.482518 
1723.000000	99.483718 
1722.000000	99.480660 
1721.000000	99.474261 
1720.000000	99.466025 
1719.000000	99.459489 
1718.000000	99.460785 
1717.000000	99.470258 
1716.000000	99.477959 
1715.000000	99.479068 
1714.000000	99.479398 
1713.000000	99.482209 
1712.000000	99.483891 
1711.000000	99.481748 
1710.000000	99.478634 
1709.000000	99.478518 
1708.000000	99.481503 
1707.000000	99.485148 
1706.000000	99.489433 
1705.000000	99.496602 
1704.000000	99.505900 
1703.000000	99.515407 
1702.000000	99.523732 
1701.000000	99.529959 
1700.000000	99.531552 
1699.000000	99.525097 
1698.000000	99.514789 
1697.000000	99.507163 
1696.000000	99.504318 
1695.000000	99.504241 
1694.000000	99.503376 
1693.000000	99.500974 
1692.000000	99.498910 
1691.000000	99.499523 
1690.000000	99.503446 
1689.000000	99.507430 
1688.000000	99.507802 
1687.000000	99.505589 
1686.000000	99.504632 
1685.000000	99.508152 
1684.000000	99.512999 
1683.000000	99.513225 
1682.000000	99.511251 
1681.000000	99.511131 
1680.000000	99.512011 
1679.000000	99.511100 
1678.000000	99.509245 
1677.000000	99.510217 
1676.000000	99.516502 
1675.000000	99.524796 
1674.000000	99.528253 
1673.000000	99.525769 
1672.000000	99.521463 
1671.000000	99.517721 
1670.000000	99.514476 
1669.000000	99.511070 
1668.000000	99.508456 
1667.000000	99.508284 
1666.000000	99.510555 
1665.000000	99.514148 
1664.000000	99.517812 
1663.000000	99.520699 
1662.000000	99.521486 
1661.000000	99.518488 
1660.000000	99.512980 
1659.000000	99.508458 
1658.000000	99.508365 
1657.000000	99.513246 
1656.000000	99.521498 
1655.000000	99.527830 
1654.000000	99.526487 
1653.000000	99.519907 
1652.000000	99.513346 
1651.000000	99.507714 
1650.000000	99.503052 
1649.000000	99.500166 
1648.000000	99.497488 
1647.000000	99.496630 
1646.000000	99.499615 
1645.000000	99.504479 
1644.000000	99.507119 
1643.000000	99.507189 
1642.000000	99.505625 
1641.000000	99.502328 
1640.000000	99.497119 
1639.000000	99.491918 
1638.000000	99.489844 
1637.000000	99.491586 
1636.000000	99.494396 
1635.000000	99.496495 
1634.000000	99.499534 
1633.000000	99.504670 
1632.000000	99.509814 
1631.000000	99.512514 
1630.000000	99.513411 
1629.000000	99.514984 
1628.000000	99.517440 
1627.000000	99.518020 
1626.000000	99.514921 
1625.000000	99.509424 
1624.000000	99.504578 
1623.000000	99.502998 
1622.000000	99.504588 
1621.000000	99.507015 
1620.000000	99.508692 
1619.000000	99.508332 
1618.000000	99.504048 
1617.000000	99.496351 
1616.000000	99.490228 
1615.000000	99.490228 
1614.000000	99.495702 
1613.000000	99.503224 
1612.000000	99.509850 
1611.000000	99.514800 
1610.000000	99.518527 
1609.000000	99.520536 
1608.000000	99.519899 
1607.000000	99.517168 
1606.000000	99.513709 
1605.000000	99.510341 
1604.000000	99.507839 
1603.000000	99.506917 
1602.000000	99.507505 
1601.000000	99.508859 
1600.000000	99.510846 
1599.000000	99.514230 
1598.000000	99.518913 
1597.000000	99.522778 
1596.000000	99.522875 
1595.000000	99.518274 
1594.000000	99.511649 
1593.000000	99.507306 
1592.000000	99.507799 
1591.000000	99.512250 
1590.000000	99.516952 
1589.000000	99.518181 
1588.000000	99.515772 
1587.000000	99.513399 
1586.000000	99.514260 
1585.000000	99.517137 
1584.000000	99.518638 
1583.000000	99.517707 
1582.000000	99.515876 
1581.000000	99.514858 
1580.000000	99.515089 
1579.000000	99.516060 
1578.000000	99.516669 
1577.000000	99.516414 
1576.000000	99.516205 
1575.000000	99.515942 
1574.000000	99.513519 
1573.000000	99.508354 
1572.000000	99.501977 
1571.000000	99.496640 
1570.000000	99.495737 
1569.000000	99.500351 
1568.000000	99.508513 
1567.000000	99.517382 
1566.000000	99.523839 
1565.000000	99.524618 
1564.000000	99.520453 
1563.000000	99.515164 
1562.000000	99.511694 
1561.000000	99.507812 
1560.000000	99.502462 
1559.000000	99.503772 
1558.000000	99.512862 
1557.000000	99.520195 
1556.000000	99.523915 
1555.000000	99.527524 
1554.000000	99.527641 
1553.000000	99.522356 
1552.000000	99.513234 
1551.000000	99.505329 
1550.000000	99.502158 
1549.000000	99.503860 
1548.000000	99.507328 
1547.000000	99.510059 
1546.000000	99.511418 
1545.000000	99.512261 
1544.000000	99.513574 
1543.000000	99.514554 
1542.000000	99.512784 
1541.000000	99.506241 
1540.000000	99.496538 
1539.000000	99.489959 
1538.000000	99.488825 
1537.000000	99.489731 
1536.000000	99.490660 
1535.000000	99.491624 
1534.000000	99.495274 
1533.000000	99.503128 
1532.000000	99.511173 
1531.000000	99.514910 
1530.000000	99.515378 
1529.000000	99.515403 
1528.000000	99.515412 
1527.000000	99.514161 
1526.000000	99.511787 
1525.000000	99.509850 
1524.000000	99.508285 
1523.000000	99.504792 
1522.000000	99.499581 
1521.000000	99.497617 
1520.000000	99.501208 
1519.000000	99.507824 
1518.000000	99.515600 
1517.000000	99.522841 
1516.000000	99.525552 
1515.000000	99.521391 
1514.000000	99.513328 
1513.000000	99.507230 
1512.000000	99.506599 
1511.000000	99.509704 
1510.000000	99.512718 
1509.000000	99.513965 
1508.000000	99.514061 
1507.000000	99.513944 
1506.000000	99.514524 
1505.000000	99.514877 
1504.000000	99.513345 
1503.000000	99.510113 
1502.000000	99.504763 
1501.000000	99.498550 
1500.000000	99.495443 
1499.000000	99.499169 
1498.000000	99.507866 
1497.000000	99.514937 
1496.000000	99.514404 
1495.000000	99.507020 
1494.000000	99.499460 
1493.000000	99.496598 
1492.000000	99.497482 
1491.000000	99.497578 
1490.000000	99.494319 
1489.000000	99.490276 
1488.000000	99.488131 
1487.000000	99.487732 
1486.000000	99.489851 
1485.000000	99.495341 
1484.000000	99.503246 
1483.000000	99.510436 
1482.000000	99.512719 
1481.000000	99.508868 
1480.000000	99.502016 
1479.000000	99.495994 
1478.000000	99.491599 
1477.000000	99.487462 
1476.000000	99.482242 
1475.000000	99.475495 
1474.000000	99.466670 
1473.000000	99.455459 
1472.000000	99.443796 
1471.000000	99.434388 
1470.000000	99.428992 
1469.000000	99.428258 
1468.000000	99.431436 
1467.000000	99.436282 
1466.000000	99.439850 
1465.000000	99.440256 
1464.000000	99.438534 
1463.000000	99.436714 
1462.000000	99.435504 
1461.000000	99.434111 
1460.000000	99.431280 
1459.000000	99.426431 
1458.000000	99.420769 
1457.000000	99.418435 
1456.000000	99.420777 
1455.000000	99.424493 
1454.000000	99.429160 
1453.000000	99.436866 
1452.000000	99.445649 
1451.000000	99.450456 
1450.000000	99.448587 
1449.000000	99.443368 
1448.000000	99.440087 
1447.000000	99.440556 
1446.000000	99.442755 
1445.000000	99.445283 
1444.000000	99.448514 
1443.000000	99.451627 
1442.000000	99.452933 
1441.000000	99.452506 
1440.000000	99.452322 
1439.000000	99.452857 
1438.000000	99.451503 
1437.000000	99.446949 
1436.000000	99.443217 
1435.000000	99.444202 
1434.000000	99.448732 
1433.000000	99.453442 
1432.000000	99.455126 
1431.000000	99.452974 
1430.000000	99.449487 
1429.000000	99.447865 
1428.000000	99.448341 
1427.000000	99.448674 
1426.000000	99.447243 
1425.000000	99.444969 
1424.000000	99.445420 
1423.000000	99.450361 
1422.000000	99.457240 
1421.000000	99.462130 
1420.000000	99.463362 
1419.000000	99.462076 
1418.000000	99.459198 
1417.000000	99.454836 
1416.000000	99.449607 
1415.000000	99.444481 
1414.000000	99.439789 
1413.000000	99.435000 
1412.000000	99.429517 
1411.000000	99.424217 
1410.000000	99.421669 
1409.000000	99.424211 
1408.000000	99.430997 
1407.000000	99.438481 
1406.000000	99.443905 
1405.000000	99.447402 
1404.000000	99.450526 
1403.000000	99.452882 
1402.000000	99.453183 
1401.000000	99.452232 
1400.000000	99.452442 
1399.000000	99.454733 
1398.000000	99.456736 
1397.000000	99.455835 
1396.000000	99.452222 
1395.000000	99.448550 
1394.000000	99.446986 
1393.000000	99.447494 
1392.000000	99.449242 
1391.000000	99.451224 
1390.000000	99.452609 
1389.000000	99.453762 
1388.000000	99.456297 
1387.000000	99.460817 
1386.000000	99.464643 
1385.000000	99.464057 
1384.000000	99.458326 
1383.000000	99.450053 
1382.000000	99.442863 
1381.000000	99.438832 
1380.000000	99.437786 
1379.000000	99.439167 
1378.000000	99.442731 
1377.000000	99.447281 
1376.000000	99.450562 
1375.000000	99.451431 
1374.000000	99.451104 
1373.000000	99.451242 
1372.000000	99.451660 
1371.000000	99.451546 
1370.000000	99.451610 
1369.000000	99.453540 
1368.000000	99.458109 
1367.000000	99.463576 
1366.000000	99.466961 
1365.000000	99.466930 
1364.000000	99.464869 
1363.000000	99.463463 
1362.000000	99.463968 
1361.000000	99.465230 
1360.000000	99.466301 
1359.000000	99.468260 
1358.000000	99.471853 
1357.000000	99.474965 
1356.000000	99.474648 
1355.000000	99.471443 
1354.000000	99.469501 
1353.000000	99.471805 
1352.000000	99.476945 
1351.000000	99.482051 
1350.000000	99.486195 
1349.000000	99.488999 
1348.000000	99.489269 
1347.000000	99.486861 
1346.000000	99.484434 
1345.000000	99.484708 
1344.000000	99.486861 
1343.000000	99.487855 
1342.000000	99.486756 
1341.000000	99.485438 
1340.000000	99.485071 
1339.000000	99.484161 
1338.000000	99.481343 
1337.000000	99.478333 
1336.000000	99.478234 
1335.000000	99.481842 
1334.000000	99.486863 
1333.000000	99.490270 
1332.000000	99.490717 
1331.000000	99.488867 
1330.000000	99.485892 
1329.000000	99.482325 
1328.000000	99.478910 
1327.000000	99.478010 
1326.000000	99.482212 
1325.000000	99.490582 
1324.000000	99.497999 
1323.000000	99.499417 
1322.000000	99.494866 
1321.000000	99.489365 
1320.000000	99.487687 
1319.000000	99.489740 
1318.000000	99.491578 
1317.000000	99.490707 
1316.000000	99.489006 
1315.000000	99.489882 
1314.000000	99.493628 
1313.000000	99.496936 
1312.000000	99.497108 
1311.000000	99.495237 
1310.000000	99.493988 
1309.000000	99.493519 
1308.000000	99.491515 
1307.000000	99.487172 
1306.000000	99.483104 
1305.000000	99.482323 
1304.000000	99.484903 
1303.000000	99.488111 
1302.000000	99.488841 
1301.000000	99.485440 
1300.000000	99.478687 
1299.000000	99.472008 
1298.000000	99.469564 
1297.000000	99.472618 
1296.000000	99.478245 
1295.000000	99.482426 
1294.000000	99.483607 
1293.000000	99.482695 
1292.000000	99.481103 
1291.000000	99.480185 
1290.000000	99.481106 
1289.000000	99.483175 
1288.000000	99.483200 
1287.000000	99.478918 
1286.000000	99.472604 
1285.000000	99.468816 
1284.000000	99.468611 
1283.000000	99.468484 
1282.000000	99.465493 
1281.000000	99.461050 
1280.000000	99.458490 
1279.000000	99.458921 
1278.000000	99.461001 
1277.000000	99.463322 
1276.000000	99.465111 
1275.000000	99.465460 
1274.000000	99.463761 
1273.000000	99.460953 
1272.000000	99.459073 
1271.000000	99.459272 
1270.000000	99.460884 
1269.000000	99.462417 
1268.000000	99.462815 
1267.000000	99.461687 
1266.000000	99.459114 
1265.000000	99.455786 
1264.000000	99.452898 
1263.000000	99.451244 
1262.000000	99.450193 
1261.000000	99.447822 
1260.000000	99.442593 
1259.000000	99.435066 
1258.000000	99.427537 
1257.000000	99.421928 
1256.000000	99.418502 
1255.000000	99.416641 
1254.000000	99.415785 
1253.000000	99.414806 
1252.000000	99.411452 
1251.000000	99.404332 
1250.000000	99.395737 
1249.000000	99.390891 
1248.000000	99.393299 
1247.000000	99.401205 
1246.000000	99.409034 
1245.000000	99.412006 
1244.000000	99.409146 
1243.000000	99.402908 
1242.000000	99.397034 
1241.000000	99.394319 
1240.000000	99.395135 
1239.000000	99.397420 
1238.000000	99.398323 
1237.000000	99.396191 
1236.000000	99.391177 
1235.000000	99.384491 
1234.000000	99.377543 
1233.000000	99.371568 
1232.000000	99.367416 
1231.000000	99.365346 
1230.000000	99.365000 
1229.000000	99.365486 
1228.000000	99.365234 
1227.000000	99.361998 
1226.000000	99.353738 
1225.000000	99.340113 
1224.000000	99.323145 
1223.000000	99.306122 
1222.000000	99.291477 
1221.000000	99.279562 
1220.000000	99.269349 
1219.000000	99.259960 
1218.000000	99.251162 
1217.000000	99.242722 
1216.000000	99.234010 
1215.000000	99.224580 
1214.000000	99.214670 
1213.000000	99.204616 
1212.000000	99.193892 
1211.000000	99.181198 
1210.000000	99.165684 
1209.000000	99.147935 
1208.000000	99.129760 
1207.000000	99.113141 
1206.000000	99.099110 
1205.000000	99.087078 
1204.000000	99.075148 
1203.000000	99.061667 
1202.000000	99.047033 
1201.000000	99.033759 
1200.000000	99.023944 
1199.000000	99.016461 
1198.000000	99.007344 
1197.000000	98.993632 
1196.000000	98.976342 
1195.000000	98.959005 
1194.000000	98.943846 
1193.000000	98.930487 
1192.000000	98.917992 
1191.000000	98.906245 
1190.000000	98.894611 
1189.000000	98.880978 
1188.000000	98.863752 
1187.000000	98.844021 
1186.000000	98.824227 
1185.000000	98.805064 
1184.000000	98.785256 
1183.000000	98.764324 
1182.000000	98.743908 
1181.000000	98.725685 
1180.000000	98.709003 
1179.000000	98.691380 
1178.000000	98.671029 
1177.000000	98.648548 
1176.000000	98.626427 
1175.000000	98.607012 
1174.000000	98.590484 
1173.000000	98.574574 
1172.000000	98.556361 
1171.000000	98.534239 
1170.000000	98.508378 
1169.000000	98.480391 
1168.000000	98.453509 
1167.000000	98.432260 
1166.000000	98.420205 
1165.000000	98.417421 
1164.000000	98.420982 
1163.000000	98.428117 
1162.000000	98.438299 
1161.000000	98.451841 
1160.000000	98.466849 
1159.000000	98.478404 
1158.000000	98.481577 
1157.000000	98.475480 
1156.000000	98.463835 
1155.000000	98.451060 
1154.000000	98.438104 
1153.000000	98.422891 
1152.000000	98.404404 
1151.000000	98.384571 
1150.000000	98.365504 
1149.000000	98.346840 
1148.000000	98.327556 
1147.000000	98.309022 
1146.000000	98.293677 
1145.000000	98.280923 
1144.000000	98.266912 
1143.000000	98.249112 
1142.000000	98.229170 
1141.000000	98.210292 
1140.000000	98.193540 
1139.000000	98.177964 
1138.000000	98.162739 
1137.000000	98.147136 
1136.000000	98.129171 
1135.000000	98.106762 
1134.000000	98.080786 
1133.000000	98.055152 
1132.000000	98.032802 
1131.000000	98.012742 
1130.000000	97.992142 
1129.000000	97.970411 
1128.000000	97.949431 
1127.000000	97.929959 
1126.000000	97.909832 
1125.000000	97.886545 
1124.000000	97.860134 
1123.000000	97.832345 
1122.000000	97.804329 
1121.000000	97.776905 
1120.000000	97.752373 
1119.000000	97.733769 
1118.000000	97.721724 
1117.000000	97.713186 
1116.000000	97.703463 
1115.000000	97.688923 
1114.000000	97.668613 
1113.000000	97.644941 
1112.000000	97.622453 
1111.000000	97.604047 
1110.000000	97.588095 
1109.000000	97.570804 
1108.000000	97.551323 
1107.000000	97.532543 
1106.000000	97.516977 
1105.000000	97.504110 
1104.000000	97.492229 
1103.000000	97.480583 
1102.000000	97.468885 
1101.000000	97.457091 
1100.000000	97.446555 
1099.000000	97.438952 
1098.000000	97.433210 
1097.000000	97.425095 
1096.000000	97.412007 
1095.000000	97.396574 
1094.000000	97.383702 
1093.000000	97.374934 
1092.000000	97.367563 
1091.000000	97.358829 
1090.000000	97.349318 
1089.000000	97.341878 
1088.000000	97.337892 
1087.000000	97.335105 
1086.000000	97.329507 
1085.000000	97.319646 
1084.000000	97.308442 
1083.000000	97.300134 
1082.000000	97.296485 
1081.000000	97.297085 
1080.000000	97.301572 
1079.000000	97.308571 
1078.000000	97.313233 
1077.000000	97.309710 
1076.000000	97.297085 
1075.000000	97.280174 
1074.000000	97.263434 
1073.000000	97.246493 
1072.000000	97.226454 
1071.000000	97.201553 
1070.000000	97.170906 
1069.000000	97.133571 
1068.000000	97.090597 
1067.000000	97.046546 
1066.000000	97.006330 
1065.000000	96.970888 
1064.000000	96.937090 
1063.000000	96.900906 
1062.000000	96.860156 
1061.000000	96.816289 
1060.000000	96.774603 
1059.000000	96.740435 
1058.000000	96.713603 
1057.000000	96.688786 
1056.000000	96.662682 
1055.000000	96.637780 
1054.000000	96.616678 
1053.000000	96.595530 
1052.000000	96.567146 
1051.000000	96.529792 
1050.000000	96.489084 
1049.000000	96.450929 
1048.000000	96.415936 
1047.000000	96.381040 
1046.000000	96.343629 
1045.000000	96.303604 
1044.000000	96.263534 
1043.000000	96.227352 
1042.000000	96.197562 
1041.000000	96.173177 
1040.000000	96.150677 
1039.000000	96.126792 
1038.000000	96.100653 
1037.000000	96.074437 
1036.000000	96.052133 
1035.000000	96.036467 
1034.000000	96.026873 
1033.000000	96.021454 
1032.000000	96.019980 
1031.000000	96.022356 
1030.000000	96.024784 
1029.000000	96.021594 
1028.000000	96.012403 
1027.000000	96.004108 
1026.000000	96.003168 
1025.000000	96.008251 
1024.000000	96.013499 
1023.000000	96.017287 
1022.000000	96.023883 
1021.000000	96.035874 
1020.000000	96.048064 
1019.000000	96.051643 
1018.000000	96.044327 
1017.000000	96.034015 
1016.000000	96.030661 
1015.000000	96.035793 
1014.000000	96.042815 
1013.000000	96.047373 
1012.000000	96.052844 
1011.000000	96.063066 
1010.000000	96.074110 
1009.000000	96.078654 
1008.000000	96.076518 
1007.000000	96.074935 
1006.000000	96.078665 
1005.000000	96.085832 
1004.000000	96.094804 
1003.000000	96.108948 
1002.000000	96.130635 
1001.000000	96.154562 
1000.000000	96.171872 
999.000000	 96.179663 
998.000000	 96.183039 
997.000000	 96.188296 
996.000000	 96.197145 
995.000000	 96.208112 
994.000000	 96.221070 
993.000000	 96.238081 
992.000000	 96.259516 
991.000000	 96.281323 
990.000000	 96.299181 
989.000000	 96.315681 
988.000000	 96.339316 
987.000000	 96.373223 
986.000000	 96.408386 
985.000000	 96.433679 
984.000000	 96.451191 
983.000000	 96.474743 
982.000000	 96.512002 
981.000000	 96.554693 
980.000000	 96.590221 
979.000000	 96.617808 
978.000000	 96.647904 
977.000000	 96.688411 
976.000000	 96.736977 
975.000000	 96.786232 
974.000000	 96.831769 
973.000000	 96.873722 
972.000000	 96.913577 
971.000000	 96.951943 
970.000000	 96.989178 
969.000000	 97.026836 
968.000000	 97.067136 
967.000000	 97.110082 
966.000000	 97.151928 
965.000000	 97.188611 
964.000000	 97.220745 
963.000000	 97.252733 
962.000000	 97.286388 
961.000000	 97.318556 
960.000000	 97.346901 
959.000000	 97.374722 
958.000000	 97.406515 
957.000000	 97.440821 
956.000000	 97.471794 
955.000000	 97.497283 
954.000000	 97.521014 
953.000000	 97.546028 
952.000000	 97.569898 
951.000000	 97.588506 
950.000000	 97.601971 
949.000000	 97.614414 
948.000000	 97.629142 
947.000000	 97.645894 
946.000000	 97.661885 
945.000000	 97.674006 
944.000000	 97.680714 
943.000000	 97.683505 
942.000000	 97.686937 
941.000000	 97.696316 
940.000000	 97.714185 
939.000000	 97.737774 
938.000000	 97.759599 
937.000000	 97.772496 
936.000000	 97.775968 
935.000000	 97.776835 
934.000000	 97.781851 
933.000000	 97.790710 
932.000000	 97.798794 
931.000000	 97.805341 
930.000000	 97.814381 
929.000000	 97.827369 
928.000000	 97.840182 
927.000000	 97.850174 
926.000000	 97.861796 
925.000000	 97.880496 
924.000000	 97.903238 
923.000000	 97.920268 
922.000000	 97.926341 
921.000000	 97.925970 
920.000000	 97.926424 
919.000000	 97.929287 
918.000000	 97.931335 
917.000000	 97.931410 
916.000000	 97.932880 
915.000000	 97.939022 
914.000000	 97.948649 
913.000000	 97.958358 
912.000000	 97.968032 
911.000000	 97.981114 
910.000000	 97.998510 
909.000000	 98.015303 
908.000000	 98.026785 
907.000000	 98.036179 
906.000000	 98.052000 
905.000000	 98.077404 
904.000000	 98.106378 
903.000000	 98.131855 
902.000000	 98.153327 
901.000000	 98.173750 
900.000000	 98.193108 
899.000000	 98.210138 
898.000000	 98.228305 
897.000000	 98.253895 
896.000000	 98.287122 
895.000000	 98.319174 
894.000000	 98.340450 
893.000000	 98.350052 
892.000000	 98.355860 
891.000000	 98.366345 
890.000000	 98.382915 
889.000000	 98.399701 
888.000000	 98.410919 
887.000000	 98.418247 
886.000000	 98.429277 
885.000000	 98.447951 
884.000000	 98.469186 
883.000000	 98.485237 
882.000000	 98.494954 
881.000000	 98.503346 
880.000000	 98.513638 
879.000000	 98.523981 
878.000000	 98.531755 
877.000000	 98.537634 
876.000000	 98.545198 
875.000000	 98.558847 
874.000000	 98.581014 
873.000000	 98.608650 
872.000000	 98.633869 
871.000000	 98.651309 
870.000000	 98.663357 
869.000000	 98.674734 
868.000000	 98.684453 
867.000000	 98.688261 
866.000000	 98.687516 
865.000000	 98.689580 
864.000000	 98.699079 
863.000000	 98.713686 
862.000000	 98.728904 
861.000000	 98.742360 
860.000000	 98.752976 
859.000000	 98.760778 
858.000000	 98.768304 
857.000000	 98.777622 
856.000000	 98.785928 
855.000000	 98.789727 
854.000000	 98.793381 
853.000000	 98.805671 
852.000000	 98.825429 
851.000000	 98.838824 
850.000000	 98.836406 
849.000000	 98.826413 
848.000000	 98.824147 
847.000000	 98.832486 
846.000000	 98.840341 
845.000000	 98.838381 
844.000000	 98.829138 
843.000000	 98.821405 
842.000000	 98.820348 
841.000000	 98.824602 
840.000000	 98.829494 
839.000000	 98.831098 
838.000000	 98.828255 
837.000000	 98.821558 
836.000000	 98.811243 
835.000000	 98.798135 
834.000000	 98.786294 
833.000000	 98.780273 
832.000000	 98.777917 
831.000000	 98.771005 
830.000000	 98.757829 
829.000000	 98.750902 
828.000000	 98.764307 
827.000000	 98.794175 
826.000000	 98.820128 
825.000000	 98.828388 
824.000000	 98.825235 
823.000000	 98.823974 
822.000000	 98.827753 
821.000000	 98.832215 
820.000000	 98.837278 
819.000000	 98.845830 
818.000000	 98.853339 
817.000000	 98.848421 
816.000000	 98.826557 
815.000000	 98.797757 
814.000000	 98.775650 
813.000000	 98.760823 
812.000000	 98.739859 
811.000000	 98.700487 
810.000000	 98.642714 
809.000000	 98.573450 
808.000000	 98.495187 
807.000000	 98.404815 
806.000000	 98.301980 
805.000000	 98.194114 
804.000000	 98.092134 
803.000000	 98.002819 
802.000000	 97.926053 
801.000000	 97.859745 
800.000000	 97.807219 
799.000000	 97.777462 
798.000000	 97.775893 
797.000000	 97.797040 
796.000000	 97.829776 
795.000000	 97.867676 
794.000000	 97.908936 
793.000000	 97.947265 
792.000000	 97.971793 
791.000000	 97.980414 
790.000000	 97.985602 
789.000000	 97.998477 
788.000000	 98.011333 
787.000000	 98.005960 
786.000000	 97.977924 
785.000000	 97.941308 
784.000000	 97.907189 
783.000000	 97.869217 
782.000000	 97.818014 
781.000000	 97.762236 
780.000000	 97.724845 
779.000000	 97.719640 
778.000000	 97.738820 
777.000000	 97.764473 
776.000000	 97.786368 
775.000000	 97.806469 
774.000000	 97.831334 
773.000000	 97.864700 
772.000000	 97.905973 
771.000000	 97.951347 
770.000000	 97.994003 
769.000000	 98.024527 
768.000000	 98.035403 
767.000000	 98.029209 
766.000000	 98.021442 
765.000000	 98.029367 
764.000000	 98.055080 
763.000000	 98.082978 
762.000000	 98.096825 
761.000000	 98.096243 
760.000000	 98.093191 
759.000000	 98.096569 
758.000000	 98.106714 
757.000000	 98.122727 
756.000000	 98.146608 
755.000000	 98.177291 
754.000000	 98.206322 
753.000000	 98.223967 
752.000000	 98.227572 
751.000000	 98.222152 
750.000000	 98.215786 
749.000000	 98.216391 
748.000000	 98.229019 
747.000000	 98.251145 
746.000000	 98.271630 
745.000000	 98.279696 
744.000000	 98.276776 
743.000000	 98.276583 
742.000000	 98.291635 
741.000000	 98.321593 
740.000000	 98.356078 
739.000000	 98.386391 
738.000000	 98.411556 
737.000000	 98.433993 
736.000000	 98.453216 
735.000000	 98.465626 
734.000000	 98.468978 
733.000000	 98.465318 
732.000000	 98.459663 
731.000000	 98.456142 
730.000000	 98.454932 
729.000000	 98.453188 
728.000000	 98.450012 
727.000000	 98.448831 
726.000000	 98.452588 
725.000000	 98.459018 
724.000000	 98.464928 
723.000000	 98.473515 
722.000000	 98.490940 
721.000000	 98.514503 
720.000000	 98.531332 
719.000000	 98.533330 
718.000000	 98.527404 
717.000000	 98.524922 
716.000000	 98.526401 
715.000000	 98.524140 
714.000000	 98.517321 
713.000000	 98.516489 
712.000000	 98.531709 
711.000000	 98.560728 
710.000000	 98.590162 
709.000000	 98.605922 
708.000000	 98.603293 
707.000000	 98.589734 
706.000000	 98.576663 
705.000000	 98.567809 
704.000000	 98.558868 
703.000000	 98.548277 
702.000000	 98.539897 
701.000000	 98.529508 
700.000000	 98.497957 
699.000000	 98.430577 
698.000000	 98.339752 
697.000000	 98.256891 
696.000000	 98.203412 
695.000000	 98.180077 
694.000000	 98.183035 
693.000000	 98.213310 
692.000000	 98.264205 
691.000000	 98.313906 
690.000000	 98.342454 
689.000000	 98.351716 
688.000000	 98.360178 
687.000000	 98.380351 
686.000000	 98.408468 
685.000000	 98.433413 
684.000000	 98.448724 
683.000000	 98.456661 
682.000000	 98.463056 
681.000000	 98.468163 
680.000000	 98.465845 
679.000000	 98.456901 
678.000000	 98.456891 
677.000000	 98.477664 
676.000000	 98.506876 
675.000000	 98.523163 
674.000000	 98.526858 
673.000000	 98.539320 
672.000000	 98.571547 
671.000000	 98.610382 
670.000000	 98.636641 
669.000000	 98.638099 
668.000000	 98.611353 
667.000000	 98.566055 
666.000000	 98.519141 
665.000000	 98.491428 
664.000000	 98.503566 
663.000000	 98.551407 
662.000000	 98.597230 
661.000000	 98.598884 
660.000000	 98.551988 
659.000000	 98.492664 
658.000000	 98.461080 
657.000000	 98.463304 
656.000000	 98.475221 
655.000000	 98.480881 
654.000000	 98.490807 
653.000000	 98.518171 
652.000000	 98.549897 
651.000000	 98.558588 
650.000000	 98.542616 

