4000.000000	99.485464 
3999.000000	99.485005 
3998.000000	99.484513 
3997.000000	99.482666 
3996.000000	99.478889 
3995.000000	99.474216 
3994.000000	99.470759 
3993.000000	99.470066 
3992.000000	99.471605 
3991.000000	99.472966 
3990.000000	99.472063 
3989.000000	99.469429 
3988.000000	99.468100 
3987.000000	99.470877 
3986.000000	99.477665 
3985.000000	99.485349 
3984.000000	99.490049 
3983.000000	99.489620 
3982.000000	99.484643 
3981.000000	99.477587 
3980.000000	99.470866 
3979.000000	99.465512 
3978.000000	99.461655 
3977.000000	99.459761 
3976.000000	99.460785 
3975.000000	99.465035 
3974.000000	99.471370 
3973.000000	99.477755 
3972.000000	99.482405 
3971.000000	99.484543 
3970.000000	99.484435 
3969.000000	99.482834 
3968.000000	99.480431 
3967.000000	99.477660 
3966.000000	99.475014 
3965.000000	99.473414 
3964.000000	99.473530 
3963.000000	99.474607 
3962.000000	99.474538 
3961.000000	99.471691 
3960.000000	99.466482 
3959.000000	99.461086 
3958.000000	99.457636 
3957.000000	99.456691 
3956.000000	99.457527 
3955.000000	99.459277 
3954.000000	99.461566 
3953.000000	99.464106 
3952.000000	99.466084 
3951.000000	99.466687 
3950.000000	99.465849 
3949.000000	99.464254 
3948.000000	99.462538 
3947.000000	99.460798 
3946.000000	99.459333 
3945.000000	99.459197 
3944.000000	99.461258 
3943.000000	99.464415 
3942.000000	99.466102 
3941.000000	99.465008 
3940.000000	99.461960 
3939.000000	99.457968 
3938.000000	99.452861 
3937.000000	99.446324 
3936.000000	99.439895 
3935.000000	99.436751 
3934.000000	99.439534 
3933.000000	99.448203 
3932.000000	99.459540 
3931.000000	99.468687 
3930.000000	99.471849 
3929.000000	99.468657 
3928.000000	99.462290 
3927.000000	99.457172 
3926.000000	99.456360 
3925.000000	99.459595 
3924.000000	99.463378 
3923.000000	99.464179 
3922.000000	99.461250 
3921.000000	99.456858 
3920.000000	99.454311 
3919.000000	99.455821 
3918.000000	99.461458 
3917.000000	99.469128 
3916.000000	99.475798 
3915.000000	99.479507 
3914.000000	99.480712 
3913.000000	99.481389 
3912.000000	99.482686 
3911.000000	99.484012 
3910.000000	99.484263 
3909.000000	99.483315 
3908.000000	99.482062 
3907.000000	99.480638 
3906.000000	99.477390 
3905.000000	99.469957 
3904.000000	99.457653 
3903.000000	99.443687 
3902.000000	99.433977 
3901.000000	99.432660 
3900.000000	99.439079 
3899.000000	99.448371 
3898.000000	99.455523 
3897.000000	99.458880 
3896.000000	99.459488 
3895.000000	99.458810 
3894.000000	99.457655 
3893.000000	99.456018 
3892.000000	99.453356 
3891.000000	99.449224 
3890.000000	99.444390 
3889.000000	99.440466 
3888.000000	99.438967 
3887.000000	99.440879 
3886.000000	99.445245 
3885.000000	99.448867 
3884.000000	99.449434 
3883.000000	99.448182 
3882.000000	99.448452 
3881.000000	99.451749 
3880.000000	99.455653 
3879.000000	99.456405 
3878.000000	99.453500 
3877.000000	99.449920 
3876.000000	99.449168 
3875.000000	99.451644 
3874.000000	99.453556 
3873.000000	99.450761 
3872.000000	99.443985 
3871.000000	99.438517 
3870.000000	99.438477 
3869.000000	99.443107 
3868.000000	99.449142 
3867.000000	99.454624 
3866.000000	99.459901 
3865.000000	99.465376 
3864.000000	99.469043 
3863.000000	99.468827 
3862.000000	99.465685 
3861.000000	99.462829 
3860.000000	99.462673 
3859.000000	99.464862 
3858.000000	99.466472 
3857.000000	99.464536 
3856.000000	99.458786 
3855.000000	99.453229 
3854.000000	99.451897 
3853.000000	99.453630 
3852.000000	99.456137 
3851.000000	99.459442 
3850.000000	99.463197 
3849.000000	99.466845 
3848.000000	99.469656 
3847.000000	99.470552 
3846.000000	99.468691 
3845.000000	99.464341 
3844.000000	99.459343 
3843.000000	99.456365 
3842.000000	99.456345 
3841.000000	99.457633 
3840.000000	99.457990 
3839.000000	99.456569 
3838.000000	99.454222 
3837.000000	99.452512 
3836.000000	99.452263 
3835.000000	99.453510 
3834.000000	99.456372 
3833.000000	99.461323 
3832.000000	99.468072 
3831.000000	99.474548 
3830.000000	99.478206 
3829.000000	99.478040 
3828.000000	99.475042 
3827.000000	99.471082 
3826.000000	99.467238 
3825.000000	99.463335 
3824.000000	99.459356 
3823.000000	99.457236 
3822.000000	99.459141 
3821.000000	99.463647 
3820.000000	99.467190 
3819.000000	99.468718 
3818.000000	99.469457 
3817.000000	99.470784 
3816.000000	99.472193 
3815.000000	99.471419 
3814.000000	99.467762 
3813.000000	99.463646 
3812.000000	99.462588 
3811.000000	99.466009 
3810.000000	99.471962 
3809.000000	99.477128 
3808.000000	99.479599 
3807.000000	99.479252 
3806.000000	99.476340 
3805.000000	99.470862 
3804.000000	99.463923 
3803.000000	99.459058 
3802.000000	99.459333 
3801.000000	99.463073 
3800.000000	99.466091 
3799.000000	99.466601 
3798.000000	99.465819 
3797.000000	99.465716 
3796.000000	99.466259 
3795.000000	99.465260 
3794.000000	99.461094 
3793.000000	99.454757 
3792.000000	99.449381 
3791.000000	99.447926 
3790.000000	99.451047 
3789.000000	99.456786 
3788.000000	99.462080 
3787.000000	99.464612 
3786.000000	99.464084 
3785.000000	99.461967 
3784.000000	99.460022 
3783.000000	99.458998 
3782.000000	99.458884 
3781.000000	99.459834 
3780.000000	99.461887 
3779.000000	99.464016 
3778.000000	99.464524 
3777.000000	99.462352 
3776.000000	99.457659 
3775.000000	99.451949 
3774.000000	99.447410 
3773.000000	99.445825 
3772.000000	99.447788 
3771.000000	99.451977 
3770.000000	99.455038 
3769.000000	99.454161 
3768.000000	99.450181 
3767.000000	99.446523 
3766.000000	99.445691 
3765.000000	99.447383 
3764.000000	99.449291 
3763.000000	99.449509 
3762.000000	99.448305 
3761.000000	99.447608 
3760.000000	99.448727 
3759.000000	99.451125 
3758.000000	99.453646 
3757.000000	99.455784 
3756.000000	99.457125 
3755.000000	99.457249 
3754.000000	99.456664 
3753.000000	99.456944 
3752.000000	99.458568 
3751.000000	99.458928 
3750.000000	99.456142 
3749.000000	99.452654 
3748.000000	99.450983 
3747.000000	99.450956 
3746.000000	99.452143 
3745.000000	99.454104 
3744.000000	99.454952 
3743.000000	99.453791 
3742.000000	99.451496 
3741.000000	99.448229 
3740.000000	99.443204 
3739.000000	99.435963 
3738.000000	99.428651 
3737.000000	99.426000 
3736.000000	99.430030 
3735.000000	99.435789 
3734.000000	99.436448 
3733.000000	99.432125 
3732.000000	99.428889 
3731.000000	99.430656 
3730.000000	99.435655 
3729.000000	99.439826 
3728.000000	99.441451 
3727.000000	99.441377 
3726.000000	99.440295 
3725.000000	99.438209 
3724.000000	99.436168 
3723.000000	99.436343 
3722.000000	99.439399 
3721.000000	99.443622 
3720.000000	99.446293 
3719.000000	99.445871 
3718.000000	99.443311 
3717.000000	99.440648 
3716.000000	99.438395 
3715.000000	99.435445 
3714.000000	99.431567 
3713.000000	99.429014 
3712.000000	99.429754 
3711.000000	99.432482 
3710.000000	99.434112 
3709.000000	99.432566 
3708.000000	99.427832 
3707.000000	99.421313 
3706.000000	99.414782 
3705.000000	99.409876 
3704.000000	99.407591 
3703.000000	99.407550 
3702.000000	99.407400 
3701.000000	99.404502 
3700.000000	99.398402 
3699.000000	99.390819 
3698.000000	99.383991 
3697.000000	99.379459 
3696.000000	99.377287 
3695.000000	99.376516 
3694.000000	99.376482 
3693.000000	99.377127 
3692.000000	99.377862 
3691.000000	99.377042 
3690.000000	99.373284 
3689.000000	99.367559 
3688.000000	99.363170 
3687.000000	99.361928 
3686.000000	99.362204 
3685.000000	99.362104 
3684.000000	99.361618 
3683.000000	99.361567 
3682.000000	99.361704 
3681.000000	99.360327 
3680.000000	99.355459 
3679.000000	99.346151 
3678.000000	99.334263 
3677.000000	99.325689 
3676.000000	99.325550 
3675.000000	99.330250 
3674.000000	99.331788 
3673.000000	99.327292 
3672.000000	99.320251 
3671.000000	99.317837 
3670.000000	99.323382 
3669.000000	99.332347 
3668.000000	99.339647 
3667.000000	99.345064 
3666.000000	99.350474 
3665.000000	99.356390 
3664.000000	99.361203 
3663.000000	99.362962 
3662.000000	99.361320 
3661.000000	99.357320 
3660.000000	99.352319 
3659.000000	99.348002 
3658.000000	99.346893 
3657.000000	99.350624 
3656.000000	99.357046 
3655.000000	99.361655 
3654.000000	99.361964 
3653.000000	99.358895 
3652.000000	99.354777 
3651.000000	99.350864 
3650.000000	99.346437 
3649.000000	99.341846 
3648.000000	99.340525 
3647.000000	99.344508 
3646.000000	99.351826 
3645.000000	99.359890 
3644.000000	99.368008 
3643.000000	99.376438 
3642.000000	99.385275 
3641.000000	99.394004 
3640.000000	99.401900 
3639.000000	99.407835 
3638.000000	99.410327 
3637.000000	99.409044 
3636.000000	99.405811 
3635.000000	99.403124 
3634.000000	99.401148 
3633.000000	99.397832 
3632.000000	99.392880 
3631.000000	99.390375 
3630.000000	99.395309 
3629.000000	99.404658 
3628.000000	99.408319 
3627.000000	99.403976 
3626.000000	99.398551 
3625.000000	99.397592 
3624.000000	99.400704 
3623.000000	99.404003 
3622.000000	99.405079 
3621.000000	99.406077 
3620.000000	99.410209 
3619.000000	99.415630 
3618.000000	99.416933 
3617.000000	99.412814 
3616.000000	99.407652 
3615.000000	99.406743 
3614.000000	99.410664 
3613.000000	99.414496 
3612.000000	99.413656 
3611.000000	99.409382 
3610.000000	99.406789 
3609.000000	99.408524 
3608.000000	99.411786 
3607.000000	99.412640 
3606.000000	99.411384 
3605.000000	99.411195 
3604.000000	99.413733 
3603.000000	99.418030 
3602.000000	99.422304 
3601.000000	99.425876 
3600.000000	99.428272 
3599.000000	99.428093 
3598.000000	99.424385 
3597.000000	99.418313 
3596.000000	99.412771 
3595.000000	99.410723 
3594.000000	99.412660 
3593.000000	99.416336 
3592.000000	99.418791 
3591.000000	99.418020 
3590.000000	99.414523 
3589.000000	99.411306 
3588.000000	99.411120 
3587.000000	99.412389 
3586.000000	99.411405 
3585.000000	99.407744 
3584.000000	99.404769 
3583.000000	99.405437 
3582.000000	99.409561 
3581.000000	99.414329 
3580.000000	99.417025 
3579.000000	99.417059 
3578.000000	99.415406 
3577.000000	99.413337 
3576.000000	99.411825 
3575.000000	99.411526 
3574.000000	99.412326 
3573.000000	99.412768 
3572.000000	99.411129 
3571.000000	99.406905 
3570.000000	99.401031 
3569.000000	99.395557 
3568.000000	99.392997 
3567.000000	99.394197 
3566.000000	99.397346 
3565.000000	99.400488 
3564.000000	99.403938 
3563.000000	99.409674 
3562.000000	99.418699 
3561.000000	99.428820 
3560.000000	99.435801 
3559.000000	99.437132 
3558.000000	99.434546 
3557.000000	99.432250 
3556.000000	99.433096 
3555.000000	99.436424 
3554.000000	99.439191 
3553.000000	99.438320 
3552.000000	99.432707 
3551.000000	99.423936 
3550.000000	99.414912 
3549.000000	99.407885 
3548.000000	99.404047 
3547.000000	99.403788 
3546.000000	99.406558 
3545.000000	99.410113 
3544.000000	99.411687 
3543.000000	99.410679 
3542.000000	99.409700 
3541.000000	99.411881 
3540.000000	99.417743 
3539.000000	99.424739 
3538.000000	99.429923 
3537.000000	99.432282 
3536.000000	99.432511 
3535.000000	99.431453 
3534.000000	99.429319 
3533.000000	99.426648 
3532.000000	99.424860 
3531.000000	99.425463 
3530.000000	99.428161 
3529.000000	99.430273 
3528.000000	99.428901 
3527.000000	99.424072 
3526.000000	99.419068 
3525.000000	99.417336 
3524.000000	99.419351 
3523.000000	99.422593 
3522.000000	99.424469 
3521.000000	99.424471 
3520.000000	99.423993 
3519.000000	99.424804 
3518.000000	99.427906 
3517.000000	99.432834 
3516.000000	99.437441 
3515.000000	99.438964 
3514.000000	99.435875 
3513.000000	99.429178 
3512.000000	99.421829 
3511.000000	99.416727 
3510.000000	99.414737 
3509.000000	99.414544 
3508.000000	99.414363 
3507.000000	99.413738 
3506.000000	99.413679 
3505.000000	99.415130 
3504.000000	99.417720 
3503.000000	99.420315 
3502.000000	99.422827 
3501.000000	99.426631 
3500.000000	99.432575 
3499.000000	99.439048 
3498.000000	99.442545 
3497.000000	99.440497 
3496.000000	99.433502 
3495.000000	99.424828 
3494.000000	99.417965 
3493.000000	99.414556 
3492.000000	99.414299 
3491.000000	99.416150 
3490.000000	99.419436 
3489.000000	99.423949 
3488.000000	99.429123 
3487.000000	99.433376 
3486.000000	99.434856 
3485.000000	99.433181 
3484.000000	99.430151 
3483.000000	99.428323 
3482.000000	99.428550 
3481.000000	99.429300 
3480.000000	99.428651 
3479.000000	99.426334 
3478.000000	99.423340 
3477.000000	99.420343 
3476.000000	99.417732 
3475.000000	99.416984 
3474.000000	99.420229 
3473.000000	99.427207 
3472.000000	99.433794 
3471.000000	99.435474 
3470.000000	99.432415 
3469.000000	99.429531 
3468.000000	99.430943 
3467.000000	99.435456 
3466.000000	99.438636 
3465.000000	99.438372 
3464.000000	99.436748 
3463.000000	99.436683 
3462.000000	99.438348 
3461.000000	99.439817 
3460.000000	99.440096 
3459.000000	99.440234 
3458.000000	99.441503 
3457.000000	99.443386 
3456.000000	99.443871 
3455.000000	99.441498 
3454.000000	99.436736 
3453.000000	99.431586 
3452.000000	99.427883 
3451.000000	99.426153 
3450.000000	99.425759 
3449.000000	99.425829 
3448.000000	99.425835 
3447.000000	99.425605 
3446.000000	99.425273 
3445.000000	99.425390 
3444.000000	99.426604 
3443.000000	99.428747 
3442.000000	99.430429 
3441.000000	99.430098 
3440.000000	99.427657 
3439.000000	99.424561 
3438.000000	99.422067 
3437.000000	99.419895 
3436.000000	99.417228 
3435.000000	99.414694 
3434.000000	99.414395 
3433.000000	99.417803 
3432.000000	99.423876 
3431.000000	99.429695 
3430.000000	99.432785 
3429.000000	99.432891 
3428.000000	99.431819 
3427.000000	99.431502 
3426.000000	99.431991 
3425.000000	99.431334 
3424.000000	99.427768 
3423.000000	99.421964 
3422.000000	99.416773 
3421.000000	99.414733 
3420.000000	99.416343 
3419.000000	99.420533 
3418.000000	99.425794 
3417.000000	99.430522 
3416.000000	99.433248 
3415.000000	99.433460 
3414.000000	99.432052 
3413.000000	99.430415 
3412.000000	99.429302 
3411.000000	99.428874 
3410.000000	99.429177 
3409.000000	99.429756 
3408.000000	99.429040 
3407.000000	99.425253 
3406.000000	99.418536 
3405.000000	99.411677 
3404.000000	99.408154 
3403.000000	99.409389 
3402.000000	99.413981 
3401.000000	99.419455 
3400.000000	99.424250 
3399.000000	99.428018 
3398.000000	99.430654 
3397.000000	99.431809 
3396.000000	99.431346 
3395.000000	99.429569 
3394.000000	99.426611 
3393.000000	99.422061 
3392.000000	99.415828 
3391.000000	99.409250 
3390.000000	99.404811 
3389.000000	99.404489 
3388.000000	99.408441 
3387.000000	99.415131 
3386.000000	99.422434 
3385.000000	99.428611 
3384.000000	99.432485 
3383.000000	99.433060 
3382.000000	99.429479 
3381.000000	99.422051 
3380.000000	99.413348 
3379.000000	99.407435 
3378.000000	99.406885 
3377.000000	99.410519 
3376.000000	99.414702 
3375.000000	99.416962 
3374.000000	99.417840 
3373.000000	99.419356 
3372.000000	99.422460 
3371.000000	99.426219 
3370.000000	99.428736 
3369.000000	99.428402 
3368.000000	99.425026 
3367.000000	99.420494 
3366.000000	99.417836 
3365.000000	99.418694 
3364.000000	99.421764 
3363.000000	99.424354 
3362.000000	99.425234 
3361.000000	99.425059 
3360.000000	99.424164 
3359.000000	99.421419 
3358.000000	99.416224 
3357.000000	99.410806 
3356.000000	99.408964 
3355.000000	99.412088 
3354.000000	99.417279 
3353.000000	99.420147 
3352.000000	99.419074 
3351.000000	99.416290 
3350.000000	99.415116 
3349.000000	99.416885 
3348.000000	99.420613 
3347.000000	99.424579 
3346.000000	99.427432 
3345.000000	99.428313 
3344.000000	99.427060 
3343.000000	99.424627 
3342.000000	99.422436 
3341.000000	99.420824 
3340.000000	99.418639 
3339.000000	99.415009 
3338.000000	99.411164 
3337.000000	99.409617 
3336.000000	99.411497 
3335.000000	99.415399 
3334.000000	99.419202 
3333.000000	99.422293 
3332.000000	99.425385 
3331.000000	99.428542 
3330.000000	99.430376 
3329.000000	99.429529 
3328.000000	99.426415 
3327.000000	99.422916 
3326.000000	99.420429 
3325.000000	99.418623 
3324.000000	99.416154 
3323.000000	99.412414 
3322.000000	99.408401 
3321.000000	99.405995 
3320.000000	99.406451 
3319.000000	99.409478 
3318.000000	99.413548 
3317.000000	99.416982 
3316.000000	99.418799 
3315.000000	99.419031 
3314.000000	99.418742 
3313.000000	99.419658 
3312.000000	99.423018 
3311.000000	99.428154 
3310.000000	99.432457 
3309.000000	99.433362 
3308.000000	99.430487 
3307.000000	99.425667 
3306.000000	99.421198 
3305.000000	99.418515 
3304.000000	99.418155 
3303.000000	99.419822 
3302.000000	99.422037 
3301.000000	99.422490 
3300.000000	99.419608 
3299.000000	99.413970 
3298.000000	99.408081 
3297.000000	99.404792 
3296.000000	99.405480 
3295.000000	99.409034 
3294.000000	99.412524 
3293.000000	99.413656 
3292.000000	99.413001 
3291.000000	99.413097 
3290.000000	99.414894 
3289.000000	99.416062 
3288.000000	99.413716 
3287.000000	99.408214 
3286.000000	99.403035 
3285.000000	99.400991 
3284.000000	99.401645 
3283.000000	99.402706 
3282.000000	99.403064 
3281.000000	99.403794 
3280.000000	99.406511 
3279.000000	99.411293 
3278.000000	99.416241 
3277.000000	99.418916 
3276.000000	99.418118 
3275.000000	99.414366 
3274.000000	99.409053 
3273.000000	99.403703 
3272.000000	99.399943 
3271.000000	99.399093 
3270.000000	99.400979 
3269.000000	99.403593 
3268.000000	99.404699 
3267.000000	99.403590 
3266.000000	99.400917 
3265.000000	99.397521 
3264.000000	99.394404 
3263.000000	99.393369 
3262.000000	99.396168 
3261.000000	99.402383 
3260.000000	99.408961 
3259.000000	99.412442 
3258.000000	99.411548 
3257.000000	99.407591 
3256.000000	99.402810 
3255.000000	99.398534 
3254.000000	99.394810 
3253.000000	99.391682 
3252.000000	99.390479 
3251.000000	99.393040 
3250.000000	99.399202 
3249.000000	99.405930 
3248.000000	99.409870 
3247.000000	99.410314 
3246.000000	99.408821 
3245.000000	99.406552 
3244.000000	99.403465 
3243.000000	99.399889 
3242.000000	99.397025 
3241.000000	99.395356 
3240.000000	99.394162 
3239.000000	99.393524 
3238.000000	99.395570 
3237.000000	99.402336 
3236.000000	99.412689 
3235.000000	99.422335 
3234.000000	99.426949 
3233.000000	99.425196 
3232.000000	99.419357 
3231.000000	99.413680 
3230.000000	99.411532 
3229.000000	99.413057 
3228.000000	99.415280 
3227.000000	99.414777 
3226.000000	99.410439 
3225.000000	99.403894 
3224.000000	99.397824 
3223.000000	99.394143 
3222.000000	99.393161 
3221.000000	99.393801 
3220.000000	99.394584 
3219.000000	99.394798 
3218.000000	99.394919 
3217.000000	99.396089 
3216.000000	99.399406 
3215.000000	99.405336 
3214.000000	99.412988 
3213.000000	99.419766 
3212.000000	99.422523 
3211.000000	99.419775 
3210.000000	99.412853 
3209.000000	99.404871 
3208.000000	99.398766 
3207.000000	99.396017 
3206.000000	99.396317 
3205.000000	99.397961 
3204.000000	99.399091 
3203.000000	99.399079 
3202.000000	99.398611 
3201.000000	99.398436 
3200.000000	99.398638 
3199.000000	99.399270 
3198.000000	99.400852 
3197.000000	99.403658 
3196.000000	99.406996 
3195.000000	99.409730 
3194.000000	99.411134 
3193.000000	99.410915 
3192.000000	99.408966 
3191.000000	99.405704 
3190.000000	99.402262 
3189.000000	99.399714 
3188.000000	99.398268 
3187.000000	99.397585 
3186.000000	99.397532 
3185.000000	99.398074 
3184.000000	99.398784 
3183.000000	99.399063 
3182.000000	99.398815 
3181.000000	99.398529 
3180.000000	99.398827 
3179.000000	99.400108 
3178.000000	99.402154 
3177.000000	99.403667 
3176.000000	99.402833 
3175.000000	99.399263 
3174.000000	99.395131 
3173.000000	99.393412 
3172.000000	99.394765 
3171.000000	99.396901 
3170.000000	99.397349 
3169.000000	99.396194 
3168.000000	99.395456 
3167.000000	99.396237 
3166.000000	99.397395 
3165.000000	99.397259 
3164.000000	99.395936 
3163.000000	99.395182 
3162.000000	99.396146 
3161.000000	99.398077 
3160.000000	99.399578 
3159.000000	99.400311 
3158.000000	99.400618 
3157.000000	99.400008 
3156.000000	99.397387 
3155.000000	99.392940 
3154.000000	99.388535 
3153.000000	99.385582 
3152.000000	99.383347 
3151.000000	99.380283 
3150.000000	99.376477 
3149.000000	99.373852 
3148.000000	99.374181 
3147.000000	99.377606 
3146.000000	99.382908 
3145.000000	99.388433 
3144.000000	99.392786 
3143.000000	99.395365 
3142.000000	99.396542 
3141.000000	99.397077 
3140.000000	99.397270 
3139.000000	99.396819 
3138.000000	99.395312 
3137.000000	99.392653 
3136.000000	99.389279 
3135.000000	99.386402 
3134.000000	99.385645 
3133.000000	99.387638 
3132.000000	99.390881 
3131.000000	99.392715 
3130.000000	99.391782 
3129.000000	99.389316 
3128.000000	99.387992 
3127.000000	99.389798 
3126.000000	99.394767 
3125.000000	99.400970 
3124.000000	99.405383 
3123.000000	99.405517 
3122.000000	99.401212 
3121.000000	99.395054 
3120.000000	99.390570 
3119.000000	99.389634 
3118.000000	99.391415 
3117.000000	99.393700 
3116.000000	99.395153 
3115.000000	99.396203 
3114.000000	99.397883 
3113.000000	99.400125 
3112.000000	99.401540 
3111.000000	99.400910 
3110.000000	99.398491 
3109.000000	99.395604 
3108.000000	99.393211 
3107.000000	99.391227 
3106.000000	99.389082 
3105.000000	99.386575 
3104.000000	99.384241 
3103.000000	99.383203 
3102.000000	99.384663 
3101.000000	99.388993 
3100.000000	99.395071 
3099.000000	99.400713 
3098.000000	99.404056 
3097.000000	99.404644 
3096.000000	99.403369 
3095.000000	99.401490 
3094.000000	99.399618 
3093.000000	99.397420 
3092.000000	99.394271 
3091.000000	99.390455 
3090.000000	99.387687 
3089.000000	99.387994 
3088.000000	99.391658 
3087.000000	99.396506 
3086.000000	99.399640 
3085.000000	99.399873 
3084.000000	99.398108 
3083.000000	99.395540 
3082.000000	99.392343 
3081.000000	99.388475 
3080.000000	99.385079 
3079.000000	99.384160 
3078.000000	99.386879 
3077.000000	99.392578 
3076.000000	99.399278 
3075.000000	99.404554 
3074.000000	99.406244 
3073.000000	99.403553 
3072.000000	99.397966 
3071.000000	99.392331 
3070.000000	99.388389 
3069.000000	99.385572 
3068.000000	99.382661 
3067.000000	99.380047 
3066.000000	99.379608 
3065.000000	99.382545 
3064.000000	99.387957 
3063.000000	99.393345 
3062.000000	99.396000 
3061.000000	99.394263 
3060.000000	99.388577 
3059.000000	99.381719 
3058.000000	99.377454 
3057.000000	99.378285 
3056.000000	99.383967 
3055.000000	99.391773 
3054.000000	99.398015 
3053.000000	99.399927 
3052.000000	99.397018 
3051.000000	99.391097 
3050.000000	99.385024 
3049.000000	99.381283 
3048.000000	99.381042 
3047.000000	99.383411 
3046.000000	99.385299 
3045.000000	99.383318 
3044.000000	99.377204 
3043.000000	99.370893 
3042.000000	99.368934 
3041.000000	99.371824 
3040.000000	99.375797 
3039.000000	99.376973 
3038.000000	99.374444 
3037.000000	99.369365 
3036.000000	99.362751 
3035.000000	99.355197 
3034.000000	99.347701 
3033.000000	99.341305 
3032.000000	99.335879 
3031.000000	99.330102 
3030.000000	99.322995 
3029.000000	99.315295 
3028.000000	99.309200 
3027.000000	99.306597 
3026.000000	99.307085 
3025.000000	99.307569 
3024.000000	99.304364 
3023.000000	99.296235 
3022.000000	99.285254 
3021.000000	99.274408 
3020.000000	99.264691 
3019.000000	99.254893 
3018.000000	99.243999 
3017.000000	99.232929 
3016.000000	99.223391 
3015.000000	99.215344 
3014.000000	99.206593 
3013.000000	99.195462 
3012.000000	99.183389 
3011.000000	99.173879 
3010.000000	99.168697 
3009.000000	99.165924 
3008.000000	99.162123 
3007.000000	99.155621 
3006.000000	99.147016 
3005.000000	99.137189 
3004.000000	99.126122 
3003.000000	99.113819 
3002.000000	99.101415 
3001.000000	99.090762 
3000.000000	99.082986 
2999.000000	99.077641 
2998.000000	99.073255 
2997.000000	99.068758 
2996.000000	99.064228 
2995.000000	99.059729 
2994.000000	99.053392 
2993.000000	99.041714 
2992.000000	99.022794 
2991.000000	98.999161 
2990.000000	98.976876 
2989.000000	98.961884 
2988.000000	98.957104 
2987.000000	98.961791 
2986.000000	98.972241 
2985.000000	98.983419 
2984.000000	98.991353 
2983.000000	98.994822 
2982.000000	98.994773 
2981.000000	98.992644 
2980.000000	98.989871 
2979.000000	98.988271 
2978.000000	98.989149 
2977.000000	98.991580 
2976.000000	98.992655 
2975.000000	98.990164 
2974.000000	98.984711 
2973.000000	98.979055 
2972.000000	98.975918 
2971.000000	98.976440 
2970.000000	98.979873 
2969.000000	98.984246 
2968.000000	98.987852 
2967.000000	98.990583 
2966.000000	98.993678 
2965.000000	98.998147 
2964.000000	99.003806 
2963.000000	99.009822 
2962.000000	99.015643 
2961.000000	99.021238 
2960.000000	99.026758 
2959.000000	99.032085 
2958.000000	99.036563 
2957.000000	99.039501 
2956.000000	99.041365 
2955.000000	99.044069 
2954.000000	99.049274 
2953.000000	99.056544 
2952.000000	99.063946 
2951.000000	99.070305 
2950.000000	99.076017 
2949.000000	99.081599 
2948.000000	99.086407 
2947.000000	99.089141 
2946.000000	99.089109 
2945.000000	99.086780 
2944.000000	99.083502 
2943.000000	99.080597 
2942.000000	99.078183 
2941.000000	99.074970 
2940.000000	99.069837 
2939.000000	99.063523 
2938.000000	99.058129 
2937.000000	99.055120 
2936.000000	99.054488 
2935.000000	99.055450 
2934.000000	99.056766 
2933.000000	99.056467 
2932.000000	99.052631 
2931.000000	99.044979 
2930.000000	99.035095 
2929.000000	99.025121 
2928.000000	99.016872 
2927.000000	99.011644 
2926.000000	99.009364 
2925.000000	99.007895 
2924.000000	99.004907 
2923.000000	99.000857 
2922.000000	98.998647 
2921.000000	98.999742 
2920.000000	99.002148 
2919.000000	99.003063 
2918.000000	99.002322 
2917.000000	99.002098 
2916.000000	99.004015 
2915.000000	99.007562 
2914.000000	99.010960 
2913.000000	99.012903 
2912.000000	99.013773 
2911.000000	99.015395 
2910.000000	99.019039 
2909.000000	99.023568 
2908.000000	99.026254 
2907.000000	99.025695 
2906.000000	99.022842 
2905.000000	99.018890 
2904.000000	99.013510 
2903.000000	99.006360 
2902.000000	98.999577 
2901.000000	98.997855 
2900.000000	99.004601 
2899.000000	99.019336 
2898.000000	99.037254 
2897.000000	99.051743 
2896.000000	99.058542 
2895.000000	99.058659 
2894.000000	99.057192 
2893.000000	99.058798 
2892.000000	99.064480 
2891.000000	99.072213 
2890.000000	99.079191 
2889.000000	99.082944 
2888.000000	99.082074 
2887.000000	99.077750 
2886.000000	99.073942 
2885.000000	99.074568 
2884.000000	99.080244 
2883.000000	99.088586 
2882.000000	99.097277 
2881.000000	99.105739 
2880.000000	99.114086 
2879.000000	99.122005 
2878.000000	99.129201 
2877.000000	99.136026 
2876.000000	99.142954 
2875.000000	99.149837 
2874.000000	99.156033 
2873.000000	99.160961 
2872.000000	99.164238 
2871.000000	99.165623 
2870.000000	99.165337 
2869.000000	99.164622 
2868.000000	99.165692 
2867.000000	99.170495 
2866.000000	99.178918 
2865.000000	99.188252 
2864.000000	99.195064 
2863.000000	99.197882 
2862.000000	99.197804 
2861.000000	99.196763 
2860.000000	99.196044 
2859.000000	99.196541 
2858.000000	99.198892 
2857.000000	99.202352 
2856.000000	99.204572 
2855.000000	99.204084 
2854.000000	99.202859 
2853.000000	99.205074 
2852.000000	99.213105 
2851.000000	99.225469 
2850.000000	99.238881 
2849.000000	99.251375 
2848.000000	99.263018 
2847.000000	99.274404 
2846.000000	99.285224 
2845.000000	99.294056 
2844.000000	99.299126 
2843.000000	99.299685 
2842.000000	99.297435 
2841.000000	99.296452 
2840.000000	99.300607 
2839.000000	99.310202 
2838.000000	99.321370 
2837.000000	99.329436 
2836.000000	99.332885 
2835.000000	99.333754 
2834.000000	99.334478 
2833.000000	99.335419 
2832.000000	99.335689 
2831.000000	99.335187 
2830.000000	99.334666 
2829.000000	99.334273 
2828.000000	99.333420 
2827.000000	99.332340 
2826.000000	99.332721 
2825.000000	99.336025 
2824.000000	99.341583 
2823.000000	99.346901 
2822.000000	99.349829 
2821.000000	99.350284 
2820.000000	99.350031 
2819.000000	99.350939 
2818.000000	99.353367 
2817.000000	99.356196 
2816.000000	99.358350 
2815.000000	99.359863 
2814.000000	99.361174 
2813.000000	99.361948 
2812.000000	99.361498 
2811.000000	99.360288 
2810.000000	99.360041 
2809.000000	99.361903 
2808.000000	99.365057 
2807.000000	99.367477 
2806.000000	99.367742 
2805.000000	99.365994 
2804.000000	99.363702 
2803.000000	99.362779 
2802.000000	99.364311 
2801.000000	99.367597 
2800.000000	99.370673 
2799.000000	99.372143 
2798.000000	99.372251 
2797.000000	99.371913 
2796.000000	99.371130 
2795.000000	99.369042 
2794.000000	99.365525 
2793.000000	99.362150 
2792.000000	99.361083 
2791.000000	99.363034 
2790.000000	99.366490 
2789.000000	99.369208 
2788.000000	99.370424 
2787.000000	99.371304 
2786.000000	99.373084 
2785.000000	99.375177 
2784.000000	99.375575 
2783.000000	99.373017 
2782.000000	99.368407 
2781.000000	99.364167 
2780.000000	99.362528 
2779.000000	99.364253 
2778.000000	99.368447 
2777.000000	99.373399 
2776.000000	99.377803 
2775.000000	99.381288 
2774.000000	99.383815 
2773.000000	99.385083 
2772.000000	99.384947 
2771.000000	99.383966 
2770.000000	99.382825 
2769.000000	99.381411 
2768.000000	99.379296 
2767.000000	99.377100 
2766.000000	99.376444 
2765.000000	99.378077 
2764.000000	99.380611 
2763.000000	99.381629 
2762.000000	99.379889 
2761.000000	99.376214 
2760.000000	99.372518 
2759.000000	99.370266 
2758.000000	99.369811 
2757.000000	99.370925 
2756.000000	99.373424 
2755.000000	99.376765 
2754.000000	99.379254 
2753.000000	99.378879 
2752.000000	99.375753 
2751.000000	99.372928 
2750.000000	99.373514 
2749.000000	99.377200 
2748.000000	99.380731 
2747.000000	99.381765 
2746.000000	99.381002 
2745.000000	99.380274 
2744.000000	99.379946 
2743.000000	99.379153 
2742.000000	99.377728 
2741.000000	99.376674 
2740.000000	99.376766 
2739.000000	99.377523 
2738.000000	99.377951 
2737.000000	99.378004 
2736.000000	99.378894 
2735.000000	99.381624 
2734.000000	99.385330 
2733.000000	99.387627 
2732.000000	99.386923 
2731.000000	99.383973 
2730.000000	99.380759 
2729.000000	99.378470 
2728.000000	99.377283 
2727.000000	99.377425 
2726.000000	99.379110 
2725.000000	99.381534 
2724.000000	99.383338 
2723.000000	99.384427 
2722.000000	99.386190 
2721.000000	99.389328 
2720.000000	99.392312 
2719.000000	99.392760 
2718.000000	99.389856 
2717.000000	99.384947 
2716.000000	99.380302 
2715.000000	99.377776 
2714.000000	99.378154 
2713.000000	99.380942 
2712.000000	99.384707 
2711.000000	99.388033 
2710.000000	99.390365 
2709.000000	99.391972 
2708.000000	99.393239 
2707.000000	99.393967 
2706.000000	99.393314 
2705.000000	99.390737 
2704.000000	99.387276 
2703.000000	99.385357 
2702.000000	99.386573 
2701.000000	99.389777 
2700.000000	99.392286 
2699.000000	99.392956 
2698.000000	99.393202 
2697.000000	99.394691 
2696.000000	99.396942 
2695.000000	99.397877 
2694.000000	99.396402 
2693.000000	99.393756 
2692.000000	99.392216 
2691.000000	99.392662 
2690.000000	99.393654 
2689.000000	99.393151 
2688.000000	99.391059 
2687.000000	99.389444 
2686.000000	99.390042 
2685.000000	99.392367 
2684.000000	99.394821 
2683.000000	99.396668 
2682.000000	99.397783 
2681.000000	99.397320 
2680.000000	99.394413 
2679.000000	99.390147 
2678.000000	99.387188 
2677.000000	99.387124 
2676.000000	99.389387 
2675.000000	99.392962 
2674.000000	99.397528 
2673.000000	99.402298 
2672.000000	99.405287 
2671.000000	99.405009 
2670.000000	99.402126 
2669.000000	99.398480 
2668.000000	99.395176 
2667.000000	99.392605 
2666.000000	99.391568 
2665.000000	99.392898 
2664.000000	99.395832 
2663.000000	99.397946 
2662.000000	99.397471 
2661.000000	99.395423 
2660.000000	99.394717 
2659.000000	99.396884 
2658.000000	99.400095 
2657.000000	99.401284 
2656.000000	99.400093 
2655.000000	99.399330 
2654.000000	99.400854 
2653.000000	99.402677 
2652.000000	99.402063 
2651.000000	99.400300 
2650.000000	99.401450 
2649.000000	99.406198 
2648.000000	99.410054 
2647.000000	99.409184 
2646.000000	99.405770 
2645.000000	99.405367 
2644.000000	99.410127 
2643.000000	99.416740 
2642.000000	99.420468 
2641.000000	99.419448 
2640.000000	99.415321 
2639.000000	99.411321 
2638.000000	99.409946 
2637.000000	99.411197 
2636.000000	99.412673 
2635.000000	99.412026 
2634.000000	99.409393 
2633.000000	99.407028 
2632.000000	99.406882 
2631.000000	99.409118 
2630.000000	99.412487 
2629.000000	99.415239 
2628.000000	99.415995 
2627.000000	99.414799 
2626.000000	99.413337 
2625.000000	99.413280 
2624.000000	99.414357 
2623.000000	99.414790 
2622.000000	99.413742 
2621.000000	99.412578 
2620.000000	99.413267 
2619.000000	99.415966 
2618.000000	99.418725 
2617.000000	99.419652 
2616.000000	99.419081 
2615.000000	99.419193 
2614.000000	99.421350 
2613.000000	99.424303 
2612.000000	99.425487 
2611.000000	99.423813 
2610.000000	99.420431 
2609.000000	99.416996 
2608.000000	99.414177 
2607.000000	99.412115 
2606.000000	99.411407 
2605.000000	99.412925 
2604.000000	99.416821 
2603.000000	99.421901 
2602.000000	99.425954 
2601.000000	99.427276 
2600.000000	99.426517 
2599.000000	99.426434 
2598.000000	99.428608 
2597.000000	99.430742 
2596.000000	99.428705 
2595.000000	99.421461 
2594.000000	99.412542 
2593.000000	99.406311 
2592.000000	99.404159 
2591.000000	99.404865 
2590.000000	99.407060 
2589.000000	99.409954 
2588.000000	99.412523 
2587.000000	99.413503 
2586.000000	99.412450 
2585.000000	99.410397 
2584.000000	99.409313 
2583.000000	99.410557 
2582.000000	99.413336 
2581.000000	99.415016 
2580.000000	99.413813 
2579.000000	99.410877 
2578.000000	99.408655 
2577.000000	99.407537 
2576.000000	99.405639 
2575.000000	99.402012 
2574.000000	99.398555 
2573.000000	99.398210 
2572.000000	99.402213 
2571.000000	99.409185 
2570.000000	99.415695 
2569.000000	99.417859 
2568.000000	99.414216 
2567.000000	99.407598 
2566.000000	99.402778 
2565.000000	99.401796 
2564.000000	99.402865 
2563.000000	99.403938 
2562.000000	99.405348 
2561.000000	99.408028 
2560.000000	99.410818 
2559.000000	99.411001 
2558.000000	99.407023 
2557.000000	99.400277 
2556.000000	99.394808 
2555.000000	99.394889 
2554.000000	99.401294 
2553.000000	99.409787 
2552.000000	99.414867 
2551.000000	99.415092 
2550.000000	99.412996 
2549.000000	99.410077 
2548.000000	99.404747 
2547.000000	99.396087 
2546.000000	99.386919 
2545.000000	99.381331 
2544.000000	99.380693 
2543.000000	99.383288 
2542.000000	99.386252 
2541.000000	99.386991 
2540.000000	99.384723 
2539.000000	99.381873 
2538.000000	99.381916 
2537.000000	99.384525 
2536.000000	99.385113 
2535.000000	99.380881 
2534.000000	99.374895 
2533.000000	99.371772 
2532.000000	99.371508 
2531.000000	99.370829 
2530.000000	99.369299 
2529.000000	99.370211 
2528.000000	99.375100 
2527.000000	99.380503 
2526.000000	99.381564 
2525.000000	99.377387 
2524.000000	99.371966 
2523.000000	99.370726 
2522.000000	99.376483 
2521.000000	99.387507 
2520.000000	99.398434 
2519.000000	99.403429 
2518.000000	99.399630 
2517.000000	99.388733 
2516.000000	99.375783 
2515.000000	99.365838 
2514.000000	99.360807 
2513.000000	99.359439 
2512.000000	99.360549 
2511.000000	99.365139 
2510.000000	99.374001 
2509.000000	99.384447 
2508.000000	99.392073 
2507.000000	99.395656 
2506.000000	99.397617 
2505.000000	99.399256 
2504.000000	99.398378 
2503.000000	99.392789 
2502.000000	99.383690 
2501.000000	99.374314 
2500.000000	99.367489 
2499.000000	99.365742 
2498.000000	99.370854 
2497.000000	99.380759 
2496.000000	99.389086 
2495.000000	99.390665 
2494.000000	99.386518 
2493.000000	99.381354 
2492.000000	99.377638 
2491.000000	99.374693 
2490.000000	99.372469 
2489.000000	99.373119 
2488.000000	99.378537 
2487.000000	99.388091 
2486.000000	99.398552 
2485.000000	99.405046 
2484.000000	99.403300 
2483.000000	99.393355 
2482.000000	99.380886 
2481.000000	99.372916 
2480.000000	99.371916 
2479.000000	99.375107 
2478.000000	99.378700 
2477.000000	99.381065 
2476.000000	99.382348 
2475.000000	99.383133 
2474.000000	99.383774 
2473.000000	99.383775 
2472.000000	99.381897 
2471.000000	99.378031 
2470.000000	99.374438 
2469.000000	99.373609 
2468.000000	99.375206 
2467.000000	99.376687 
2466.000000	99.376676 
2465.000000	99.376108 
2464.000000	99.376195 
2463.000000	99.377094 
2462.000000	99.378719 
2461.000000	99.381064 
2460.000000	99.383104 
2459.000000	99.382823 
2458.000000	99.379334 
2457.000000	99.374245 
2456.000000	99.370326 
2455.000000	99.369281 
2454.000000	99.370904 
2453.000000	99.373549 
2452.000000	99.374942 
2451.000000	99.373275 
2450.000000	99.368348 
2449.000000	99.361848 
2448.000000	99.356445 
2447.000000	99.354424 
2446.000000	99.356602 
2445.000000	99.361863 
2444.000000	99.367590 
2443.000000	99.370886 
2442.000000	99.369830 
2441.000000	99.364364 
2440.000000	99.356793 
2439.000000	99.351107 
2438.000000	99.350401 
2437.000000	99.354204 
2436.000000	99.358892 
2435.000000	99.361110 
2434.000000	99.360296 
2433.000000	99.358075 
2432.000000	99.356629 
2431.000000	99.357915 
2430.000000	99.362655 
2429.000000	99.368797 
2428.000000	99.372259 
2427.000000	99.370734 
2426.000000	99.366155 
2425.000000	99.362264 
2424.000000	99.360736 
2423.000000	99.361076 
2422.000000	99.363224 
2421.000000	99.367704 
2420.000000	99.372983 
2419.000000	99.375079 
2418.000000	99.371366 
2417.000000	99.363835 
2416.000000	99.357226 
2415.000000	99.354126 
2414.000000	99.353049 
2413.000000	99.351377 
2412.000000	99.348963 
2411.000000	99.347938 
2410.000000	99.349536 
2409.000000	99.352421 
2408.000000	99.354230 
2407.000000	99.353745 
2406.000000	99.351248 
2405.000000	99.348074 
2404.000000	99.346416 
2403.000000	99.348079 
2402.000000	99.352005 
2401.000000	99.354118 
2400.000000	99.351322 
2399.000000	99.345097 
2398.000000	99.339699 
2397.000000	99.337517 
2396.000000	99.337744 
2395.000000	99.338706 
2394.000000	99.339280 
2393.000000	99.338482 
2392.000000	99.336088 
2391.000000	99.333790 
2390.000000	99.333755 
2389.000000	99.336035 
2388.000000	99.339313 
2387.000000	99.343686 
2386.000000	99.349859 
2385.000000	99.355725 
2384.000000	99.357289 
2383.000000	99.354107 
2382.000000	99.350516 
2381.000000	99.349710 
2380.000000	99.349472 
2379.000000	99.346312 
2378.000000	99.341332 
2377.000000	99.338758 
2376.000000	99.340139 
2375.000000	99.343248 
2374.000000	99.345630 
2373.000000	99.345978 
2372.000000	99.342710 
2371.000000	99.334984 
2370.000000	99.325386 
2369.000000	99.318770 
2368.000000	99.317968 
2367.000000	99.322438 
2366.000000	99.330693 
2365.000000	99.341615 
2364.000000	99.352935 
2363.000000	99.361079 
2362.000000	99.363502 
2361.000000	99.360632 
2360.000000	99.355968 
2359.000000	99.352677 
2358.000000	99.350508 
2357.000000	99.347261 
2356.000000	99.343479 
2355.000000	99.343304 
2354.000000	99.347437 
2353.000000	99.352365 
2352.000000	99.354598 
2351.000000	99.354538 
2350.000000	99.354777 
2349.000000	99.355879 
2348.000000	99.357226 
2347.000000	99.358059 
2346.000000	99.359298 
2345.000000	99.362433 
2344.000000	99.367375 
2343.000000	99.373798 
2342.000000	99.379544 
2341.000000	99.382215 
2340.000000	99.380521 
2339.000000	99.377105 
2338.000000	99.375678 
2337.000000	99.376090 
2336.000000	99.374587 
2335.000000	99.368208 
2334.000000	99.359258 
2333.000000	99.353265 
2332.000000	99.354029 
2331.000000	99.358151 
2330.000000	99.360409 
2329.000000	99.358879 
2328.000000	99.359637 
2327.000000	99.367911 
2326.000000	99.383442 
2325.000000	99.398871 
2324.000000	99.406792 
2323.000000	99.406487 
2322.000000	99.403784 
2321.000000	99.403886 
2320.000000	99.404409 
2319.000000	99.399094 
2318.000000	99.387309 
2317.000000	99.375500 
2316.000000	99.370570 
2315.000000	99.372056 
2314.000000	99.375529 
2313.000000	99.377389 
2312.000000	99.378679 
2311.000000	99.380508 
2310.000000	99.382451 
2309.000000	99.381670 
2308.000000	99.376881 
2307.000000	99.369255 
2306.000000	99.362865 
2305.000000	99.361017 
2304.000000	99.364247 
2303.000000	99.369665 
2302.000000	99.374258 
2301.000000	99.376854 
2300.000000	99.379234 
2299.000000	99.383577 
2298.000000	99.390144 
2297.000000	99.395177 
2296.000000	99.394203 
2295.000000	99.386520 
2294.000000	99.377334 
2293.000000	99.373021 
2292.000000	99.376020 
2291.000000	99.383905 
2290.000000	99.392665 
2289.000000	99.398986 
2288.000000	99.400968 
2287.000000	99.398904 
2286.000000	99.395143 
2285.000000	99.391543 
2284.000000	99.387197 
2283.000000	99.380677 
2282.000000	99.373606 
2281.000000	99.369658 
2280.000000	99.369714 
2279.000000	99.370855 
2278.000000	99.370531 
2277.000000	99.369458 
2276.000000	99.369460 
2275.000000	99.370579 
2274.000000	99.371578 
2273.000000	99.371580 
2272.000000	99.370213 
2271.000000	99.367389 
2270.000000	99.364205 
2269.000000	99.362748 
2268.000000	99.363899 
2267.000000	99.366046 
2266.000000	99.366889 
2265.000000	99.365504 
2264.000000	99.361855 
2263.000000	99.355451 
2262.000000	99.346265 
2261.000000	99.336740 
2260.000000	99.331127 
2259.000000	99.332062 
2258.000000	99.338174 
2257.000000	99.345725 
2256.000000	99.352196 
2255.000000	99.357713 
2254.000000	99.363094 
2253.000000	99.367922 
2252.000000	99.371390 
2251.000000	99.373717 
2250.000000	99.375307 
2249.000000	99.375337 
2248.000000	99.372753 
2247.000000	99.368705 
2246.000000	99.365052 
2245.000000	99.361526 
2244.000000	99.356860 
2243.000000	99.352678 
2242.000000	99.352905 
2241.000000	99.358668 
2240.000000	99.367369 
2239.000000	99.377868 
2238.000000	99.391849 
2237.000000	99.407239 
2236.000000	99.414940 
2235.000000	99.407455 
2234.000000	99.388812 
2233.000000	99.371083 
2232.000000	99.361589 
2231.000000	99.357456 
2230.000000	99.352186 
2229.000000	99.343320 
2228.000000	99.333135 
2227.000000	99.325386 
2226.000000	99.322699 
2225.000000	99.325189 
2224.000000	99.330947 
2223.000000	99.338556 
2222.000000	99.347590 
2221.000000	99.355082 
2220.000000	99.354889 
2219.000000	99.345105 
2218.000000	99.334361 
2217.000000	99.334837 
2216.000000	99.348164 
2215.000000	99.363266 
2214.000000	99.369514 
2213.000000	99.367251 
2212.000000	99.363268 
2211.000000	99.361057 
2210.000000	99.360265 
2209.000000	99.362134 
2208.000000	99.368559 
2207.000000	99.375274 
2206.000000	99.372039 
2205.000000	99.353950 
2204.000000	99.330549 
2203.000000	99.318993 
2202.000000	99.326998 
2201.000000	99.344658 
2200.000000	99.354710 
2199.000000	99.349453 
2198.000000	99.335545 
2197.000000	99.324210 
2196.000000	99.320816 
2195.000000	99.324323 
2194.000000	99.331995 
2193.000000	99.340720 
2192.000000	99.346001 
2191.000000	99.344425 
2190.000000	99.338282 
2189.000000	99.335327 
2188.000000	99.341785 
2187.000000	99.355258 
2186.000000	99.365137 
2185.000000	99.361115 
2184.000000	99.342610 
2183.000000	99.319629 
2182.000000	99.303811 
2181.000000	99.299319 
2180.000000	99.303171 
2179.000000	99.312160 
2178.000000	99.325340 
2177.000000	99.339920 
2176.000000	99.349277 
2175.000000	99.347492 
2174.000000	99.334683 
2173.000000	99.318023 
2172.000000	99.309105 
2171.000000	99.318233 
2170.000000	99.346101 
2169.000000	99.379953 
2168.000000	99.402736 
2167.000000	99.408306 
2166.000000	99.404700 
2165.000000	99.402939 
2164.000000	99.407699 
2163.000000	99.418721 
2162.000000	99.432338 
2161.000000	99.436914 
2160.000000	99.415784 
2159.000000	99.365001 
2158.000000	99.303841 
2157.000000	99.257455 
2156.000000	99.233042 
2155.000000	99.222223 
2154.000000	99.219467 
2153.000000	99.226891 
2152.000000	99.243915 
2151.000000	99.262110 
2150.000000	99.273151 
2149.000000	99.277716 
2148.000000	99.283927 
2147.000000	99.297947 
2146.000000	99.317052 
2145.000000	99.331689 
2144.000000	99.334844 
2143.000000	99.328962 
2142.000000	99.321811 
2141.000000	99.316179 
2140.000000	99.307397 
2139.000000	99.292433 
2138.000000	99.277302 
2137.000000	99.271411 
2136.000000	99.276208 
2135.000000	99.283573 
2134.000000	99.285508 
2133.000000	99.282510 
2132.000000	99.281592 
2131.000000	99.287565 
2130.000000	99.297158 
2129.000000	99.301681 
2128.000000	99.295949 
2127.000000	99.284272 
2126.000000	99.276329 
2125.000000	99.277635 
2124.000000	99.286038 
2123.000000	99.297028 
2122.000000	99.308618 
2121.000000	99.319778 
2120.000000	99.328096 
2119.000000	99.332079 
2118.000000	99.333550 
2117.000000	99.335094 
2116.000000	99.336676 
2115.000000	99.337125 
2114.000000	99.337269 
2113.000000	99.338836 
2112.000000	99.341352 
2111.000000	99.342955 
2110.000000	99.343518 
2109.000000	99.344150 
2108.000000	99.343699 
2107.000000	99.338429 
2106.000000	99.326255 
2105.000000	99.310474 
2104.000000	99.298710 
2103.000000	99.297659 
2102.000000	99.307406 
2101.000000	99.320291 
2100.000000	99.327216 
2099.000000	99.326052 
2098.000000	99.322245 
2097.000000	99.320964 
2096.000000	99.321773 
2095.000000	99.322613 
2094.000000	99.324893 
2093.000000	99.330536 
2092.000000	99.336776 
2091.000000	99.338847 
2090.000000	99.337003 
2089.000000	99.336270 
2088.000000	99.338376 
2087.000000	99.337855 
2086.000000	99.328692 
2085.000000	99.313189 
2084.000000	99.301860 
2083.000000	99.303936 
2082.000000	99.318548 
2081.000000	99.335550 
2080.000000	99.345373 
2079.000000	99.347761 
2078.000000	99.350028 
2077.000000	99.357681 
2076.000000	99.368631 
2075.000000	99.376291 
2074.000000	99.375506 
2073.000000	99.365128 
2072.000000	99.348336 
2071.000000	99.332088 
2070.000000	99.323503 
2069.000000	99.323854 
2068.000000	99.326727 
2067.000000	99.323866 
2066.000000	99.312625 
2065.000000	99.298190 
2064.000000	99.290020 
2063.000000	99.295092 
2062.000000	99.311101 
2061.000000	99.325967 
2060.000000	99.328940 
2059.000000	99.323547 
2058.000000	99.324201 
2057.000000	99.337820 
2056.000000	99.354879 
2055.000000	99.362632 
2054.000000	99.361235 
2053.000000	99.360540 
2052.000000	99.365279 
2051.000000	99.370923 
2050.000000	99.372299 
2049.000000	99.369266 
2048.000000	99.363584 
2047.000000	99.356009 
2046.000000	99.348250 
2045.000000	99.342776 
2044.000000	99.338853 
2043.000000	99.333158 
2042.000000	99.325995 
2041.000000	99.322865 
2040.000000	99.327719 
2039.000000	99.337914 
2038.000000	99.347639 
2037.000000	99.353453 
2036.000000	99.354633 
2035.000000	99.349887 
2034.000000	99.336895 
2033.000000	99.317072 
2032.000000	99.300045 
2031.000000	99.299063 
2030.000000	99.317457 
2029.000000	99.340408 
2028.000000	99.346419 
2027.000000	99.329295 
2026.000000	99.303506 
2025.000000	99.286757 
2024.000000	99.283488 
2023.000000	99.288325 
2022.000000	99.297360 
2021.000000	99.308464 
2020.000000	99.316338 
2019.000000	99.316529 
2018.000000	99.312490 
2017.000000	99.311497 
2016.000000	99.314583 
2015.000000	99.317275 
2014.000000	99.318313 
2013.000000	99.319937 
2012.000000	99.321077 
2011.000000	99.317814 
2010.000000	99.311114 
2009.000000	99.307625 
2008.000000	99.310883 
2007.000000	99.316754 
2006.000000	99.319382 
2005.000000	99.317425 
2004.000000	99.313253 
2003.000000	99.309619 
2002.000000	99.308127 
2001.000000	99.307643 
2000.000000	99.303664 
1999.000000	99.292233 
1998.000000	99.274803 
1997.000000	99.257805 
1996.000000	99.248046 
1995.000000	99.249396 
1994.000000	99.261682 
1993.000000	99.279557 
1992.000000	99.293517 
1991.000000	99.296194 
1990.000000	99.288220 
1989.000000	99.276456 
1988.000000	99.268780 
1987.000000	99.271690 
1986.000000	99.288654 
1985.000000	99.316483 
1984.000000	99.344801 
1983.000000	99.362744 
1982.000000	99.366242 
1981.000000	99.358055 
1980.000000	99.343555 
1979.000000	99.328746 
1978.000000	99.318589 
1977.000000	99.312338 
1976.000000	99.302762 
1975.000000	99.285091 
1974.000000	99.265433 
1973.000000	99.255940 
1972.000000	99.261701 
1971.000000	99.275859 
1970.000000	99.287884 
1969.000000	99.293884 
1968.000000	99.297894 
1967.000000	99.304344 
1966.000000	99.311413 
1965.000000	99.313508 
1964.000000	99.309566 
1963.000000	99.305655 
1962.000000	99.308014 
1961.000000	99.315492 
1960.000000	99.321440 
1959.000000	99.321702 
1958.000000	99.316988 
1957.000000	99.308724 
1956.000000	99.297148 
1955.000000	99.283318 
1954.000000	99.268739 
1953.000000	99.253115 
1952.000000	99.236916 
1951.000000	99.226320 
1950.000000	99.229861 
1949.000000	99.247391 
1948.000000	99.267063 
1947.000000	99.277024 
1946.000000	99.276042 
1945.000000	99.269811 
1944.000000	99.261885 
1943.000000	99.253114 
1942.000000	99.246105 
1941.000000	99.243353 
1940.000000	99.243009 
1939.000000	99.241616 
1938.000000	99.239128 
1937.000000	99.238299 
1936.000000	99.240424 
1935.000000	99.243915 
1934.000000	99.246191 
1933.000000	99.245442 
1932.000000	99.242149 
1931.000000	99.240957 
1930.000000	99.248739 
1929.000000	99.266332 
1928.000000	99.284063 
1927.000000	99.290387 
1926.000000	99.283281 
1925.000000	99.269461 
1924.000000	99.255173 
1923.000000	99.243131 
1922.000000	99.237208 
1921.000000	99.242107 
1920.000000	99.256652 
1919.000000	99.272055 
1918.000000	99.278930 
1917.000000	99.275733 
1916.000000	99.268462 
1915.000000	99.263891 
1914.000000	99.265502 
1913.000000	99.272643 
1912.000000	99.280915 
1911.000000	99.285099 
1910.000000	99.283350 
1909.000000	99.277881 
1908.000000	99.272361 
1907.000000	99.270341 
1906.000000	99.274249 
1905.000000	99.282233 
1904.000000	99.286674 
1903.000000	99.280069 
1902.000000	99.263239 
1901.000000	99.245161 
1900.000000	99.235067 
1899.000000	99.236152 
1898.000000	99.245102 
1897.000000	99.254721 
1896.000000	99.258100 
1895.000000	99.254288 
1894.000000	99.249926 
1893.000000	99.251893 
1892.000000	99.259507 
1891.000000	99.266638 
1890.000000	99.269537 
1889.000000	99.269960 
1888.000000	99.270812 
1887.000000	99.272736 
1886.000000	99.275064 
1885.000000	99.276506 
1884.000000	99.275156 
1883.000000	99.270413 
1882.000000	99.264761 
1881.000000	99.261407 
1880.000000	99.260999 
1879.000000	99.262100 
1878.000000	99.263235 
1877.000000	99.262878 
1876.000000	99.259646 
1875.000000	99.254982 
1874.000000	99.253798 
1873.000000	99.258933 
1872.000000	99.266065 
1871.000000	99.267652 
1870.000000	99.261579 
1869.000000	99.253172 
1868.000000	99.246680 
1867.000000	99.240314 
1866.000000	99.232457 
1865.000000	99.224846 
1864.000000	99.219698 
1863.000000	99.218301 
1862.000000	99.222264 
1861.000000	99.232721 
1860.000000	99.247259 
1859.000000	99.260784 
1858.000000	99.270346 
1857.000000	99.276379 
1856.000000	99.280059 
1855.000000	99.282339 
1854.000000	99.284203 
1853.000000	99.285363 
1852.000000	99.283673 
1851.000000	99.277999 
1850.000000	99.270876 
1849.000000	99.266339 
1848.000000	99.265439 
1847.000000	99.266121 
1846.000000	99.266931 
1845.000000	99.267130 
1844.000000	99.264287 
1843.000000	99.257189 
1842.000000	99.249904 
1841.000000	99.247546 
1840.000000	99.251355 
1839.000000	99.258618 
1838.000000	99.265627 
1837.000000	99.270452 
1836.000000	99.273026 
1835.000000	99.274250 
1834.000000	99.275334 
1833.000000	99.277203 
1832.000000	99.280124 
1831.000000	99.282715 
1830.000000	99.282418 
1829.000000	99.278701 
1828.000000	99.274376 
1827.000000	99.271971 
1826.000000	99.271742 
1825.000000	99.273359 
1824.000000	99.276317 
1823.000000	99.279307 
1822.000000	99.280806 
1821.000000	99.279203 
1820.000000	99.273205 
1819.000000	99.263282 
1818.000000	99.253112 
1817.000000	99.247805 
1816.000000	99.248562 
1815.000000	99.251729 
1814.000000	99.254290 
1813.000000	99.257759 
1812.000000	99.265773 
1811.000000	99.277905 
1810.000000	99.289645 
1809.000000	99.297811 
1808.000000	99.301231 
1807.000000	99.298968 
1806.000000	99.291989 
1805.000000	99.284449 
1804.000000	99.280322 
1803.000000	99.279721 
1802.000000	99.280415 
1801.000000	99.281656 
1800.000000	99.282826 
1799.000000	99.281628 
1798.000000	99.277611 
1797.000000	99.273257 
1796.000000	99.270927 
1795.000000	99.271624 
1794.000000	99.275823 
1793.000000	99.282955 
1792.000000	99.290529 
1791.000000	99.294870 
1790.000000	99.294924 
1789.000000	99.293563 
1788.000000	99.294264 
1787.000000	99.297766 
1786.000000	99.301495 
1785.000000	99.301521 
1784.000000	99.295773 
1783.000000	99.287402 
1782.000000	99.282941 
1781.000000	99.285480 
1780.000000	99.290260 
1779.000000	99.289843 
1778.000000	99.283819 
1777.000000	99.277984 
1776.000000	99.276627 
1775.000000	99.280107 
1774.000000	99.286643 
1773.000000	99.292819 
1772.000000	99.294846 
1771.000000	99.293217 
1770.000000	99.291826 
1769.000000	99.292000 
1768.000000	99.292571 
1767.000000	99.291845 
1766.000000	99.289726 
1765.000000	99.287989 
1764.000000	99.287660 
1763.000000	99.288084 
1762.000000	99.288207 
1761.000000	99.288303 
1760.000000	99.289351 
1759.000000	99.290906 
1758.000000	99.291631 
1757.000000	99.290600 
1756.000000	99.287977 
1755.000000	99.284803 
1754.000000	99.281423 
1753.000000	99.277437 
1752.000000	99.274355 
1751.000000	99.276570 
1750.000000	99.285068 
1749.000000	99.294031 
1748.000000	99.297794 
1747.000000	99.295761 
1746.000000	99.290434 
1745.000000	99.284133 
1744.000000	99.278876 
1743.000000	99.276140 
1742.000000	99.275575 
1741.000000	99.276070 
1740.000000	99.276858 
1739.000000	99.277401 
1738.000000	99.277339 
1737.000000	99.276220 
1736.000000	99.273684 
1735.000000	99.269657 
1734.000000	99.265298 
1733.000000	99.264065 
1732.000000	99.268780 
1731.000000	99.278097 
1730.000000	99.288254 
1729.000000	99.295142 
1728.000000	99.297349 
1727.000000	99.297269 
1726.000000	99.297482 
1725.000000	99.297563 
1724.000000	99.295742 
1723.000000	99.292759 
1722.000000	99.292055 
1721.000000	99.296187 
1720.000000	99.304126 
1719.000000	99.311377 
1718.000000	99.312064 
1717.000000	99.306467 
1716.000000	99.300363 
1715.000000	99.295953 
1714.000000	99.293528 
1713.000000	99.293785 
1712.000000	99.295717 
1711.000000	99.297771 
1710.000000	99.299515 
1709.000000	99.300773 
1708.000000	99.300680 
1707.000000	99.299410 
1706.000000	99.301051 
1705.000000	99.309057 
1704.000000	99.317781 
1703.000000	99.316913 
1702.000000	99.304268 
1701.000000	99.290781 
1700.000000	99.289116 
1699.000000	99.294253 
1698.000000	99.298416 
1697.000000	99.303621 
1696.000000	99.312657 
1695.000000	99.320584 
1694.000000	99.323652 
1693.000000	99.323682 
1692.000000	99.321774 
1691.000000	99.318917 
1690.000000	99.317057 
1689.000000	99.316689 
1688.000000	99.314873 
1687.000000	99.308552 
1686.000000	99.300544 
1685.000000	99.299044 
1684.000000	99.305887 
1683.000000	99.312621 
1682.000000	99.316202 
1681.000000	99.317183 
1680.000000	99.317273 
1679.000000	99.317799 
1678.000000	99.318941 
1677.000000	99.320282 
1676.000000	99.321186 
1675.000000	99.321521 
1674.000000	99.321743 
1673.000000	99.322691 
1672.000000	99.324201 
1671.000000	99.326121 
1670.000000	99.328495 
1669.000000	99.330694 
1668.000000	99.333212 
1667.000000	99.336521 
1666.000000	99.337967 
1665.000000	99.335244 
1664.000000	99.330173 
1663.000000	99.327739 
1662.000000	99.330977 
1661.000000	99.337554 
1660.000000	99.343032 
1659.000000	99.346321 
1658.000000	99.348973 
1657.000000	99.350248 
1656.000000	99.345880 
1655.000000	99.335941 
1654.000000	99.330370 
1653.000000	99.332924 
1652.000000	99.333718 
1651.000000	99.336086 
1650.000000	99.336107 
1649.000000	99.330070 
1648.000000	99.320658 
1647.000000	99.312799 
1646.000000	99.308027 
1645.000000	99.307917 
1644.000000	99.313254 
1643.000000	99.321410 
1642.000000	99.328994 
1641.000000	99.334318 
1640.000000	99.337165 
1639.000000	99.337959 
1638.000000	99.337590 
1637.000000	99.337317 
1636.000000	99.336390 
1635.000000	99.333880 
1634.000000	99.334413 
1633.000000	99.339030 
1632.000000	99.343102 
1631.000000	99.344140 
1630.000000	99.343259 
1629.000000	99.342245 
1628.000000	99.341333 
1627.000000	99.340476 
1626.000000	99.340648 
1625.000000	99.342898 
1624.000000	99.346833 
1623.000000	99.350609 
1622.000000	99.353167 
1621.000000	99.354608 
1620.000000	99.354081 
1619.000000	99.351376 
1618.000000	99.348955 
1617.000000	99.348777 
1616.000000	99.349049 
1615.000000	99.348758 
1614.000000	99.347483 
1613.000000	99.344128 
1612.000000	99.339717 
1611.000000	99.336401 
1610.000000	99.334724 
1609.000000	99.333177 
1608.000000	99.330674 
1607.000000	99.328063 
1606.000000	99.326384 
1605.000000	99.325681 
1604.000000	99.325922 
1603.000000	99.327446 
1602.000000	99.329431 
1601.000000	99.329704 
1600.000000	99.327845 
1599.000000	99.326577 
1598.000000	99.328304 
1597.000000	99.332237 
1596.000000	99.336335 
1595.000000	99.340264 
1594.000000	99.344415 
1593.000000	99.347036 
1592.000000	99.345753 
1591.000000	99.341558 
1590.000000	99.338471 
1589.000000	99.338800 
1588.000000	99.341529 
1587.000000	99.345229 
1586.000000	99.349014 
1585.000000	99.350881 
1584.000000	99.348494 
1583.000000	99.342288 
1582.000000	99.336171 
1581.000000	99.333251 
1580.000000	99.332870 
1579.000000	99.333145 
1578.000000	99.334277 
1577.000000	99.336604 
1576.000000	99.337300 
1575.000000	99.336820 
1574.000000	99.339363 
1573.000000	99.342280 
1572.000000	99.340889 
1571.000000	99.336056 
1570.000000	99.333455 
1569.000000	99.335904 
1568.000000	99.340476 
1567.000000	99.343472 
1566.000000	99.343416 
1565.000000	99.341513 
1564.000000	99.340105 
1563.000000	99.340140 
1562.000000	99.340653 
1561.000000	99.340438 
1560.000000	99.340221 
1559.000000	99.339400 
1558.000000	99.334159 
1557.000000	99.333387 
1556.000000	99.337485 
1555.000000	99.339972 
1554.000000	99.338854 
1553.000000	99.336305 
1552.000000	99.335161 
1551.000000	99.336401 
1550.000000	99.339927 
1549.000000	99.344145 
1548.000000	99.346560 
1547.000000	99.345919 
1546.000000	99.342217 
1545.000000	99.337106 
1544.000000	99.332463 
1543.000000	99.328310 
1542.000000	99.325908 
1541.000000	99.328764 
1540.000000	99.332170 
1539.000000	99.329706 
1538.000000	99.329100 
1537.000000	99.333450 
1536.000000	99.337273 
1535.000000	99.337649 
1534.000000	99.337287 
1533.000000	99.338731 
1532.000000	99.339729 
1531.000000	99.337290 
1530.000000	99.333134 
1529.000000	99.331522 
1528.000000	99.333632 
1527.000000	99.337051 
1526.000000	99.339246 
1525.000000	99.340062 
1524.000000	99.340331 
1523.000000	99.341293 
1522.000000	99.345383 
1521.000000	99.352001 
1520.000000	99.354576 
1519.000000	99.349606 
1518.000000	99.340045 
1517.000000	99.331914 
1516.000000	99.328597 
1515.000000	99.328698 
1514.000000	99.330032 
1513.000000	99.331212 
1512.000000	99.331096 
1511.000000	99.328687 
1510.000000	99.323267 
1509.000000	99.315945 
1508.000000	99.312986 
1507.000000	99.320404 
1506.000000	99.327303 
1505.000000	99.327246 
1504.000000	99.326532 
1503.000000	99.326231 
1502.000000	99.326530 
1501.000000	99.329129 
1500.000000	99.334388 
1499.000000	99.340328 
1498.000000	99.344699 
1497.000000	99.348875 
1496.000000	99.354383 
1495.000000	99.357308 
1494.000000	99.353476 
1493.000000	99.343381 
1492.000000	99.330088 
1491.000000	99.317557 
1490.000000	99.309557 
1489.000000	99.307497 
1488.000000	99.307887 
1487.000000	99.306670 
1486.000000	99.305301 
1485.000000	99.306324 
1484.000000	99.309097 
1483.000000	99.311465 
1482.000000	99.311133 
1481.000000	99.307433 
1480.000000	99.301729 
1479.000000	99.296238 
1478.000000	99.292731 
1477.000000	99.291788 
1476.000000	99.292229 
1475.000000	99.290701 
1474.000000	99.286580 
1473.000000	99.284005 
1472.000000	99.285230 
1471.000000	99.286353 
1470.000000	99.285442 
1469.000000	99.284923 
1468.000000	99.286923 
1467.000000	99.290504 
1466.000000	99.293563 
1465.000000	99.295092 
1464.000000	99.295122 
1463.000000	99.294708 
1462.000000	99.294971 
1461.000000	99.296219 
1460.000000	99.297040 
1459.000000	99.295599 
1458.000000	99.290854 
1457.000000	99.284239 
1456.000000	99.278486 
1455.000000	99.274645 
1454.000000	99.272507 
1453.000000	99.272065 
1452.000000	99.272644 
1451.000000	99.272939 
1450.000000	99.273264 
1449.000000	99.275920 
1448.000000	99.281254 
1447.000000	99.285798 
1446.000000	99.287779 
1445.000000	99.289400 
1444.000000	99.292028 
1443.000000	99.293853 
1442.000000	99.293358 
1441.000000	99.291858 
1440.000000	99.291701 
1439.000000	99.293581 
1438.000000	99.295408 
1437.000000	99.294941 
1436.000000	99.292066 
1435.000000	99.287272 
1434.000000	99.281823 
1433.000000	99.278459 
1432.000000	99.278831 
1431.000000	99.282494 
1430.000000	99.286537 
1429.000000	99.288246 
1428.000000	99.287518 
1427.000000	99.285534 
1426.000000	99.283186 
1425.000000	99.280476 
1424.000000	99.278423 
1423.000000	99.277969 
1422.000000	99.276798 
1421.000000	99.271936 
1420.000000	99.263416 
1419.000000	99.255113 
1418.000000	99.248299 
1417.000000	99.240910 
1416.000000	99.233286 
1415.000000	99.226208 
1414.000000	99.218415 
1413.000000	99.208214 
1412.000000	99.196939 
1411.000000	99.188061 
1410.000000	99.182154 
1409.000000	99.177712 
1408.000000	99.175067 
1407.000000	99.175026 
1406.000000	99.176665 
1405.000000	99.179158 
1404.000000	99.184101 
1403.000000	99.191551 
1402.000000	99.197563 
1401.000000	99.199537 
1400.000000	99.199430 
1399.000000	99.200560 
1398.000000	99.200198 
1397.000000	99.191598 
1396.000000	99.173814 
1395.000000	99.155722 
1394.000000	99.148548 
1393.000000	99.155003 
1392.000000	99.171512 
1391.000000	99.192707 
1390.000000	99.212625 
1389.000000	99.226029 
1388.000000	99.230462 
1387.000000	99.227359 
1386.000000	99.219965 
1385.000000	99.211508 
1384.000000	99.204371 
1383.000000	99.199423 
1382.000000	99.196360 
1381.000000	99.195844 
1380.000000	99.198990 
1379.000000	99.205218 
1378.000000	99.211733 
1377.000000	99.215772 
1376.000000	99.217600 
1375.000000	99.220864 
1374.000000	99.228913 
1373.000000	99.239941 
1372.000000	99.249161 
1371.000000	99.255238 
1370.000000	99.261316 
1369.000000	99.269396 
1368.000000	99.278773 
1367.000000	99.287869 
1366.000000	99.295664 
1365.000000	99.301591 
1364.000000	99.304677 
1363.000000	99.305047 
1362.000000	99.305139 
1361.000000	99.306821 
1360.000000	99.309407 
1359.000000	99.311948 
1358.000000	99.315099 
1357.000000	99.319652 
1356.000000	99.324866 
1355.000000	99.329199 
1354.000000	99.332018 
1353.000000	99.333364 
1352.000000	99.332110 
1351.000000	99.327216 
1350.000000	99.321771 
1349.000000	99.319547 
1348.000000	99.321157 
1347.000000	99.324635 
1346.000000	99.329030 
1345.000000	99.334274 
1344.000000	99.339036 
1343.000000	99.341350 
1342.000000	99.341226 
1341.000000	99.340181 
1340.000000	99.338730 
1339.000000	99.336390 
1338.000000	99.333697 
1337.000000	99.332583 
1336.000000	99.334168 
1335.000000	99.337408 
1334.000000	99.340817 
1333.000000	99.344023 
1332.000000	99.346741 
1331.000000	99.348017 
1330.000000	99.347405 
1329.000000	99.345429 
1328.000000	99.342907 
1327.000000	99.340604 
1326.000000	99.339637 
1325.000000	99.340066 
1324.000000	99.341220 
1323.000000	99.342538 
1322.000000	99.343641 
1321.000000	99.343901 
1320.000000	99.343048 
1319.000000	99.342010 
1318.000000	99.341975 
1317.000000	99.342743 
1316.000000	99.342763 
1315.000000	99.341087 
1314.000000	99.338538 
1313.000000	99.336864 
1312.000000	99.336972 
1311.000000	99.338400 
1310.000000	99.340318 
1309.000000	99.342200 
1308.000000	99.343461 
1307.000000	99.342967 
1306.000000	99.340196 
1305.000000	99.336181 
1304.000000	99.333900 
1303.000000	99.336049 
1302.000000	99.342511 
1301.000000	99.350145 
1300.000000	99.355320 
1299.000000	99.356282 
1298.000000	99.353455 
1297.000000	99.348594 
1296.000000	99.343989 
1295.000000	99.342096 
1294.000000	99.344324 
1293.000000	99.349684 
1292.000000	99.354872 
1291.000000	99.356256 
1290.000000	99.352734 
1289.000000	99.346977 
1288.000000	99.343229 
1287.000000	99.343268 
1286.000000	99.344773 
1285.000000	99.344355 
1284.000000	99.341628 
1283.000000	99.339042 
1282.000000	99.338348 
1281.000000	99.338921 
1280.000000	99.339448 
1279.000000	99.339449 
1278.000000	99.338236 
1277.000000	99.334390 
1276.000000	99.327561 
1275.000000	99.320094 
1274.000000	99.315140 
1273.000000	99.313527 
1272.000000	99.313525 
1271.000000	99.313061 
1270.000000	99.310974 
1269.000000	99.306860 
1268.000000	99.301237 
1267.000000	99.295465 
1266.000000	99.289914 
1265.000000	99.283039 
1264.000000	99.273651 
1263.000000	99.263336 
1262.000000	99.255108 
1261.000000	99.250228 
1260.000000	99.247779 
1259.000000	99.246794 
1258.000000	99.246635 
1257.000000	99.246124 
1256.000000	99.244293 
1255.000000	99.242016 
1254.000000	99.241037 
1253.000000	99.241371 
1252.000000	99.241366 
1251.000000	99.240642 
1250.000000	99.241039 
1249.000000	99.244224 
1248.000000	99.250099 
1247.000000	99.257718 
1246.000000	99.265379 
1245.000000	99.269547 
1244.000000	99.266613 
1243.000000	99.257747 
1242.000000	99.250252 
1241.000000	99.251529 
1240.000000	99.261961 
1239.000000	99.274870 
1238.000000	99.282844 
1237.000000	99.283053 
1236.000000	99.277326 
1235.000000	99.269268 
1234.000000	99.261749 
1233.000000	99.255845 
1232.000000	99.251263 
1231.000000	99.247510 
1230.000000	99.244346 
1229.000000	99.241332 
1228.000000	99.238028 
1227.000000	99.235402 
1226.000000	99.236104 
1225.000000	99.241787 
1224.000000	99.250316 
1223.000000	99.257000 
1222.000000	99.259121 
1221.000000	99.258423 
1220.000000	99.258835 
1219.000000	99.262600 
1218.000000	99.268831 
1217.000000	99.274998 
1216.000000	99.278986 
1215.000000	99.280189 
1214.000000	99.279745 
1213.000000	99.279945 
1212.000000	99.282529 
1211.000000	99.286721 
1210.000000	99.289354 
1209.000000	99.287745 
1208.000000	99.282425 
1207.000000	99.276609 
1206.000000	99.273132 
1205.000000	99.272398 
1204.000000	99.273046 
1203.000000	99.273458 
1202.000000	99.272215 
1201.000000	99.268313 
1200.000000	99.262199 
1199.000000	99.256180 
1198.000000	99.252495 
1197.000000	99.251151 
1196.000000	99.250548 
1195.000000	99.249741 
1194.000000	99.248879 
1193.000000	99.247573 
1192.000000	99.244520 
1191.000000	99.239365 
1190.000000	99.233780 
1189.000000	99.230020 
1188.000000	99.229142 
1187.000000	99.230849 
1186.000000	99.233936 
1185.000000	99.236281 
1184.000000	99.235426 
1183.000000	99.230316 
1182.000000	99.222457 
1181.000000	99.214852 
1180.000000	99.209869 
1179.000000	99.208049 
1178.000000	99.207939 
1177.000000	99.206684 
1176.000000	99.201905 
1175.000000	99.194005 
1174.000000	99.186293 
1173.000000	99.182044 
1172.000000	99.181915 
1171.000000	99.184425 
1170.000000	99.187803 
1169.000000	99.190487 
1168.000000	99.190721 
1167.000000	99.187068 
1166.000000	99.179567 
1165.000000	99.170029 
1164.000000	99.161334 
1163.000000	99.156220 
1162.000000	99.155573 
1161.000000	99.157400 
1160.000000	99.158593 
1159.000000	99.158578 
1158.000000	99.160093 
1157.000000	99.165270 
1156.000000	99.171966 
1155.000000	99.175378 
1154.000000	99.172734 
1153.000000	99.165139 
1152.000000	99.155517 
1151.000000	99.146488 
1150.000000	99.139999 
1149.000000	99.136989 
1148.000000	99.136500 
1147.000000	99.135899 
1146.000000	99.132678 
1145.000000	99.126102 
1144.000000	99.117441 
1143.000000	99.109274 
1142.000000	99.104147 
1141.000000	99.102791 
1140.000000	99.103384 
1139.000000	99.103002 
1138.000000	99.100059 
1137.000000	99.095294 
1136.000000	99.090725 
1135.000000	99.088029 
1134.000000	99.087560 
1133.000000	99.088303 
1132.000000	99.088619 
1131.000000	99.087214 
1130.000000	99.083438 
1129.000000	99.076991 
1128.000000	99.068111 
1127.000000	99.058176 
1126.000000	99.049290 
1125.000000	99.042738 
1124.000000	99.038278 
1123.000000	99.034976 
1122.000000	99.031798 
1121.000000	99.027345 
1120.000000	99.020461 
1119.000000	99.011817 
1118.000000	99.003647 
1117.000000	98.996979 
1116.000000	98.990185 
1115.000000	98.981152 
1114.000000	98.969736 
1113.000000	98.957070 
1112.000000	98.943905 
1111.000000	98.931235 
1110.000000	98.921122 
1109.000000	98.914523 
1108.000000	98.909048 
1107.000000	98.900844 
1106.000000	98.889068 
1105.000000	98.876580 
1104.000000	98.865827 
1103.000000	98.856142 
1102.000000	98.846171 
1101.000000	98.837029 
1100.000000	98.831844 
1099.000000	98.830855 
1098.000000	98.830913 
1097.000000	98.828927 
1096.000000	98.825113 
1095.000000	98.821552 
1094.000000	98.818161 
1093.000000	98.811690 
1092.000000	98.799178 
1091.000000	98.781102 
1090.000000	98.760002 
1089.000000	98.736953 
1088.000000	98.711366 
1087.000000	98.684141 
1086.000000	98.658793 
1085.000000	98.638377 
1084.000000	98.622579 
1083.000000	98.608585 
1082.000000	98.593737 
1081.000000	98.576631 
1080.000000	98.556951 
1079.000000	98.535712 
1078.000000	98.515344 
1077.000000	98.498510 
1076.000000	98.486828 
1075.000000	98.480864 
1074.000000	98.480554 
1073.000000	98.484697 
1072.000000	98.489805 
1071.000000	98.489728 
1070.000000	98.477607 
1069.000000	98.450732 
1068.000000	98.415619 
1067.000000	98.387363 
1066.000000	98.380177 
1065.000000	98.396230 
1064.000000	98.424255 
1063.000000	98.448694 
1062.000000	98.458839 
1061.000000	98.450925 
1060.000000	98.427182 
1059.000000	98.396574 
1058.000000	98.372810 
1057.000000	98.365311 
1056.000000	98.370997 
1055.000000	98.377577 
1054.000000	98.375531 
1053.000000	98.365398 
1052.000000	98.353744 
1051.000000	98.345231 
1050.000000	98.340051 
1049.000000	98.336590 
1048.000000	98.333825 
1047.000000	98.331761 
1046.000000	98.331214 
1045.000000	98.333166 
1044.000000	98.337896 
1043.000000	98.345085 
1042.000000	98.354442 
1041.000000	98.364932 
1040.000000	98.373696 
1039.000000	98.378003 
1038.000000	98.379244 
1037.000000	98.383074 
1036.000000	98.394263 
1035.000000	98.412742 
1034.000000	98.435320 
1033.000000	98.458650 
1032.000000	98.478283 
1031.000000	98.487599 
1030.000000	98.482790 
1029.000000	98.469747 
1028.000000	98.462468 
1027.000000	98.472081 
1026.000000	98.497689 
1025.000000	98.528406 
1024.000000	98.552946 
1023.000000	98.566511 
1022.000000	98.570764 
1021.000000	98.570144 
1020.000000	98.568728 
1019.000000	98.568869 
1018.000000	98.570989 
1017.000000	98.574261 
1016.000000	98.578104 
1015.000000	98.583344 
1014.000000	98.591562 
1013.000000	98.602909 
1012.000000	98.614996 
1011.000000	98.624729 
1010.000000	98.631308 
1009.000000	98.636733 
1008.000000	98.643273 
1007.000000	98.651337 
1006.000000	98.660133 
1005.000000	98.669352 
1004.000000	98.679353 
1003.000000	98.690177 
1002.000000	98.701227 
1001.000000	98.711671 
1000.000000	98.720523 
999.000000	 98.726582 
998.000000	 98.729099 
997.000000	 98.728800 
996.000000	 98.728299 
995.000000	 98.731524 
994.000000	 98.741870 
993.000000	 98.759247 
992.000000	 98.778437 
991.000000	 98.791968 
990.000000	 98.796416 
989.000000	 98.795558 
988.000000	 98.796025 
987.000000	 98.800214 
986.000000	 98.804841 
985.000000	 98.806376 
984.000000	 98.806089 
983.000000	 98.808782 
982.000000	 98.817613 
981.000000	 98.831380 
980.000000	 98.846327 
979.000000	 98.859125 
978.000000	 98.868082 
977.000000	 98.873145 
976.000000	 98.876048 
975.000000	 98.879913 
974.000000	 98.887178 
973.000000	 98.897498 
972.000000	 98.908393 
971.000000	 98.918104 
970.000000	 98.926952 
969.000000	 98.935838 
968.000000	 98.944733 
967.000000	 98.953348 
966.000000	 98.961936 
965.000000	 98.970216 
964.000000	 98.976584 
963.000000	 98.980015 
962.000000	 98.982123 
961.000000	 98.985649 
960.000000	 98.991312 
959.000000	 98.997689 
958.000000	 99.003664 
957.000000	 99.009067 
956.000000	 99.013234 
955.000000	 99.015415 
954.000000	 99.017066 
953.000000	 99.021448 
952.000000	 99.029783 
951.000000	 99.039271 
950.000000	 99.045915 
949.000000	 99.048241 
948.000000	 99.047806 
947.000000	 99.047649 
946.000000	 99.050926 
945.000000	 99.059252 
944.000000	 99.070886 
943.000000	 99.081353 
942.000000	 99.086912 
941.000000	 99.087005 
940.000000	 99.083177 
939.000000	 99.077154 
938.000000	 99.070777 
937.000000	 99.066281 
936.000000	 99.065166 
935.000000	 99.067129 
934.000000	 99.070486 
933.000000	 99.073047 
932.000000	 99.072747 
931.000000	 99.069151 
930.000000	 99.064968 
929.000000	 99.064338 
928.000000	 99.068555 
927.000000	 99.074731 
926.000000	 99.079584 
925.000000	 99.083048 
924.000000	 99.086819 
923.000000	 99.090667 
922.000000	 99.092055 
921.000000	 99.089013 
920.000000	 99.082194 
919.000000	 99.074373 
918.000000	 99.068567 
917.000000	 99.065958 
916.000000	 99.065041 
915.000000	 99.063385 
914.000000	 99.060633 
913.000000	 99.058934 
912.000000	 99.060068 
911.000000	 99.063194 
910.000000	 99.065751 
909.000000	 99.065423 
908.000000	 99.060971 
907.000000	 99.052905 
906.000000	 99.044026 
905.000000	 99.037511 
904.000000	 99.033602 
903.000000	 99.030061 
902.000000	 99.026746 
901.000000	 99.027367 
900.000000	 99.034985 
899.000000	 99.047617 
898.000000	 99.060159 
897.000000	 99.069054 
896.000000	 99.073131 
895.000000	 99.072250 
894.000000	 99.068592 
893.000000	 99.067898 
892.000000	 99.075410 
891.000000	 99.089930 
890.000000	 99.104505 
889.000000	 99.113740 
888.000000	 99.118266 
887.000000	 99.121465 
886.000000	 99.124200 
885.000000	 99.124439 
884.000000	 99.121067 
883.000000	 99.116422 
882.000000	 99.114550 
881.000000	 99.117225 
880.000000	 99.122429 
879.000000	 99.127492 
878.000000	 99.133087 
877.000000	 99.141951 
876.000000	 99.153035 
875.000000	 99.159604 
874.000000	 99.155746 
873.000000	 99.143802 
872.000000	 99.133187 
871.000000	 99.132083 
870.000000	 99.140939 
869.000000	 99.152907 
868.000000	 99.159599 
867.000000	 99.157842 
866.000000	 99.152610 
865.000000	 99.152479 
864.000000	 99.161065 
863.000000	 99.173943 
862.000000	 99.184497 
861.000000	 99.190421 
860.000000	 99.192970 
859.000000	 99.193207 
858.000000	 99.192896 
857.000000	 99.196860 
856.000000	 99.209160 
855.000000	 99.226510 
854.000000	 99.239727 
853.000000	 99.243210 
852.000000	 99.240010 
851.000000	 99.236442 
850.000000	 99.234749 
849.000000	 99.232945 
848.000000	 99.229580 
847.000000	 99.226225 
846.000000	 99.225996 
845.000000	 99.231157 
844.000000	 99.241692 
843.000000	 99.254878 
842.000000	 99.266178 
841.000000	 99.271369 
840.000000	 99.268792 
839.000000	 99.260670 
838.000000	 99.252303 
837.000000	 99.248182 
836.000000	 99.247933 
835.000000	 99.247881 
834.000000	 99.247630 
833.000000	 99.251630 
832.000000	 99.260489 
831.000000	 99.263917 
830.000000	 99.250071 
829.000000	 99.223420 
828.000000	 99.205564 
827.000000	 99.212527 
826.000000	 99.235576 
825.000000	 99.251859 
824.000000	 99.251545 
823.000000	 99.245392 
822.000000	 99.245921 
821.000000	 99.251371 
820.000000	 99.251859 
819.000000	 99.243583 
818.000000	 99.231817 
817.000000	 99.223483 
816.000000	 99.220721 
815.000000	 99.220451 
814.000000	 99.217369 
813.000000	 99.207853 
812.000000	 99.193248 
811.000000	 99.179676 
810.000000	 99.173108 
809.000000	 99.174025 
808.000000	 99.177398 
807.000000	 99.177082 
806.000000	 99.169101 
805.000000	 99.151759 
804.000000	 99.125986 
803.000000	 99.097401 
802.000000	 99.075397 
801.000000	 99.066725 
800.000000	 99.069536 
799.000000	 99.075263 
798.000000	 99.076627 
797.000000	 99.072866 
796.000000	 99.067616 
795.000000	 99.064415 
794.000000	 99.065661 
793.000000	 99.073500 
792.000000	 99.088105 
791.000000	 99.104556 
790.000000	 99.114196 
789.000000	 99.111372 
788.000000	 99.098527 
787.000000	 99.083794 
786.000000	 99.074081 
785.000000	 99.070885 
784.000000	 99.071948 
783.000000	 99.075191 
782.000000	 99.080213 
781.000000	 99.086745 
780.000000	 99.092449 
779.000000	 99.092933 
778.000000	 99.085329 
777.000000	 99.073055 
776.000000	 99.065791 
775.000000	 99.071885 
774.000000	 99.089689 
773.000000	 99.108442 
772.000000	 99.119070 
771.000000	 99.121974 
770.000000	 99.122397 
769.000000	 99.120967 
768.000000	 99.113740 
767.000000	 99.101517 
766.000000	 99.093432 
765.000000	 99.097518 
764.000000	 99.110398 
763.000000	 99.120053 
762.000000	 99.118270 
761.000000	 99.107772 
760.000000	 99.097700 
759.000000	 99.095001 
758.000000	 99.100185 
757.000000	 99.108573 
756.000000	 99.114518 
755.000000	 99.116090 
754.000000	 99.116734 
753.000000	 99.121456 
752.000000	 99.131416 
751.000000	 99.142978 
750.000000	 99.151357 
749.000000	 99.153358 
748.000000	 99.147482 
747.000000	 99.135225 
746.000000	 99.123242 
745.000000	 99.120099 
744.000000	 99.127413 
743.000000	 99.136324 
742.000000	 99.136593 
741.000000	 99.128328 
740.000000	 99.120969 
739.000000	 99.121203 
738.000000	 99.125917 
737.000000	 99.127963 
736.000000	 99.125033 
735.000000	 99.120712 
734.000000	 99.119889 
733.000000	 99.125843 
732.000000	 99.139343 
731.000000	 99.156429 
730.000000	 99.168380 
729.000000	 99.168463 
728.000000	 99.158406 
727.000000	 99.145747 
726.000000	 99.135838 
725.000000	 99.129125 
724.000000	 99.125750 
723.000000	 99.128279 
722.000000	 99.137663 
721.000000	 99.149336 
720.000000	 99.156014 
719.000000	 99.153627 
718.000000	 99.143203 
717.000000	 99.128495 
716.000000	 99.114422 
715.000000	 99.105975 
714.000000	 99.104540 
713.000000	 99.105571 
712.000000	 99.102969 
711.000000	 99.096251 
710.000000	 99.090828 
709.000000	 99.090992 
708.000000	 99.095149 
707.000000	 99.098683 
706.000000	 99.099699 
705.000000	 99.099326 
704.000000	 99.097433 
703.000000	 99.092149 
702.000000	 99.083303 
701.000000	 99.074118 
700.000000	 99.068508 
699.000000	 99.066447 
698.000000	 99.063713 
697.000000	 99.055273 
696.000000	 99.038416 
695.000000	 99.015179 
694.000000	 98.992667 
693.000000	 98.981545 
692.000000	 98.990736 
691.000000	 99.017990 
690.000000	 99.048445 
689.000000	 99.066231 
688.000000	 99.068763 
687.000000	 99.067397 
686.000000	 99.071761 
685.000000	 99.079820 
684.000000	 99.084885 
683.000000	 99.084363 
682.000000	 99.079911 
681.000000	 99.075676 
680.000000	 99.078758 
679.000000	 99.092585 
678.000000	 99.104900 
677.000000	 99.094670 
676.000000	 99.058212 
675.000000	 99.017235 
674.000000	 98.998659 
673.000000	 99.008731 
672.000000	 99.027446 
671.000000	 99.028141 
670.000000	 98.997093 
669.000000	 98.941070 
668.000000	 98.887575 
667.000000	 98.866594 
666.000000	 98.891545 
665.000000	 98.952316 
664.000000	 99.017102 
663.000000	 99.054296 
662.000000	 99.054476 
661.000000	 99.040103 
660.000000	 99.038351 
659.000000	 99.049326 
658.000000	 99.050048 
657.000000	 99.024347 
656.000000	 98.978772 
655.000000	 98.932971 
654.000000	 98.906463 
653.000000	 98.902524 
652.000000	 98.900553 
651.000000	 98.880654 
650.000000	 98.857229 

