4000.000000	99.218649 
3999.000000	99.218446 
3998.000000	99.218367 
3997.000000	99.218607 
3996.000000	99.219011 
3995.000000	99.219280 
3994.000000	99.219352 
3993.000000	99.219408 
3992.000000	99.219555 
3991.000000	99.219618 
3990.000000	99.219364 
3989.000000	99.218781 
3988.000000	99.218086 
3987.000000	99.217501 
3986.000000	99.217139 
3985.000000	99.217044 
3984.000000	99.217178 
3983.000000	99.217440 
3982.000000	99.217765 
3981.000000	99.218189 
3980.000000	99.218750 
3979.000000	99.219365 
3978.000000	99.219874 
3977.000000	99.220176 
3976.000000	99.220214 
3975.000000	99.219891 
3974.000000	99.219122 
3973.000000	99.218013 
3972.000000	99.216888 
3971.000000	99.216103 
3970.000000	99.215839 
3969.000000	99.216054 
3968.000000	99.216518 
3967.000000	99.216908 
3966.000000	99.216990 
3965.000000	99.216739 
3964.000000	99.216309 
3963.000000	99.215933 
3962.000000	99.215785 
3961.000000	99.215891 
3960.000000	99.216100 
3959.000000	99.216155 
3958.000000	99.215929 
3957.000000	99.215528 
3956.000000	99.215167 
3955.000000	99.214929 
3954.000000	99.214719 
3953.000000	99.214437 
3952.000000	99.214079 
3951.000000	99.213708 
3950.000000	99.213358 
3949.000000	99.213013 
3948.000000	99.212654 
3947.000000	99.212317 
3946.000000	99.212060 
3945.000000	99.211876 
3944.000000	99.211687 
3943.000000	99.211419 
3942.000000	99.211082 
3941.000000	99.210744 
3940.000000	99.210442 
3939.000000	99.210153 
3938.000000	99.209850 
3937.000000	99.209530 
3936.000000	99.209210 
3935.000000	99.208904 
3934.000000	99.208620 
3933.000000	99.208363 
3932.000000	99.208127 
3931.000000	99.207905 
3930.000000	99.207690 
3929.000000	99.207472 
3928.000000	99.207246 
3927.000000	99.207006 
3926.000000	99.206754 
3925.000000	99.206499 
3924.000000	99.206252 
3923.000000	99.206024 
3922.000000	99.205811 
3921.000000	99.205605 
3920.000000	99.205402 
3919.000000	99.205205 
3918.000000	99.205021 
3917.000000	99.204850 
3916.000000	99.204689 
3915.000000	99.204535 
3914.000000	99.204385 
3913.000000	99.204236 
3912.000000	99.204077 
3911.000000	99.203903 
3910.000000	99.203717 
3909.000000	99.203531 
3908.000000	99.203361 
3907.000000	99.203210 
3906.000000	99.203076 
3905.000000	99.202950 
3904.000000	99.202832 
3903.000000	99.202720 
3902.000000	99.202615 
3901.000000	99.202510 
3900.000000	99.202393 
3899.000000	99.202250 
3898.000000	99.202080 
3897.000000	99.201893 
3896.000000	99.201705 
3895.000000	99.201523 
3894.000000	99.201349 
3893.000000	99.201187 
3892.000000	99.201035 
3891.000000	99.200888 
3890.000000	99.200742 
3889.000000	99.200598 
3888.000000	99.200451 
3887.000000	99.200295 
3886.000000	99.200122 
3885.000000	99.199939 
3884.000000	99.199755 
3883.000000	99.199574 
3882.000000	99.199386 
3881.000000	99.199183 
3880.000000	99.198964 
3879.000000	99.198741 
3878.000000	99.198522 
3877.000000	99.198305 
3876.000000	99.198083 
3875.000000	99.197849 
3874.000000	99.197609 
3873.000000	99.197375 
3872.000000	99.197154 
3871.000000	99.196944 
3870.000000	99.196746 
3869.000000	99.196573 
3868.000000	99.196435 
3867.000000	99.196322 
3866.000000	99.196209 
3865.000000	99.196084 
3864.000000	99.195952 
3863.000000	99.195818 
3862.000000	99.195677 
3861.000000	99.195523 
3860.000000	99.195363 
3859.000000	99.195210 
3858.000000	99.195077 
3857.000000	99.194978 
3856.000000	99.194926 
3855.000000	99.194927 
3854.000000	99.194966 
3853.000000	99.195021 
3852.000000	99.195085 
3851.000000	99.195166 
3850.000000	99.195253 
3849.000000	99.195325 
3848.000000	99.195374 
3847.000000	99.195402 
3846.000000	99.195419 
3845.000000	99.195437 
3844.000000	99.195461 
3843.000000	99.195489 
3842.000000	99.195516 
3841.000000	99.195541 
3840.000000	99.195570 
3839.000000	99.195605 
3838.000000	99.195641 
3837.000000	99.195676 
3836.000000	99.195708 
3835.000000	99.195742 
3834.000000	99.195779 
3833.000000	99.195824 
3832.000000	99.195874 
3831.000000	99.195929 
3830.000000	99.195985 
3829.000000	99.196041 
3828.000000	99.196097 
3827.000000	99.196151 
3826.000000	99.196204 
3825.000000	99.196262 
3824.000000	99.196341 
3823.000000	99.196444 
3822.000000	99.196562 
3821.000000	99.196682 
3820.000000	99.196805 
3819.000000	99.196945 
3818.000000	99.197099 
3817.000000	99.197246 
3816.000000	99.197374 
3815.000000	99.197484 
3814.000000	99.197586 
3813.000000	99.197676 
3812.000000	99.197744 
3811.000000	99.197793 
3810.000000	99.197838 
3809.000000	99.197888 
3808.000000	99.197940 
3807.000000	99.197993 
3806.000000	99.198057 
3805.000000	99.198142 
3804.000000	99.198249 
3803.000000	99.198367 
3802.000000	99.198488 
3801.000000	99.198619 
3800.000000	99.198779 
3799.000000	99.198974 
3798.000000	99.199191 
3797.000000	99.199415 
3796.000000	99.199645 
3795.000000	99.199888 
3794.000000	99.200144 
3793.000000	99.200407 
3792.000000	99.200668 
3791.000000	99.200917 
3790.000000	99.201146 
3789.000000	99.201355 
3788.000000	99.201548 
3787.000000	99.201728 
3786.000000	99.201889 
3785.000000	99.202020 
3784.000000	99.202119 
3783.000000	99.202186 
3782.000000	99.202217 
3781.000000	99.202200 
3780.000000	99.202135 
3779.000000	99.202031 
3778.000000	99.201901 
3777.000000	99.201749 
3776.000000	99.201579 
3775.000000	99.201403 
3774.000000	99.201232 
3773.000000	99.201072 
3772.000000	99.200913 
3771.000000	99.200748 
3770.000000	99.200576 
3769.000000	99.200407 
3768.000000	99.200244 
3767.000000	99.200080 
3766.000000	99.199907 
3765.000000	99.199725 
3764.000000	99.199541 
3763.000000	99.199358 
3762.000000	99.199172 
3761.000000	99.198983 
3760.000000	99.198794 
3759.000000	99.198603 
3758.000000	99.198399 
3757.000000	99.198167 
3756.000000	99.197903 
3755.000000	99.197613 
3754.000000	99.197304 
3753.000000	99.196978 
3752.000000	99.196635 
3751.000000	99.196275 
3750.000000	99.195898 
3749.000000	99.195511 
3748.000000	99.195132 
3747.000000	99.194769 
3746.000000	99.194414 
3745.000000	99.194052 
3744.000000	99.193676 
3743.000000	99.193288 
3742.000000	99.192924 
3741.000000	99.192600 
3740.000000	99.192205 
3739.000000	99.191695 
3738.000000	99.191205 
3737.000000	99.190822 
3736.000000	99.190445 
3735.000000	99.190117 
3734.000000	99.190082 
3733.000000	99.190202 
3732.000000	99.189957 
3731.000000	99.189403 
3730.000000	99.189237 
3729.000000	99.189587 
3728.000000	99.189707 
3727.000000	99.189116 
3726.000000	99.188306 
3725.000000	99.188069 
3724.000000	99.188211 
3723.000000	99.187777 
3722.000000	99.186554 
3721.000000	99.185274 
3720.000000	99.184630 
3719.000000	99.184357 
3718.000000	99.183468 
3717.000000	99.181387 
3716.000000	99.178446 
3715.000000	99.175273 
3714.000000	99.172140 
3713.000000	99.169426 
3712.000000	99.167483 
3711.000000	99.166259 
3710.000000	99.165757 
3709.000000	99.165826 
3708.000000	99.165616 
3707.000000	99.164288 
3706.000000	99.161863 
3705.000000	99.159005 
3704.000000	99.156314 
3703.000000	99.154015 
3702.000000	99.151931 
3701.000000	99.149895 
3700.000000	99.148245 
3699.000000	99.147106 
3698.000000	99.145652 
3697.000000	99.143101 
3696.000000	99.139838 
3695.000000	99.136835 
3694.000000	99.134438 
3693.000000	99.132389 
3692.000000	99.130647 
3691.000000	99.129320 
3690.000000	99.128029 
3689.000000	99.126050 
3688.000000	99.123475 
3687.000000	99.121326 
3686.000000	99.119966 
3685.000000	99.118621 
3684.000000	99.116683 
3683.000000	99.114395 
3682.000000	99.112219 
3681.000000	99.110141 
3680.000000	99.107834 
3679.000000	99.105442 
3678.000000	99.103502 
3677.000000	99.102182 
3676.000000	99.100896 
3675.000000	99.099163 
3674.000000	99.097946 
3673.000000	99.097802 
3672.000000	99.097738 
3671.000000	99.097011 
3670.000000	99.095867 
3669.000000	99.094722 
3668.000000	99.093919 
3667.000000	99.093289 
3666.000000	99.092467 
3665.000000	99.091532 
3664.000000	99.090787 
3663.000000	99.090316 
3662.000000	99.089941 
3661.000000	99.089470 
3660.000000	99.088917 
3659.000000	99.088457 
3658.000000	99.088166 
3657.000000	99.087892 
3656.000000	99.087445 
3655.000000	99.087003 
3654.000000	99.086870 
3653.000000	99.086936 
3652.000000	99.086947 
3651.000000	99.086935 
3650.000000	99.086951 
3649.000000	99.086842 
3648.000000	99.086611 
3647.000000	99.086553 
3646.000000	99.086871 
3645.000000	99.087471 
3644.000000	99.088101 
3643.000000	99.088591 
3642.000000	99.088961 
3641.000000	99.089329 
3640.000000	99.089774 
3639.000000	99.090288 
3638.000000	99.090842 
3637.000000	99.091444 
3636.000000	99.092039 
3635.000000	99.092499 
3634.000000	99.092784 
3633.000000	99.092991 
3632.000000	99.093284 
3631.000000	99.093750 
3630.000000	99.094428 
3629.000000	99.095151 
3628.000000	99.095716 
3627.000000	99.096403 
3626.000000	99.097365 
3625.000000	99.098194 
3624.000000	99.098681 
3623.000000	99.099041 
3622.000000	99.099532 
3621.000000	99.100164 
3620.000000	99.100803 
3619.000000	99.101361 
3618.000000	99.102000 
3617.000000	99.103081 
3616.000000	99.104604 
3615.000000	99.106050 
3614.000000	99.106905 
3613.000000	99.107102 
3612.000000	99.107110 
3611.000000	99.107468 
3610.000000	99.108273 
3609.000000	99.109354 
3608.000000	99.110644 
3607.000000	99.112181 
3606.000000	99.113874 
3605.000000	99.115342 
3604.000000	99.116332 
3603.000000	99.117092 
3602.000000	99.117976 
3601.000000	99.119106 
3600.000000	99.120646 
3599.000000	99.122713 
3598.000000	99.124713 
3597.000000	99.125909 
3596.000000	99.126391 
3595.000000	99.126781 
3594.000000	99.127365 
3593.000000	99.128139 
3592.000000	99.129276 
3591.000000	99.131052 
3590.000000	99.133489 
3589.000000	99.135782 
3588.000000	99.136381 
3587.000000	99.134619 
3586.000000	99.132215 
3585.000000	99.131148 
3584.000000	99.131161 
3583.000000	99.131249 
3582.000000	99.131206 
3581.000000	99.131193 
3580.000000	99.131156 
3579.000000	99.130940 
3578.000000	99.130423 
3577.000000	99.129678 
3576.000000	99.129127 
3575.000000	99.129243 
3574.000000	99.130103 
3573.000000	99.131181 
3572.000000	99.131771 
3571.000000	99.131554 
3570.000000	99.130768 
3569.000000	99.129906 
3568.000000	99.129413 
3567.000000	99.129513 
3566.000000	99.130327 
3565.000000	99.131741 
3564.000000	99.132969 
3563.000000	99.133310 
3562.000000	99.132946 
3561.000000	99.132503 
3560.000000	99.132302 
3559.000000	99.132193 
3558.000000	99.131910 
3557.000000	99.131408 
3556.000000	99.130942 
3555.000000	99.130807 
3554.000000	99.131029 
3553.000000	99.131348 
3552.000000	99.131488 
3551.000000	99.131392 
3550.000000	99.131149 
3549.000000	99.130858 
3548.000000	99.130651 
3547.000000	99.130684 
3546.000000	99.130952 
3545.000000	99.131314 
3544.000000	99.131642 
3543.000000	99.131877 
3542.000000	99.132025 
3541.000000	99.132076 
3540.000000	99.132035 
3539.000000	99.131977 
3538.000000	99.131974 
3537.000000	99.132028 
3536.000000	99.132083 
3535.000000	99.132102 
3534.000000	99.132094 
3533.000000	99.132082 
3532.000000	99.132075 
3531.000000	99.132073 
3530.000000	99.132071 
3529.000000	99.132067 
3528.000000	99.132070 
3527.000000	99.132088 
3526.000000	99.132116 
3525.000000	99.132132 
3524.000000	99.132123 
3523.000000	99.132096 
3522.000000	99.132064 
3521.000000	99.132034 
3520.000000	99.131999 
3519.000000	99.131953 
3518.000000	99.131901 
3517.000000	99.131848 
3516.000000	99.131793 
3515.000000	99.131728 
3514.000000	99.131649 
3513.000000	99.131556 
3512.000000	99.131446 
3511.000000	99.131317 
3510.000000	99.131173 
3509.000000	99.131021 
3508.000000	99.130864 
3507.000000	99.130703 
3506.000000	99.130535 
3505.000000	99.130352 
3504.000000	99.130155 
3503.000000	99.129953 
3502.000000	99.129761 
3501.000000	99.129592 
3500.000000	99.129443 
3499.000000	99.129305 
3498.000000	99.129161 
3497.000000	99.129007 
3496.000000	99.128843 
3495.000000	99.128676 
3494.000000	99.128511 
3493.000000	99.128345 
3492.000000	99.128175 
3491.000000	99.128001 
3490.000000	99.127828 
3489.000000	99.127661 
3488.000000	99.127506 
3487.000000	99.127358 
3486.000000	99.127211 
3485.000000	99.127058 
3484.000000	99.126894 
3483.000000	99.126716 
3482.000000	99.126527 
3481.000000	99.126328 
3480.000000	99.126119 
3479.000000	99.125904 
3478.000000	99.125685 
3477.000000	99.125464 
3476.000000	99.125239 
3475.000000	99.125009 
3474.000000	99.124777 
3473.000000	99.124549 
3472.000000	99.124329 
3471.000000	99.124117 
3470.000000	99.123910 
3469.000000	99.123700 
3468.000000	99.123486 
3467.000000	99.123264 
3466.000000	99.123032 
3465.000000	99.122790 
3464.000000	99.122538 
3463.000000	99.122280 
3462.000000	99.122021 
3461.000000	99.121767 
3460.000000	99.121516 
3459.000000	99.121261 
3458.000000	99.121001 
3457.000000	99.120739 
3456.000000	99.120480 
3455.000000	99.120219 
3454.000000	99.119941 
3453.000000	99.119641 
3452.000000	99.119327 
3451.000000	99.119021 
3450.000000	99.118745 
3449.000000	99.118503 
3448.000000	99.118268 
3447.000000	99.118002 
3446.000000	99.117694 
3445.000000	99.117362 
3444.000000	99.117032 
3443.000000	99.116716 
3442.000000	99.116415 
3441.000000	99.116124 
3440.000000	99.115839 
3439.000000	99.115559 
3438.000000	99.115284 
3437.000000	99.115015 
3436.000000	99.114751 
3435.000000	99.114497 
3434.000000	99.114256 
3433.000000	99.114032 
3432.000000	99.113825 
3431.000000	99.113628 
3430.000000	99.113429 
3429.000000	99.113218 
3428.000000	99.112994 
3427.000000	99.112770 
3426.000000	99.112562 
3425.000000	99.112381 
3424.000000	99.112224 
3423.000000	99.112087 
3422.000000	99.111967 
3421.000000	99.111860 
3420.000000	99.111748 
3419.000000	99.111607 
3418.000000	99.111430 
3417.000000	99.111251 
3416.000000	99.111115 
3415.000000	99.111030 
3414.000000	99.110953 
3413.000000	99.110837 
3412.000000	99.110693 
3411.000000	99.110583 
3410.000000	99.110559 
3409.000000	99.110634 
3408.000000	99.110779 
3407.000000	99.110925 
3406.000000	99.110981 
3405.000000	99.110897 
3404.000000	99.110709 
3403.000000	99.110539 
3402.000000	99.110496 
3401.000000	99.110600 
3400.000000	99.110780 
3399.000000	99.110928 
3398.000000	99.110989 
3397.000000	99.111018 
3396.000000	99.111126 
3395.000000	99.111333 
3394.000000	99.111518 
3393.000000	99.111555 
3392.000000	99.111467 
3391.000000	99.111393 
3390.000000	99.111406 
3389.000000	99.111442 
3388.000000	99.111400 
3387.000000	99.111252 
3386.000000	99.111050 
3385.000000	99.110879 
3384.000000	99.110809 
3383.000000	99.110859 
3382.000000	99.110979 
3381.000000	99.111083 
3380.000000	99.111094 
3379.000000	99.110983 
3378.000000	99.110807 
3377.000000	99.110735 
3376.000000	99.110953 
3375.000000	99.111500 
3374.000000	99.112213 
3373.000000	99.112805 
3372.000000	99.113081 
3371.000000	99.113036 
3370.000000	99.112806 
3369.000000	99.112586 
3368.000000	99.112506 
3367.000000	99.112571 
3366.000000	99.112671 
3365.000000	99.112691 
3364.000000	99.112621 
3363.000000	99.112570 
3362.000000	99.112651 
3361.000000	99.112865 
3360.000000	99.113120 
3359.000000	99.113323 
3358.000000	99.113459 
3357.000000	99.113589 
3356.000000	99.113780 
3355.000000	99.114026 
3354.000000	99.114243 
3353.000000	99.114355 
3352.000000	99.114387 
3351.000000	99.114456 
3350.000000	99.114668 
3349.000000	99.115037 
3348.000000	99.115498 
3347.000000	99.115958 
3346.000000	99.116345 
3345.000000	99.116632 
3344.000000	99.116843 
3343.000000	99.117023 
3342.000000	99.117193 
3341.000000	99.117345 
3340.000000	99.117482 
3339.000000	99.117640 
3338.000000	99.117840 
3337.000000	99.118056 
3336.000000	99.118247 
3335.000000	99.118413 
3334.000000	99.118600 
3333.000000	99.118844 
3332.000000	99.119132 
3331.000000	99.119414 
3330.000000	99.119655 
3329.000000	99.119862 
3328.000000	99.120071 
3327.000000	99.120316 
3326.000000	99.120602 
3325.000000	99.120896 
3324.000000	99.121167 
3323.000000	99.121417 
3322.000000	99.121675 
3321.000000	99.121942 
3320.000000	99.122176 
3319.000000	99.122339 
3318.000000	99.122438 
3317.000000	99.122523 
3316.000000	99.122649 
3315.000000	99.122834 
3314.000000	99.123055 
3313.000000	99.123270 
3312.000000	99.123449 
3311.000000	99.123597 
3310.000000	99.123742 
3309.000000	99.123917 
3308.000000	99.124110 
3307.000000	99.124262 
3306.000000	99.124324 
3305.000000	99.124301 
3304.000000	99.124205 
3303.000000	99.124020 
3302.000000	99.123767 
3301.000000	99.123574 
3300.000000	99.123602 
3299.000000	99.123877 
3298.000000	99.124215 
3297.000000	99.124379 
3296.000000	99.124330 
3295.000000	99.124272 
3294.000000	99.124461 
3293.000000	99.124972 
3292.000000	99.125610 
3291.000000	99.126050 
3290.000000	99.126107 
3289.000000	99.125867 
3288.000000	99.125574 
3287.000000	99.125420 
3286.000000	99.125428 
3285.000000	99.125516 
3284.000000	99.125588 
3283.000000	99.125582 
3282.000000	99.125481 
3281.000000	99.125308 
3280.000000	99.125085 
3279.000000	99.124817 
3278.000000	99.124565 
3277.000000	99.124483 
3276.000000	99.124696 
3275.000000	99.125126 
3274.000000	99.125528 
3273.000000	99.125691 
3272.000000	99.125545 
3271.000000	99.125099 
3270.000000	99.124439 
3269.000000	99.123828 
3268.000000	99.123662 
3267.000000	99.124195 
3266.000000	99.125327 
3265.000000	99.126664 
3264.000000	99.127784 
3263.000000	99.128478 
3262.000000	99.128816 
3261.000000	99.129056 
3260.000000	99.129386 
3259.000000	99.129704 
3258.000000	99.129735 
3257.000000	99.129364 
3256.000000	99.128784 
3255.000000	99.128335 
3254.000000	99.128269 
3253.000000	99.128672 
3252.000000	99.129466 
3251.000000	99.130370 
3250.000000	99.130965 
3249.000000	99.130999 
3248.000000	99.130598 
3247.000000	99.130149 
3246.000000	99.129925 
3245.000000	99.129909 
3244.000000	99.130006 
3243.000000	99.130308 
3242.000000	99.131052 
3241.000000	99.132339 
3240.000000	99.133887 
3239.000000	99.135094 
3238.000000	99.135495 
3237.000000	99.135126 
3236.000000	99.134489 
3235.000000	99.134062 
3234.000000	99.133896 
3233.000000	99.133836 
3232.000000	99.133938 
3231.000000	99.134453 
3230.000000	99.135395 
3229.000000	99.136349 
3228.000000	99.136793 
3227.000000	99.136500 
3226.000000	99.135590 
3225.000000	99.134422 
3224.000000	99.133512 
3223.000000	99.133334 
3222.000000	99.133990 
3221.000000	99.135093 
3220.000000	99.136055 
3219.000000	99.136498 
3218.000000	99.136337 
3217.000000	99.135664 
3216.000000	99.134764 
3215.000000	99.134178 
3214.000000	99.134406 
3213.000000	99.135450 
3212.000000	99.136778 
3211.000000	99.137882 
3210.000000	99.138833 
3209.000000	99.140114 
3208.000000	99.141936 
3207.000000	99.143842 
3206.000000	99.145127 
3205.000000	99.145612 
3204.000000	99.145843 
3203.000000	99.146451 
3202.000000	99.147512 
3201.000000	99.148649 
3200.000000	99.149608 
3199.000000	99.150421 
3198.000000	99.151069 
3197.000000	99.151382 
3196.000000	99.151359 
3195.000000	99.151290 
3194.000000	99.151241 
3193.000000	99.150713 
3192.000000	99.149236 
3191.000000	99.147176 
3190.000000	99.145597 
3189.000000	99.145294 
3188.000000	99.146226 
3187.000000	99.147787 
3186.000000	99.149336 
3185.000000	99.150377 
3184.000000	99.150563 
3183.000000	99.149888 
3182.000000	99.148845 
3181.000000	99.148124 
3180.000000	99.148085 
3179.000000	99.148557 
3178.000000	99.149067 
3177.000000	99.149150 
3176.000000	99.148571 
3175.000000	99.147553 
3174.000000	99.146855 
3173.000000	99.147334 
3172.000000	99.149166 
3171.000000	99.151523 
3170.000000	99.153198 
3169.000000	99.153736 
3168.000000	99.153768 
3167.000000	99.154246 
3166.000000	99.155502 
3165.000000	99.157083 
3164.000000	99.158357 
3163.000000	99.159083 
3162.000000	99.159406 
3161.000000	99.159562 
3160.000000	99.159704 
3159.000000	99.159883 
3158.000000	99.159992 
3157.000000	99.159762 
3156.000000	99.159010 
3155.000000	99.157944 
3154.000000	99.157154 
3153.000000	99.157171 
3152.000000	99.158055 
3151.000000	99.159356 
3150.000000	99.160428 
3149.000000	99.160910 
3148.000000	99.160924 
3147.000000	99.160849 
3146.000000	99.160902 
3145.000000	99.160938 
3144.000000	99.160692 
3143.000000	99.160148 
3142.000000	99.159630 
3141.000000	99.159525 
3140.000000	99.159920 
3139.000000	99.160537 
3138.000000	99.161006 
3137.000000	99.161218 
3136.000000	99.161377 
3135.000000	99.161720 
3134.000000	99.162184 
3133.000000	99.162437 
3132.000000	99.162277 
3131.000000	99.161912 
3130.000000	99.161756 
3129.000000	99.161920 
3128.000000	99.162042 
3127.000000	99.161725 
3126.000000	99.161029 
3125.000000	99.160414 
3124.000000	99.160232 
3123.000000	99.160460 
3122.000000	99.160859 
3121.000000	99.161309 
3120.000000	99.161898 
3119.000000	99.162725 
3118.000000	99.163659 
3117.000000	99.164309 
3116.000000	99.164306 
3115.000000	99.163651 
3114.000000	99.162767 
3113.000000	99.162110 
3112.000000	99.161758 
3111.000000	99.161544 
3110.000000	99.161471 
3109.000000	99.161706 
3108.000000	99.162159 
3107.000000	99.162372 
3106.000000	99.161996 
3105.000000	99.161240 
3104.000000	99.160707 
3103.000000	99.160842 
3102.000000	99.161685 
3101.000000	99.163060 
3100.000000	99.164753 
3099.000000	99.166414 
3098.000000	99.167561 
3097.000000	99.167920 
3096.000000	99.167748 
3095.000000	99.167702 
3094.000000	99.168274 
3093.000000	99.169402 
3092.000000	99.170569 
3091.000000	99.171227 
3090.000000	99.171140 
3089.000000	99.170505 
3088.000000	99.169921 
3087.000000	99.170039 
3086.000000	99.171011 
3085.000000	99.172250 
3084.000000	99.172953 
3083.000000	99.172939 
3082.000000	99.172769 
3081.000000	99.173002 
3080.000000	99.173511 
3079.000000	99.173686 
3078.000000	99.173154 
3077.000000	99.172100 
3076.000000	99.171004 
3075.000000	99.170313 
3074.000000	99.170330 
3073.000000	99.171140 
3072.000000	99.172555 
3071.000000	99.174221 
3070.000000	99.175758 
3069.000000	99.176664 
3068.000000	99.176211 
3067.000000	99.173907 
3066.000000	99.170293 
3065.000000	99.167007 
3064.000000	99.165590 
3063.000000	99.166169 
3062.000000	99.167492 
3061.000000	99.168259 
3060.000000	99.168319 
3059.000000	99.168515 
3058.000000	99.169599 
3057.000000	99.171491 
3056.000000	99.173482 
3055.000000	99.174969 
3054.000000	99.175782 
3053.000000	99.175881 
3052.000000	99.175142 
3051.000000	99.173724 
3050.000000	99.172388 
3049.000000	99.171812 
3048.000000	99.171394 
3047.000000	99.169377 
3046.000000	99.164763 
3045.000000	99.158841 
3044.000000	99.154186 
3043.000000	99.152020 
3042.000000	99.151247 
3041.000000	99.150132 
3040.000000	99.148222 
3039.000000	99.146291 
3038.000000	99.145035 
3037.000000	99.144476 
3036.000000	99.144389 
3035.000000	99.144598 
3034.000000	99.144810 
3033.000000	99.144591 
3032.000000	99.143563 
3031.000000	99.141489 
3030.000000	99.138118 
3029.000000	99.133130 
3028.000000	99.126514 
3027.000000	99.118986 
3026.000000	99.111798 
3025.000000	99.106013 
3024.000000	99.101826 
3023.000000	99.098414 
3022.000000	99.094363 
3021.000000	99.088490 
3020.000000	99.080715 
3019.000000	99.072401 
3018.000000	99.065688 
3017.000000	99.061960 
3016.000000	99.060567 
3015.000000	99.059092 
3014.000000	99.055213 
3013.000000	99.048424 
3012.000000	99.039845 
3011.000000	99.030599 
3010.000000	99.020914 
3009.000000	99.010934 
3008.000000	99.001780 
3007.000000	98.995112 
3006.000000	98.991695 
3005.000000	98.990607 
3004.000000	98.989665 
3003.000000	98.986396 
3002.000000	98.979125 
3001.000000	98.968081 
3000.000000	98.955707 
2999.000000	98.945076 
2998.000000	98.937553 
2997.000000	98.932360 
2996.000000	98.928401 
2995.000000	98.925525 
2994.000000	98.923153 
2993.000000	98.918577 
2992.000000	98.908561 
2991.000000	98.893349 
2990.000000	98.878032 
2989.000000	98.868632 
2988.000000	98.866998 
2987.000000	98.870049 
2986.000000	98.873458 
2985.000000	98.875559 
2984.000000	98.877426 
2983.000000	98.880123 
2982.000000	98.882944 
2981.000000	98.884221 
2980.000000	98.883206 
2979.000000	98.880815 
2978.000000	98.878752 
2977.000000	98.878073 
2976.000000	98.878521 
2975.000000	98.879066 
2974.000000	98.879034 
2973.000000	98.878667 
2972.000000	98.878594 
2971.000000	98.878991 
2970.000000	98.879613 
2969.000000	98.880648 
2968.000000	98.883075 
2967.000000	98.887811 
2966.000000	98.894614 
2965.000000	98.902141 
2964.000000	98.909070 
2963.000000	98.914988 
2962.000000	98.920205 
2961.000000	98.925017 
2960.000000	98.929395 
2959.000000	98.933325 
2958.000000	98.937173 
2957.000000	98.941412 
2956.000000	98.945775 
2955.000000	98.948909 
2954.000000	98.949470 
2953.000000	98.948082 
2952.000000	98.947899 
2951.000000	98.952275 
2950.000000	98.961346 
2949.000000	98.971284 
2948.000000	98.977620 
2947.000000	98.979184 
2946.000000	98.978374 
2945.000000	98.978113 
2944.000000	98.979135 
2943.000000	98.980423 
2942.000000	98.981275 
2941.000000	98.981911 
2940.000000	98.982412 
2939.000000	98.982266 
2938.000000	98.981305 
2937.000000	98.980459 
2936.000000	98.981070 
2935.000000	98.983668 
2934.000000	98.987641 
2933.000000	98.991853 
2932.000000	98.995317 
2931.000000	98.997443 
2930.000000	98.998087 
2929.000000	98.997464 
2928.000000	98.995950 
2927.000000	98.993968 
2926.000000	98.992040 
2925.000000	98.990702 
2924.000000	98.990157 
2923.000000	98.990112 
2922.000000	98.990071 
2921.000000	98.989680 
2920.000000	98.988670 
2919.000000	98.986752 
2918.000000	98.983941 
2917.000000	98.980868 
2916.000000	98.978384 
2915.000000	98.976821 
2914.000000	98.975898 
2913.000000	98.975334 
2912.000000	98.975141 
2911.000000	98.975105 
2910.000000	98.974306 
2909.000000	98.971692 
2908.000000	98.967238 
2907.000000	98.962206 
2906.000000	98.957985 
2905.000000	98.954698 
2904.000000	98.951137 
2903.000000	98.946337 
2902.000000	98.941198 
2901.000000	98.938352 
2900.000000	98.940117 
2899.000000	98.946511 
2898.000000	98.954958 
2897.000000	98.962017 
2896.000000	98.965974 
2895.000000	98.967937 
2894.000000	98.970361 
2893.000000	98.974374 
2892.000000	98.978665 
2891.000000	98.981141 
2890.000000	98.981436 
2889.000000	98.981260 
2888.000000	98.982332 
2887.000000	98.984617 
2886.000000	98.986921 
2885.000000	98.988611 
2884.000000	98.990119 
2883.000000	98.992060 
2882.000000	98.994707 
2881.000000	98.998439 
2880.000000	99.003964 
2879.000000	99.011570 
2878.000000	99.020373 
2877.000000	99.028661 
2876.000000	99.034944 
2875.000000	99.038589 
2874.000000	99.039710 
2873.000000	99.039066 
2872.000000	99.038200 
2871.000000	99.039105 
2870.000000	99.043016 
2869.000000	99.049320 
2868.000000	99.055965 
2867.000000	99.061348 
2866.000000	99.065760 
2865.000000	99.070692 
2864.000000	99.076891 
2863.000000	99.083484 
2862.000000	99.088982 
2861.000000	99.092704 
2860.000000	99.095162 
2859.000000	99.097556 
2858.000000	99.101096 
2857.000000	99.106283 
2856.000000	99.112387 
2855.000000	99.117883 
2854.000000	99.121769 
2853.000000	99.124322 
2852.000000	99.126378 
2851.000000	99.128276 
2850.000000	99.130071 
2849.000000	99.132380 
2848.000000	99.136093 
2847.000000	99.141041 
2846.000000	99.145573 
2845.000000	99.147914 
2844.000000	99.147786 
2843.000000	99.146636 
2842.000000	99.146507 
2841.000000	99.148522 
2840.000000	99.152105 
2839.000000	99.155451 
2838.000000	99.156947 
2837.000000	99.156325 
2836.000000	99.154554 
2835.000000	99.152954 
2834.000000	99.152560 
2833.000000	99.154005 
2832.000000	99.157241 
2831.000000	99.161227 
2830.000000	99.164472 
2829.000000	99.166283 
2828.000000	99.167230 
2827.000000	99.168300 
2826.000000	99.169883 
2825.000000	99.171683 
2824.000000	99.173257 
2823.000000	99.174409 
2822.000000	99.175315 
2821.000000	99.176438 
2820.000000	99.178024 
2819.000000	99.179615 
2818.000000	99.180415 
2817.000000	99.180278 
2816.000000	99.179908 
2815.000000	99.179936 
2814.000000	99.180225 
2813.000000	99.180351 
2812.000000	99.180305 
2811.000000	99.180327 
2810.000000	99.180435 
2809.000000	99.180607 
2808.000000	99.181193 
2807.000000	99.182638 
2806.000000	99.184815 
2805.000000	99.186991 
2804.000000	99.188513 
2803.000000	99.189297 
2802.000000	99.189632 
2801.000000	99.189755 
2800.000000	99.189645 
2799.000000	99.189156 
2798.000000	99.188378 
2797.000000	99.187791 
2796.000000	99.187879 
2795.000000	99.188560 
2794.000000	99.189159 
2793.000000	99.189123 
2792.000000	99.188635 
2791.000000	99.188335 
2790.000000	99.188606 
2789.000000	99.189385 
2788.000000	99.190470 
2787.000000	99.191677 
2786.000000	99.192771 
2785.000000	99.193629 
2784.000000	99.194419 
2783.000000	99.195319 
2782.000000	99.196125 
2781.000000	99.196429 
2780.000000	99.196218 
2779.000000	99.195970 
2778.000000	99.196102 
2777.000000	99.196565 
2776.000000	99.197088 
2775.000000	99.197538 
2774.000000	99.197886 
2773.000000	99.198018 
2772.000000	99.197830 
2771.000000	99.197448 
2770.000000	99.197213 
2769.000000	99.197446 
2768.000000	99.198291 
2767.000000	99.199631 
2766.000000	99.201011 
2765.000000	99.201839 
2764.000000	99.201863 
2763.000000	99.201430 
2762.000000	99.201216 
2761.000000	99.201650 
2760.000000	99.202702 
2759.000000	99.204055 
2758.000000	99.205300 
2757.000000	99.206074 
2756.000000	99.206282 
2755.000000	99.206208 
2754.000000	99.206217 
2753.000000	99.206297 
2752.000000	99.206111 
2751.000000	99.205527 
2750.000000	99.204848 
2749.000000	99.204438 
2748.000000	99.204282 
2747.000000	99.204100 
2746.000000	99.203774 
2745.000000	99.203509 
2744.000000	99.203582 
2743.000000	99.204074 
2742.000000	99.204870 
2741.000000	99.205781 
2740.000000	99.206653 
2739.000000	99.207382 
2738.000000	99.207907 
2737.000000	99.208241 
2736.000000	99.208511 
2735.000000	99.208856 
2734.000000	99.209246 
2733.000000	99.209448 
2732.000000	99.209264 
2731.000000	99.208778 
2730.000000	99.208289 
2729.000000	99.208043 
2728.000000	99.208160 
2727.000000	99.208734 
2726.000000	99.209769 
2725.000000	99.210969 
2724.000000	99.211816 
2723.000000	99.212046 
2722.000000	99.211893 
2721.000000	99.211789 
2720.000000	99.211868 
2719.000000	99.211928 
2718.000000	99.211834 
2717.000000	99.211724 
2716.000000	99.211822 
2715.000000	99.212214 
2714.000000	99.212856 
2713.000000	99.213641 
2712.000000	99.214373 
2711.000000	99.214800 
2710.000000	99.214829 
2709.000000	99.214649 
2708.000000	99.214560 
2707.000000	99.214632 
2706.000000	99.214653 
2705.000000	99.214441 
2704.000000	99.214081 
2703.000000	99.213835 
2702.000000	99.213854 
2701.000000	99.214059 
2700.000000	99.214249 
2699.000000	99.214284 
2698.000000	99.214175 
2697.000000	99.214026 
2696.000000	99.213934 
2695.000000	99.213952 
2694.000000	99.214089 
2693.000000	99.214291 
2692.000000	99.214441 
2691.000000	99.214435 
2690.000000	99.214281 
2689.000000	99.214110 
2688.000000	99.214065 
2687.000000	99.214171 
2686.000000	99.214319 
2685.000000	99.214358 
2684.000000	99.214229 
2683.000000	99.214003 
2682.000000	99.213816 
2681.000000	99.213746 
2680.000000	99.213761 
2679.000000	99.213762 
2678.000000	99.213680 
2677.000000	99.213534 
2676.000000	99.213408 
2675.000000	99.213344 
2674.000000	99.213307 
2673.000000	99.213231 
2672.000000	99.213078 
2671.000000	99.212834 
2670.000000	99.212474 
2669.000000	99.211958 
2668.000000	99.211300 
2667.000000	99.210642 
2666.000000	99.210222 
2665.000000	99.210216 
2664.000000	99.210595 
2663.000000	99.211146 
2662.000000	99.211648 
2661.000000	99.211980 
2660.000000	99.212054 
2659.000000	99.211768 
2658.000000	99.211135 
2657.000000	99.210407 
2656.000000	99.209942 
2655.000000	99.209916 
2654.000000	99.210204 
2653.000000	99.210512 
2652.000000	99.210579 
2651.000000	99.210294 
2650.000000	99.209739 
2649.000000	99.209167 
2648.000000	99.208803 
2647.000000	99.208642 
2646.000000	99.208550 
2645.000000	99.208533 
2644.000000	99.208703 
2643.000000	99.209013 
2642.000000	99.209274 
2641.000000	99.209484 
2640.000000	99.209915 
2639.000000	99.210739 
2638.000000	99.211776 
2637.000000	99.212659 
2636.000000	99.213138 
2635.000000	99.213120 
2634.000000	99.212654 
2633.000000	99.212056 
2632.000000	99.211824 
2631.000000	99.212150 
2630.000000	99.212700 
2629.000000	99.212979 
2628.000000	99.212900 
2627.000000	99.212782 
2626.000000	99.212883 
2625.000000	99.213175 
2624.000000	99.213551 
2623.000000	99.213973 
2622.000000	99.214344 
2621.000000	99.214469 
2620.000000	99.214270 
2619.000000	99.213931 
2618.000000	99.213733 
2617.000000	99.213825 
2616.000000	99.214222 
2615.000000	99.214887 
2614.000000	99.215693 
2613.000000	99.216402 
2612.000000	99.216810 
2611.000000	99.216902 
2610.000000	99.216839 
2609.000000	99.216842 
2608.000000	99.217069 
2607.000000	99.217535 
2606.000000	99.218128 
2605.000000	99.218716 
2604.000000	99.219205 
2603.000000	99.219450 
2602.000000	99.219282 
2601.000000	99.218744 
2600.000000	99.218227 
2599.000000	99.218140 
2598.000000	99.218472 
2597.000000	99.218842 
2596.000000	99.218924 
2595.000000	99.218668 
2594.000000	99.218117 
2593.000000	99.217323 
2592.000000	99.216536 
2591.000000	99.216174 
2590.000000	99.216419 
2589.000000	99.217011 
2588.000000	99.217470 
2587.000000	99.217592 
2586.000000	99.217475 
2585.000000	99.217223 
2584.000000	99.216837 
2583.000000	99.216353 
2582.000000	99.215896 
2581.000000	99.215549 
2580.000000	99.215284 
2579.000000	99.215043 
2578.000000	99.214812 
2577.000000	99.214598 
2576.000000	99.214430 
2575.000000	99.214372 
2574.000000	99.214454 
2573.000000	99.214593 
2572.000000	99.214606 
2571.000000	99.214332 
2570.000000	99.213764 
2569.000000	99.213093 
2568.000000	99.212632 
2567.000000	99.212602 
2566.000000	99.212975 
2565.000000	99.213490 
2564.000000	99.213875 
2563.000000	99.214057 
2562.000000	99.214103 
2561.000000	99.214044 
2560.000000	99.213873 
2559.000000	99.213705 
2558.000000	99.213726 
2557.000000	99.213890 
2556.000000	99.213842 
2555.000000	99.213349 
2554.000000	99.212686 
2553.000000	99.212418 
2552.000000	99.212794 
2551.000000	99.213541 
2550.000000	99.214223 
2549.000000	99.214626 
2548.000000	99.214682 
2547.000000	99.214257 
2546.000000	99.213354 
2545.000000	99.212364 
2544.000000	99.211840 
2543.000000	99.211970 
2542.000000	99.212441 
2541.000000	99.212869 
2540.000000	99.213208 
2539.000000	99.213608 
2538.000000	99.214041 
2537.000000	99.214206 
2536.000000	99.213792 
2535.000000	99.212782 
2534.000000	99.211602 
2533.000000	99.210958 
2532.000000	99.211308 
2531.000000	99.212472 
2530.000000	99.213780 
2529.000000	99.214703 
2528.000000	99.215293 
2527.000000	99.215910 
2526.000000	99.216737 
2525.000000	99.217689 
2524.000000	99.218645 
2523.000000	99.219490 
2522.000000	99.219978 
2521.000000	99.219836 
2520.000000	99.219116 
2519.000000	99.218274 
2518.000000	99.217779 
2517.000000	99.217717 
2516.000000	99.217832 
2515.000000	99.217869 
2514.000000	99.217833 
2513.000000	99.217913 
2512.000000	99.218181 
2511.000000	99.218414 
2510.000000	99.218304 
2509.000000	99.217870 
2508.000000	99.217538 
2507.000000	99.217703 
2506.000000	99.218279 
2505.000000	99.218748 
2504.000000	99.218687 
2503.000000	99.218140 
2502.000000	99.217526 
2501.000000	99.217263 
2500.000000	99.217475 
2499.000000	99.218037 
2498.000000	99.218742 
2497.000000	99.219420 
2496.000000	99.219935 
2495.000000	99.220127 
2494.000000	99.219851 
2493.000000	99.219140 
2492.000000	99.218277 
2491.000000	99.217594 
2490.000000	99.217206 
2489.000000	99.217012 
2488.000000	99.216847 
2487.000000	99.216616 
2486.000000	99.216329 
2485.000000	99.216061 
2484.000000	99.215875 
2483.000000	99.215762 
2482.000000	99.215638 
2481.000000	99.215428 
2480.000000	99.215134 
2479.000000	99.214824 
2478.000000	99.214555 
2477.000000	99.214323 
2476.000000	99.214098 
2475.000000	99.213871 
2474.000000	99.213667 
2473.000000	99.213504 
2472.000000	99.213374 
2471.000000	99.213254 
2470.000000	99.213119 
2469.000000	99.212940 
2468.000000	99.212702 
2467.000000	99.212413 
2466.000000	99.212114 
2465.000000	99.211852 
2464.000000	99.211651 
2463.000000	99.211496 
2462.000000	99.211344 
2461.000000	99.211155 
2460.000000	99.210931 
2459.000000	99.210704 
2458.000000	99.210513 
2457.000000	99.210363 
2456.000000	99.210235 
2455.000000	99.210101 
2454.000000	99.209949 
2453.000000	99.209782 
2452.000000	99.209615 
2451.000000	99.209471 
2450.000000	99.209379 
2449.000000	99.209357 
2448.000000	99.209370 
2447.000000	99.209359 
2446.000000	99.209313 
2445.000000	99.209306 
2444.000000	99.209427 
2443.000000	99.209699 
2442.000000	99.210038 
2441.000000	99.210307 
2440.000000	99.210418 
2439.000000	99.210359 
2438.000000	99.210155 
2437.000000	99.209861 
2436.000000	99.209570 
2435.000000	99.209360 
2434.000000	99.209185 
2433.000000	99.208887 
2432.000000	99.208418 
2431.000000	99.207998 
2430.000000	99.207928 
2429.000000	99.208265 
2428.000000	99.208821 
2427.000000	99.209465 
2426.000000	99.210225 
2425.000000	99.211021 
2424.000000	99.211486 
2423.000000	99.211266 
2422.000000	99.210387 
2421.000000	99.209372 
2420.000000	99.208820 
2419.000000	99.208902 
2418.000000	99.209383 
2417.000000	99.209886 
2416.000000	99.210255 
2415.000000	99.210569 
2414.000000	99.210872 
2413.000000	99.211107 
2412.000000	99.211267 
2411.000000	99.211454 
2410.000000	99.211700 
2409.000000	99.211865 
2408.000000	99.211857 
2407.000000	99.211824 
2406.000000	99.211978 
2405.000000	99.212297 
2404.000000	99.212529 
2403.000000	99.212470 
2402.000000	99.212166 
2401.000000	99.211818 
2400.000000	99.211550 
2399.000000	99.211330 
2398.000000	99.211094 
2397.000000	99.210865 
2396.000000	99.210752 
2395.000000	99.210889 
2394.000000	99.211325 
2393.000000	99.211926 
2392.000000	99.212441 
2391.000000	99.212762 
2390.000000	99.213085 
2389.000000	99.213668 
2388.000000	99.214432 
2387.000000	99.214957 
2386.000000	99.214939 
2385.000000	99.214566 
2384.000000	99.214308 
2383.000000	99.214441 
2382.000000	99.214865 
2381.000000	99.215310 
2380.000000	99.215503 
2379.000000	99.215118 
2378.000000	99.213931 
2377.000000	99.212328 
2376.000000	99.211446 
2375.000000	99.212276 
2374.000000	99.214599 
2373.000000	99.216986 
2372.000000	99.218210 
2371.000000	99.218527 
2370.000000	99.219179 
2369.000000	99.220723 
2368.000000	99.222153 
2367.000000	99.221888 
2366.000000	99.219417 
2365.000000	99.215878 
2364.000000	99.213188 
2363.000000	99.212600 
2362.000000	99.214122 
2361.000000	99.216927 
2360.000000	99.220062 
2359.000000	99.222875 
2358.000000	99.225207 
2357.000000	99.227269 
2356.000000	99.229310 
2355.000000	99.231474 
2354.000000	99.233600 
2353.000000	99.235021 
2352.000000	99.234772 
2351.000000	99.232511 
2350.000000	99.229084 
2349.000000	99.225921 
2348.000000	99.224289 
2347.000000	99.224705 
2346.000000	99.226504 
2345.000000	99.228051 
2344.000000	99.228012 
2343.000000	99.226678 
2342.000000	99.225227 
2341.000000	99.224464 
2340.000000	99.224368 
2339.000000	99.224521 
2338.000000	99.224709 
2337.000000	99.224899 
2336.000000	99.225063 
2335.000000	99.225098 
2334.000000	99.225051 
2333.000000	99.224982 
2332.000000	99.224830 
2331.000000	99.224340 
2330.000000	99.223486 
2329.000000	99.222417 
2328.000000	99.221472 
2327.000000	99.220829 
2326.000000	99.220365 
2325.000000	99.219700 
2324.000000	99.218588 
2323.000000	99.217477 
2322.000000	99.217220 
2321.000000	99.218211 
2320.000000	99.219857 
2319.000000	99.220979 
2318.000000	99.220902 
2317.000000	99.219820 
2316.000000	99.218474 
2315.000000	99.217429 
2314.000000	99.216774 
2313.000000	99.216308 
2312.000000	99.215939 
2311.000000	99.215727 
2310.000000	99.215814 
2309.000000	99.216176 
2308.000000	99.216495 
2307.000000	99.216243 
2306.000000	99.215154 
2305.000000	99.213471 
2304.000000	99.211782 
2303.000000	99.210459 
2302.000000	99.209510 
2301.000000	99.208858 
2300.000000	99.208538 
2299.000000	99.208468 
2298.000000	99.208340 
2297.000000	99.207916 
2296.000000	99.207396 
2295.000000	99.207155 
2294.000000	99.207189 
2293.000000	99.207018 
2292.000000	99.206227 
2291.000000	99.204913 
2290.000000	99.203558 
2289.000000	99.202602 
2288.000000	99.202159 
2287.000000	99.202042 
2286.000000	99.201951 
2285.000000	99.201732 
2284.000000	99.201468 
2283.000000	99.201263 
2282.000000	99.200944 
2281.000000	99.200153 
2280.000000	99.198857 
2279.000000	99.197640 
2278.000000	99.197277 
2277.000000	99.197982 
2276.000000	99.199158 
2275.000000	99.199821 
2274.000000	99.199412 
2273.000000	99.198108 
2272.000000	99.196356 
2271.000000	99.194309 
2270.000000	99.192108 
2269.000000	99.190661 
2268.000000	99.191335 
2267.000000	99.194496 
2266.000000	99.198636 
2265.000000	99.201514 
2264.000000	99.202095 
2263.000000	99.200905 
2262.000000	99.199181 
2261.000000	99.198199 
2260.000000	99.198822 
2259.000000	99.200545 
2258.000000	99.201199 
2257.000000	99.199035 
2256.000000	99.195126 
2255.000000	99.192561 
2254.000000	99.192791 
2253.000000	99.194056 
2252.000000	99.194069 
2251.000000	99.192991 
2250.000000	99.192785 
2249.000000	99.194436 
2248.000000	99.196924 
2247.000000	99.198415 
2246.000000	99.197608 
2245.000000	99.194275 
2244.000000	99.189410 
2243.000000	99.184775 
2242.000000	99.181744 
2241.000000	99.180389 
2240.000000	99.179565 
2239.000000	99.177695 
2238.000000	99.173772 
2237.000000	99.168275 
2236.000000	99.163049 
2235.000000	99.159726 
2234.000000	99.158396 
2233.000000	99.158337 
2232.000000	99.159644 
2231.000000	99.162964 
2230.000000	99.167888 
2229.000000	99.172808 
2228.000000	99.176585 
2227.000000	99.179226 
2226.000000	99.180639 
2225.000000	99.180106 
2224.000000	99.177554 
2223.000000	99.174374 
2222.000000	99.172345 
2221.000000	99.172179 
2220.000000	99.173343 
2219.000000	99.174778 
2218.000000	99.175584 
2217.000000	99.175692 
2216.000000	99.176129 
2215.000000	99.178048 
2214.000000	99.181085 
2213.000000	99.183127 
2212.000000	99.182267 
2211.000000	99.178801 
2210.000000	99.175219 
2209.000000	99.174074 
2208.000000	99.175737 
2207.000000	99.178143 
2206.000000	99.178738 
2205.000000	99.176836 
2204.000000	99.173782 
2203.000000	99.171124 
2202.000000	99.169132 
2201.000000	99.167446 
2200.000000	99.166110 
2199.000000	99.165105 
2198.000000	99.163660 
2197.000000	99.161356 
2196.000000	99.159561 
2195.000000	99.160374 
2194.000000	99.164193 
2193.000000	99.169317 
2192.000000	99.173607 
2191.000000	99.175902 
2190.000000	99.175887 
2189.000000	99.173883 
2188.000000	99.171228 
2187.000000	99.169829 
2186.000000	99.170616 
2185.000000	99.172986 
2184.000000	99.175674 
2183.000000	99.177763 
2182.000000	99.178706 
2181.000000	99.178337 
2180.000000	99.177356 
2179.000000	99.176937 
2178.000000	99.177310 
2177.000000	99.177361 
2176.000000	99.175992 
2175.000000	99.173244 
2174.000000	99.169986 
2173.000000	99.167263 
2172.000000	99.166066 
2171.000000	99.166801 
2170.000000	99.168715 
2169.000000	99.170503 
2168.000000	99.171865 
2167.000000	99.173600 
2166.000000	99.175876 
2165.000000	99.177567 
2164.000000	99.177822 
2163.000000	99.177273 
2162.000000	99.177256 
2161.000000	99.178373 
2160.000000	99.180231 
2159.000000	99.182023 
2158.000000	99.183062 
2157.000000	99.183227 
2156.000000	99.183090 
2155.000000	99.183383 
2154.000000	99.184184 
2153.000000	99.184931 
2152.000000	99.185179 
2151.000000	99.185116 
2150.000000	99.185301 
2149.000000	99.186080 
2148.000000	99.187389 
2147.000000	99.188832 
2146.000000	99.189853 
2145.000000	99.190102 
2144.000000	99.189725 
2143.000000	99.189297 
2142.000000	99.189178 
2141.000000	99.189229 
2140.000000	99.189251 
2139.000000	99.189292 
2138.000000	99.189453 
2137.000000	99.189629 
2136.000000	99.189653 
2135.000000	99.189549 
2134.000000	99.189481 
2133.000000	99.189519 
2132.000000	99.189573 
2131.000000	99.189490 
2130.000000	99.189139 
2129.000000	99.188480 
2128.000000	99.187657 
2127.000000	99.186987 
2126.000000	99.186705 
2125.000000	99.186708 
2124.000000	99.186625 
2123.000000	99.186408 
2122.000000	99.186411 
2121.000000	99.186739 
2120.000000	99.186892 
2119.000000	99.186375 
2118.000000	99.185308 
2117.000000	99.184234 
2116.000000	99.183426 
2115.000000	99.182799 
2114.000000	99.182301 
2113.000000	99.182018 
2112.000000	99.181981 
2111.000000	99.182058 
2110.000000	99.181996 
2109.000000	99.181533 
2108.000000	99.180675 
2107.000000	99.179812 
2106.000000	99.179224 
2105.000000	99.178498 
2104.000000	99.176950 
2103.000000	99.174650 
2102.000000	99.172561 
2101.000000	99.171474 
2100.000000	99.171343 
2099.000000	99.171739 
2098.000000	99.172439 
2097.000000	99.173380 
2096.000000	99.174367 
2095.000000	99.174969 
2094.000000	99.174436 
2093.000000	99.171990 
2092.000000	99.168004 
2091.000000	99.164784 
2090.000000	99.164742 
2089.000000	99.167648 
2088.000000	99.170473 
2087.000000	99.170693 
2086.000000	99.168990 
2085.000000	99.167890 
2084.000000	99.168741 
2083.000000	99.170798 
2082.000000	99.172623 
2081.000000	99.173465 
2080.000000	99.173477 
2079.000000	99.173377 
2078.000000	99.173903 
2077.000000	99.175314 
2076.000000	99.177538 
2075.000000	99.180696 
2074.000000	99.184691 
2073.000000	99.188291 
2072.000000	99.189754 
2071.000000	99.188747 
2070.000000	99.186884 
2069.000000	99.185864 
2068.000000	99.185697 
2067.000000	99.185333 
2066.000000	99.184265 
2065.000000	99.182808 
2064.000000	99.181438 
2063.000000	99.180660 
2062.000000	99.181082 
2061.000000	99.182938 
2060.000000	99.185618 
2059.000000	99.188017 
2058.000000	99.189086 
2057.000000	99.188225 
2056.000000	99.185522 
2055.000000	99.181773 
2054.000000	99.178106 
2053.000000	99.175382 
2052.000000	99.174088 
2051.000000	99.174449 
2050.000000	99.175955 
2049.000000	99.176946 
2048.000000	99.175726 
2047.000000	99.172338 
2046.000000	99.168538 
2045.000000	99.165871 
2044.000000	99.164473 
2043.000000	99.163718 
2042.000000	99.163275 
2041.000000	99.163098 
2040.000000	99.163029 
2039.000000	99.162952 
2038.000000	99.162950 
2037.000000	99.162960 
2036.000000	99.162580 
2035.000000	99.161516 
2034.000000	99.159958 
2033.000000	99.158289 
2032.000000	99.156631 
2031.000000	99.154951 
2030.000000	99.153424 
2029.000000	99.152319 
2028.000000	99.151611 
2027.000000	99.151004 
2026.000000	99.150377 
2025.000000	99.149995 
2024.000000	99.150090 
2023.000000	99.150442 
2022.000000	99.150560 
2021.000000	99.150235 
2020.000000	99.149722 
2019.000000	99.149427 
2018.000000	99.149453 
2017.000000	99.149604 
2016.000000	99.149632 
2015.000000	99.149487 
2014.000000	99.149260 
2013.000000	99.149075 
2012.000000	99.149012 
2011.000000	99.149087 
2010.000000	99.149274 
2009.000000	99.149539 
2008.000000	99.149840 
2007.000000	99.150113 
2006.000000	99.150294 
2005.000000	99.150371 
2004.000000	99.150397 
2003.000000	99.150439 
2002.000000	99.150522 
2001.000000	99.150632 
2000.000000	99.150756 
1999.000000	99.150891 
1998.000000	99.151038 
1997.000000	99.151203 
1996.000000	99.151390 
1995.000000	99.151601 
1994.000000	99.151827 
1993.000000	99.152051 
1992.000000	99.152255 
1991.000000	99.152429 
1990.000000	99.152579 
1989.000000	99.152721 
1988.000000	99.152866 
1987.000000	99.153010 
1986.000000	99.153130 
1985.000000	99.153196 
1984.000000	99.153189 
1983.000000	99.153109 
1982.000000	99.152968 
1981.000000	99.152779 
1980.000000	99.152553 
1979.000000	99.152303 
1978.000000	99.152040 
1977.000000	99.151770 
1976.000000	99.151493 
1975.000000	99.151194 
1974.000000	99.150884 
1973.000000	99.150647 
1972.000000	99.150588 
1971.000000	99.150724 
1970.000000	99.150929 
1969.000000	99.150988 
1968.000000	99.150736 
1967.000000	99.150234 
1966.000000	99.149838 
1965.000000	99.149844 
1964.000000	99.150211 
1963.000000	99.150704 
1962.000000	99.151226 
1961.000000	99.151746 
1960.000000	99.152064 
1959.000000	99.152076 
1958.000000	99.152238 
1957.000000	99.153144 
1956.000000	99.154586 
1955.000000	99.155547 
1954.000000	99.155249 
1953.000000	99.153838 
1952.000000	99.151887 
1951.000000	99.149688 
1950.000000	99.147480 
1949.000000	99.145899 
1948.000000	99.145660 
1947.000000	99.146566 
1946.000000	99.147096 
1945.000000	99.145572 
1944.000000	99.142138 
1943.000000	99.139285 
1942.000000	99.139527 
1941.000000	99.142671 
1940.000000	99.146099 
1939.000000	99.147812 
1938.000000	99.148425 
1937.000000	99.150030 
1936.000000	99.153554 
1935.000000	99.157547 
1934.000000	99.159720 
1933.000000	99.159616 
1932.000000	99.159200 
1931.000000	99.160789 
1930.000000	99.164596 
1929.000000	99.168354 
1928.000000	99.170213 
1927.000000	99.170672 
1926.000000	99.171387 
1925.000000	99.172818 
1924.000000	99.173744 
1923.000000	99.173640 
1922.000000	99.173538 
1921.000000	99.174147 
1920.000000	99.174190 
1919.000000	99.171744 
1918.000000	99.166647 
1917.000000	99.161137 
1916.000000	99.157802 
1915.000000	99.157297 
1914.000000	99.158632 
1913.000000	99.160822 
1912.000000	99.163411 
1911.000000	99.165940 
1910.000000	99.167437 
1909.000000	99.167142 
1908.000000	99.165991 
1907.000000	99.165887 
1906.000000	99.167638 
1905.000000	99.170212 
1904.000000	99.171923 
1903.000000	99.172317 
1902.000000	99.171870 
1901.000000	99.171002 
1900.000000	99.170089 
1899.000000	99.169607 
1898.000000	99.169753 
1897.000000	99.170198 
1896.000000	99.170406 
1895.000000	99.170257 
1894.000000	99.169917 
1893.000000	99.169505 
1892.000000	99.169250 
1891.000000	99.169524 
1890.000000	99.170246 
1889.000000	99.170700 
1888.000000	99.170606 
1887.000000	99.170628 
1886.000000	99.171339 
1885.000000	99.172460 
1884.000000	99.173321 
1883.000000	99.173763 
1882.000000	99.174091 
1881.000000	99.174431 
1880.000000	99.174747 
1879.000000	99.175234 
1878.000000	99.176270 
1877.000000	99.177963 
1876.000000	99.179835 
1875.000000	99.181198 
1874.000000	99.181703 
1873.000000	99.181331 
1872.000000	99.180292 
1871.000000	99.179036 
1870.000000	99.178151 
1869.000000	99.177972 
1868.000000	99.178476 
1867.000000	99.179621 
1866.000000	99.181137 
1865.000000	99.182199 
1864.000000	99.182029 
1863.000000	99.180668 
1862.000000	99.179045 
1861.000000	99.178183 
1860.000000	99.178519 
1859.000000	99.179982 
1858.000000	99.182094 
1857.000000	99.184034 
1856.000000	99.185221 
1855.000000	99.185886 
1854.000000	99.186641 
1853.000000	99.187451 
1852.000000	99.187851 
1851.000000	99.187822 
1850.000000	99.187841 
1849.000000	99.188487 
1848.000000	99.189824 
1847.000000	99.191445 
1846.000000	99.192712 
1845.000000	99.193081 
1844.000000	99.192508 
1843.000000	99.191878 
1842.000000	99.192107 
1841.000000	99.192732 
1840.000000	99.192766 
1839.000000	99.191874 
1838.000000	99.190494 
1837.000000	99.189225 
1836.000000	99.188293 
1835.000000	99.187883 
1834.000000	99.188144 
1833.000000	99.188856 
1832.000000	99.189484 
1831.000000	99.189530 
1830.000000	99.189023 
1829.000000	99.188718 
1828.000000	99.189175 
1827.000000	99.189984 
1826.000000	99.190397 
1825.000000	99.190312 
1824.000000	99.190128 
1823.000000	99.190060 
1822.000000	99.189840 
1821.000000	99.189277 
1820.000000	99.188794 
1819.000000	99.188969 
1818.000000	99.189894 
1817.000000	99.190943 
1816.000000	99.191342 
1815.000000	99.191136 
1814.000000	99.190940 
1813.000000	99.191193 
1812.000000	99.191776 
1811.000000	99.192362 
1810.000000	99.192962 
1809.000000	99.193489 
1808.000000	99.193513 
1807.000000	99.192839 
1806.000000	99.191808 
1805.000000	99.190929 
1804.000000	99.190414 
1803.000000	99.190281 
1802.000000	99.190424 
1801.000000	99.190613 
1800.000000	99.190633 
1799.000000	99.190537 
1798.000000	99.190708 
1797.000000	99.191298 
1796.000000	99.192110 
1795.000000	99.192892 
1794.000000	99.193505 
1793.000000	99.193839 
1792.000000	99.193718 
1791.000000	99.193248 
1790.000000	99.192965 
1789.000000	99.193033 
1788.000000	99.193298 
1787.000000	99.193739 
1786.000000	99.194388 
1785.000000	99.194913 
1784.000000	99.194903 
1783.000000	99.194549 
1782.000000	99.194179 
1781.000000	99.193854 
1780.000000	99.193471 
1779.000000	99.192920 
1778.000000	99.192500 
1777.000000	99.192458 
1776.000000	99.192858 
1775.000000	99.193374 
1774.000000	99.193492 
1773.000000	99.193210 
1772.000000	99.193039 
1771.000000	99.193299 
1770.000000	99.193890 
1769.000000	99.194439 
1768.000000	99.194698 
1767.000000	99.194741 
1766.000000	99.194777 
1765.000000	99.194937 
1764.000000	99.195194 
1763.000000	99.195475 
1762.000000	99.195693 
1761.000000	99.195879 
1760.000000	99.196140 
1759.000000	99.196444 
1758.000000	99.196742 
1757.000000	99.197035 
1756.000000	99.197384 
1755.000000	99.197729 
1754.000000	99.197942 
1753.000000	99.198024 
1752.000000	99.198132 
1751.000000	99.198338 
1750.000000	99.198550 
1749.000000	99.198692 
1748.000000	99.198790 
1747.000000	99.198933 
1746.000000	99.199125 
1745.000000	99.199329 
1744.000000	99.199523 
1743.000000	99.199692 
1742.000000	99.199840 
1741.000000	99.199959 
1740.000000	99.200048 
1739.000000	99.200132 
1738.000000	99.200244 
1737.000000	99.200362 
1736.000000	99.200460 
1735.000000	99.200532 
1734.000000	99.200573 
1733.000000	99.200585 
1732.000000	99.200568 
1731.000000	99.200526 
1730.000000	99.200458 
1729.000000	99.200368 
1728.000000	99.200261 
1727.000000	99.200147 
1726.000000	99.200030 
1725.000000	99.199912 
1724.000000	99.199786 
1723.000000	99.199645 
1722.000000	99.199483 
1721.000000	99.199297 
1720.000000	99.199087 
1719.000000	99.198854 
1718.000000	99.198596 
1717.000000	99.198310 
1716.000000	99.197994 
1715.000000	99.197652 
1714.000000	99.197291 
1713.000000	99.196914 
1712.000000	99.196520 
1711.000000	99.196108 
1710.000000	99.195683 
1709.000000	99.195244 
1708.000000	99.194793 
1707.000000	99.194328 
1706.000000	99.193849 
1705.000000	99.193354 
1704.000000	99.192840 
1703.000000	99.192310 
1702.000000	99.191767 
1701.000000	99.191215 
1700.000000	99.190658 
1699.000000	99.190104 
1698.000000	99.189559 
1697.000000	99.189015 
1696.000000	99.188461 
1695.000000	99.187892 
1694.000000	99.187311 
1693.000000	99.186726 
1692.000000	99.186144 
1691.000000	99.185570 
1690.000000	99.185009 
1689.000000	99.184462 
1688.000000	99.183925 
1687.000000	99.183395 
1686.000000	99.182868 
1685.000000	99.182340 
1684.000000	99.181807 
1683.000000	99.181267 
1682.000000	99.180723 
1681.000000	99.180176 
1680.000000	99.179629 
1679.000000	99.179087 
1678.000000	99.178557 
1677.000000	99.178043 
1676.000000	99.177549 
1675.000000	99.177078 
1674.000000	99.176634 
1673.000000	99.176210 
1672.000000	99.175795 
1671.000000	99.175382 
1670.000000	99.174967 
1669.000000	99.174552 
1668.000000	99.174144 
1667.000000	99.173747 
1666.000000	99.173363 
1665.000000	99.172992 
1664.000000	99.172637 
1663.000000	99.172304 
1662.000000	99.171991 
1661.000000	99.171699 
1660.000000	99.171434 
1659.000000	99.171201 
1658.000000	99.170996 
1657.000000	99.170806 
1656.000000	99.170618 
1655.000000	99.170434 
1654.000000	99.170319 
1653.000000	99.170187 
1652.000000	99.169939 
1651.000000	99.169887 
1650.000000	99.169967 
1649.000000	99.169947 
1648.000000	99.169878 
1647.000000	99.169847 
1646.000000	99.169813 
1645.000000	99.169897 
1644.000000	99.170196 
1643.000000	99.170577 
1642.000000	99.170860 
1641.000000	99.170896 
1640.000000	99.170723 
1639.000000	99.170460 
1638.000000	99.170299 
1637.000000	99.170530 
1636.000000	99.171268 
1635.000000	99.171882 
1634.000000	99.172272 
1633.000000	99.172779 
1632.000000	99.172681 
1631.000000	99.171889 
1630.000000	99.170991 
1629.000000	99.170507 
1628.000000	99.170583 
1627.000000	99.171250 
1626.000000	99.172194 
1625.000000	99.172905 
1624.000000	99.173402 
1623.000000	99.174035 
1622.000000	99.175003 
1621.000000	99.176324 
1620.000000	99.177863 
1619.000000	99.179155 
1618.000000	99.180143 
1617.000000	99.180694 
1616.000000	99.181022 
1615.000000	99.182399 
1614.000000	99.184623 
1613.000000	99.186350 
1612.000000	99.187892 
1611.000000	99.190365 
1610.000000	99.192917 
1609.000000	99.193669 
1608.000000	99.192815 
1607.000000	99.192299 
1606.000000	99.192642 
1605.000000	99.193041 
1604.000000	99.193704 
1603.000000	99.194964 
1602.000000	99.196505 
1601.000000	99.197905 
1600.000000	99.199342 
1599.000000	99.200946 
1598.000000	99.202244 
1597.000000	99.203013 
1596.000000	99.203612 
1595.000000	99.204256 
1594.000000	99.204596 
1593.000000	99.204556 
1592.000000	99.204898 
1591.000000	99.206182 
1590.000000	99.207766 
1589.000000	99.208688 
1588.000000	99.209093 
1587.000000	99.209802 
1586.000000	99.210926 
1585.000000	99.211687 
1584.000000	99.212004 
1583.000000	99.212218 
1582.000000	99.211976 
1581.000000	99.211167 
1580.000000	99.210318 
1579.000000	99.209837 
1578.000000	99.209659 
1577.000000	99.209820 
1576.000000	99.210164 
1575.000000	99.210519 
1574.000000	99.210849 
1573.000000	99.210978 
1572.000000	99.210982 
1571.000000	99.211157 
1570.000000	99.211516 
1569.000000	99.211750 
1568.000000	99.211835 
1567.000000	99.211836 
1566.000000	99.211727 
1565.000000	99.211579 
1564.000000	99.211504 
1563.000000	99.211500 
1562.000000	99.211492 
1561.000000	99.211455 
1560.000000	99.211453 
1559.000000	99.211462 
1558.000000	99.211417 
1557.000000	99.211364 
1556.000000	99.211305 
1555.000000	99.211223 
1554.000000	99.211115 
1553.000000	99.210986 
1552.000000	99.210839 
1551.000000	99.210676 
1550.000000	99.210501 
1549.000000	99.210320 
1548.000000	99.210138 
1547.000000	99.209955 
1546.000000	99.209773 
1545.000000	99.209598 
1544.000000	99.209437 
1543.000000	99.209297 
1542.000000	99.209174 
1541.000000	99.209063 
1540.000000	99.208947 
1539.000000	99.208816 
1538.000000	99.208671 
1537.000000	99.208524 
1536.000000	99.208366 
1535.000000	99.208192 
1534.000000	99.208004 
1533.000000	99.207790 
1532.000000	99.207548 
1531.000000	99.207306 
1530.000000	99.207090 
1529.000000	99.206896 
1528.000000	99.206694 
1527.000000	99.206475 
1526.000000	99.206267 
1525.000000	99.206108 
1524.000000	99.206006 
1523.000000	99.205957 
1522.000000	99.205994 
1521.000000	99.205929 
1520.000000	99.205557 
1519.000000	99.204916 
1518.000000	99.204055 
1517.000000	99.203217 
1516.000000	99.202610 
1515.000000	99.202212 
1514.000000	99.201866 
1513.000000	99.201495 
1512.000000	99.201131 
1511.000000	99.200700 
1510.000000	99.200169 
1509.000000	99.199653 
1508.000000	99.199631 
1507.000000	99.200183 
1506.000000	99.200277 
1505.000000	99.199780 
1504.000000	99.199423 
1503.000000	99.199169 
1502.000000	99.199011 
1501.000000	99.199003 
1500.000000	99.198905 
1499.000000	99.198384 
1498.000000	99.197490 
1497.000000	99.196623 
1496.000000	99.195824 
1495.000000	99.195211 
1494.000000	99.195137 
1493.000000	99.195547 
1492.000000	99.196144 
1491.000000	99.196704 
1490.000000	99.196968 
1489.000000	99.196491 
1488.000000	99.195006 
1487.000000	99.192970 
1486.000000	99.191181 
1485.000000	99.189633 
1484.000000	99.188265 
1483.000000	99.187358 
1482.000000	99.187162 
1481.000000	99.187500 
1480.000000	99.187595 
1479.000000	99.186993 
1478.000000	99.185856 
1477.000000	99.184679 
1476.000000	99.183657 
1475.000000	99.183054 
1474.000000	99.183255 
1473.000000	99.184183 
1472.000000	99.184894 
1471.000000	99.184848 
1470.000000	99.184686 
1469.000000	99.184412 
1468.000000	99.183546 
1467.000000	99.182232 
1466.000000	99.181180 
1465.000000	99.180696 
1464.000000	99.180660 
1463.000000	99.180606 
1462.000000	99.180218 
1461.000000	99.179152 
1460.000000	99.177396 
1459.000000	99.175250 
1458.000000	99.172885 
1457.000000	99.169270 
1456.000000	99.164386 
1455.000000	99.161463 
1454.000000	99.160432 
1453.000000	99.160403 
1452.000000	99.162097 
1451.000000	99.164886 
1450.000000	99.167158 
1449.000000	99.167788 
1448.000000	99.166540 
1447.000000	99.164705 
1446.000000	99.163550 
1445.000000	99.163436 
1444.000000	99.164141 
1443.000000	99.164078 
1442.000000	99.163383 
1441.000000	99.163705 
1440.000000	99.165775 
1439.000000	99.167638 
1438.000000	99.168375 
1437.000000	99.169007 
1436.000000	99.168881 
1435.000000	99.167080 
1434.000000	99.163821 
1433.000000	99.159788 
1432.000000	99.156339 
1431.000000	99.154432 
1430.000000	99.153624 
1429.000000	99.153011 
1428.000000	99.151297 
1427.000000	99.148344 
1426.000000	99.144462 
1425.000000	99.140901 
1424.000000	99.139130 
1423.000000	99.137746 
1422.000000	99.134846 
1421.000000	99.130297 
1420.000000	99.125822 
1419.000000	99.121946 
1418.000000	99.118125 
1417.000000	99.114874 
1416.000000	99.111470 
1415.000000	99.106704 
1414.000000	99.100866 
1413.000000	99.095614 
1412.000000	99.092033 
1411.000000	99.089201 
1410.000000	99.086013 
1409.000000	99.082941 
1408.000000	99.080779 
1407.000000	99.080029 
1406.000000	99.080476 
1405.000000	99.081646 
1404.000000	99.083669 
1403.000000	99.086544 
1402.000000	99.090319 
1401.000000	99.094985 
1400.000000	99.100115 
1399.000000	99.104040 
1398.000000	99.104749 
1397.000000	99.101345 
1396.000000	99.094265 
1395.000000	99.086522 
1394.000000	99.082929 
1393.000000	99.086338 
1392.000000	99.095047 
1391.000000	99.104328 
1390.000000	99.110646 
1389.000000	99.113408 
1388.000000	99.113674 
1387.000000	99.112612 
1386.000000	99.111302 
1385.000000	99.110777 
1384.000000	99.111401 
1383.000000	99.112393 
1382.000000	99.112904 
1381.000000	99.113134 
1380.000000	99.114270 
1379.000000	99.117295 
1378.000000	99.121800 
1377.000000	99.126425 
1376.000000	99.130206 
1375.000000	99.133208 
1374.000000	99.135900 
1373.000000	99.138819 
1372.000000	99.142329 
1371.000000	99.146309 
1370.000000	99.150131 
1369.000000	99.153293 
1368.000000	99.155968 
1367.000000	99.158495 
1366.000000	99.161126 
1365.000000	99.164045 
1364.000000	99.167418 
1363.000000	99.170954 
1362.000000	99.173773 
1361.000000	99.175322 
1360.000000	99.176143 
1359.000000	99.177500 
1358.000000	99.180388 
1357.000000	99.184717 
1356.000000	99.189222 
1355.000000	99.192415 
1354.000000	99.194141 
1353.000000	99.195725 
1352.000000	99.198003 
1351.000000	99.200450 
1350.000000	99.202039 
1349.000000	99.202892 
1348.000000	99.204181 
1347.000000	99.205997 
1346.000000	99.207375 
1345.000000	99.207706 
1344.000000	99.207421 
1343.000000	99.206982 
1342.000000	99.206594 
1341.000000	99.206998 
1340.000000	99.209328 
1339.000000	99.213302 
1338.000000	99.216988 
1337.000000	99.219133 
1336.000000	99.220257 
1335.000000	99.221134 
1334.000000	99.221458 
1333.000000	99.220646 
1332.000000	99.219104 
1331.000000	99.217792 
1330.000000	99.216941 
1329.000000	99.216125 
1328.000000	99.215249 
1327.000000	99.214590 
1326.000000	99.213984 
1325.000000	99.213093 
1324.000000	99.212389 
1323.000000	99.212699 
1322.000000	99.214132 
1321.000000	99.216027 
1320.000000	99.217972 
1319.000000	99.220079 
1318.000000	99.222143 
1317.000000	99.223187 
1316.000000	99.222309 
1315.000000	99.219787 
1314.000000	99.217095 
1313.000000	99.215682 
1312.000000	99.215755 
1311.000000	99.216373 
1310.000000	99.216564 
1309.000000	99.216190 
1308.000000	99.215696 
1307.000000	99.215482 
1306.000000	99.215618 
1305.000000	99.216070 
1304.000000	99.216855 
1303.000000	99.217738 
1302.000000	99.218296 
1301.000000	99.218254 
1300.000000	99.217719 
1299.000000	99.217125 
1298.000000	99.217184 
1297.000000	99.218472 
1296.000000	99.220659 
1295.000000	99.222359 
1294.000000	99.222327 
1293.000000	99.220819 
1292.000000	99.219251 
1291.000000	99.218645 
1290.000000	99.218946 
1289.000000	99.219697 
1288.000000	99.220509 
1287.000000	99.220727 
1286.000000	99.219549 
1285.000000	99.216959 
1284.000000	99.213962 
1283.000000	99.211561 
1282.000000	99.209807 
1281.000000	99.208182 
1280.000000	99.206499 
1279.000000	99.204858 
1278.000000	99.203188 
1277.000000	99.201553 
1276.000000	99.200573 
1275.000000	99.200812 
1274.000000	99.201719 
1273.000000	99.201804 
1272.000000	99.200062 
1271.000000	99.196920 
1270.000000	99.193723 
1269.000000	99.191485 
1268.000000	99.190143 
1267.000000	99.188757 
1266.000000	99.186351 
1265.000000	99.182848 
1264.000000	99.179215 
1263.000000	99.176464 
1262.000000	99.174529 
1261.000000	99.172490 
1260.000000	99.169964 
1259.000000	99.167663 
1258.000000	99.166212 
1257.000000	99.165078 
1256.000000	99.163362 
1255.000000	99.161371 
1254.000000	99.160443 
1253.000000	99.161078 
1252.000000	99.162108 
1251.000000	99.162242 
1250.000000	99.161771 
1249.000000	99.162045 
1248.000000	99.163621 
1247.000000	99.165547 
1246.000000	99.166161 
1245.000000	99.163947 
1244.000000	99.158105 
1243.000000	99.149707 
1242.000000	99.142370 
1241.000000	99.140089 
1240.000000	99.143546 
1239.000000	99.149148 
1238.000000	99.152451 
1237.000000	99.152072 
1236.000000	99.149468 
1235.000000	99.146136 
1234.000000	99.142497 
1233.000000	99.138896 
1232.000000	99.135694 
1231.000000	99.132135 
1230.000000	99.126844 
1229.000000	99.120177 
1228.000000	99.114775 
1227.000000	99.112703 
1226.000000	99.112823 
1225.000000	99.112121 
1224.000000	99.109166 
1223.000000	99.105146 
1222.000000	99.101720 
1221.000000	99.098972 
1220.000000	99.095847 
1219.000000	99.091752 
1218.000000	99.087048 
1217.000000	99.082205 
1216.000000	99.076979 
1215.000000	99.070561 
1214.000000	99.062312 
1213.000000	99.052288 
1212.000000	99.041240 
1211.000000	99.030387 
1210.000000	99.021068 
1209.000000	99.014076 
1208.000000	99.008875 
1207.000000	99.003504 
1206.000000	98.995797 
1205.000000	98.985107 
1204.000000	98.972811 
1203.000000	98.961142 
1202.000000	98.951479 
1201.000000	98.943543 
1200.000000	98.935912 
1199.000000	98.927276 
1198.000000	98.917438 
1197.000000	98.907068 
1196.000000	98.896273 
1195.000000	98.883958 
1194.000000	98.869294 
1193.000000	98.853564 
1192.000000	98.839560 
1191.000000	98.828579 
1190.000000	98.818715 
1189.000000	98.806975 
1188.000000	98.792710 
1187.000000	98.778188 
1186.000000	98.766019 
1185.000000	98.756715 
1184.000000	98.748641 
1183.000000	98.739517 
1182.000000	98.727884 
1181.000000	98.713927 
1180.000000	98.699227 
1179.000000	98.685298 
1178.000000	98.672224 
1177.000000	98.659065 
1176.000000	98.645325 
1175.000000	98.631146 
1174.000000	98.616022 
1173.000000	98.598582 
1172.000000	98.578424 
1171.000000	98.557473 
1170.000000	98.538520 
1169.000000	98.522580 
1168.000000	98.508326 
1167.000000	98.494064 
1166.000000	98.479944 
1165.000000	98.468305 
1164.000000	98.462058 
1163.000000	98.462518 
1162.000000	98.468409 
1161.000000	98.476890 
1160.000000	98.485389 
1159.000000	98.491970 
1158.000000	98.494218 
1157.000000	98.489049 
1156.000000	98.474725 
1155.000000	98.453333 
1154.000000	98.430714 
1153.000000	98.412807 
1152.000000	98.401267 
1151.000000	98.392521 
1150.000000	98.381300 
1149.000000	98.365431 
1148.000000	98.347191 
1147.000000	98.330144 
1146.000000	98.315196 
1145.000000	98.300262 
1144.000000	98.283114 
1143.000000	98.263492 
1142.000000	98.242790 
1141.000000	98.222934 
1140.000000	98.205733 
1139.000000	98.191973 
1138.000000	98.180304 
1137.000000	98.167783 
1136.000000	98.152240 
1135.000000	98.133679 
1134.000000	98.113097 
1133.000000	98.090799 
1132.000000	98.066724 
1131.000000	98.041972 
1130.000000	98.018879 
1129.000000	97.999101 
1128.000000	97.981832 
1127.000000	97.964070 
1126.000000	97.942964 
1125.000000	97.918367 
1124.000000	97.893097 
1123.000000	97.870217 
1122.000000	97.850022 
1121.000000	97.830226 
1120.000000	97.808930 
1119.000000	97.786423 
1118.000000	97.763888 
1117.000000	97.741455 
1116.000000	97.718327 
1115.000000	97.694280 
1114.000000	97.670361 
1113.000000	97.648127 
1112.000000	97.628284 
1111.000000	97.609741 
1110.000000	97.590059 
1109.000000	97.567596 
1108.000000	97.543494 
1107.000000	97.520874 
1106.000000	97.501596 
1105.000000	97.484200 
1104.000000	97.465376 
1103.000000	97.443311 
1102.000000	97.419423 
1101.000000	97.396981 
1100.000000	97.378216 
1099.000000	97.362729 
1098.000000	97.348408 
1097.000000	97.333544 
1096.000000	97.317686 
1095.000000	97.300676 
1094.000000	97.281818 
1093.000000	97.260355 
1092.000000	97.236036 
1091.000000	97.208915 
1090.000000	97.179545 
1089.000000	97.149902 
1088.000000	97.122928 
1087.000000	97.099976 
1086.000000	97.079436 
1085.000000	97.059068 
1084.000000	97.038909 
1083.000000	97.020296 
1082.000000	97.002650 
1081.000000	96.983360 
1080.000000	96.960970 
1079.000000	96.936708 
1078.000000	96.912643 
1077.000000	96.890124 
1076.000000	96.870433 
1075.000000	96.854992 
1074.000000	96.843794 
1073.000000	96.834541 
1072.000000	96.823466 
1071.000000	96.805932 
1070.000000	96.777203 
1069.000000	96.735723 
1068.000000	96.686775 
1067.000000	96.640931 
1066.000000	96.606630 
1065.000000	96.584501 
1064.000000	96.568934 
1063.000000	96.553122 
1062.000000	96.532029 
1061.000000	96.502968 
1060.000000	96.465994 
1059.000000	96.424193 
1058.000000	96.382640 
1057.000000	96.346021 
1056.000000	96.316093 
1055.000000	96.290474 
1054.000000	96.264509 
1053.000000	96.235600 
1052.000000	96.205362 
1051.000000	96.176375 
1050.000000	96.147837 
1049.000000	96.116381 
1048.000000	96.080271 
1047.000000	96.040782 
1046.000000	96.000565 
1045.000000	95.962487 
1044.000000	95.928565 
1043.000000	95.897853 
1042.000000	95.866780 
1041.000000	95.833769 
1040.000000	95.801980 
1039.000000	95.775200 
1038.000000	95.753250 
1037.000000	95.734393 
1036.000000	95.719919 
1035.000000	95.712243 
1034.000000	95.709976 
1033.000000	95.708916 
1032.000000	95.706605 
1031.000000	95.702232 
1030.000000	95.694333 
1029.000000	95.683884 
1028.000000	95.678100 
1027.000000	95.684778 
1026.000000	95.702222 
1025.000000	95.719633 
1024.000000	95.728243 
1023.000000	95.728001 
1022.000000	95.723535 
1021.000000	95.718820 
1020.000000	95.716688 
1019.000000	95.718629 
1018.000000	95.723052 
1017.000000	95.726934 
1016.000000	95.730008 
1015.000000	95.734095 
1014.000000	95.738218 
1013.000000	95.738568 
1012.000000	95.734202 
1011.000000	95.729039 
1010.000000	95.727260 
1009.000000	95.730131 
1008.000000	95.737876 
1007.000000	95.750713 
1006.000000	95.766930 
1005.000000	95.783513 
1004.000000	95.799918 
1003.000000	95.818274 
1002.000000	95.839194 
1001.000000	95.860527 
1000.000000	95.880706 
999.000000	 95.900045 
998.000000	 95.918285 
997.000000	 95.934557 
996.000000	 95.950649 
995.000000	 95.970686 
994.000000	 95.996131 
993.000000	 96.023898 
992.000000	 96.050396 
991.000000	 96.074713 
990.000000	 96.097224 
989.000000	 96.118380 
988.000000	 96.140072 
987.000000	 96.165181 
986.000000	 96.194216 
985.000000	 96.224658 
984.000000	 96.254677 
983.000000	 96.285336 
982.000000	 96.318385 
981.000000	 96.354079 
980.000000	 96.392076 
979.000000	 96.432720 
978.000000	 96.476661 
977.000000	 96.524418 
976.000000	 96.575907 
975.000000	 96.628684 
974.000000	 96.677716 
973.000000	 96.719902 
972.000000	 96.758510 
971.000000	 96.800285 
970.000000	 96.848132 
969.000000	 96.899157 
968.000000	 96.949523 
967.000000	 96.997986 
966.000000	 97.044499 
965.000000	 97.088678 
964.000000	 97.130654 
963.000000	 97.171148 
962.000000	 97.210103 
961.000000	 97.247147 
960.000000	 97.283204 
959.000000	 97.319167 
958.000000	 97.353215 
957.000000	 97.382546 
956.000000	 97.407992 
955.000000	 97.433823 
954.000000	 97.462227 
953.000000	 97.490911 
952.000000	 97.517141 
951.000000	 97.541008 
950.000000	 97.563280 
949.000000	 97.582952 
948.000000	 97.598999 
947.000000	 97.612500 
946.000000	 97.625027 
945.000000	 97.636334 
944.000000	 97.645456 
943.000000	 97.653108 
942.000000	 97.661581 
941.000000	 97.672818 
940.000000	 97.686988 
939.000000	 97.701769 
938.000000	 97.713075 
937.000000	 97.718562 
936.000000	 97.721161 
935.000000	 97.727300 
934.000000	 97.740545 
933.000000	 97.758533 
932.000000	 97.776822 
931.000000	 97.793572 
930.000000	 97.809092 
929.000000	 97.822744 
928.000000	 97.832512 
927.000000	 97.837245 
926.000000	 97.838162 
925.000000	 97.838385 
924.000000	 97.841410 
923.000000	 97.849083 
922.000000	 97.860162 
921.000000	 97.871214 
920.000000	 97.879201 
919.000000	 97.882896 
918.000000	 97.882608 
917.000000	 97.880127 
916.000000	 97.878664 
915.000000	 97.880811 
914.000000	 97.886009 
913.000000	 97.891729 
912.000000	 97.897753 
911.000000	 97.907560 
910.000000	 97.924839 
909.000000	 97.950290 
908.000000	 97.982103 
907.000000	 98.017220 
906.000000	 98.051198 
905.000000	 98.079491 
904.000000	 98.101287 
903.000000	 98.121420 
902.000000	 98.146683 
901.000000	 98.179955 
900.000000	 98.218199 
899.000000	 98.255395 
898.000000	 98.286890 
897.000000	 98.311717 
896.000000	 98.331837 
895.000000	 98.349812 
894.000000	 98.367321 
893.000000	 98.385568 
892.000000	 98.406073 
891.000000	 98.430051 
890.000000	 98.457306 
889.000000	 98.486448 
888.000000	 98.515613 
887.000000	 98.542249 
886.000000	 98.563594 
885.000000	 98.579433 
884.000000	 98.593756 
883.000000	 98.611170 
882.000000	 98.631373 
881.000000	 98.649831 
880.000000	 98.664699 
879.000000	 98.680223 
878.000000	 98.701305 
877.000000	 98.726631 
876.000000	 98.749670 
875.000000	 98.765518 
874.000000	 98.774732 
873.000000	 98.781379 
872.000000	 98.789614 
871.000000	 98.802119 
870.000000	 98.819876 
869.000000	 98.842454 
868.000000	 98.868714 
867.000000	 98.896819 
866.000000	 98.923418 
865.000000	 98.944669 
864.000000	 98.960042 
863.000000	 98.974390 
862.000000	 98.993513 
861.000000	 99.016968 
860.000000	 99.037747 
859.000000	 99.050281 
858.000000	 99.056638 
857.000000	 99.063311 
856.000000	 99.073805 
855.000000	 99.086968 
854.000000	 99.100895 
853.000000	 99.114511 
852.000000	 99.125552 
851.000000	 99.131471 
850.000000	 99.134185 
849.000000	 99.140360 
848.000000	 99.154006 
847.000000	 99.170689 
846.000000	 99.181864 
845.000000	 99.183731 
844.000000	 99.179536 
843.000000	 99.174846 
842.000000	 99.173191 
841.000000	 99.174973 
840.000000	 99.177057 
839.000000	 99.173668 
838.000000	 99.161505 
837.000000	 99.144866 
836.000000	 99.132566 
835.000000	 99.128480 
834.000000	 99.128061 
833.000000	 99.125984 
832.000000	 99.124003 
831.000000	 99.127718 
830.000000	 99.137228 
829.000000	 99.145310 
828.000000	 99.145605 
827.000000	 99.139526 
826.000000	 99.133436 
825.000000	 99.130950 
824.000000	 99.130452 
823.000000	 99.129761 
822.000000	 99.130486 
821.000000	 99.136014 
820.000000	 99.146265 
819.000000	 99.156835 
818.000000	 99.163808 
817.000000	 99.167352 
816.000000	 99.168770 
815.000000	 99.165662 
814.000000	 99.153540 
813.000000	 99.132282 
812.000000	 99.107199 
811.000000	 99.081779 
810.000000	 99.051910 
809.000000	 99.009891 
808.000000	 98.952612 
807.000000	 98.883591 
806.000000	 98.808293 
805.000000	 98.730213 
804.000000	 98.651929 
803.000000	 98.577885 
802.000000	 98.514627 
801.000000	 98.468151 
800.000000	 98.440406 
799.000000	 98.427780 
798.000000	 98.424431 
797.000000	 98.428241 
796.000000	 98.441380 
795.000000	 98.463806 
794.000000	 98.489467 
793.000000	 98.511643 
792.000000	 98.529375 
791.000000	 98.545377 
790.000000	 98.560180 
789.000000	 98.571766 
788.000000	 98.578256 
787.000000	 98.576747 
786.000000	 98.562038 
785.000000	 98.531934 
784.000000	 98.493120 
783.000000	 98.457112 
782.000000	 98.430306 
781.000000	 98.411733 
780.000000	 98.399368 
779.000000	 98.393325 
778.000000	 98.392955 
777.000000	 98.396837 
776.000000	 98.407249 
775.000000	 98.429262 
774.000000	 98.462708 
773.000000	 98.499021 
772.000000	 98.528952 
771.000000	 98.551137 
770.000000	 98.571130 
769.000000	 98.593911 
768.000000	 98.618830 
767.000000	 98.640554 
766.000000	 98.654245 
765.000000	 98.660872 
764.000000	 98.667005 
763.000000	 98.677602 
762.000000	 98.689749 
761.000000	 98.696268 
760.000000	 98.695163 
759.000000	 98.692435 
758.000000	 98.695311 
757.000000	 98.705230 
756.000000	 98.717576 
755.000000	 98.725598 
754.000000	 98.724997 
753.000000	 98.718378 
752.000000	 98.715872 
751.000000	 98.727775 
750.000000	 98.754556 
749.000000	 98.785326 
748.000000	 98.807461 
747.000000	 98.817120 
746.000000	 98.820096 
745.000000	 98.825160 
744.000000	 98.837456 
743.000000	 98.856050 
742.000000	 98.875869 
741.000000	 98.892946 
740.000000	 98.908569 
739.000000	 98.927047 
738.000000	 98.949058 
737.000000	 98.968979 
736.000000	 98.979864 
735.000000	 98.979899 
734.000000	 98.973868 
733.000000	 98.969561 
732.000000	 98.972631 
731.000000	 98.983427 
730.000000	 98.997695 
729.000000	 99.011223 
728.000000	 99.024037 
727.000000	 99.038181 
726.000000	 99.051683 
725.000000	 99.058661 
724.000000	 99.056833 
723.000000	 99.051591 
722.000000	 99.050324 
721.000000	 99.055414 
720.000000	 99.065349 
719.000000	 99.079271 
718.000000	 99.096062 
717.000000	 99.110894 
716.000000	 99.117355 
715.000000	 99.113706 
714.000000	 99.104992 
713.000000	 99.098658 
712.000000	 99.099791 
711.000000	 99.109190 
710.000000	 99.122696 
709.000000	 99.133148 
708.000000	 99.135690 
707.000000	 99.130717 
706.000000	 99.120837 
705.000000	 99.106953 
704.000000	 99.089506 
703.000000	 99.071923 
702.000000	 99.059468 
701.000000	 99.053386 
700.000000	 99.048146 
699.000000	 99.036154 
698.000000	 99.015232 
697.000000	 98.991545 
696.000000	 98.974949 
695.000000	 98.970871 
694.000000	 98.977172 
693.000000	 98.988612 
692.000000	 99.002696 
691.000000	 99.019797 
690.000000	 99.038932 
689.000000	 99.056906 
688.000000	 99.071877 
687.000000	 99.084477 
686.000000	 99.094541 
685.000000	 99.099689 
684.000000	 99.098859 
683.000000	 99.095254 
682.000000	 99.093982 
681.000000	 99.097454 
680.000000	 99.103749 
679.000000	 99.108899 
678.000000	 99.110816 
677.000000	 99.111513 
676.000000	 99.115370 
675.000000	 99.123907 
674.000000	 99.133076 
673.000000	 99.137391 
672.000000	 99.136372 
671.000000	 99.135229 
670.000000	 99.139972 
669.000000	 99.153291 
668.000000	 99.169392 
667.000000	 99.177739 
666.000000	 99.177706 
665.000000	 99.174543 
664.000000	 99.172471 
663.000000	 99.174583 
662.000000	 99.180951 
661.000000	 99.187570 
660.000000	 99.190345 
659.000000	 99.189432 
658.000000	 99.188278 
657.000000	 99.189428 
656.000000	 99.192846 
655.000000	 99.197782 
654.000000	 99.203607 
653.000000	 99.209426 
652.000000	 99.214419 
651.000000	 99.218471 
650.000000	 99.221862 

