4000.000000	98.994732 
3999.000000	98.995662 
3998.000000	98.996210 
3997.000000	98.996090 
3996.000000	98.995305 
3995.000000	98.994106 
3994.000000	98.992969 
3993.000000	98.992455 
3992.000000	98.992849 
3991.000000	98.993872 
3990.000000	98.994853 
3989.000000	98.995342 
3988.000000	98.995515 
3987.000000	98.995854 
3986.000000	98.996508 
3985.000000	98.997081 
3984.000000	98.997017 
3983.000000	98.996061 
3982.000000	98.994369 
3981.000000	98.992283 
3980.000000	98.990030 
3979.000000	98.987684 
3978.000000	98.985469 
3977.000000	98.983985 
3976.000000	98.983874 
3975.000000	98.985267 
3974.000000	98.987715 
3973.000000	98.990421 
3972.000000	98.992599 
3971.000000	98.993837 
3970.000000	98.994105 
3969.000000	98.993565 
3968.000000	98.992476 
3967.000000	98.991149 
3966.000000	98.989905 
3965.000000	98.989060 
3964.000000	98.988741 
3963.000000	98.988683 
3962.000000	98.988368 
3961.000000	98.987470 
3960.000000	98.986139 
3959.000000	98.984873 
3958.000000	98.984087 
3957.000000	98.983804 
3956.000000	98.983756 
3955.000000	98.983676 
3954.000000	98.983456 
3953.000000	98.983082 
3952.000000	98.982572 
3951.000000	98.982042 
3950.000000	98.981716 
3949.000000	98.981730 
3948.000000	98.981953 
3947.000000	98.982055 
3946.000000	98.981835 
3945.000000	98.981437 
3944.000000	98.981197 
3943.000000	98.981239 
3942.000000	98.981318 
3941.000000	98.981138 
3940.000000	98.980622 
3939.000000	98.979835 
3938.000000	98.978818 
3937.000000	98.977629 
3936.000000	98.976554 
3935.000000	98.976091 
3934.000000	98.976603 
3933.000000	98.977991 
3932.000000	98.979619 
3931.000000	98.980670 
3930.000000	98.980727 
3929.000000	98.979930 
3928.000000	98.978821 
3927.000000	98.977983 
3926.000000	98.977766 
3925.000000	98.978174 
3924.000000	98.978801 
3923.000000	98.979098 
3922.000000	98.978814 
3921.000000	98.978182 
3920.000000	98.977723 
3919.000000	98.977893 
3918.000000	98.978866 
3917.000000	98.980435 
3916.000000	98.982060 
3915.000000	98.983169 
3914.000000	98.983573 
3913.000000	98.983527 
3912.000000	98.983357 
3911.000000	98.983187 
3910.000000	98.983019 
3909.000000	98.982924 
3908.000000	98.982982 
3907.000000	98.983043 
3906.000000	98.982708 
3905.000000	98.981678 
3904.000000	98.980048 
3903.000000	98.978361 
3902.000000	98.977340 
3901.000000	98.977371 
3900.000000	98.978293 
3899.000000	98.979454 
3898.000000	98.980154 
3897.000000	98.980189 
3896.000000	98.979796 
3895.000000	98.979309 
3894.000000	98.978915 
3893.000000	98.978628 
3892.000000	98.978381 
3891.000000	98.978113 
3890.000000	98.977817 
3889.000000	98.977534 
3888.000000	98.977312 
3887.000000	98.977260 
3886.000000	98.977418 
3885.000000	98.977586 
3884.000000	98.977519 
3883.000000	98.977290 
3882.000000	98.977236 
3881.000000	98.977530 
3880.000000	98.977975 
3879.000000	98.978235 
3878.000000	98.978250 
3877.000000	98.978207 
3876.000000	98.978301 
3875.000000	98.978559 
3874.000000	98.978844 
3873.000000	98.979008 
3872.000000	98.979065 
3871.000000	98.979153 
3870.000000	98.979366 
3869.000000	98.979670 
3868.000000	98.979978 
3867.000000	98.980264 
3866.000000	98.980587 
3865.000000	98.980997 
3864.000000	98.981467 
3863.000000	98.981927 
3862.000000	98.982344 
3861.000000	98.982741 
3860.000000	98.983170 
3859.000000	98.983672 
3858.000000	98.984239 
3857.000000	98.984813 
3856.000000	98.985314 
3855.000000	98.985749 
3854.000000	98.986258 
3853.000000	98.986892 
3852.000000	98.987482 
3851.000000	98.987897 
3850.000000	98.988163 
3849.000000	98.988386 
3848.000000	98.988636 
3847.000000	98.988910 
3846.000000	98.989182 
3845.000000	98.989439 
3844.000000	98.989704 
3843.000000	98.990065 
3842.000000	98.990584 
3841.000000	98.991229 
3840.000000	98.991916 
3839.000000	98.992568 
3838.000000	98.993074 
3837.000000	98.993354 
3836.000000	98.993411 
3835.000000	98.993353 
3834.000000	98.993329 
3833.000000	98.993478 
3832.000000	98.993857 
3831.000000	98.994315 
3830.000000	98.994568 
3829.000000	98.994443 
3828.000000	98.994018 
3827.000000	98.993637 
3826.000000	98.993629 
3825.000000	98.993958 
3824.000000	98.994225 
3823.000000	98.994205 
3822.000000	98.994225 
3821.000000	98.994751 
3820.000000	98.995636 
3819.000000	98.996306 
3818.000000	98.996454 
3817.000000	98.996246 
3816.000000	98.995957 
3815.000000	98.995334 
3814.000000	98.993887 
3813.000000	98.991886 
3812.000000	98.990419 
3811.000000	98.990257 
3810.000000	98.991131 
3809.000000	98.992092 
3808.000000	98.992686 
3807.000000	98.993407 
3806.000000	98.994594 
3805.000000	98.995565 
3804.000000	98.995430 
3803.000000	98.994347 
3802.000000	98.993557 
3801.000000	98.993791 
3800.000000	98.994170 
3799.000000	98.993562 
3798.000000	98.991967 
3797.000000	98.990273 
3796.000000	98.989176 
3795.000000	98.988481 
3794.000000	98.987638 
3793.000000	98.986538 
3792.000000	98.985505 
3791.000000	98.984704 
3790.000000	98.983989 
3789.000000	98.983191 
3788.000000	98.982312 
3787.000000	98.981335 
3786.000000	98.980285 
3785.000000	98.979494 
3784.000000	98.979424 
3783.000000	98.980072 
3782.000000	98.980941 
3781.000000	98.981742 
3780.000000	98.982651 
3779.000000	98.983744 
3778.000000	98.984528 
3777.000000	98.984458 
3776.000000	98.983572 
3775.000000	98.982642 
3774.000000	98.982303 
3773.000000	98.982318 
3772.000000	98.982056 
3771.000000	98.981480 
3770.000000	98.980879 
3769.000000	98.980115 
3768.000000	98.979039 
3767.000000	98.978049 
3766.000000	98.977748 
3765.000000	98.978218 
3764.000000	98.978633 
3763.000000	98.978012 
3762.000000	98.976491 
3761.000000	98.975548 
3760.000000	98.976346 
3759.000000	98.978376 
3758.000000	98.980324 
3757.000000	98.981704 
3756.000000	98.982521 
3755.000000	98.982612 
3754.000000	98.982198 
3753.000000	98.982372 
3752.000000	98.983765 
3751.000000	98.984801 
3750.000000	98.984055 
3749.000000	98.983286 
3748.000000	98.984217 
3747.000000	98.985415 
3746.000000	98.984979 
3745.000000	98.983553 
3744.000000	98.982464 
3743.000000	98.980628 
3742.000000	98.976492 
3741.000000	98.970641 
3740.000000	98.964568 
3739.000000	98.958777 
3738.000000	98.953743 
3737.000000	98.951749 
3736.000000	98.954811 
3735.000000	98.960434 
3734.000000	98.962962 
3733.000000	98.960559 
3732.000000	98.956480 
3731.000000	98.953908 
3730.000000	98.952782 
3729.000000	98.951396 
3728.000000	98.949530 
3727.000000	98.948389 
3726.000000	98.947863 
3725.000000	98.946081 
3724.000000	98.942519 
3723.000000	98.939463 
3722.000000	98.939098 
3721.000000	98.941201 
3720.000000	98.943323 
3719.000000	98.942726 
3718.000000	98.938660 
3717.000000	98.932499 
3716.000000	98.925517 
3715.000000	98.917851 
3714.000000	98.909718 
3713.000000	98.902785 
3712.000000	98.898760 
3711.000000	98.897156 
3710.000000	98.895499 
3709.000000	98.891159 
3708.000000	98.883004 
3707.000000	98.871866 
3706.000000	98.859804 
3705.000000	98.848961 
3704.000000	98.840448 
3703.000000	98.833815 
3702.000000	98.827210 
3701.000000	98.818989 
3700.000000	98.809194 
3699.000000	98.799012 
3698.000000	98.789784 
3697.000000	98.782749 
3696.000000	98.778370 
3695.000000	98.776051 
3694.000000	98.775005 
3693.000000	98.774705 
3692.000000	98.774078 
3691.000000	98.771254 
3690.000000	98.765044 
3689.000000	98.756610 
3688.000000	98.748796 
3687.000000	98.743207 
3686.000000	98.739019 
3685.000000	98.735268 
3684.000000	98.732003 
3683.000000	98.729072 
3682.000000	98.725256 
3681.000000	98.719399 
3680.000000	98.711745 
3679.000000	98.702647 
3678.000000	98.691523 
3677.000000	98.679132 
3676.000000	98.669258 
3675.000000	98.663982 
3674.000000	98.660460 
3673.000000	98.654884 
3672.000000	98.646249 
3671.000000	98.637156 
3670.000000	98.630540 
3669.000000	98.625487 
3668.000000	98.619426 
3667.000000	98.612259 
3666.000000	98.605451 
3665.000000	98.599563 
3664.000000	98.593417 
3663.000000	98.585319 
3662.000000	98.574984 
3661.000000	98.563590 
3660.000000	98.552216 
3659.000000	98.540811 
3658.000000	98.529251 
3657.000000	98.518614 
3656.000000	98.510497 
3655.000000	98.505143 
3654.000000	98.501125 
3653.000000	98.496100 
3652.000000	98.487368 
3651.000000	98.473056 
3650.000000	98.454238 
3649.000000	98.436019 
3648.000000	98.424109 
3647.000000	98.419654 
3646.000000	98.419262 
3645.000000	98.419431 
3644.000000	98.419175 
3643.000000	98.419182 
3642.000000	98.420204 
3641.000000	98.421475 
3640.000000	98.421052 
3639.000000	98.417538 
3638.000000	98.411016 
3637.000000	98.402410 
3636.000000	98.392482 
3635.000000	98.381964 
3634.000000	98.371797 
3633.000000	98.362374 
3632.000000	98.352915 
3631.000000	98.342240 
3630.000000	98.330784 
3629.000000	98.319903 
3628.000000	98.308986 
3627.000000	98.298334 
3626.000000	98.290974 
3625.000000	98.289059 
3624.000000	98.291878 
3623.000000	98.296764 
3622.000000	98.301195 
3621.000000	98.305426 
3620.000000	98.311624 
3619.000000	98.319930 
3618.000000	98.328058 
3617.000000	98.335411 
3616.000000	98.343949 
3615.000000	98.356012 
3614.000000	98.371590 
3613.000000	98.387602 
3612.000000	98.400779 
3611.000000	98.410929 
3610.000000	98.420117 
3609.000000	98.429400 
3608.000000	98.437333 
3607.000000	98.442467 
3606.000000	98.446510 
3605.000000	98.452774 
3604.000000	98.462700 
3603.000000	98.475047 
3602.000000	98.487367 
3601.000000	98.498007 
3600.000000	98.505938 
3599.000000	98.510124 
3598.000000	98.510797 
3597.000000	98.510127 
3596.000000	98.510894 
3595.000000	98.515068 
3594.000000	98.522263 
3593.000000	98.530012 
3592.000000	98.535822 
3591.000000	98.538147 
3590.000000	98.537440 
3589.000000	98.536712 
3588.000000	98.539364 
3587.000000	98.544202 
3586.000000	98.546674 
3585.000000	98.545148 
3584.000000	98.542469 
3583.000000	98.541982 
3582.000000	98.544494 
3581.000000	98.548117 
3580.000000	98.550317 
3579.000000	98.549992 
3578.000000	98.547850 
3577.000000	98.545522 
3576.000000	98.544311 
3575.000000	98.544573 
3574.000000	98.545781 
3573.000000	98.546769 
3572.000000	98.546468 
3571.000000	98.544251 
3570.000000	98.539790 
3569.000000	98.533829 
3568.000000	98.529031 
3567.000000	98.527656 
3566.000000	98.528731 
3565.000000	98.529740 
3564.000000	98.529930 
3563.000000	98.530654 
3562.000000	98.533439 
3561.000000	98.537962 
3560.000000	98.542026 
3559.000000	98.543501 
3558.000000	98.542324 
3557.000000	98.540366 
3556.000000	98.539555 
3555.000000	98.540155 
3554.000000	98.540930 
3553.000000	98.540422 
3552.000000	98.538055 
3551.000000	98.534325 
3550.000000	98.530095 
3549.000000	98.525990 
3548.000000	98.522665 
3547.000000	98.520817 
3546.000000	98.520655 
3545.000000	98.521332 
3544.000000	98.521656 
3543.000000	98.521379 
3542.000000	98.521404 
3541.000000	98.522607 
3540.000000	98.524914 
3539.000000	98.527323 
3538.000000	98.528812 
3537.000000	98.529057 
3536.000000	98.528364 
3535.000000	98.527302 
3534.000000	98.526251 
3533.000000	98.525342 
3532.000000	98.524599 
3531.000000	98.524066 
3530.000000	98.523629 
3529.000000	98.522872 
3528.000000	98.521461 
3527.000000	98.519753 
3526.000000	98.518740 
3525.000000	98.519118 
3524.000000	98.520560 
3523.000000	98.521958 
3522.000000	98.522522 
3521.000000	98.522362 
3520.000000	98.522104 
3519.000000	98.522219 
3518.000000	98.522768 
3517.000000	98.523504 
3516.000000	98.524041 
3515.000000	98.524093 
3514.000000	98.523636 
3513.000000	98.522884 
3512.000000	98.522116 
3511.000000	98.521488 
3510.000000	98.521019 
3509.000000	98.520678 
3508.000000	98.520431 
3507.000000	98.520211 
3506.000000	98.519950 
3505.000000	98.519637 
3504.000000	98.519325 
3503.000000	98.519090 
3502.000000	98.519047 
3501.000000	98.519355 
3500.000000	98.520082 
3499.000000	98.520981 
3498.000000	98.521495 
3497.000000	98.521173 
3496.000000	98.520033 
3495.000000	98.518569 
3494.000000	98.517372 
3493.000000	98.516700 
3492.000000	98.516495 
3491.000000	98.516584 
3490.000000	98.516796 
3489.000000	98.517030 
3488.000000	98.517269 
3487.000000	98.517508 
3486.000000	98.517615 
3485.000000	98.517347 
3484.000000	98.516580 
3483.000000	98.515480 
3482.000000	98.514375 
3481.000000	98.513443 
3480.000000	98.512618 
3479.000000	98.511761 
3478.000000	98.510758 
3477.000000	98.509535 
3476.000000	98.508204 
3475.000000	98.507228 
3474.000000	98.507158 
3473.000000	98.507994 
3472.000000	98.508870 
3471.000000	98.508767 
3470.000000	98.507520 
3469.000000	98.505902 
3468.000000	98.504741 
3467.000000	98.504096 
3466.000000	98.503521 
3465.000000	98.502806 
3464.000000	98.502098 
3463.000000	98.501416 
3462.000000	98.500444 
3461.000000	98.498983 
3460.000000	98.497338 
3459.000000	98.496011 
3458.000000	98.495073 
3457.000000	98.494046 
3456.000000	98.492500 
3455.000000	98.490620 
3454.000000	98.489034 
3453.000000	98.488139 
3452.000000	98.487616 
3451.000000	98.486681 
3450.000000	98.484796 
3449.000000	98.482085 
3448.000000	98.479080 
3447.000000	98.476169 
3446.000000	98.473409 
3445.000000	98.470909 
3444.000000	98.469079 
3443.000000	98.468234 
3442.000000	98.468006 
3441.000000	98.467459 
3440.000000	98.465965 
3439.000000	98.463765 
3438.000000	98.461468 
3437.000000	98.459189 
3436.000000	98.456568 
3435.000000	98.453664 
3434.000000	98.451366 
3433.000000	98.450674 
3432.000000	98.451675 
3431.000000	98.453404 
3430.000000	98.454712 
3429.000000	98.455213 
3428.000000	98.455239 
3427.000000	98.454988 
3426.000000	98.453962 
3425.000000	98.451421 
3424.000000	98.447396 
3423.000000	98.443090 
3422.000000	98.440006 
3421.000000	98.438707 
3420.000000	98.438673 
3419.000000	98.439135 
3418.000000	98.439796 
3417.000000	98.440672 
3416.000000	98.441589 
3415.000000	98.442116 
3414.000000	98.441905 
3413.000000	98.440939 
3412.000000	98.439546 
3411.000000	98.438226 
3410.000000	98.437307 
3409.000000	98.436621 
3408.000000	98.435616 
3407.000000	98.433891 
3406.000000	98.431682 
3405.000000	98.429748 
3404.000000	98.428786 
3403.000000	98.428916 
3402.000000	98.429618 
3401.000000	98.430223 
3400.000000	98.430531 
3399.000000	98.430924 
3398.000000	98.431809 
3397.000000	98.433013 
3396.000000	98.433870 
3395.000000	98.433851 
3394.000000	98.432920 
3393.000000	98.431359 
3392.000000	98.429568 
3391.000000	98.428074 
3390.000000	98.427474 
3389.000000	98.428097 
3388.000000	98.429743 
3387.000000	98.431855 
3386.000000	98.433933 
3385.000000	98.435783 
3384.000000	98.437377 
3383.000000	98.438577 
3382.000000	98.439061 
3381.000000	98.438615 
3380.000000	98.437485 
3379.000000	98.436408 
3378.000000	98.436082 
3377.000000	98.436575 
3376.000000	98.437385 
3375.000000	98.438036 
3374.000000	98.438532 
3373.000000	98.439204 
3372.000000	98.440239 
3371.000000	98.441488 
3370.000000	98.442643 
3369.000000	98.443474 
3368.000000	98.443954 
3367.000000	98.444263 
3366.000000	98.444686 
3365.000000	98.445396 
3364.000000	98.446332 
3363.000000	98.447286 
3362.000000	98.448090 
3361.000000	98.448714 
3360.000000	98.449209 
3359.000000	98.449634 
3358.000000	98.450055 
3357.000000	98.450568 
3356.000000	98.451264 
3355.000000	98.452140 
3354.000000	98.453066 
3353.000000	98.453880 
3352.000000	98.454541 
3351.000000	98.455149 
3350.000000	98.455850 
3349.000000	98.456719 
3348.000000	98.457727 
3347.000000	98.458771 
3346.000000	98.459727 
3345.000000	98.460536 
3344.000000	98.461254 
3343.000000	98.462037 
3342.000000	98.463004 
3341.000000	98.464083 
3340.000000	98.465015 
3339.000000	98.465585 
3338.000000	98.465871 
3337.000000	98.466246 
3336.000000	98.467052 
3335.000000	98.468302 
3334.000000	98.469723 
3333.000000	98.471117 
3332.000000	98.472567 
3331.000000	98.474200 
3330.000000	98.475806 
3329.000000	98.476882 
3328.000000	98.477147 
3327.000000	98.476887 
3326.000000	98.476665 
3325.000000	98.476707 
3324.000000	98.476722 
3323.000000	98.476406 
3322.000000	98.475995 
3321.000000	98.476165 
3320.000000	98.477384 
3319.000000	98.479484 
3318.000000	98.481802 
3317.000000	98.483702 
3316.000000	98.484918 
3315.000000	98.485521 
3314.000000	98.485839 
3313.000000	98.486469 
3312.000000	98.488095 
3311.000000	98.490983 
3310.000000	98.494560 
3309.000000	98.497669 
3308.000000	98.499471 
3307.000000	98.499936 
3306.000000	98.499595 
3305.000000	98.499093 
3304.000000	98.498984 
3303.000000	98.499578 
3302.000000	98.500639 
3301.000000	98.501396 
3300.000000	98.501260 
3299.000000	98.500538 
3298.000000	98.500234 
3297.000000	98.501072 
3296.000000	98.502813 
3295.000000	98.504514 
3294.000000	98.505375 
3293.000000	98.505351 
3292.000000	98.505077 
3291.000000	98.505200 
3290.000000	98.505727 
3289.000000	98.506104 
3288.000000	98.505954 
3287.000000	98.505570 
3286.000000	98.505548 
3285.000000	98.506065 
3284.000000	98.506786 
3283.000000	98.507426 
3282.000000	98.508132 
3281.000000	98.509205 
3280.000000	98.510694 
3279.000000	98.512357 
3278.000000	98.513866 
3277.000000	98.514957 
3276.000000	98.515493 
3275.000000	98.515548 
3274.000000	98.515448 
3273.000000	98.515597 
3272.000000	98.516236 
3271.000000	98.517331 
3270.000000	98.518661 
3269.000000	98.519989 
3268.000000	98.521161 
3267.000000	98.522116 
3266.000000	98.522830 
3265.000000	98.523317 
3264.000000	98.523719 
3263.000000	98.524335 
3262.000000	98.525444 
3261.000000	98.527055 
3260.000000	98.528847 
3259.000000	98.530396 
3258.000000	98.531505 
3257.000000	98.532275 
3256.000000	98.532962 
3255.000000	98.533770 
3254.000000	98.534771 
3253.000000	98.535958 
3252.000000	98.537343 
3251.000000	98.538935 
3250.000000	98.540641 
3249.000000	98.542254 
3248.000000	98.543591 
3247.000000	98.544623 
3246.000000	98.545454 
3245.000000	98.546214 
3244.000000	98.547016 
3243.000000	98.547956 
3242.000000	98.549035 
3241.000000	98.550111 
3240.000000	98.551043 
3239.000000	98.551932 
3238.000000	98.553129 
3237.000000	98.554937 
3236.000000	98.557347 
3235.000000	98.560006 
3234.000000	98.562370 
3233.000000	98.564002 
3232.000000	98.564823 
3231.000000	98.565202 
3230.000000	98.565720 
3229.000000	98.566725 
3228.000000	98.568114 
3227.000000	98.569509 
3226.000000	98.570560 
3225.000000	98.571174 
3224.000000	98.571551 
3223.000000	98.572067 
3222.000000	98.572993 
3221.000000	98.574289 
3220.000000	98.575681 
3219.000000	98.576943 
3218.000000	98.578094 
3217.000000	98.579343 
3216.000000	98.580924 
3215.000000	98.582925 
3214.000000	98.585115 
3213.000000	98.586954 
3212.000000	98.587990 
3211.000000	98.588263 
3210.000000	98.588280 
3209.000000	98.588539 
3208.000000	98.589162 
3207.000000	98.590047 
3206.000000	98.591126 
3205.000000	98.592350 
3204.000000	98.593574 
3203.000000	98.594676 
3202.000000	98.595705 
3201.000000	98.596805 
3200.000000	98.598002 
3199.000000	98.599204 
3198.000000	98.600355 
3197.000000	98.601512 
3196.000000	98.602783 
3195.000000	98.604262 
3194.000000	98.605961 
3193.000000	98.607712 
3192.000000	98.609201 
3191.000000	98.610198 
3190.000000	98.610740 
3189.000000	98.611076 
3188.000000	98.611460 
3187.000000	98.612065 
3186.000000	98.613049 
3185.000000	98.614499 
3184.000000	98.616321 
3183.000000	98.618205 
3182.000000	98.619822 
3181.000000	98.621074 
3180.000000	98.622172 
3179.000000	98.623446 
3178.000000	98.625020 
3177.000000	98.626640 
3176.000000	98.627949 
3175.000000	98.628935 
3174.000000	98.629961 
3173.000000	98.631264 
3172.000000	98.632561 
3171.000000	98.633381 
3170.000000	98.633686 
3169.000000	98.633992 
3168.000000	98.634814 
3167.000000	98.636132 
3166.000000	98.637520 
3165.000000	98.638639 
3164.000000	98.639555 
3163.000000	98.640585 
3162.000000	98.641969 
3161.000000	98.643721 
3160.000000	98.645684 
3159.000000	98.647621 
3158.000000	98.649264 
3157.000000	98.650401 
3156.000000	98.651037 
3155.000000	98.651440 
3154.000000	98.651882 
3153.000000	98.652319 
3152.000000	98.652490 
3151.000000	98.652409 
3150.000000	98.652606 
3149.000000	98.653666 
3148.000000	98.655652 
3147.000000	98.658063 
3146.000000	98.660321 
3145.000000	98.662185 
3144.000000	98.663713 
3143.000000	98.665068 
3142.000000	98.666404 
3141.000000	98.667796 
3140.000000	98.669150 
3139.000000	98.670225 
3138.000000	98.670845 
3137.000000	98.671108 
3136.000000	98.671398 
3135.000000	98.672168 
3134.000000	98.673619 
3133.000000	98.675555 
3132.000000	98.677500 
3131.000000	98.679083 
3130.000000	98.680276 
3129.000000	98.681290 
3128.000000	98.682322 
3127.000000	98.683479 
3126.000000	98.684809 
3125.000000	98.686221 
3124.000000	98.687397 
3123.000000	98.687969 
3122.000000	98.687897 
3121.000000	98.687632 
3120.000000	98.687761 
3119.000000	98.688513 
3118.000000	98.689685 
3117.000000	98.690997 
3116.000000	98.692407 
3115.000000	98.694024 
3114.000000	98.695831 
3113.000000	98.697567 
3112.000000	98.698902 
3111.000000	98.699722 
3110.000000	98.700225 
3109.000000	98.700801 
3108.000000	98.701740 
3107.000000	98.703002 
3106.000000	98.704252 
3105.000000	98.705211 
3104.000000	98.705992 
3103.000000	98.706995 
3102.000000	98.708464 
3101.000000	98.710232 
3100.000000	98.711940 
3099.000000	98.713442 
3098.000000	98.714836 
3097.000000	98.716191 
3096.000000	98.717451 
3095.000000	98.718571 
3094.000000	98.719563 
3093.000000	98.720359 
3092.000000	98.720789 
3091.000000	98.720849 
3090.000000	98.720894 
3089.000000	98.721367 
3088.000000	98.722365 
3087.000000	98.723552 
3086.000000	98.724471 
3085.000000	98.724917 
3084.000000	98.725010 
3083.000000	98.724952 
3082.000000	98.724819 
3081.000000	98.724669 
3080.000000	98.724795 
3079.000000	98.725723 
3078.000000	98.727849 
3077.000000	98.731099 
3076.000000	98.734869 
3075.000000	98.738170 
3074.000000	98.739894 
3073.000000	98.739388 
3072.000000	98.737181 
3071.000000	98.734924 
3070.000000	98.734012 
3069.000000	98.734280 
3068.000000	98.734484 
3067.000000	98.734154 
3066.000000	98.734465 
3065.000000	98.736924 
3064.000000	98.741459 
3063.000000	98.746031 
3062.000000	98.748153 
3061.000000	98.746725 
3060.000000	98.742777 
3059.000000	98.738758 
3058.000000	98.736887 
3057.000000	98.737868 
3056.000000	98.740936 
3055.000000	98.744812 
3054.000000	98.748321 
3053.000000	98.750317 
3052.000000	98.749753 
3051.000000	98.746385 
3050.000000	98.741466 
3049.000000	98.737485 
3048.000000	98.736722 
3047.000000	98.739443 
3046.000000	98.743232 
3045.000000	98.744575 
3044.000000	98.741914 
3043.000000	98.737182 
3042.000000	98.733903 
3041.000000	98.733570 
3040.000000	98.734392 
3039.000000	98.733646 
3038.000000	98.730432 
3037.000000	98.725828 
3036.000000	98.721057 
3035.000000	98.716257 
3034.000000	98.710870 
3033.000000	98.704623 
3032.000000	98.697965 
3031.000000	98.691711 
3030.000000	98.686330 
3029.000000	98.681743 
3028.000000	98.677956 
3027.000000	98.675537 
3026.000000	98.674807 
3025.000000	98.674449 
3024.000000	98.671788 
3023.000000	98.665094 
3022.000000	98.655273 
3021.000000	98.644668 
3020.000000	98.634435 
3019.000000	98.623850 
3018.000000	98.612336 
3017.000000	98.601163 
3016.000000	98.592279 
3015.000000	98.585693 
3014.000000	98.578995 
3013.000000	98.569927 
3012.000000	98.558900 
3011.000000	98.548337 
3010.000000	98.539771 
3009.000000	98.532381 
3008.000000	98.524427 
3007.000000	98.515207 
3006.000000	98.505189 
3005.000000	98.494945 
3004.000000	98.484762 
3003.000000	98.474951 
3002.000000	98.465740 
3001.000000	98.456871 
3000.000000	98.447912 
2999.000000	98.439080 
2998.000000	98.431389 
2997.000000	98.425831 
2996.000000	98.422363 
2995.000000	98.419227 
2994.000000	98.413109 
2993.000000	98.400866 
2992.000000	98.382212 
2991.000000	98.360757 
2990.000000	98.341779 
2989.000000	98.328936 
2988.000000	98.323330 
2987.000000	98.324662 
2986.000000	98.331733 
2985.000000	98.341811 
2984.000000	98.351040 
2983.000000	98.356646 
2982.000000	98.358474 
2981.000000	98.358162 
2980.000000	98.357350 
2979.000000	98.356860 
2978.000000	98.356780 
2977.000000	98.356553 
2976.000000	98.355309 
2975.000000	98.352750 
2974.000000	98.349828 
2973.000000	98.348381 
2972.000000	98.350080 
2971.000000	98.355490 
2970.000000	98.363687 
2969.000000	98.372747 
2968.000000	98.381145 
2967.000000	98.388921 
2966.000000	98.397186 
2965.000000	98.406496 
2964.000000	98.416170 
2963.000000	98.425219 
2962.000000	98.433320 
2961.000000	98.440608 
2960.000000	98.447026 
2959.000000	98.452314 
2958.000000	98.456423 
2957.000000	98.459652 
2956.000000	98.462604 
2955.000000	98.466185 
2954.000000	98.471396 
2953.000000	98.478717 
2952.000000	98.487605 
2951.000000	98.496574 
2950.000000	98.503834 
2949.000000	98.508224 
2948.000000	98.509929 
2947.000000	98.510398 
2946.000000	98.511416 
2945.000000	98.514136 
2944.000000	98.518750 
2943.000000	98.524481 
2942.000000	98.529606 
2941.000000	98.532167 
2940.000000	98.531621 
2939.000000	98.529942 
2938.000000	98.530464 
2937.000000	98.535321 
2936.000000	98.544019 
2935.000000	98.553961 
2934.000000	98.561911 
2933.000000	98.565553 
2932.000000	98.564753 
2931.000000	98.561527 
2930.000000	98.558322 
2929.000000	98.556308 
2928.000000	98.555507 
2927.000000	98.555738 
2926.000000	98.556388 
2925.000000	98.555891 
2924.000000	98.552968 
2923.000000	98.548396 
2922.000000	98.544254 
2921.000000	98.541262 
2920.000000	98.538152 
2919.000000	98.533875 
2918.000000	98.529084 
2917.000000	98.524815 
2916.000000	98.520873 
2915.000000	98.516361 
2914.000000	98.511151 
2913.000000	98.506104 
2912.000000	98.502256 
2911.000000	98.500215 
2910.000000	98.499800 
2909.000000	98.499911 
2908.000000	98.499154 
2907.000000	98.496976 
2906.000000	98.493656 
2905.000000	98.489083 
2904.000000	98.482494 
2903.000000	98.474206 
2902.000000	98.467044 
2901.000000	98.465397 
2900.000000	98.471603 
2899.000000	98.484210 
2898.000000	98.498382 
2897.000000	98.508831 
2896.000000	98.513446 
2895.000000	98.514482 
2894.000000	98.516034 
2893.000000	98.520156 
2892.000000	98.525777 
2891.000000	98.530888 
2890.000000	98.534702 
2889.000000	98.537430 
2888.000000	98.539291 
2887.000000	98.540656 
2886.000000	98.542424 
2885.000000	98.545318 
2884.000000	98.549238 
2883.000000	98.554023 
2882.000000	98.560352 
2881.000000	98.568952 
2880.000000	98.579157 
2879.000000	98.589142 
2878.000000	98.597624 
2877.000000	98.604761 
2876.000000	98.611387 
2875.000000	98.617968 
2874.000000	98.624381 
2873.000000	98.630197 
2872.000000	98.634938 
2871.000000	98.638366 
2870.000000	98.640824 
2869.000000	98.643419 
2868.000000	98.647776 
2867.000000	98.655206 
2866.000000	98.665547 
2865.000000	98.676801 
2864.000000	98.686534 
2863.000000	98.693928 
2862.000000	98.700016 
2861.000000	98.705959 
2860.000000	98.711894 
2859.000000	98.717823 
2858.000000	98.724499 
2857.000000	98.732434 
2856.000000	98.740565 
2855.000000	98.747044 
2854.000000	98.751282 
2853.000000	98.754509 
2852.000000	98.758254 
2851.000000	98.762890 
2850.000000	98.767900 
2849.000000	98.772852 
2848.000000	98.777715 
2847.000000	98.782534 
2846.000000	98.787127 
2845.000000	98.791081 
2844.000000	98.794033 
2843.000000	98.795951 
2842.000000	98.797145 
2841.000000	98.798085 
2840.000000	98.799405 
2839.000000	98.801929 
2838.000000	98.806108 
2837.000000	98.811199 
2836.000000	98.815516 
2835.000000	98.817985 
2834.000000	98.819244 
2833.000000	98.820808 
2832.000000	98.823302 
2831.000000	98.825900 
2830.000000	98.827407 
2829.000000	98.827531 
2828.000000	98.827159 
2827.000000	98.827686 
2826.000000	98.830034 
2825.000000	98.833974 
2824.000000	98.838273 
2823.000000	98.841577 
2822.000000	98.843266 
2821.000000	98.843634 
2820.000000	98.843533 
2819.000000	98.843808 
2818.000000	98.844751 
2817.000000	98.845921 
2816.000000	98.846663 
2815.000000	98.846858 
2814.000000	98.846949 
2813.000000	98.847299 
2812.000000	98.847916 
2811.000000	98.848912 
2810.000000	98.850720 
2809.000000	98.853507 
2808.000000	98.856664 
2807.000000	98.859242 
2806.000000	98.860765 
2805.000000	98.861407 
2804.000000	98.861599 
2803.000000	98.861755 
2802.000000	98.862232 
2801.000000	98.863190 
2800.000000	98.864434 
2799.000000	98.865562 
2798.000000	98.866318 
2797.000000	98.866714 
2796.000000	98.866867 
2795.000000	98.866917 
2794.000000	98.867095 
2793.000000	98.867706 
2792.000000	98.868869 
2791.000000	98.870335 
2790.000000	98.871707 
2789.000000	98.872833 
2788.000000	98.873908 
2787.000000	98.875155 
2786.000000	98.876500 
2785.000000	98.877620 
2784.000000	98.878303 
2783.000000	98.878638 
2782.000000	98.878894 
2781.000000	98.879302 
2780.000000	98.879965 
2779.000000	98.880886 
2778.000000	98.881983 
2777.000000	98.883097 
2776.000000	98.884085 
2775.000000	98.884919 
2774.000000	98.885678 
2773.000000	98.886444 
2772.000000	98.887241 
2771.000000	98.888050 
2770.000000	98.888828 
2769.000000	98.889512 
2768.000000	98.890069 
2767.000000	98.890562 
2766.000000	98.891110 
2765.000000	98.891761 
2764.000000	98.892440 
2763.000000	98.893030 
2762.000000	98.893495 
2761.000000	98.893899 
2760.000000	98.894350 
2759.000000	98.894907 
2758.000000	98.895562 
2757.000000	98.896265 
2756.000000	98.896976 
2755.000000	98.897672 
2754.000000	98.898320 
2753.000000	98.898884 
2752.000000	98.899370 
2751.000000	98.899845 
2750.000000	98.900382 
2749.000000	98.900995 
2748.000000	98.901628 
2747.000000	98.902202 
2746.000000	98.902681 
2745.000000	98.903086 
2744.000000	98.903473 
2743.000000	98.903889 
2742.000000	98.904357 
2741.000000	98.904873 
2740.000000	98.905424 
2739.000000	98.906001 
2738.000000	98.906586 
2737.000000	98.907148 
2736.000000	98.907676 
2735.000000	98.908211 
2734.000000	98.908772 
2733.000000	98.909286 
2732.000000	98.909657 
2731.000000	98.909905 
2730.000000	98.910162 
2729.000000	98.910520 
2728.000000	98.910941 
2727.000000	98.911349 
2726.000000	98.911764 
2725.000000	98.912268 
2724.000000	98.912873 
2723.000000	98.913519 
2722.000000	98.914175 
2721.000000	98.914857 
2720.000000	98.915535 
2719.000000	98.916130 
2718.000000	98.916606 
2717.000000	98.917006 
2716.000000	98.917396 
2715.000000	98.917813 
2714.000000	98.918282 
2713.000000	98.918825 
2712.000000	98.919424 
2711.000000	98.920022 
2710.000000	98.920580 
2709.000000	98.921136 
2708.000000	98.921744 
2707.000000	98.922372 
2706.000000	98.922900 
2705.000000	98.923246 
2704.000000	98.923483 
2703.000000	98.923811 
2702.000000	98.924370 
2701.000000	98.925097 
2700.000000	98.925802 
2699.000000	98.926397 
2698.000000	98.926996 
2697.000000	98.927726 
2696.000000	98.928515 
2695.000000	98.929141 
2694.000000	98.929478 
2693.000000	98.929636 
2692.000000	98.929866 
2691.000000	98.930328 
2690.000000	98.930958 
2689.000000	98.931547 
2688.000000	98.931965 
2687.000000	98.932319 
2686.000000	98.932851 
2685.000000	98.933670 
2684.000000	98.934597 
2683.000000	98.935289 
2682.000000	98.935500 
2681.000000	98.935243 
2680.000000	98.934779 
2679.000000	98.934465 
2678.000000	98.934548 
2677.000000	98.935107 
2676.000000	98.936110 
2675.000000	98.937447 
2674.000000	98.938870 
2673.000000	98.939993 
2672.000000	98.940521 
2671.000000	98.940471 
2670.000000	98.940094 
2669.000000	98.939629 
2668.000000	98.939211 
2667.000000	98.938989 
2666.000000	98.939110 
2665.000000	98.939521 
2664.000000	98.939919 
2663.000000	98.940049 
2662.000000	98.940011 
2661.000000	98.940168 
2660.000000	98.940766 
2659.000000	98.941701 
2658.000000	98.942641 
2657.000000	98.943368 
2656.000000	98.943957 
2655.000000	98.944592 
2654.000000	98.945272 
2653.000000	98.945781 
2652.000000	98.946010 
2651.000000	98.946136 
2650.000000	98.946416 
2649.000000	98.946853 
2648.000000	98.947229 
2647.000000	98.947445 
2646.000000	98.947663 
2645.000000	98.948074 
2644.000000	98.948657 
2643.000000	98.949224 
2642.000000	98.949631 
2641.000000	98.949888 
2640.000000	98.950121 
2639.000000	98.950454 
2638.000000	98.950916 
2637.000000	98.951424 
2636.000000	98.951874 
2635.000000	98.952245 
2634.000000	98.952585 
2633.000000	98.952911 
2632.000000	98.953193 
2631.000000	98.953458 
2630.000000	98.953831 
2629.000000	98.954375 
2628.000000	98.954932 
2627.000000	98.955248 
2626.000000	98.955248 
2625.000000	98.955133 
2624.000000	98.955192 
2623.000000	98.955539 
2622.000000	98.956102 
2621.000000	98.956715 
2620.000000	98.957215 
2619.000000	98.957505 
2618.000000	98.957633 
2617.000000	98.957772 
2616.000000	98.958090 
2615.000000	98.958625 
2614.000000	98.959301 
2613.000000	98.960012 
2612.000000	98.960679 
2611.000000	98.961234 
2610.000000	98.961587 
2609.000000	98.961659 
2608.000000	98.961447 
2607.000000	98.961072 
2606.000000	98.960772 
2605.000000	98.960833 
2604.000000	98.961449 
2603.000000	98.962504 
2602.000000	98.963496 
2601.000000	98.963920 
2600.000000	98.963836 
2599.000000	98.963830 
2598.000000	98.964214 
2597.000000	98.964472 
2596.000000	98.963875 
2595.000000	98.962384 
2594.000000	98.960649 
2593.000000	98.959347 
2592.000000	98.958690 
2591.000000	98.958629 
2590.000000	98.959101 
2589.000000	98.959927 
2588.000000	98.960719 
2587.000000	98.961084 
2586.000000	98.960938 
2585.000000	98.960532 
2584.000000	98.960238 
2583.000000	98.960295 
2582.000000	98.960649 
2581.000000	98.961016 
2580.000000	98.961119 
2579.000000	98.960902 
2578.000000	98.960503 
2577.000000	98.960079 
2576.000000	98.959710 
2575.000000	98.959428 
2574.000000	98.959236 
2573.000000	98.959103 
2572.000000	98.958987 
2571.000000	98.958877 
2570.000000	98.958769 
2569.000000	98.958607 
2568.000000	98.958327 
2567.000000	98.957937 
2566.000000	98.957507 
2565.000000	98.957092 
2564.000000	98.956711 
2563.000000	98.956390 
2562.000000	98.956160 
2561.000000	98.955994 
2560.000000	98.955804 
2559.000000	98.955514 
2558.000000	98.955121 
2557.000000	98.954685 
2556.000000	98.954293 
2555.000000	98.954016 
2554.000000	98.953884 
2553.000000	98.953850 
2552.000000	98.953785 
2551.000000	98.953572 
2550.000000	98.953175 
2549.000000	98.952622 
2548.000000	98.951960 
2547.000000	98.951245 
2546.000000	98.950577 
2545.000000	98.950075 
2544.000000	98.949788 
2543.000000	98.949659 
2542.000000	98.949548 
2541.000000	98.949320 
2540.000000	98.948962 
2539.000000	98.948557 
2538.000000	98.948206 
2537.000000	98.947931 
2536.000000	98.947686 
2535.000000	98.947432 
2534.000000	98.947176 
2533.000000	98.946934 
2532.000000	98.946694 
2531.000000	98.946448 
2530.000000	98.946226 
2529.000000	98.946062 
2528.000000	98.945959 
2527.000000	98.945891 
2526.000000	98.945831 
2525.000000	98.945771 
2524.000000	98.945746 
2523.000000	98.945809 
2522.000000	98.945980 
2521.000000	98.946208 
2520.000000	98.946398 
2519.000000	98.946482 
2518.000000	98.946449 
2517.000000	98.946333 
2516.000000	98.946195 
2515.000000	98.946109 
2514.000000	98.946147 
2513.000000	98.946325 
2512.000000	98.946583 
2511.000000	98.946842 
2510.000000	98.947063 
2509.000000	98.947254 
2508.000000	98.947468 
2507.000000	98.947818 
2506.000000	98.948416 
2505.000000	98.949209 
2504.000000	98.949890 
2503.000000	98.950120 
2502.000000	98.949795 
2501.000000	98.949173 
2500.000000	98.948746 
2499.000000	98.948901 
2498.000000	98.949695 
2497.000000	98.950735 
2496.000000	98.951456 
2495.000000	98.951633 
2494.000000	98.951514 
2493.000000	98.951455 
2492.000000	98.951507 
2491.000000	98.951516 
2490.000000	98.951509 
2489.000000	98.951795 
2488.000000	98.952725 
2487.000000	98.954400 
2486.000000	98.956411 
2485.000000	98.957787 
2484.000000	98.957631 
2483.000000	98.955924 
2482.000000	98.953667 
2481.000000	98.951858 
2480.000000	98.950502 
2479.000000	98.949068 
2478.000000	98.947518 
2477.000000	98.946446 
2476.000000	98.946271 
2475.000000	98.946777 
2474.000000	98.947471 
2473.000000	98.948016 
2472.000000	98.948241 
2471.000000	98.948073 
2470.000000	98.947641 
2469.000000	98.947237 
2468.000000	98.947051 
2467.000000	98.947061 
2466.000000	98.947189 
2465.000000	98.947355 
2464.000000	98.947324 
2463.000000	98.946770 
2462.000000	98.945631 
2461.000000	98.944281 
2460.000000	98.943256 
2459.000000	98.942814 
2458.000000	98.942842 
2457.000000	98.943083 
2456.000000	98.943318 
2455.000000	98.943410 
2454.000000	98.943282 
2453.000000	98.942895 
2452.000000	98.942274 
2451.000000	98.941475 
2450.000000	98.940533 
2449.000000	98.939522 
2448.000000	98.938678 
2447.000000	98.938334 
2446.000000	98.938582 
2445.000000	98.939032 
2444.000000	98.939088 
2443.000000	98.938514 
2442.000000	98.937570 
2441.000000	98.936744 
2440.000000	98.936383 
2439.000000	98.936566 
2438.000000	98.937126 
2437.000000	98.937691 
2436.000000	98.937908 
2435.000000	98.937711 
2434.000000	98.937346 
2433.000000	98.937164 
2432.000000	98.937371 
2431.000000	98.937971 
2430.000000	98.938751 
2429.000000	98.939297 
2428.000000	98.939201 
2427.000000	98.938393 
2426.000000	98.937240 
2425.000000	98.936229 
2424.000000	98.935590 
2423.000000	98.935342 
2422.000000	98.935548 
2421.000000	98.936262 
2420.000000	98.937212 
2419.000000	98.937769 
2418.000000	98.937451 
2417.000000	98.936337 
2416.000000	98.934951 
2415.000000	98.933784 
2414.000000	98.932953 
2413.000000	98.932337 
2412.000000	98.931896 
2411.000000	98.931748 
2410.000000	98.931959 
2409.000000	98.932356 
2408.000000	98.932603 
2407.000000	98.932431 
2406.000000	98.931823 
2405.000000	98.931068 
2404.000000	98.930652 
2403.000000	98.930898 
2402.000000	98.931599 
2401.000000	98.932092 
2400.000000	98.931858 
2399.000000	98.931001 
2398.000000	98.930040 
2397.000000	98.929392 
2396.000000	98.929153 
2395.000000	98.929220 
2394.000000	98.929349 
2393.000000	98.929241 
2392.000000	98.928840 
2391.000000	98.928500 
2390.000000	98.928587 
2389.000000	98.929060 
2388.000000	98.929698 
2387.000000	98.930523 
2386.000000	98.931624 
2385.000000	98.932744 
2384.000000	98.933482 
2383.000000	98.933837 
2382.000000	98.934149 
2381.000000	98.934527 
2380.000000	98.934690 
2379.000000	98.934487 
2378.000000	98.934212 
2377.000000	98.934266 
2376.000000	98.934717 
2375.000000	98.935375 
2374.000000	98.936008 
2373.000000	98.936487 
2372.000000	98.936807 
2371.000000	98.937068 
2370.000000	98.937403 
2369.000000	98.937857 
2368.000000	98.938363 
2367.000000	98.938855 
2366.000000	98.939334 
2365.000000	98.939832 
2364.000000	98.940354 
2363.000000	98.940880 
2362.000000	98.941395 
2361.000000	98.941900 
2360.000000	98.942403 
2359.000000	98.942910 
2358.000000	98.943422 
2357.000000	98.943940 
2356.000000	98.944466 
2355.000000	98.944998 
2354.000000	98.945532 
2353.000000	98.946059 
2352.000000	98.946578 
2351.000000	98.947090 
2350.000000	98.947597 
2349.000000	98.948097 
2348.000000	98.948584 
2347.000000	98.949056 
2346.000000	98.949516 
2345.000000	98.949969 
2344.000000	98.950418 
2343.000000	98.950863 
2342.000000	98.951306 
2341.000000	98.951751 
2340.000000	98.952201 
2339.000000	98.952657 
2338.000000	98.953117 
2337.000000	98.953578 
2336.000000	98.954021 
2335.000000	98.954425 
2334.000000	98.954796 
2333.000000	98.955179 
2332.000000	98.955620 
2331.000000	98.956112 
2330.000000	98.956594 
2329.000000	98.957019 
2328.000000	98.957430 
2327.000000	98.957911 
2326.000000	98.958503 
2325.000000	98.959119 
2324.000000	98.959618 
2323.000000	98.959979 
2322.000000	98.960347 
2321.000000	98.960822 
2320.000000	98.961236 
2319.000000	98.961371 
2318.000000	98.961260 
2317.000000	98.961146 
2316.000000	98.961214 
2315.000000	98.961423 
2314.000000	98.961655 
2313.000000	98.961856 
2312.000000	98.962070 
2311.000000	98.962298 
2310.000000	98.962484 
2309.000000	98.962571 
2308.000000	98.962577 
2307.000000	98.962570 
2306.000000	98.962624 
2305.000000	98.962757 
2304.000000	98.962942 
2303.000000	98.963144 
2302.000000	98.963345 
2301.000000	98.963509 
2300.000000	98.963585 
2299.000000	98.963544 
2298.000000	98.963432 
2297.000000	98.963302 
2296.000000	98.963133 
2295.000000	98.962884 
2294.000000	98.962611 
2293.000000	98.962450 
2292.000000	98.962472 
2291.000000	98.962615 
2290.000000	98.962748 
2289.000000	98.962773 
2288.000000	98.962691 
2287.000000	98.962570 
2286.000000	98.962474 
2285.000000	98.962370 
2284.000000	98.962148 
2283.000000	98.961781 
2282.000000	98.961450 
2281.000000	98.961377 
2280.000000	98.961531 
2279.000000	98.961622 
2278.000000	98.961448 
2277.000000	98.961166 
2276.000000	98.961091 
2275.000000	98.961329 
2274.000000	98.961659 
2273.000000	98.961741 
2272.000000	98.961375 
2271.000000	98.960699 
2270.000000	98.960170 
2269.000000	98.960180 
2268.000000	98.960712 
2267.000000	98.961374 
2266.000000	98.961785 
2265.000000	98.961832 
2264.000000	98.961509 
2263.000000	98.960745 
2262.000000	98.959603 
2261.000000	98.958513 
2260.000000	98.957993 
2259.000000	98.958134 
2258.000000	98.958522 
2257.000000	98.958863 
2256.000000	98.959284 
2255.000000	98.959959 
2254.000000	98.960716 
2253.000000	98.961192 
2252.000000	98.961318 
2251.000000	98.961410 
2250.000000	98.961721 
2249.000000	98.962084 
2248.000000	98.962130 
2247.000000	98.961790 
2246.000000	98.961295 
2245.000000	98.960833 
2244.000000	98.960432 
2243.000000	98.960089 
2242.000000	98.959829 
2241.000000	98.959656 
2240.000000	98.959546 
2239.000000	98.959480 
2238.000000	98.959426 
2237.000000	98.959317 
2236.000000	98.959125 
2235.000000	98.958889 
2234.000000	98.958659 
2233.000000	98.958450 
2232.000000	98.958255 
2231.000000	98.958069 
2230.000000	98.957891 
2229.000000	98.957721 
2228.000000	98.957564 
2227.000000	98.957424 
2226.000000	98.957301 
2225.000000	98.957193 
2224.000000	98.957103 
2223.000000	98.957038 
2222.000000	98.957004 
2221.000000	98.956995 
2220.000000	98.957003 
2219.000000	98.957021 
2218.000000	98.957055 
2217.000000	98.957114 
2216.000000	98.957198 
2215.000000	98.957292 
2214.000000	98.957381 
2213.000000	98.957465 
2212.000000	98.957563 
2211.000000	98.957700 
2210.000000	98.957889 
2209.000000	98.958133 
2208.000000	98.958424 
2207.000000	98.958754 
2206.000000	98.959117 
2205.000000	98.959512 
2204.000000	98.959954 
2203.000000	98.960460 
2202.000000	98.961022 
2201.000000	98.961745 
2200.000000	98.962704 
2199.000000	98.963625 
2198.000000	98.964059 
2197.000000	98.963878 
2196.000000	98.963512 
2195.000000	98.963558 
2194.000000	98.964195 
2193.000000	98.965018 
2192.000000	98.965496 
2191.000000	98.965555 
2190.000000	98.965716 
2189.000000	98.966788 
2188.000000	98.969221 
2187.000000	98.972317 
2186.000000	98.974079 
2185.000000	98.972767 
2184.000000	98.968982 
2183.000000	98.965726 
2182.000000	98.965438 
2181.000000	98.967603 
2180.000000	98.969947 
2179.000000	98.971460 
2178.000000	98.973000 
2177.000000	98.975309 
2176.000000	98.977957 
2175.000000	98.980256 
2174.000000	98.981957 
2173.000000	98.983102 
2172.000000	98.984411 
2171.000000	98.987446 
2170.000000	98.992742 
2169.000000	98.997855 
2168.000000	98.999312 
2167.000000	98.996739 
2166.000000	98.993280 
2165.000000	98.991699 
2164.000000	98.992090 
2163.000000	98.994036 
2162.000000	98.998047 
2161.000000	99.002934 
2160.000000	99.004213 
2159.000000	98.998124 
2158.000000	98.985957 
2157.000000	98.972529 
2156.000000	98.961300 
2155.000000	98.953243 
2154.000000	98.949117 
2153.000000	98.949851 
2152.000000	98.954677 
2151.000000	98.960541 
2150.000000	98.964064 
2149.000000	98.964089 
2148.000000	98.962602 
2147.000000	98.963022 
2146.000000	98.966731 
2145.000000	98.971057 
2144.000000	98.971643 
2143.000000	98.967018 
2142.000000	98.959841 
2141.000000	98.953673 
2140.000000	98.949527 
2139.000000	98.946490 
2138.000000	98.944317 
2137.000000	98.943933 
2136.000000	98.945649 
2135.000000	98.948158 
2134.000000	98.949742 
2133.000000	98.950015 
2132.000000	98.950070 
2131.000000	98.950905 
2130.000000	98.951938 
2129.000000	98.951473 
2128.000000	98.948758 
2127.000000	98.945021 
2126.000000	98.942061 
2125.000000	98.940415 
2124.000000	98.939656 
2123.000000	98.939962 
2122.000000	98.942048 
2121.000000	98.945530 
2120.000000	98.948671 
2119.000000	98.950232 
2118.000000	98.950600 
2117.000000	98.950675 
2116.000000	98.950599 
2115.000000	98.950159 
2114.000000	98.949587 
2113.000000	98.949181 
2112.000000	98.948653 
2111.000000	98.947654 
2110.000000	98.946622 
2109.000000	98.946290 
2108.000000	98.946463 
2107.000000	98.945979 
2106.000000	98.943977 
2105.000000	98.940897 
2104.000000	98.938231 
2103.000000	98.937442 
2102.000000	98.938754 
2101.000000	98.940800 
2100.000000	98.941686 
2099.000000	98.940834 
2098.000000	98.939508 
2097.000000	98.939360 
2096.000000	98.940839 
2095.000000	98.943287 
2094.000000	98.945871 
2093.000000	98.948044 
2092.000000	98.949469 
2091.000000	98.950171 
2090.000000	98.950701 
2089.000000	98.951623 
2088.000000	98.952704 
2087.000000	98.952972 
2086.000000	98.951770 
2085.000000	98.949640 
2084.000000	98.948115 
2083.000000	98.948475 
2082.000000	98.950762 
2081.000000	98.953847 
2080.000000	98.956431 
2079.000000	98.958182 
2078.000000	98.959739 
2077.000000	98.961740 
2076.000000	98.964027 
2075.000000	98.965804 
2074.000000	98.966329 
2073.000000	98.965499 
2072.000000	98.964083 
2071.000000	98.963178 
2070.000000	98.963350 
2069.000000	98.964207 
2068.000000	98.964908 
2067.000000	98.965083 
2066.000000	98.965047 
2065.000000	98.965459 
2064.000000	98.967014 
2063.000000	98.970097 
2062.000000	98.974115 
2061.000000	98.977472 
2060.000000	98.979012 
2059.000000	98.979252 
2058.000000	98.979788 
2057.000000	98.981457 
2056.000000	98.983578 
2055.000000	98.985118 
2054.000000	98.986057 
2053.000000	98.987155 
2052.000000	98.988783 
2051.000000	98.990467 
2050.000000	98.991517 
2049.000000	98.991773 
2048.000000	98.991687 
2047.000000	98.991825 
2046.000000	98.992362 
2045.000000	98.993046 
2044.000000	98.993566 
2043.000000	98.993902 
2042.000000	98.994269 
2041.000000	98.994783 
2040.000000	98.995314 
2039.000000	98.995680 
2038.000000	98.995842 
2037.000000	98.995855 
2036.000000	98.995745 
2035.000000	98.995476 
2034.000000	98.995030 
2033.000000	98.994494 
2032.000000	98.994057 
2031.000000	98.993845 
2030.000000	98.993817 
2029.000000	98.993824 
2028.000000	98.993670 
2027.000000	98.993301 
2026.000000	98.992777 
2025.000000	98.992195 
2024.000000	98.991630 
2023.000000	98.991112 
2022.000000	98.990645 
2021.000000	98.990179 
2020.000000	98.989604 
2019.000000	98.988868 
2018.000000	98.988087 
2017.000000	98.987415 
2016.000000	98.986787 
2015.000000	98.986056 
2014.000000	98.985333 
2013.000000	98.984886 
2012.000000	98.984724 
2011.000000	98.984522 
2010.000000	98.984033 
2009.000000	98.983353 
2008.000000	98.982728 
2007.000000	98.982236 
2006.000000	98.981777 
2005.000000	98.981196 
2004.000000	98.980387 
2003.000000	98.979425 
2002.000000	98.978553 
2001.000000	98.977774 
2000.000000	98.976572 
1999.000000	98.974478 
1998.000000	98.971924 
1997.000000	98.969983 
1996.000000	98.969269 
1995.000000	98.969644 
1994.000000	98.970842 
1993.000000	98.972638 
1992.000000	98.974285 
1991.000000	98.974580 
1990.000000	98.972912 
1989.000000	98.969943 
1988.000000	98.967385 
1987.000000	98.967112 
1986.000000	98.969944 
1985.000000	98.974739 
1984.000000	98.978751 
1983.000000	98.980172 
1982.000000	98.979600 
1981.000000	98.978566 
1980.000000	98.977527 
1979.000000	98.976239 
1978.000000	98.975062 
1977.000000	98.974136 
1976.000000	98.972102 
1975.000000	98.967645 
1974.000000	98.961948 
1973.000000	98.957872 
1972.000000	98.956747 
1971.000000	98.957542 
1970.000000	98.959029 
1969.000000	98.961183 
1968.000000	98.964134 
1967.000000	98.966949 
1966.000000	98.968427 
1965.000000	98.968507 
1964.000000	98.968278 
1963.000000	98.968712 
1962.000000	98.969481 
1961.000000	98.969079 
1960.000000	98.966377 
1959.000000	98.961951 
1958.000000	98.957553 
1957.000000	98.954399 
1956.000000	98.952332 
1955.000000	98.950365 
1954.000000	98.947371 
1953.000000	98.942662 
1952.000000	98.936790 
1951.000000	98.931721 
1950.000000	98.929338 
1949.000000	98.929479 
1948.000000	98.930084 
1947.000000	98.929621 
1946.000000	98.928381 
1945.000000	98.927060 
1944.000000	98.925472 
1943.000000	98.923281 
1942.000000	98.920888 
1941.000000	98.918665 
1940.000000	98.916343 
1939.000000	98.913873 
1938.000000	98.912007 
1937.000000	98.911486 
1936.000000	98.912096 
1935.000000	98.912848 
1934.000000	98.912826 
1933.000000	98.911769 
1932.000000	98.910136 
1931.000000	98.908850 
1930.000000	98.908653 
1929.000000	98.909355 
1928.000000	98.909861 
1927.000000	98.909243 
1926.000000	98.907530 
1925.000000	98.905370 
1924.000000	98.903357 
1923.000000	98.901755 
1922.000000	98.900648 
1921.000000	98.899985 
1920.000000	98.899526 
1919.000000	98.898954 
1918.000000	98.898096 
1917.000000	98.897031 
1916.000000	98.896000 
1915.000000	98.895250 
1914.000000	98.894891 
1913.000000	98.894804 
1912.000000	98.894657 
1911.000000	98.894156 
1910.000000	98.893272 
1909.000000	98.892191 
1908.000000	98.891127 
1907.000000	98.890216 
1906.000000	98.889521 
1905.000000	98.888974 
1904.000000	98.888288 
1903.000000	98.887174 
1902.000000	98.885607 
1901.000000	98.883884 
1900.000000	98.882408 
1899.000000	98.881372 
1898.000000	98.880729 
1897.000000	98.880243 
1896.000000	98.879654 
1895.000000	98.878896 
1894.000000	98.878146 
1893.000000	98.877607 
1892.000000	98.877212 
1891.000000	98.876687 
1890.000000	98.875917 
1889.000000	98.875141 
1888.000000	98.874620 
1887.000000	98.874320 
1886.000000	98.874025 
1885.000000	98.873549 
1884.000000	98.872787 
1883.000000	98.871751 
1882.000000	98.870620 
1881.000000	98.869617 
1880.000000	98.868867 
1879.000000	98.868355 
1878.000000	98.867872 
1877.000000	98.867008 
1876.000000	98.865612 
1875.000000	98.864384 
1874.000000	98.864470 
1873.000000	98.866125 
1872.000000	98.868098 
1871.000000	98.868788 
1870.000000	98.867890 
1869.000000	98.866353 
1868.000000	98.864741 
1867.000000	98.862706 
1866.000000	98.860350 
1865.000000	98.858415 
1864.000000	98.857412 
1863.000000	98.857631 
1862.000000	98.859600 
1861.000000	98.863436 
1860.000000	98.867675 
1859.000000	98.870264 
1858.000000	98.871004 
1857.000000	98.871444 
1856.000000	98.872743 
1855.000000	98.874687 
1854.000000	98.876610 
1853.000000	98.878032 
1852.000000	98.878436 
1851.000000	98.877398 
1850.000000	98.875363 
1849.000000	98.873653 
1848.000000	98.873260 
1847.000000	98.874025 
1846.000000	98.875138 
1845.000000	98.875637 
1844.000000	98.874749 
1843.000000	98.872902 
1842.000000	98.871753 
1841.000000	98.872387 
1840.000000	98.874637 
1839.000000	98.877647 
1838.000000	98.880590 
1837.000000	98.882930 
1836.000000	98.884247 
1835.000000	98.884396 
1834.000000	98.883885 
1833.000000	98.883707 
1832.000000	98.884657 
1831.000000	98.886479 
1830.000000	98.887933 
1829.000000	98.888281 
1828.000000	98.888240 
1827.000000	98.888679 
1826.000000	98.889563 
1825.000000	98.890521 
1824.000000	98.891302 
1823.000000	98.891607 
1822.000000	98.891065 
1821.000000	98.889466 
1820.000000	98.887076 
1819.000000	98.884618 
1818.000000	98.882966 
1817.000000	98.882663 
1816.000000	98.883357 
1815.000000	98.884210 
1814.000000	98.885097 
1813.000000	98.886738 
1812.000000	98.889638 
1811.000000	98.893141 
1810.000000	98.896300 
1809.000000	98.899004 
1808.000000	98.901006 
1807.000000	98.901362 
1806.000000	98.899819 
1805.000000	98.897703 
1804.000000	98.896687 
1803.000000	98.897043 
1802.000000	98.897881 
1801.000000	98.898548 
1800.000000	98.898800 
1799.000000	98.898507 
1798.000000	98.898069 
1797.000000	98.898137 
1796.000000	98.898800 
1795.000000	98.899653 
1794.000000	98.900386 
1793.000000	98.900959 
1792.000000	98.901460 
1791.000000	98.901865 
1790.000000	98.902234 
1789.000000	98.902844 
1788.000000	98.903875 
1787.000000	98.905204 
1786.000000	98.906496 
1785.000000	98.907430 
1784.000000	98.907876 
1783.000000	98.908067 
1782.000000	98.908434 
1781.000000	98.909126 
1780.000000	98.909797 
1779.000000	98.910081 
1778.000000	98.910109 
1777.000000	98.910270 
1776.000000	98.910725 
1775.000000	98.911467 
1774.000000	98.912524 
1773.000000	98.913826 
1772.000000	98.914963 
1771.000000	98.915547 
1770.000000	98.915617 
1769.000000	98.915418 
1768.000000	98.915239 
1767.000000	98.915248 
1766.000000	98.915448 
1765.000000	98.915822 
1764.000000	98.916337 
1763.000000	98.916892 
1762.000000	98.917338 
1761.000000	98.917670 
1760.000000	98.918042 
1759.000000	98.918475 
1758.000000	98.918792 
1757.000000	98.918808 
1756.000000	98.918551 
1755.000000	98.918235 
1754.000000	98.917913 
1753.000000	98.917458 
1752.000000	98.917043 
1751.000000	98.917379 
1750.000000	98.918817 
1749.000000	98.920593 
1748.000000	98.921755 
1747.000000	98.922083 
1746.000000	98.921848 
1745.000000	98.921328 
1744.000000	98.920852 
1743.000000	98.920709 
1742.000000	98.920771 
1741.000000	98.920607 
1740.000000	98.919922 
1739.000000	98.918826 
1738.000000	98.917616 
1737.000000	98.916316 
1736.000000	98.914706 
1735.000000	98.912625 
1734.000000	98.910444 
1733.000000	98.909219 
1732.000000	98.909433 
1731.000000	98.910467 
1730.000000	98.911429 
1729.000000	98.911615 
1728.000000	98.910862 
1727.000000	98.909510 
1726.000000	98.907823 
1725.000000	98.905756 
1724.000000	98.903451 
1723.000000	98.901601 
1722.000000	98.900821 
1721.000000	98.901047 
1720.000000	98.901603 
1719.000000	98.901543 
1718.000000	98.899963 
1717.000000	98.897144 
1716.000000	98.894181 
1715.000000	98.891415 
1714.000000	98.889035 
1713.000000	98.887284 
1712.000000	98.885816 
1711.000000	98.884141 
1710.000000	98.882251 
1709.000000	98.880455 
1708.000000	98.878724 
1707.000000	98.876626 
1706.000000	98.874172 
1705.000000	98.871816 
1704.000000	98.869264 
1703.000000	98.865482 
1702.000000	98.860349 
1701.000000	98.855537 
1700.000000	98.852867 
1699.000000	98.851430 
1698.000000	98.849590 
1697.000000	98.847153 
1696.000000	98.844506 
1695.000000	98.841639 
1694.000000	98.838676 
1693.000000	98.835759 
1692.000000	98.832569 
1691.000000	98.828886 
1690.000000	98.824931 
1689.000000	98.821132 
1688.000000	98.817515 
1687.000000	98.813653 
1686.000000	98.809521 
1685.000000	98.805794 
1684.000000	98.802770 
1683.000000	98.799810 
1682.000000	98.796662 
1681.000000	98.792907 
1680.000000	98.788786 
1679.000000	98.785070 
1678.000000	98.782073 
1677.000000	98.779206 
1676.000000	98.775603 
1675.000000	98.771461 
1674.000000	98.767918 
1673.000000	98.765458 
1672.000000	98.763315 
1671.000000	98.760926 
1670.000000	98.758214 
1669.000000	98.754966 
1668.000000	98.751622 
1667.000000	98.748927 
1666.000000	98.745894 
1665.000000	98.741113 
1664.000000	98.735009 
1663.000000	98.730109 
1662.000000	98.728463 
1661.000000	98.728898 
1660.000000	98.728328 
1659.000000	98.726148 
1658.000000	98.724404 
1657.000000	98.723776 
1656.000000	98.721436 
1655.000000	98.715935 
1654.000000	98.710226 
1653.000000	98.704940 
1652.000000	98.699544 
1651.000000	98.699980 
1650.000000	98.701242 
1649.000000	98.698337 
1648.000000	98.690932 
1647.000000	98.682019 
1646.000000	98.675559 
1645.000000	98.674914 
1644.000000	98.679148 
1643.000000	98.684078 
1642.000000	98.686531 
1641.000000	98.686245 
1640.000000	98.684420 
1639.000000	98.682022 
1638.000000	98.679724 
1637.000000	98.678578 
1636.000000	98.678550 
1635.000000	98.679034 
1634.000000	98.682184 
1633.000000	98.687571 
1632.000000	98.691969 
1631.000000	98.694405 
1630.000000	98.696228 
1629.000000	98.698571 
1628.000000	98.701222 
1627.000000	98.704325 
1626.000000	98.708960 
1625.000000	98.715673 
1624.000000	98.723411 
1623.000000	98.730503 
1622.000000	98.736698 
1621.000000	98.742383 
1620.000000	98.746495 
1619.000000	98.748454 
1618.000000	98.750063 
1617.000000	98.752839 
1616.000000	98.755625 
1615.000000	98.758345 
1614.000000	98.761135 
1613.000000	98.762887 
1612.000000	98.764006 
1611.000000	98.766048 
1610.000000	98.769580 
1609.000000	98.773362 
1608.000000	98.776311 
1607.000000	98.779181 
1606.000000	98.782761 
1605.000000	98.786382 
1604.000000	98.789452 
1603.000000	98.793330 
1602.000000	98.799444 
1601.000000	98.806568 
1600.000000	98.812514 
1599.000000	98.817295 
1598.000000	98.822351 
1597.000000	98.827939 
1596.000000	98.833115 
1595.000000	98.837668 
1594.000000	98.842282 
1593.000000	98.846687 
1592.000000	98.849888 
1591.000000	98.852214 
1590.000000	98.855205 
1589.000000	98.859200 
1588.000000	98.863152 
1587.000000	98.866728 
1586.000000	98.870158 
1585.000000	98.872483 
1584.000000	98.872327 
1583.000000	98.870332 
1582.000000	98.869454 
1581.000000	98.871301 
1580.000000	98.874334 
1579.000000	98.876624 
1578.000000	98.878540 
1577.000000	98.881082 
1576.000000	98.883271 
1575.000000	98.885347 
1574.000000	98.888969 
1573.000000	98.892304 
1572.000000	98.893374 
1571.000000	98.893393 
1570.000000	98.894978 
1569.000000	98.897820 
1568.000000	98.899596 
1567.000000	98.899744 
1566.000000	98.899210 
1565.000000	98.899086 
1564.000000	98.899700 
1563.000000	98.900528 
1562.000000	98.901052 
1561.000000	98.901141 
1560.000000	98.901192 
1559.000000	98.900905 
1558.000000	98.899996 
1557.000000	98.901128 
1556.000000	98.903348 
1555.000000	98.904585 
1554.000000	98.904564 
1553.000000	98.904089 
1552.000000	98.903904 
1551.000000	98.904254 
1550.000000	98.905186 
1549.000000	98.906320 
1548.000000	98.907040 
1547.000000	98.907091 
1546.000000	98.906693 
1545.000000	98.906342 
1544.000000	98.906339 
1543.000000	98.906565 
1542.000000	98.906961 
1541.000000	98.907631 
1540.000000	98.908186 
1539.000000	98.908260 
1538.000000	98.908368 
1537.000000	98.908768 
1536.000000	98.909127 
1535.000000	98.909165 
1534.000000	98.909140 
1533.000000	98.909496 
1532.000000	98.909963 
1531.000000	98.909871 
1530.000000	98.909254 
1529.000000	98.908798 
1528.000000	98.908812 
1527.000000	98.909027 
1526.000000	98.909294 
1525.000000	98.909929 
1524.000000	98.910968 
1523.000000	98.912199 
1522.000000	98.913953 
1521.000000	98.916448 
1520.000000	98.918392 
1519.000000	98.918519 
1518.000000	98.917041 
1517.000000	98.915429 
1516.000000	98.914762 
1515.000000	98.914743 
1514.000000	98.914804 
1513.000000	98.914918 
1512.000000	98.915224 
1511.000000	98.915307 
1510.000000	98.914344 
1509.000000	98.912590 
1508.000000	98.912697 
1507.000000	98.916729 
1506.000000	98.920096 
1505.000000	98.920147 
1504.000000	98.919514 
1503.000000	98.919219 
1502.000000	98.919651 
1501.000000	98.921358 
1500.000000	98.924239 
1499.000000	98.927286 
1498.000000	98.929511 
1497.000000	98.931585 
1496.000000	98.934134 
1495.000000	98.935048 
1494.000000	98.932287 
1493.000000	98.926519 
1492.000000	98.919998 
1491.000000	98.914971 
1490.000000	98.912287 
1489.000000	98.911274 
1488.000000	98.910175 
1487.000000	98.907885 
1486.000000	98.905662 
1485.000000	98.904862 
1484.000000	98.905116 
1483.000000	98.905277 
1482.000000	98.904477 
1481.000000	98.902788 
1480.000000	98.900807 
1479.000000	98.898834 
1478.000000	98.896854 
1477.000000	98.894815 
1476.000000	98.892515 
1475.000000	98.889174 
1474.000000	98.885223 
1473.000000	98.883022 
1472.000000	98.883509 
1471.000000	98.884126 
1470.000000	98.883126 
1469.000000	98.881424 
1468.000000	98.880375 
1467.000000	98.879990 
1466.000000	98.879403 
1465.000000	98.878124 
1464.000000	98.876234 
1463.000000	98.874094 
1462.000000	98.871951 
1461.000000	98.869971 
1460.000000	98.867819 
1459.000000	98.864633 
1458.000000	98.859365 
1457.000000	98.852716 
1456.000000	98.847665 
1455.000000	98.845081 
1454.000000	98.843401 
1453.000000	98.841726 
1452.000000	98.840153 
1451.000000	98.838854 
1450.000000	98.837798 
1449.000000	98.837243 
1448.000000	98.837243 
1447.000000	98.836564 
1446.000000	98.834160 
1445.000000	98.830927 
1444.000000	98.828113 
1443.000000	98.825691 
1442.000000	98.823054 
1441.000000	98.820416 
1440.000000	98.818893 
1439.000000	98.819237 
1438.000000	98.820249 
1437.000000	98.819649 
1436.000000	98.816491 
1435.000000	98.811232 
1434.000000	98.805185 
1433.000000	98.800682 
1432.000000	98.799451 
1431.000000	98.801214 
1430.000000	98.803083 
1429.000000	98.802654 
1428.000000	98.800622 
1427.000000	98.798418 
1426.000000	98.795947 
1425.000000	98.792327 
1424.000000	98.788587 
1423.000000	98.786532 
1422.000000	98.784772 
1421.000000	98.780708 
1420.000000	98.774434 
1419.000000	98.768906 
1418.000000	98.764206 
1417.000000	98.758246 
1416.000000	98.752139 
1415.000000	98.747624 
1414.000000	98.743702 
1413.000000	98.737854 
1412.000000	98.730117 
1411.000000	98.723323 
1410.000000	98.718732 
1409.000000	98.715755 
1408.000000	98.714915 
1407.000000	98.716973 
1406.000000	98.720809 
1405.000000	98.724955 
1404.000000	98.730496 
1403.000000	98.738576 
1402.000000	98.747041 
1401.000000	98.753323 
1400.000000	98.757552 
1399.000000	98.761558 
1398.000000	98.764124 
1397.000000	98.761257 
1396.000000	98.752122 
1395.000000	98.742480 
1394.000000	98.740293 
1393.000000	98.747976 
1392.000000	98.762940 
1391.000000	98.780687 
1390.000000	98.796578 
1389.000000	98.807334 
1388.000000	98.812158 
1387.000000	98.812599 
1386.000000	98.810617 
1385.000000	98.807802 
1384.000000	98.805859 
1383.000000	98.806221 
1382.000000	98.808986 
1381.000000	98.813402 
1380.000000	98.818773 
1379.000000	98.824790 
1378.000000	98.831036 
1377.000000	98.836700 
1376.000000	98.841580 
1375.000000	98.846875 
1374.000000	98.853847 
1373.000000	98.861472 
1372.000000	98.867725 
1371.000000	98.872937 
1370.000000	98.879713 
1369.000000	98.888943 
1368.000000	98.898859 
1367.000000	98.907343 
1366.000000	98.913789 
1365.000000	98.918730 
1364.000000	98.922576 
1363.000000	98.925954 
1362.000000	98.930089 
1361.000000	98.935042 
1360.000000	98.939348 
1359.000000	98.942444 
1358.000000	98.945803 
1357.000000	98.950859 
1356.000000	98.957023 
1355.000000	98.962597 
1354.000000	98.966909 
1353.000000	98.970325 
1352.000000	98.972237 
1351.000000	98.971594 
1350.000000	98.970417 
1349.000000	98.971316 
1348.000000	98.974370 
1347.000000	98.977994 
1346.000000	98.981823 
1345.000000	98.986001 
1344.000000	98.989205 
1343.000000	98.989847 
1342.000000	98.988653 
1341.000000	98.987621 
1340.000000	98.987075 
1339.000000	98.985934 
1338.000000	98.984351 
1337.000000	98.984062 
1336.000000	98.985936 
1335.000000	98.988791 
1334.000000	98.991298 
1333.000000	98.993527 
1332.000000	98.995866 
1331.000000	98.997950 
1330.000000	98.999226 
1329.000000	98.999363 
1328.000000	98.998312 
1327.000000	98.996608 
1326.000000	98.995451 
1325.000000	98.994911 
1324.000000	98.994319 
1323.000000	98.993704 
1322.000000	98.993724 
1321.000000	98.994149 
1320.000000	98.993850 
1319.000000	98.992560 
1318.000000	98.991459 
1317.000000	98.991570 
1316.000000	98.992352 
1315.000000	98.992575 
1314.000000	98.991851 
1313.000000	98.990916 
1312.000000	98.990678 
1311.000000	98.991514 
1310.000000	98.993368 
1309.000000	98.995826 
1308.000000	98.998010 
1307.000000	98.998700 
1306.000000	98.997365 
1305.000000	98.994615 
1304.000000	98.992467 
1303.000000	98.992984 
1302.000000	98.996326 
1301.000000	99.000176 
1300.000000	99.001756 
1299.000000	99.000249 
1298.000000	98.997058 
1297.000000	98.994185 
1296.000000	98.992754 
1295.000000	98.993200 
1294.000000	98.995603 
1293.000000	98.999288 
1292.000000	99.002565 
1291.000000	99.003519 
1290.000000	99.001486 
1289.000000	98.997768 
1288.000000	98.994645 
1287.000000	98.993361 
1286.000000	98.993112 
1285.000000	98.992482 
1284.000000	98.991703 
1283.000000	98.992527 
1282.000000	98.995655 
1281.000000	98.999298 
1280.000000	99.001005 
1279.000000	99.000221 
1278.000000	98.998104 
1277.000000	98.995669 
1276.000000	98.993129 
1275.000000	98.991053 
1274.000000	98.990674 
1273.000000	98.992561 
1272.000000	98.995706 
1271.000000	98.998271 
1270.000000	98.998910 
1269.000000	98.997565 
1268.000000	98.995639 
1267.000000	98.995091 
1266.000000	98.996268 
1265.000000	98.997116 
1264.000000	98.995405 
1263.000000	98.991212 
1262.000000	98.986413 
1261.000000	98.982455 
1260.000000	98.979774 
1259.000000	98.978786 
1258.000000	98.979433 
1257.000000	98.980297 
1256.000000	98.979600 
1255.000000	98.977080 
1254.000000	98.973655 
1253.000000	98.969794 
1252.000000	98.965732 
1251.000000	98.963018 
1250.000000	98.963628 
1249.000000	98.967397 
1248.000000	98.972221 
1247.000000	98.976742 
1246.000000	98.980346 
1245.000000	98.980638 
1244.000000	98.974259 
1243.000000	98.962036 
1242.000000	98.951061 
1241.000000	98.948826 
1240.000000	98.955720 
1239.000000	98.964842 
1238.000000	98.968816 
1237.000000	98.965517 
1236.000000	98.957616 
1235.000000	98.948442 
1234.000000	98.939117 
1233.000000	98.929121 
1232.000000	98.918565 
1231.000000	98.908738 
1230.000000	98.900014 
1229.000000	98.890454 
1228.000000	98.878063 
1227.000000	98.864116 
1226.000000	98.852394 
1225.000000	98.844345 
1224.000000	98.836502 
1223.000000	98.823823 
1222.000000	98.804629 
1221.000000	98.781433 
1220.000000	98.757925 
1219.000000	98.736159 
1218.000000	98.715724 
1217.000000	98.694264 
1216.000000	98.669001 
1215.000000	98.638931 
1214.000000	98.605946 
1213.000000	98.573283 
1212.000000	98.542507 
1211.000000	98.511973 
1210.000000	98.478561 
1209.000000	98.440940 
1208.000000	98.400876 
1207.000000	98.361224 
1206.000000	98.323098 
1205.000000	98.285654 
1204.000000	98.248069 
1203.000000	98.210340 
1202.000000	98.172086 
1201.000000	98.132190 
1200.000000	98.090446 
1199.000000	98.048430 
1198.000000	98.007757 
1197.000000	97.968507 
1196.000000	97.930124 
1195.000000	97.892615 
1194.000000	97.855856 
1193.000000	97.818571 
1192.000000	97.779227 
1191.000000	97.737521 
1190.000000	97.694404 
1189.000000	97.651368 
1188.000000	97.610091 
1187.000000	97.571499 
1186.000000	97.534213 
1185.000000	97.494964 
1184.000000	97.451380 
1183.000000	97.403674 
1182.000000	97.353486 
1181.000000	97.302522 
1180.000000	97.252772 
1179.000000	97.206020 
1178.000000	97.161517 
1177.000000	97.115395 
1176.000000	97.063995 
1175.000000	97.007118 
1174.000000	96.947277 
1173.000000	96.886828 
1172.000000	96.826911 
1171.000000	96.767778 
1170.000000	96.708576 
1169.000000	96.647733 
1168.000000	96.584996 
1167.000000	96.522736 
1166.000000	96.465027 
1165.000000	96.416871 
1164.000000	96.384470 
1163.000000	96.373369 
1162.000000	96.384152 
1161.000000	96.410664 
1160.000000	96.443010 
1159.000000	96.471366 
1158.000000	96.487604 
1157.000000	96.486510 
1156.000000	96.467293 
1155.000000	96.432918 
1154.000000	96.387201 
1153.000000	96.333438 
1152.000000	96.275758 
1151.000000	96.219099 
1150.000000	96.166040 
1149.000000	96.115112 
1148.000000	96.063356 
1147.000000	96.009100 
1146.000000	95.951800 
1145.000000	95.891667 
1144.000000	95.830769 
1143.000000	95.772481 
1142.000000	95.718212 
1141.000000	95.665963 
1140.000000	95.612668 
1139.000000	95.556051 
1138.000000	95.494229 
1137.000000	95.426560 
1136.000000	95.355868 
1135.000000	95.286949 
1134.000000	95.221519 
1133.000000	95.156987 
1132.000000	95.090866 
1131.000000	95.023247 
1130.000000	94.954128 
1129.000000	94.881864 
1128.000000	94.805682 
1127.000000	94.726687 
1126.000000	94.645372 
1125.000000	94.561403 
1124.000000	94.476597 
1123.000000	94.393999 
1122.000000	94.312706 
1121.000000	94.228134 
1120.000000	94.139275 
1119.000000	94.051125 
1118.000000	93.967686 
1117.000000	93.887193 
1116.000000	93.806830 
1115.000000	93.727469 
1114.000000	93.650620 
1113.000000	93.574853 
1112.000000	93.498653 
1111.000000	93.423511 
1110.000000	93.351326 
1109.000000	93.281527 
1108.000000	93.212672 
1107.000000	93.143794 
1106.000000	93.073284 
1105.000000	92.999629 
1104.000000	92.924012 
1103.000000	92.848941 
1102.000000	92.774474 
1101.000000	92.699598 
1100.000000	92.627156 
1099.000000	92.560223 
1098.000000	92.496203 
1097.000000	92.429367 
1096.000000	92.359723 
1095.000000	92.292098 
1094.000000	92.226157 
1093.000000	92.155470 
1092.000000	92.078087 
1091.000000	91.999846 
1090.000000	91.924472 
1089.000000	91.848228 
1088.000000	91.768001 
1087.000000	91.687553 
1086.000000	91.611833 
1085.000000	91.541235 
1084.000000	91.474835 
1083.000000	91.413091 
1082.000000	91.354073 
1081.000000	91.293013 
1080.000000	91.228630 
1079.000000	91.164437 
1078.000000	91.101997 
1077.000000	91.039286 
1076.000000	90.977263 
1075.000000	90.920350 
1074.000000	90.867878 
1073.000000	90.812238 
1072.000000	90.747247 
1071.000000	90.670236 
1070.000000	90.574948 
1069.000000	90.453636 
1068.000000	90.311349 
1067.000000	90.169266 
1066.000000	90.046444 
1065.000000	89.943652 
1064.000000	89.850017 
1063.000000	89.757025 
1062.000000	89.659828 
1061.000000	89.553218 
1060.000000	89.435435 
1059.000000	89.312753 
1058.000000	89.194305 
1057.000000	89.084010 
1056.000000	88.979523 
1055.000000	88.874377 
1054.000000	88.759375 
1053.000000	88.628293 
1052.000000	88.485185 
1051.000000	88.339991 
1050.000000	88.194955 
1049.000000	88.043758 
1048.000000	87.885505 
1047.000000	87.728132 
1046.000000	87.575078 
1045.000000	87.419597 
1044.000000	87.255855 
1043.000000	87.086437 
1042.000000	86.915744 
1041.000000	86.744649 
1040.000000	86.575388 
1039.000000	86.413609 
1038.000000	86.261846 
1037.000000	86.118353 
1036.000000	85.984712 
1035.000000	85.866180 
1034.000000	85.762222 
1033.000000	85.665191 
1032.000000	85.570093 
1031.000000	85.477338 
1030.000000	85.386146 
1029.000000	85.296331 
1028.000000	85.217155 
1027.000000	85.161745 
1026.000000	85.129584 
1025.000000	85.105089 
1024.000000	85.075630 
1023.000000	85.040201 
1022.000000	84.999574 
1021.000000	84.951512 
1020.000000	84.898724 
1019.000000	84.848899 
1018.000000	84.802711 
1017.000000	84.752733 
1016.000000	84.697288 
1015.000000	84.644178 
1014.000000	84.597634 
1013.000000	84.552701 
1012.000000	84.505488 
1011.000000	84.458181 
1010.000000	84.411732 
1009.000000	84.364865 
1008.000000	84.322268 
1007.000000	84.291882 
1006.000000	84.272110 
1005.000000	84.253774 
1004.000000	84.236376 
1003.000000	84.229205 
1002.000000	84.234250 
1001.000000	84.242091 
1000.000000	84.248027 
999.000000	 84.258324 
998.000000	 84.276114 
997.000000	 84.294842 
996.000000	 84.311268 
995.000000	 84.332536 
994.000000	 84.364187 
993.000000	 84.401823 
992.000000	 84.439851 
991.000000	 84.478815 
990.000000	 84.520033 
989.000000	 84.562698 
988.000000	 84.609739 
987.000000	 84.666832 
986.000000	 84.732912 
985.000000	 84.801621 
984.000000	 84.874197 
983.000000	 84.960030 
982.000000	 85.062392 
981.000000	 85.174832 
980.000000	 85.293875 
979.000000	 85.423841 
978.000000	 85.566205 
977.000000	 85.715672 
976.000000	 85.870130 
975.000000	 86.033833 
974.000000	 86.207578 
973.000000	 86.385845 
972.000000	 86.566361 
971.000000	 86.752502 
970.000000	 86.943928 
969.000000	 87.135059 
968.000000	 87.325142 
967.000000	 87.519473 
966.000000	 87.717856 
965.000000	 87.911848 
964.000000	 88.096627 
963.000000	 88.276362 
962.000000	 88.454848 
961.000000	 88.629696 
960.000000	 88.798906 
959.000000	 88.964680 
958.000000	 89.127335 
957.000000	 89.283082 
956.000000	 89.431036 
955.000000	 89.575400 
954.000000	 89.717936 
953.000000	 89.854709 
952.000000	 89.982362 
951.000000	 90.101165 
950.000000	 90.210457 
949.000000	 90.307879 
948.000000	 90.394951 
947.000000	 90.477059 
946.000000	 90.556337 
945.000000	 90.630730 
944.000000	 90.700797 
943.000000	 90.770053 
942.000000	 90.837172 
941.000000	 90.895609 
940.000000	 90.943350 
939.000000	 90.986394 
938.000000	 91.030414 
937.000000	 91.075313 
936.000000	 91.120091 
935.000000	 91.166384 
934.000000	 91.214748 
933.000000	 91.263528 
932.000000	 91.313502 
931.000000	 91.367847 
930.000000	 91.425921 
929.000000	 91.482949 
928.000000	 91.537145 
927.000000	 91.591169 
926.000000	 91.645516 
925.000000	 91.696602 
924.000000	 91.742360 
923.000000	 91.783491 
922.000000	 91.818489 
921.000000	 91.844204 
920.000000	 91.862697 
919.000000	 91.881147 
918.000000	 91.903417 
917.000000	 91.927328 
916.000000	 91.950859 
915.000000	 91.975019 
914.000000	 92.000885 
913.000000	 92.031132 
912.000000	 92.074620 
911.000000	 92.141032 
910.000000	 92.229377 
909.000000	 92.329286 
908.000000	 92.435006 
907.000000	 92.550516 
906.000000	 92.679989 
905.000000	 92.821912 
904.000000	 92.974342 
903.000000	 93.137859 
902.000000	 93.311019 
901.000000	 93.489626 
900.000000	 93.671936 
899.000000	 93.858167 
898.000000	 94.044178 
897.000000	 94.222210 
896.000000	 94.388499 
895.000000	 94.544413 
894.000000	 94.690935 
893.000000	 94.828932 
892.000000	 94.964174 
891.000000	 95.103755 
890.000000	 95.246227 
889.000000	 95.382628 
888.000000	 95.508432 
887.000000	 95.627009 
886.000000	 95.739969 
885.000000	 95.842642 
884.000000	 95.933124 
883.000000	 96.018782 
882.000000	 96.108465 
881.000000	 96.202814 
880.000000	 96.297194 
879.000000	 96.390368 
878.000000	 96.485285 
877.000000	 96.583387 
876.000000	 96.682052 
875.000000	 96.776970 
874.000000	 96.865593 
873.000000	 96.949831 
872.000000	 97.036107 
871.000000	 97.130361 
870.000000	 97.231646 
869.000000	 97.332273 
868.000000	 97.425008 
867.000000	 97.509230 
866.000000	 97.590727 
865.000000	 97.676738 
864.000000	 97.770087 
863.000000	 97.866178 
862.000000	 97.956488 
861.000000	 98.036504 
860.000000	 98.109335 
859.000000	 98.181087 
858.000000	 98.255108 
857.000000	 98.331743 
856.000000	 98.409689 
855.000000	 98.484228 
854.000000	 98.547476 
853.000000	 98.594936 
852.000000	 98.630360 
851.000000	 98.660941 
850.000000	 98.689565 
849.000000	 98.715045 
848.000000	 98.737504 
847.000000	 98.758714 
846.000000	 98.778254 
845.000000	 98.793827 
844.000000	 98.804568 
843.000000	 98.809601 
842.000000	 98.803966 
841.000000	 98.781124 
840.000000	 98.740673 
839.000000	 98.690297 
838.000000	 98.638965 
837.000000	 98.590246 
836.000000	 98.542640 
835.000000	 98.494251 
834.000000	 98.446858 
833.000000	 98.406634 
832.000000	 98.379424 
831.000000	 98.363686 
830.000000	 98.351581 
829.000000	 98.340859 
828.000000	 98.341014 
827.000000	 98.360437 
826.000000	 98.391139 
825.000000	 98.416607 
824.000000	 98.433341 
823.000000	 98.452691 
822.000000	 98.481058 
821.000000	 98.510620 
820.000000	 98.531558 
819.000000	 98.542628 
818.000000	 98.547446 
817.000000	 98.548281 
816.000000	 98.545001 
815.000000	 98.533383 
814.000000	 98.502925 
813.000000	 98.442886 
812.000000	 98.352659 
811.000000	 98.240433 
810.000000	 98.109348 
809.000000	 97.950951 
808.000000	 97.755590 
807.000000	 97.523373 
806.000000	 97.261529 
805.000000	 96.977637 
804.000000	 96.682100 
803.000000	 96.392768 
802.000000	 96.129563 
801.000000	 95.906257 
800.000000	 95.731009 
799.000000	 95.609903 
798.000000	 95.544979 
797.000000	 95.532459 
796.000000	 95.565708 
795.000000	 95.636093 
794.000000	 95.731130 
793.000000	 95.837973 
792.000000	 95.948336 
791.000000	 96.053596 
790.000000	 96.137572 
789.000000	 96.184340 
788.000000	 96.193834 
787.000000	 96.180336 
786.000000	 96.153424 
785.000000	 96.108588 
784.000000	 96.039276 
783.000000	 95.949572 
782.000000	 95.851043 
781.000000	 95.755405 
780.000000	 95.675477 
779.000000	 95.625567 
778.000000	 95.614243 
777.000000	 95.641505 
776.000000	 95.705902 
775.000000	 95.806864 
774.000000	 95.936042 
773.000000	 96.074400 
772.000000	 96.203808 
771.000000	 96.316691 
770.000000	 96.411342 
769.000000	 96.484680 
768.000000	 96.535156 
767.000000	 96.568183 
766.000000	 96.592600 
765.000000	 96.613177 
764.000000	 96.629797 
763.000000	 96.641483 
762.000000	 96.648505 
761.000000	 96.653171 
760.000000	 96.660857 
759.000000	 96.677458 
758.000000	 96.703821 
757.000000	 96.735576 
756.000000	 96.769395 
755.000000	 96.805663 
754.000000	 96.844370 
753.000000	 96.883330 
752.000000	 96.922258 
751.000000	 96.963571 
750.000000	 97.006935 
749.000000	 97.047461 
748.000000	 97.082403 
747.000000	 97.116792 
746.000000	 97.159895 
745.000000	 97.217542 
744.000000	 97.288177 
743.000000	 97.363979 
742.000000	 97.436900 
741.000000	 97.507017 
740.000000	 97.583183 
739.000000	 97.671451 
738.000000	 97.765178 
737.000000	 97.851739 
736.000000	 97.926708 
735.000000	 97.995009 
734.000000	 98.060657 
733.000000	 98.123218 
732.000000	 98.182625 
731.000000	 98.237951 
730.000000	 98.281547 
729.000000	 98.304462 
728.000000	 98.309268 
727.000000	 98.309841 
726.000000	 98.317304 
725.000000	 98.333425 
724.000000	 98.358449 
723.000000	 98.395288 
722.000000	 98.442165 
721.000000	 98.489623 
720.000000	 98.529830 
719.000000	 98.563271 
718.000000	 98.593104 
717.000000	 98.619594 
716.000000	 98.644023 
715.000000	 98.670771 
714.000000	 98.700130 
713.000000	 98.724657 
712.000000	 98.737639 
711.000000	 98.740976 
710.000000	 98.740778 
709.000000	 98.739567 
708.000000	 98.735744 
707.000000	 98.726360 
706.000000	 98.708175 
705.000000	 98.679357 
704.000000	 98.641512 
703.000000	 98.596677 
702.000000	 98.540562 
701.000000	 98.463659 
700.000000	 98.360546 
699.000000	 98.233443 
698.000000	 98.089016 
697.000000	 97.939559 
696.000000	 97.807617 
695.000000	 97.719682 
694.000000	 97.689697 
693.000000	 97.714200 
692.000000	 97.782197 
691.000000	 97.878950 
690.000000	 97.982460 
689.000000	 98.070702 
688.000000	 98.138977 
687.000000	 98.200291 
686.000000	 98.262180 
685.000000	 98.315915 
684.000000	 98.353421 
683.000000	 98.380104 
682.000000	 98.405383 
681.000000	 98.433049 
680.000000	 98.466825 
679.000000	 98.512017 
678.000000	 98.562773 
677.000000	 98.601610 
676.000000	 98.621316 
675.000000	 98.634560 
674.000000	 98.658097 
673.000000	 98.694440 
672.000000	 98.731359 
671.000000	 98.753577 
670.000000	 98.750353 
669.000000	 98.723480 
668.000000	 98.701668 
667.000000	 98.722727 
666.000000	 98.788536 
665.000000	 98.871777 
664.000000	 98.943068 
663.000000	 98.986383 
662.000000	 99.002641 
661.000000	 99.007371 
660.000000	 99.017102 
659.000000	 99.034417 
658.000000	 99.045707 
657.000000	 99.037041 
656.000000	 99.011943 
655.000000	 98.988746 
654.000000	 98.981952 
653.000000	 98.986282 
652.000000	 98.984159 
651.000000	 98.970495 
650.000000	 98.963434 

