4000.000000	99.763793 
3999.000000	99.760760 
3998.000000	99.755777 
3997.000000	99.752354 
3996.000000	99.751675 
3995.000000	99.752490 
3994.000000	99.753454 
3993.000000	99.754600 
3992.000000	99.756205 
3991.000000	99.757195 
3990.000000	99.755851 
3989.000000	99.752015 
3988.000000	99.747764 
3987.000000	99.745584 
3986.000000	99.746293 
3985.000000	99.748819 
3984.000000	99.751538 
3983.000000	99.753667 
3982.000000	99.755590 
3981.000000	99.758163 
3980.000000	99.761722 
3979.000000	99.765697 
3978.000000	99.769101 
3977.000000	99.771174 
3976.000000	99.771365 
3975.000000	99.769055 
3974.000000	99.763985 
3973.000000	99.757271 
3972.000000	99.751594 
3971.000000	99.749850 
3970.000000	99.753381 
3969.000000	99.760901 
3968.000000	99.768979 
3967.000000	99.773878 
3966.000000	99.773699 
3965.000000	99.769343 
3964.000000	99.763611 
3963.000000	99.759493 
3962.000000	99.758681 
3961.000000	99.760662 
3960.000000	99.762666 
3959.000000	99.761234 
3958.000000	99.755451 
3957.000000	99.748421 
3956.000000	99.744783 
3955.000000	99.746333 
3954.000000	99.750696 
3953.000000	99.754187 
3952.000000	99.755010 
3951.000000	99.753825 
3950.000000	99.751865 
3949.000000	99.749530 
3948.000000	99.746989 
3947.000000	99.745383 
3946.000000	99.746071 
3945.000000	99.748593 
3944.000000	99.750361 
3943.000000	99.749086 
3942.000000	99.745279 
3941.000000	99.741552 
3940.000000	99.739153 
3939.000000	99.736643 
3938.000000	99.732949 
3937.000000	99.729716 
3936.000000	99.729715 
3935.000000	99.733384 
3934.000000	99.738362 
3933.000000	99.742480 
3932.000000	99.745760 
3931.000000	99.749495 
3930.000000	99.753922 
3929.000000	99.757684 
3928.000000	99.759199 
3927.000000	99.757452 
3926.000000	99.752580 
3925.000000	99.746746 
3924.000000	99.743550 
3923.000000	99.744730 
3922.000000	99.748021 
3921.000000	99.750179 
3920.000000	99.750817 
3919.000000	99.750981 
3918.000000	99.749616 
3917.000000	99.744763 
3916.000000	99.738218 
3915.000000	99.735379 
3914.000000	99.739470 
3913.000000	99.748175 
3912.000000	99.756380 
3911.000000	99.760087 
3910.000000	99.759412 
3909.000000	99.757901 
3908.000000	99.759740 
3907.000000	99.765992 
3906.000000	99.773254 
3905.000000	99.776170 
3904.000000	99.772318 
3903.000000	99.764746 
3902.000000	99.757873 
3901.000000	99.752173 
3900.000000	99.745410 
3899.000000	99.737424 
3898.000000	99.730409 
3897.000000	99.725421 
3896.000000	99.721751 
3895.000000	99.720002 
3894.000000	99.723228 
3893.000000	99.732127 
3892.000000	99.741958 
3891.000000	99.747199 
3890.000000	99.750312 
3889.000000	99.756338 
3888.000000	99.763271 
3887.000000	99.765033 
3886.000000	99.759971 
3885.000000	99.754150 
3884.000000	99.756128 
3883.000000	99.765024 
3882.000000	99.770818 
3881.000000	99.766532 
3880.000000	99.754634 
3879.000000	99.744406 
3878.000000	99.742827 
3877.000000	99.747371 
3876.000000	99.751034 
3875.000000	99.750109 
3874.000000	99.746898 
3873.000000	99.746681 
3872.000000	99.749441 
3871.000000	99.748655 
3870.000000	99.741839 
3869.000000	99.737772 
3868.000000	99.745991 
3867.000000	99.760230 
3866.000000	99.766237 
3865.000000	99.761339 
3864.000000	99.754784 
3863.000000	99.753467 
3862.000000	99.755625 
3861.000000	99.756305 
3860.000000	99.754259 
3859.000000	99.750018 
3858.000000	99.744563 
3857.000000	99.739961 
3856.000000	99.739879 
3855.000000	99.745776 
3854.000000	99.750460 
3853.000000	99.745675 
3852.000000	99.741535 
3851.000000	99.748241 
3850.000000	99.755730 
3849.000000	99.754883 
3848.000000	99.749197 
3847.000000	99.745204 
3846.000000	99.745027 
3845.000000	99.746681 
3844.000000	99.747236 
3843.000000	99.745302 
3842.000000	99.742693 
3841.000000	99.742052 
3840.000000	99.745028 
3839.000000	99.751374 
3838.000000	99.758615 
3837.000000	99.762958 
3836.000000	99.763022 
3835.000000	99.760316 
3834.000000	99.757235 
3833.000000	99.755560 
3832.000000	99.755963 
3831.000000	99.758410 
3830.000000	99.762422 
3829.000000	99.766015 
3828.000000	99.766214 
3827.000000	99.761868 
3826.000000	99.757009 
3825.000000	99.758310 
3824.000000	99.767641 
3823.000000	99.778878 
3822.000000	99.783405 
3821.000000	99.778128 
3820.000000	99.772615 
3819.000000	99.776766 
3818.000000	99.783883 
3817.000000	99.782441 
3816.000000	99.771764 
3815.000000	99.761852 
3814.000000	99.760499 
3813.000000	99.762373 
3812.000000	99.759006 
3811.000000	99.752549 
3810.000000	99.750744 
3809.000000	99.755789 
3808.000000	99.761934 
3807.000000	99.763692 
3806.000000	99.764996 
3805.000000	99.773342 
3804.000000	99.786033 
3803.000000	99.792860 
3802.000000	99.787786 
3801.000000	99.773740 
3800.000000	99.762216 
3799.000000	99.758317 
3798.000000	99.754672 
3797.000000	99.746815 
3796.000000	99.738692 
3795.000000	99.736019 
3794.000000	99.739649 
3793.000000	99.745996 
3792.000000	99.751975 
3791.000000	99.756739 
3790.000000	99.759480 
3789.000000	99.759867 
3788.000000	99.759798 
3787.000000	99.762113 
3786.000000	99.767034 
3785.000000	99.772075 
3784.000000	99.775921 
3783.000000	99.779730 
3782.000000	99.783650 
3781.000000	99.784945 
3780.000000	99.781034 
3779.000000	99.772676 
3778.000000	99.763919 
3777.000000	99.757262 
3776.000000	99.751437 
3775.000000	99.745469 
3774.000000	99.742281 
3773.000000	99.744893 
3772.000000	99.750926 
3771.000000	99.753600 
3770.000000	99.749587 
3769.000000	99.743629 
3768.000000	99.742635 
3767.000000	99.746720 
3766.000000	99.750801 
3765.000000	99.752649 
3764.000000	99.755334 
3763.000000	99.761271 
3762.000000	99.767665 
3761.000000	99.771170 
3760.000000	99.773109 
3759.000000	99.775622 
3758.000000	99.777476 
3757.000000	99.776064 
3756.000000	99.771312 
3755.000000	99.764684 
3754.000000	99.758209 
3753.000000	99.756243 
3752.000000	99.762714 
3751.000000	99.772273 
3750.000000	99.772992 
3749.000000	99.764345 
3748.000000	99.757957 
3747.000000	99.759642 
3746.000000	99.764275 
3745.000000	99.762805 
3744.000000	99.751882 
3743.000000	99.744725 
3742.000000	99.749847 
3741.000000	99.754745 
3740.000000	99.752609 
3739.000000	99.751278 
3738.000000	99.757426 
3737.000000	99.767330 
3736.000000	99.773222 
3735.000000	99.773045 
3734.000000	99.769189 
3733.000000	99.762355 
3732.000000	99.753630 
3731.000000	99.748149 
3730.000000	99.748992 
3729.000000	99.751924 
3728.000000	99.751156 
3727.000000	99.747652 
3726.000000	99.747743 
3725.000000	99.754406 
3724.000000	99.762042 
3723.000000	99.763342 
3722.000000	99.758152 
3721.000000	99.752451 
3720.000000	99.751218 
3719.000000	99.753620 
3718.000000	99.755370 
3717.000000	99.753657 
3716.000000	99.748997 
3715.000000	99.742959 
3714.000000	99.737401 
3713.000000	99.735209 
3712.000000	99.737640 
3711.000000	99.741883 
3710.000000	99.744744 
3709.000000	99.745569 
3708.000000	99.745182 
3707.000000	99.744407 
3706.000000	99.743637 
3705.000000	99.742838 
3704.000000	99.741980 
3703.000000	99.741797 
3702.000000	99.743088 
3701.000000	99.745934 
3700.000000	99.749988 
3699.000000	99.753134 
3698.000000	99.751325 
3697.000000	99.743289 
3696.000000	99.733736 
3695.000000	99.729423 
3694.000000	99.732669 
3693.000000	99.740750 
3692.000000	99.749786 
3691.000000	99.756419 
3690.000000	99.758030 
3689.000000	99.754410 
3688.000000	99.750491 
3687.000000	99.752504 
3686.000000	99.758959 
3685.000000	99.761247 
3684.000000	99.754609 
3683.000000	99.742648 
3682.000000	99.731679 
3681.000000	99.724733 
3680.000000	99.722168 
3679.000000	99.725756 
3678.000000	99.735590 
3677.000000	99.745675 
3676.000000	99.746919 
3675.000000	99.739658 
3674.000000	99.738194 
3673.000000	99.747997 
3672.000000	99.756368 
3671.000000	99.753827 
3670.000000	99.742957 
3669.000000	99.731878 
3668.000000	99.726935 
3667.000000	99.726554 
3666.000000	99.726428 
3665.000000	99.725885 
3664.000000	99.725874 
3663.000000	99.725781 
3662.000000	99.724321 
3661.000000	99.722063 
3660.000000	99.721350 
3659.000000	99.723369 
3658.000000	99.725343 
3657.000000	99.722741 
3656.000000	99.714869 
3655.000000	99.708543 
3654.000000	99.709594 
3653.000000	99.715165 
3652.000000	99.719983 
3651.000000	99.722655 
3650.000000	99.721663 
3649.000000	99.712943 
3648.000000	99.697024 
3647.000000	99.681776 
3646.000000	99.675039 
3645.000000	99.677955 
3644.000000	99.686096 
3643.000000	99.694272 
3642.000000	99.700146 
3641.000000	99.704131 
3640.000000	99.707519 
3639.000000	99.711301 
3638.000000	99.716696 
3637.000000	99.724490 
3636.000000	99.731918 
3635.000000	99.733222 
3634.000000	99.725869 
3633.000000	99.714724 
3632.000000	99.706662 
3631.000000	99.703416 
3630.000000	99.700886 
3629.000000	99.692730 
3628.000000	99.680743 
3627.000000	99.676289 
3626.000000	99.681108 
3625.000000	99.686557 
3624.000000	99.688114 
3623.000000	99.686629 
3622.000000	99.683518 
3621.000000	99.679701 
3620.000000	99.676879 
3619.000000	99.676875 
3618.000000	99.680735 
3617.000000	99.688097 
3616.000000	99.695557 
3615.000000	99.698315 
3614.000000	99.694189 
3613.000000	99.685638 
3612.000000	99.677999 
3611.000000	99.675059 
3610.000000	99.676365 
3609.000000	99.678998 
3608.000000	99.680747 
3607.000000	99.681874 
3606.000000	99.684130 
3605.000000	99.688379 
3604.000000	99.694068 
3603.000000	99.699841 
3602.000000	99.704038 
3601.000000	99.706196 
3600.000000	99.707860 
3599.000000	99.710673 
3598.000000	99.713901 
3597.000000	99.716022 
3596.000000	99.716550 
3595.000000	99.716098 
3594.000000	99.715489 
3593.000000	99.716022 
3592.000000	99.718724 
3591.000000	99.723347 
3590.000000	99.728264 
3589.000000	99.731134 
3588.000000	99.729477 
3587.000000	99.722759 
3586.000000	99.714356 
3585.000000	99.708371 
3584.000000	99.705946 
3583.000000	99.706358 
3582.000000	99.708294 
3581.000000	99.710020 
3580.000000	99.709869 
3579.000000	99.707322 
3578.000000	99.702929 
3577.000000	99.698225 
3576.000000	99.695351 
3575.000000	99.695758 
3574.000000	99.698865 
3573.000000	99.702299 
3572.000000	99.703922 
3571.000000	99.703025 
3570.000000	99.699607 
3569.000000	99.693392 
3568.000000	99.684995 
3567.000000	99.677891 
3566.000000	99.677447 
3565.000000	99.685504 
3564.000000	99.697085 
3563.000000	99.705045 
3562.000000	99.706616 
3561.000000	99.704520 
3560.000000	99.703165 
3559.000000	99.704400 
3558.000000	99.706719 
3557.000000	99.707778 
3556.000000	99.707176 
3555.000000	99.706288 
3554.000000	99.706264 
3553.000000	99.706885 
3552.000000	99.707310 
3551.000000	99.706746 
3550.000000	99.703902 
3549.000000	99.697357 
3548.000000	99.688106 
3547.000000	99.680615 
3546.000000	99.679487 
3545.000000	99.684870 
3544.000000	99.692142 
3543.000000	99.696071 
3542.000000	99.695156 
3541.000000	99.692194 
3540.000000	99.691450 
3539.000000	99.694760 
3538.000000	99.699903 
3537.000000	99.702561 
3536.000000	99.700061 
3535.000000	99.693440 
3534.000000	99.686031 
3533.000000	99.680982 
3532.000000	99.679740 
3531.000000	99.681874 
3530.000000	99.685315 
3529.000000	99.687681 
3528.000000	99.687985 
3527.000000	99.686862 
3526.000000	99.684855 
3525.000000	99.681567 
3524.000000	99.677295 
3523.000000	99.674313 
3522.000000	99.675002 
3521.000000	99.678729 
3520.000000	99.681844 
3519.000000	99.681204 
3518.000000	99.677302 
3517.000000	99.673904 
3516.000000	99.674868 
3515.000000	99.681591 
3514.000000	99.692610 
3513.000000	99.704643 
3512.000000	99.713769 
3511.000000	99.717008 
3510.000000	99.714113 
3509.000000	99.708272 
3508.000000	99.704219 
3507.000000	99.704470 
3506.000000	99.706907 
3505.000000	99.706765 
3504.000000	99.701818 
3503.000000	99.695825 
3502.000000	99.695474 
3501.000000	99.703044 
3500.000000	99.712992 
3499.000000	99.716822 
3498.000000	99.711071 
3497.000000	99.700333 
3496.000000	99.692321 
3495.000000	99.690405 
3494.000000	99.691447 
3493.000000	99.690322 
3492.000000	99.685302 
3491.000000	99.679045 
3490.000000	99.675719 
3489.000000	99.677685 
3488.000000	99.684073 
3487.000000	99.691258 
3486.000000	99.694869 
3485.000000	99.692823 
3484.000000	99.687330 
3483.000000	99.683423 
3482.000000	99.684312 
3481.000000	99.688377 
3480.000000	99.691650 
3479.000000	99.692847 
3478.000000	99.694434 
3477.000000	99.698429 
3476.000000	99.702629 
3475.000000	99.702251 
3474.000000	99.695394 
3473.000000	99.685766 
3472.000000	99.679509 
3471.000000	99.679772 
3470.000000	99.684517 
3469.000000	99.689111 
3468.000000	99.690533 
3467.000000	99.689391 
3466.000000	99.688280 
3465.000000	99.688601 
3464.000000	99.689309 
3463.000000	99.688557 
3462.000000	99.685765 
3461.000000	99.681598 
3460.000000	99.676639 
3459.000000	99.671313 
3458.000000	99.667134 
3457.000000	99.666576 
3456.000000	99.670700 
3455.000000	99.677470 
3454.000000	99.683253 
3453.000000	99.686110 
3452.000000	99.687065 
3451.000000	99.688255 
3450.000000	99.690250 
3449.000000	99.691502 
3448.000000	99.690098 
3447.000000	99.685798 
3446.000000	99.680534 
3445.000000	99.677097 
3444.000000	99.677240 
3443.000000	99.680578 
3442.000000	99.684839 
3441.000000	99.687427 
3440.000000	99.687242 
3439.000000	99.685009 
3438.000000	99.681879 
3437.000000	99.678008 
3436.000000	99.672875 
3435.000000	99.666921 
3434.000000	99.662224 
3433.000000	99.661291 
3432.000000	99.665110 
3431.000000	99.672320 
3430.000000	99.679993 
3429.000000	99.685470 
3428.000000	99.687860 
3427.000000	99.687971 
3426.000000	99.686994 
3425.000000	99.685551 
3424.000000	99.683896 
3423.000000	99.682281 
3422.000000	99.680596 
3421.000000	99.678255 
3420.000000	99.675359 
3419.000000	99.673742 
3418.000000	99.675557 
3417.000000	99.680288 
3416.000000	99.684145 
3415.000000	99.683406 
3414.000000	99.678152 
3413.000000	99.671964 
3412.000000	99.668095 
3411.000000	99.667086 
3410.000000	99.668217 
3409.000000	99.671479 
3408.000000	99.676539 
3407.000000	99.680584 
3406.000000	99.679695 
3405.000000	99.673414 
3404.000000	99.666543 
3403.000000	99.664803 
3402.000000	99.668864 
3401.000000	99.673798 
3400.000000	99.674586 
3399.000000	99.671411 
3398.000000	99.669335 
3397.000000	99.673119 
3396.000000	99.682473 
3395.000000	99.692152 
3394.000000	99.696595 
3393.000000	99.694604 
3392.000000	99.689740 
3391.000000	99.686331 
3390.000000	99.685574 
3389.000000	99.685682 
3388.000000	99.685049 
3387.000000	99.684328 
3386.000000	99.685544 
3385.000000	99.689872 
3384.000000	99.696303 
3383.000000	99.702069 
3382.000000	99.704322 
3381.000000	99.701968 
3380.000000	99.696246 
3379.000000	99.689596 
3378.000000	99.684060 
3377.000000	99.680738 
3376.000000	99.680012 
3375.000000	99.681382 
3374.000000	99.683331 
3373.000000	99.684361 
3372.000000	99.684441 
3371.000000	99.684632 
3370.000000	99.685109 
3369.000000	99.684581 
3368.000000	99.682296 
3367.000000	99.679577 
3366.000000	99.678246 
3365.000000	99.678149 
3364.000000	99.677755 
3363.000000	99.677072 
3362.000000	99.678218 
3361.000000	99.682274 
3360.000000	99.686791 
3359.000000	99.687781 
3358.000000	99.683983 
3357.000000	99.678176 
3356.000000	99.674240 
3355.000000	99.673717 
3354.000000	99.675389 
3353.000000	99.677250 
3352.000000	99.678002 
3351.000000	99.677166 
3350.000000	99.675066 
3349.000000	99.673189 
3348.000000	99.673659 
3347.000000	99.677160 
3346.000000	99.681355 
3345.000000	99.682402 
3344.000000	99.678646 
3343.000000	99.672478 
3342.000000	99.668029 
3341.000000	99.667357 
3340.000000	99.669344 
3339.000000	99.671797 
3338.000000	99.673515 
3337.000000	99.674171 
3336.000000	99.673528 
3335.000000	99.671964 
3334.000000	99.671254 
3333.000000	99.673428 
3332.000000	99.678310 
3331.000000	99.682922 
3330.000000	99.684158 
3329.000000	99.681967 
3328.000000	99.679388 
3327.000000	99.679266 
3326.000000	99.681473 
3325.000000	99.683713 
3324.000000	99.684578 
3323.000000	99.684975 
3322.000000	99.686377 
3321.000000	99.688461 
3320.000000	99.689140 
3319.000000	99.686862 
3318.000000	99.682344 
3317.000000	99.677979 
3316.000000	99.675945 
3315.000000	99.676972 
3314.000000	99.680420 
3313.000000	99.685055 
3312.000000	99.689777 
3311.000000	99.693940 
3310.000000	99.697131 
3309.000000	99.698784 
3308.000000	99.698276 
3307.000000	99.695559 
3306.000000	99.691462 
3305.000000	99.687077 
3304.000000	99.682892 
3303.000000	99.678817 
3302.000000	99.675113 
3301.000000	99.672960 
3300.000000	99.673675 
3299.000000	99.677284 
3298.000000	99.682054 
3297.000000	99.685749 
3296.000000	99.687411 
3295.000000	99.687835 
3294.000000	99.688430 
3293.000000	99.690073 
3292.000000	99.693184 
3291.000000	99.698080 
3290.000000	99.704133 
3289.000000	99.708707 
3288.000000	99.708446 
3287.000000	99.702721 
3286.000000	99.695184 
3285.000000	99.690739 
3284.000000	99.691031 
3283.000000	99.693784 
3282.000000	99.696319 
3281.000000	99.698193 
3280.000000	99.699814 
3279.000000	99.700159 
3278.000000	99.697662 
3277.000000	99.692950 
3276.000000	99.689037 
3275.000000	99.688318 
3274.000000	99.690256 
3273.000000	99.692412 
3272.000000	99.692888 
3271.000000	99.691206 
3270.000000	99.687614 
3269.000000	99.682611 
3268.000000	99.677304 
3267.000000	99.673696 
3266.000000	99.674112 
3265.000000	99.679815 
3264.000000	99.689648 
3263.000000	99.700132 
3262.000000	99.707804 
3261.000000	99.711859 
3260.000000	99.714022 
3259.000000	99.715658 
3258.000000	99.715803 
3257.000000	99.712556 
3256.000000	99.705718 
3255.000000	99.697261 
3254.000000	99.689664 
3253.000000	99.684609 
3252.000000	99.682702 
3251.000000	99.683118 
3250.000000	99.683524 
3249.000000	99.681794 
3248.000000	99.678303 
3247.000000	99.675543 
3246.000000	99.674905 
3245.000000	99.674972 
3244.000000	99.674058 
3243.000000	99.673618 
3242.000000	99.677509 
3241.000000	99.687545 
3240.000000	99.700657 
3239.000000	99.710941 
3238.000000	99.714284 
3237.000000	99.710893 
3236.000000	99.703990 
3235.000000	99.696852 
3234.000000	99.691277 
3233.000000	99.688243 
3232.000000	99.688827 
3231.000000	99.693537 
3230.000000	99.700807 
3229.000000	99.707040 
3228.000000	99.708754 
3227.000000	99.704815 
3226.000000	99.696848 
3225.000000	99.688205 
3224.000000	99.682534 
3223.000000	99.682030 
3222.000000	99.685905 
3221.000000	99.690834 
3220.000000	99.693733 
3219.000000	99.694064 
3218.000000	99.692989 
3217.000000	99.690934 
3216.000000	99.687156 
3215.000000	99.681509 
3214.000000	99.675354 
3213.000000	99.670519 
3212.000000	99.668441 
3211.000000	99.670360 
3210.000000	99.676754 
3209.000000	99.685758 
3208.000000	99.693519 
3207.000000	99.697524 
3206.000000	99.699007 
3205.000000	99.701036 
3204.000000	99.704784 
3203.000000	99.708896 
3202.000000	99.712214 
3201.000000	99.715464 
3200.000000	99.719649 
3199.000000	99.723762 
3198.000000	99.725080 
3197.000000	99.721734 
3196.000000	99.714708 
3195.000000	99.707280 
3194.000000	99.702387 
3193.000000	99.700332 
3192.000000	99.699082 
3191.000000	99.696916 
3190.000000	99.694395 
3189.000000	99.693354 
3188.000000	99.694475 
3187.000000	99.696694 
3186.000000	99.698763 
3185.000000	99.700255 
3184.000000	99.700792 
3183.000000	99.699507 
3182.000000	99.696227 
3181.000000	99.692653 
3180.000000	99.691364 
3179.000000	99.693286 
3178.000000	99.696355 
3177.000000	99.696928 
3176.000000	99.692860 
3175.000000	99.685723 
3174.000000	99.680218 
3173.000000	99.680824 
3172.000000	99.688204 
3171.000000	99.698647 
3170.000000	99.707238 
3169.000000	99.711719 
3168.000000	99.713445 
3167.000000	99.715052 
3166.000000	99.717544 
3165.000000	99.719512 
3164.000000	99.718903 
3163.000000	99.715583 
3162.000000	99.712128 
3161.000000	99.711732 
3160.000000	99.715007 
3159.000000	99.719000 
3158.000000	99.719830 
3157.000000	99.716378 
3156.000000	99.711238 
3155.000000	99.708063 
3154.000000	99.708309 
3153.000000	99.710615 
3152.000000	99.712790 
3151.000000	99.713651 
3150.000000	99.712955 
3149.000000	99.710673 
3148.000000	99.707527 
3147.000000	99.705964 
3146.000000	99.708879 
3145.000000	99.716157 
3144.000000	99.723273 
3143.000000	99.724970 
3142.000000	99.720675 
3141.000000	99.715194 
3140.000000	99.713598 
3139.000000	99.716378 
3138.000000	99.720247 
3137.000000	99.722664 
3136.000000	99.724148 
3135.000000	99.726377 
3134.000000	99.729361 
3133.000000	99.731082 
3132.000000	99.729568 
3131.000000	99.725130 
3130.000000	99.720585 
3129.000000	99.718901 
3128.000000	99.720120 
3127.000000	99.721024 
3126.000000	99.718665 
3125.000000	99.713969 
3124.000000	99.710714 
3123.000000	99.710828 
3122.000000	99.712162 
3121.000000	99.711878 
3120.000000	99.710588 
3119.000000	99.711143 
3118.000000	99.713756 
3117.000000	99.714630 
3116.000000	99.710600 
3115.000000	99.703690 
3114.000000	99.699277 
3113.000000	99.700123 
3112.000000	99.703876 
3111.000000	99.706751 
3110.000000	99.707915 
3109.000000	99.708924 
3108.000000	99.709849 
3107.000000	99.708103 
3106.000000	99.701706 
3105.000000	99.692471 
3104.000000	99.685000 
3103.000000	99.683000 
3102.000000	99.687143 
3101.000000	99.695617 
3100.000000	99.705331 
3099.000000	99.712771 
3098.000000	99.715697 
3097.000000	99.715260 
3096.000000	99.715510 
3095.000000	99.719274 
3094.000000	99.724699 
3093.000000	99.727053 
3092.000000	99.723951 
3091.000000	99.717768 
3090.000000	99.712685 
3089.000000	99.710545 
3088.000000	99.710349 
3087.000000	99.710913 
3086.000000	99.712577 
3085.000000	99.716096 
3084.000000	99.720792 
3083.000000	99.724477 
3082.000000	99.725138 
3081.000000	99.722504 
3080.000000	99.718010 
3079.000000	99.713370 
3078.000000	99.709320 
3077.000000	99.705792 
3076.000000	99.703109 
3075.000000	99.702476 
3074.000000	99.704836 
3073.000000	99.709493 
3072.000000	99.714513 
3071.000000	99.718574 
3070.000000	99.721721 
3069.000000	99.723844 
3068.000000	99.723062 
3067.000000	99.716884 
3066.000000	99.705512 
3065.000000	99.693278 
3064.000000	99.685815 
3063.000000	99.685543 
3062.000000	99.690198 
3061.000000	99.695608 
3060.000000	99.699376 
3059.000000	99.701947 
3058.000000	99.704917 
3057.000000	99.708993 
3056.000000	99.713396 
3055.000000	99.716761 
3054.000000	99.718441 
3053.000000	99.719022 
3052.000000	99.719659 
3051.000000	99.720958 
3050.000000	99.722657 
3049.000000	99.724122 
3048.000000	99.724578 
3047.000000	99.722997 
3046.000000	99.718875 
3045.000000	99.713705 
3044.000000	99.710588 
3043.000000	99.711102 
3042.000000	99.713039 
3041.000000	99.712664 
3040.000000	99.709232 
3039.000000	99.705924 
3038.000000	99.705968 
3037.000000	99.709129 
3036.000000	99.712695 
3035.000000	99.714712 
3034.000000	99.715175 
3033.000000	99.714940 
3032.000000	99.714874 
3031.000000	99.715823 
3030.000000	99.717927 
3029.000000	99.719736 
3028.000000	99.719167 
3027.000000	99.715938 
3026.000000	99.712315 
3025.000000	99.710883 
3024.000000	99.712020 
3023.000000	99.713943 
3022.000000	99.714702 
3021.000000	99.713543 
3020.000000	99.710934 
3019.000000	99.708208 
3018.000000	99.707134 
3017.000000	99.708896 
3016.000000	99.712989 
3015.000000	99.717488 
3014.000000	99.720636 
3013.000000	99.721803 
3012.000000	99.720686 
3011.000000	99.716419 
3010.000000	99.708617 
3009.000000	99.699338 
3008.000000	99.692908 
3007.000000	99.692852 
3006.000000	99.698845 
3005.000000	99.706690 
3004.000000	99.711118 
3003.000000	99.708893 
3002.000000	99.700468 
3001.000000	99.689908 
3000.000000	99.682899 
2999.000000	99.683239 
2998.000000	99.690161 
2997.000000	99.699232 
2996.000000	99.706148 
2995.000000	99.709405 
2994.000000	99.709336 
2993.000000	99.705817 
2992.000000	99.698347 
2991.000000	99.688331 
2990.000000	99.679796 
2989.000000	99.676427 
2988.000000	99.677715 
2987.000000	99.679039 
2986.000000	99.676373 
2985.000000	99.670759 
2984.000000	99.667238 
2983.000000	99.669250 
2982.000000	99.675143 
2981.000000	99.680725 
2980.000000	99.684107 
2979.000000	99.686446 
2978.000000	99.688576 
2977.000000	99.689310 
2976.000000	99.687748 
2975.000000	99.685254 
2974.000000	99.683501 
2973.000000	99.681829 
2972.000000	99.678373 
2971.000000	99.673256 
2970.000000	99.668775 
2969.000000	99.666329 
2968.000000	99.664834 
2967.000000	99.662636 
2966.000000	99.659809 
2965.000000	99.657919 
2964.000000	99.658383 
2963.000000	99.661533 
2962.000000	99.666389 
2961.000000	99.670740 
2960.000000	99.672245 
2959.000000	99.670405 
2958.000000	99.667234 
2957.000000	99.665320 
2956.000000	99.665159 
2955.000000	99.664615 
2954.000000	99.661065 
2953.000000	99.654387 
2952.000000	99.648022 
2951.000000	99.646546 
2950.000000	99.651330 
2949.000000	99.658853 
2948.000000	99.664234 
2947.000000	99.666052 
2946.000000	99.666352 
2945.000000	99.666297 
2944.000000	99.664293 
2943.000000	99.659236 
2942.000000	99.653193 
2941.000000	99.648734 
2940.000000	99.645152 
2939.000000	99.639713 
2938.000000	99.631926 
2937.000000	99.624123 
2936.000000	99.618145 
2935.000000	99.613904 
2934.000000	99.611280 
2933.000000	99.610710 
2932.000000	99.611043 
2931.000000	99.609275 
2930.000000	99.604046 
2929.000000	99.597853 
2928.000000	99.594244 
2927.000000	99.593976 
2926.000000	99.595298 
2925.000000	99.596784 
2924.000000	99.598258 
2923.000000	99.599889 
2922.000000	99.602190 
2921.000000	99.606318 
2920.000000	99.612546 
2919.000000	99.618745 
2918.000000	99.622184 
2917.000000	99.622977 
2916.000000	99.624248 
2915.000000	99.628633 
2914.000000	99.635897 
2913.000000	99.644163 
2912.000000	99.651927 
2911.000000	99.658098 
2910.000000	99.661399 
2909.000000	99.661054 
2908.000000	99.657799 
2907.000000	99.653587 
2906.000000	99.650545 
2905.000000	99.650215 
2904.000000	99.652808 
2903.000000	99.656580 
2902.000000	99.658936 
2901.000000	99.659054 
2900.000000	99.658877 
2899.000000	99.660634 
2898.000000	99.663892 
2897.000000	99.666435 
2896.000000	99.667596 
2895.000000	99.669232 
2894.000000	99.673000 
2893.000000	99.677857 
2892.000000	99.681028 
2891.000000	99.680837 
2890.000000	99.677907 
2889.000000	99.674117 
2888.000000	99.671216 
2887.000000	99.670313 
2886.000000	99.671854 
2885.000000	99.675416 
2884.000000	99.679566 
2883.000000	99.682382 
2882.000000	99.682607 
2881.000000	99.680628 
2880.000000	99.678305 
2879.000000	99.677698 
2878.000000	99.679792 
2877.000000	99.684028 
2876.000000	99.688486 
2875.000000	99.690517 
2874.000000	99.688259 
2873.000000	99.682667 
2872.000000	99.677854 
2871.000000	99.678173 
2870.000000	99.684278 
2869.000000	99.692332 
2868.000000	99.697460 
2867.000000	99.697851 
2866.000000	99.695551 
2865.000000	99.693856 
2864.000000	99.694149 
2863.000000	99.694754 
2862.000000	99.692421 
2861.000000	99.685399 
2860.000000	99.675666 
2859.000000	99.667822 
2858.000000	99.665011 
2857.000000	99.665951 
2856.000000	99.666472 
2855.000000	99.664134 
2854.000000	99.660739 
2853.000000	99.660024 
2852.000000	99.663456 
2851.000000	99.668984 
2850.000000	99.673838 
2849.000000	99.677627 
2848.000000	99.682124 
2847.000000	99.688552 
2846.000000	99.695974 
2845.000000	99.702371 
2844.000000	99.706508 
2843.000000	99.708522 
2842.000000	99.709548 
2841.000000	99.711255 
2840.000000	99.714840 
2839.000000	99.719340 
2838.000000	99.721429 
2837.000000	99.718278 
2836.000000	99.710946 
2835.000000	99.704149 
2834.000000	99.702284 
2833.000000	99.706075 
2832.000000	99.712816 
2831.000000	99.718830 
2830.000000	99.721548 
2829.000000	99.720585 
2828.000000	99.717946 
2827.000000	99.716647 
2826.000000	99.718213 
2825.000000	99.721547 
2824.000000	99.724673 
2823.000000	99.727177 
2822.000000	99.730269 
2821.000000	99.734690 
2820.000000	99.739231 
2819.000000	99.741483 
2818.000000	99.739880 
2817.000000	99.735199 
2816.000000	99.730271 
2815.000000	99.727851 
2814.000000	99.728334 
2813.000000	99.729690 
2812.000000	99.729770 
2811.000000	99.728249 
2810.000000	99.726133 
2809.000000	99.724148 
2808.000000	99.722372 
2807.000000	99.721020 
2806.000000	99.720673 
2805.000000	99.721732 
2804.000000	99.724155 
2803.000000	99.727578 
2802.000000	99.731148 
2801.000000	99.733477 
2800.000000	99.733564 
2799.000000	99.731873 
2798.000000	99.729982 
2797.000000	99.729065 
2796.000000	99.729055 
2795.000000	99.729211 
2794.000000	99.729033 
2793.000000	99.728658 
2792.000000	99.728796 
2791.000000	99.730241 
2790.000000	99.733060 
2789.000000	99.736223 
2788.000000	99.738331 
2787.000000	99.738703 
2786.000000	99.737758 
2785.000000	99.736691 
2784.000000	99.736851 
2783.000000	99.738689 
2782.000000	99.740841 
2781.000000	99.741116 
2780.000000	99.739167 
2779.000000	99.737425 
2778.000000	99.738248 
2777.000000	99.740730 
2776.000000	99.741686 
2775.000000	99.739524 
2774.000000	99.735687 
2773.000000	99.732305 
2772.000000	99.730002 
2771.000000	99.728445 
2770.000000	99.727733 
2769.000000	99.728474 
2768.000000	99.731189 
2767.000000	99.735949 
2766.000000	99.741759 
2765.000000	99.746221 
2764.000000	99.747046 
2763.000000	99.744518 
2762.000000	99.741636 
2761.000000	99.741395 
2760.000000	99.744523 
2759.000000	99.749645 
2758.000000	99.754270 
2757.000000	99.755586 
2756.000000	99.752356 
2755.000000	99.746957 
2754.000000	99.743870 
2753.000000	99.744886 
2752.000000	99.747200 
2751.000000	99.747388 
2750.000000	99.745534 
2749.000000	99.743667 
2748.000000	99.741729 
2747.000000	99.737832 
2746.000000	99.731959 
2745.000000	99.726844 
2744.000000	99.724895 
2743.000000	99.726146 
2742.000000	99.729451 
2741.000000	99.733750 
2740.000000	99.737676 
2739.000000	99.739758 
2738.000000	99.739931 
2737.000000	99.739707 
2736.000000	99.740227 
2735.000000	99.741212 
2734.000000	99.742191 
2733.000000	99.743277 
2732.000000	99.743991 
2731.000000	99.742764 
2730.000000	99.738997 
2729.000000	99.734900 
2728.000000	99.734038 
2727.000000	99.738068 
2726.000000	99.745299 
2725.000000	99.751987 
2724.000000	99.754818 
2723.000000	99.753060 
2722.000000	99.749126 
2721.000000	99.746595 
2720.000000	99.746916 
2719.000000	99.748280 
2718.000000	99.747932 
2717.000000	99.744996 
2716.000000	99.740870 
2715.000000	99.737833 
2714.000000	99.737814 
2713.000000	99.741335 
2712.000000	99.746498 
2711.000000	99.749761 
2710.000000	99.749131 
2709.000000	99.746377 
2708.000000	99.744999 
2707.000000	99.746180 
2706.000000	99.747817 
2705.000000	99.747541 
2704.000000	99.745452 
2703.000000	99.743410 
2702.000000	99.742551 
2701.000000	99.742337 
2700.000000	99.741794 
2699.000000	99.740886 
2698.000000	99.740259 
2697.000000	99.739846 
2696.000000	99.738504 
2695.000000	99.735685 
2694.000000	99.733072 
2693.000000	99.733221 
2692.000000	99.736144 
2691.000000	99.738514 
2690.000000	99.737387 
2689.000000	99.734035 
2688.000000	99.732669 
2687.000000	99.735536 
2686.000000	99.740495 
2685.000000	99.743590 
2684.000000	99.743049 
2683.000000	99.740466 
2682.000000	99.738867 
2681.000000	99.740026 
2680.000000	99.743120 
2679.000000	99.745559 
2678.000000	99.745450 
2677.000000	99.743470 
2676.000000	99.742211 
2675.000000	99.743644 
2674.000000	99.747354 
2673.000000	99.750862 
2672.000000	99.751209 
2671.000000	99.746722 
2670.000000	99.738289 
2669.000000	99.729245 
2668.000000	99.723433 
2667.000000	99.722902 
2666.000000	99.727218 
2665.000000	99.734322 
2664.000000	99.741619 
2663.000000	99.746999 
2662.000000	99.749903 
2661.000000	99.751261 
2660.000000	99.751648 
2659.000000	99.750116 
2658.000000	99.746067 
2657.000000	99.741627 
2656.000000	99.740131 
2655.000000	99.741972 
2654.000000	99.743807 
2653.000000	99.742535 
2652.000000	99.738444 
2651.000000	99.733699 
2650.000000	99.729594 
2649.000000	99.726570 
2648.000000	99.725270 
2647.000000	99.725736 
2646.000000	99.726677 
2645.000000	99.727260 
2644.000000	99.728697 
2643.000000	99.732203 
2642.000000	99.736158 
2641.000000	99.737456 
2640.000000	99.735603 
2639.000000	99.733623 
2638.000000	99.734817 
2637.000000	99.739917 
2636.000000	99.747077 
2635.000000	99.752999 
2634.000000	99.754459 
2633.000000	99.750929 
2632.000000	99.745983 
2631.000000	99.744167 
2630.000000	99.746064 
2629.000000	99.748178 
2628.000000	99.747922 
2627.000000	99.746491 
2626.000000	99.746062 
2625.000000	99.746516 
2624.000000	99.746456 
2623.000000	99.745678 
2622.000000	99.744940 
2621.000000	99.744517 
2620.000000	99.744506 
2619.000000	99.745431 
2618.000000	99.747036 
2617.000000	99.747647 
2616.000000	99.746347 
2615.000000	99.744733 
2614.000000	99.744616 
2613.000000	99.744881 
2612.000000	99.742903 
2611.000000	99.738748 
2610.000000	99.735577 
2609.000000	99.735542 
2608.000000	99.737511 
2607.000000	99.739771 
2606.000000	99.743004 
2605.000000	99.748719 
2604.000000	99.755430 
2603.000000	99.758434 
2602.000000	99.754270 
2601.000000	99.744899 
2600.000000	99.736683 
2599.000000	99.735009 
2598.000000	99.740232 
2597.000000	99.748822 
2596.000000	99.757227 
2595.000000	99.763338 
2594.000000	99.765172 
2593.000000	99.761154 
2592.000000	99.753116 
2591.000000	99.746964 
2590.000000	99.747947 
2589.000000	99.755592 
2588.000000	99.764676 
2587.000000	99.770432 
2586.000000	99.771218 
2585.000000	99.767121 
2584.000000	99.758793 
2583.000000	99.748407 
2582.000000	99.739707 
2581.000000	99.735528 
2580.000000	99.735575 
2579.000000	99.737012 
2578.000000	99.736925 
2577.000000	99.734486 
2576.000000	99.731654 
2575.000000	99.731625 
2574.000000	99.735566 
2573.000000	99.740815 
2572.000000	99.743215 
2571.000000	99.741229 
2570.000000	99.737095 
2569.000000	99.734471 
2568.000000	99.735948 
2567.000000	99.741876 
2566.000000	99.749640 
2565.000000	99.754586 
2564.000000	99.754052 
2563.000000	99.750521 
2562.000000	99.748413 
2561.000000	99.747805 
2560.000000	99.744608 
2559.000000	99.737861 
2558.000000	99.732852 
2557.000000	99.734145 
2556.000000	99.738444 
2555.000000	99.738476 
2554.000000	99.732628 
2553.000000	99.726577 
2552.000000	99.725448 
2551.000000	99.728415 
2550.000000	99.732205 
2549.000000	99.736130 
2548.000000	99.740762 
2547.000000	99.743713 
2546.000000	99.740567 
2545.000000	99.730759 
2544.000000	99.720414 
2543.000000	99.717651 
2542.000000	99.725116 
2541.000000	99.737680 
2540.000000	99.747319 
2539.000000	99.749530 
2538.000000	99.744864 
2537.000000	99.735739 
2536.000000	99.724091 
2535.000000	99.712644 
2534.000000	99.706224 
2533.000000	99.709218 
2532.000000	99.721433 
2531.000000	99.737559 
2530.000000	99.750915 
2529.000000	99.757450 
2528.000000	99.757138 
2527.000000	99.753131 
2526.000000	99.749649 
2525.000000	99.749315 
2524.000000	99.751863 
2523.000000	99.755623 
2522.000000	99.759686 
2521.000000	99.763709 
2520.000000	99.766453 
2519.000000	99.766405 
2518.000000	99.763765 
2517.000000	99.759930 
2516.000000	99.754915 
2515.000000	99.747680 
2514.000000	99.739849 
2513.000000	99.736276 
2512.000000	99.739373 
2511.000000	99.744548 
2510.000000	99.744617 
2509.000000	99.738906 
2508.000000	99.735087 
2507.000000	99.740588 
2506.000000	99.753824 
2505.000000	99.765408 
2504.000000	99.767185 
2503.000000	99.758763 
2502.000000	99.746058 
2501.000000	99.735794 
2500.000000	99.732015 
2499.000000	99.735778 
2498.000000	99.745688 
2497.000000	99.758337 
2496.000000	99.769662 
2495.000000	99.776819 
2494.000000	99.778542 
2493.000000	99.774090 
2492.000000	99.763449 
2491.000000	99.749130 
2490.000000	99.736022 
2489.000000	99.727738 
2488.000000	99.723814 
2487.000000	99.721960 
2486.000000	99.722065 
2485.000000	99.725792 
2484.000000	99.732771 
2483.000000	99.740058 
2482.000000	99.745823 
2481.000000	99.750870 
2480.000000	99.755377 
2479.000000	99.756771 
2478.000000	99.753024 
2477.000000	99.746310 
2476.000000	99.740972 
2475.000000	99.738769 
2474.000000	99.738336 
2473.000000	99.738619 
2472.000000	99.740528 
2471.000000	99.745101 
2470.000000	99.751670 
2469.000000	99.757750 
2468.000000	99.759557 
2467.000000	99.753625 
2466.000000	99.740422 
2465.000000	99.726389 
2464.000000	99.719713 
2463.000000	99.722786 
2462.000000	99.730163 
2461.000000	99.734571 
2460.000000	99.733744 
2459.000000	99.731045 
2458.000000	99.731342 
2457.000000	99.737291 
2456.000000	99.747879 
2455.000000	99.758636 
2454.000000	99.763867 
2453.000000	99.760511 
2452.000000	99.750561 
2451.000000	99.739571 
2450.000000	99.732776 
2449.000000	99.732085 
2448.000000	99.735534 
2447.000000	99.739247 
2446.000000	99.740920 
2445.000000	99.741794 
2444.000000	99.744503 
2443.000000	99.749117 
2442.000000	99.752944 
2441.000000	99.754574 
2440.000000	99.756112 
2439.000000	99.760071 
2438.000000	99.765650 
2437.000000	99.769677 
2436.000000	99.769990 
2435.000000	99.766103 
2434.000000	99.757719 
2433.000000	99.745232 
2432.000000	99.731716 
2431.000000	99.722112 
2430.000000	99.719500 
2429.000000	99.723230 
2428.000000	99.730949 
2427.000000	99.740833 
2426.000000	99.750712 
2425.000000	99.756340 
2424.000000	99.753023 
2423.000000	99.740280 
2422.000000	99.724379 
2421.000000	99.714770 
2420.000000	99.716696 
2419.000000	99.727116 
2418.000000	99.738161 
2417.000000	99.744278 
2416.000000	99.745447 
2415.000000	99.744400 
2414.000000	99.742969 
2413.000000	99.741844 
2412.000000	99.741812 
2411.000000	99.743296 
2410.000000	99.745398 
2409.000000	99.746952 
2408.000000	99.748188 
2407.000000	99.750085 
2406.000000	99.752394 
2405.000000	99.753609 
2404.000000	99.752919 
2403.000000	99.751134 
2402.000000	99.749477 
2401.000000	99.748053 
2400.000000	99.745537 
2399.000000	99.740295 
2398.000000	99.732501 
2397.000000	99.725484 
2396.000000	99.723847 
2395.000000	99.729197 
2394.000000	99.738448 
2393.000000	99.747131 
2392.000000	99.753390 
2391.000000	99.757784 
2390.000000	99.760661 
2389.000000	99.761840 
2388.000000	99.762156 
2387.000000	99.763113 
2386.000000	99.764964 
2385.000000	99.766793 
2384.000000	99.768353 
2383.000000	99.770180 
2382.000000	99.772084 
2381.000000	99.773305 
2380.000000	99.774041 
2379.000000	99.774788 
2378.000000	99.774304 
2377.000000	99.771098 
2376.000000	99.767519 
2375.000000	99.768894 
2374.000000	99.776619 
2373.000000	99.785488 
2372.000000	99.790944 
2371.000000	99.795539 
2370.000000	99.803521 
2369.000000	99.811730 
2368.000000	99.812023 
2367.000000	99.802411 
2366.000000	99.790740 
2365.000000	99.786902 
2364.000000	99.794561 
2363.000000	99.809843 
2362.000000	99.824955 
2361.000000	99.832246 
2360.000000	99.828286 
2359.000000	99.816052 
2358.000000	99.801574 
2357.000000	99.790228 
2356.000000	99.786084 
2355.000000	99.790454 
2354.000000	99.799103 
2353.000000	99.804458 
2352.000000	99.804234 
2351.000000	99.803408 
2350.000000	99.806192 
2349.000000	99.810584 
2348.000000	99.811536 
2347.000000	99.808103 
2346.000000	99.804371 
2345.000000	99.803976 
2344.000000	99.805779 
2343.000000	99.806428 
2342.000000	99.805852 
2341.000000	99.805784 
2340.000000	99.806427 
2339.000000	99.806614 
2338.000000	99.806175 
2337.000000	99.805886 
2336.000000	99.805866 
2335.000000	99.805965 
2334.000000	99.807452 
2333.000000	99.811742 
2332.000000	99.817227 
2331.000000	99.818839 
2330.000000	99.812829 
2329.000000	99.801852 
2328.000000	99.792278 
2327.000000	99.788739 
2326.000000	99.790652 
2325.000000	99.794510 
2324.000000	99.797511 
2323.000000	99.799404 
2322.000000	99.802736 
2321.000000	99.809990 
2320.000000	99.820675 
2319.000000	99.830178 
2318.000000	99.833100 
2317.000000	99.827783 
2316.000000	99.817765 
2315.000000	99.808616 
2314.000000	99.802974 
2313.000000	99.799096 
2312.000000	99.794166 
2311.000000	99.789196 
2310.000000	99.788772 
2309.000000	99.795408 
2308.000000	99.804530 
2307.000000	99.807538 
2306.000000	99.800390 
2305.000000	99.788129 
2304.000000	99.779582 
2303.000000	99.778368 
2302.000000	99.780542 
2301.000000	99.780381 
2300.000000	99.776158 
2299.000000	99.769825 
2298.000000	99.763396 
2297.000000	99.758349 
2296.000000	99.757240 
2295.000000	99.762488 
2294.000000	99.771813 
2293.000000	99.777515 
2292.000000	99.773311 
2291.000000	99.761850 
2290.000000	99.752929 
2289.000000	99.753444 
2288.000000	99.760729 
2287.000000	99.766739 
2286.000000	99.767076 
2285.000000	99.764016 
2284.000000	99.761792 
2283.000000	99.761231 
2282.000000	99.759253 
2281.000000	99.752103 
2280.000000	99.739133 
2279.000000	99.724762 
2278.000000	99.716254 
2277.000000	99.717305 
2276.000000	99.723690 
2275.000000	99.727566 
2274.000000	99.726030 
2273.000000	99.722568 
2272.000000	99.719802 
2271.000000	99.715378 
2270.000000	99.707788 
2269.000000	99.702514 
2268.000000	99.707650 
2267.000000	99.724408 
2266.000000	99.745120 
2265.000000	99.759683 
2264.000000	99.761686 
2263.000000	99.751045 
2262.000000	99.735484 
2261.000000	99.727993 
2260.000000	99.736575 
2259.000000	99.755154 
2258.000000	99.768716 
2257.000000	99.768229 
2256.000000	99.756817 
2255.000000	99.741818 
2254.000000	99.727660 
2253.000000	99.718687 
2252.000000	99.721292 
2251.000000	99.737032 
2250.000000	99.757187 
2249.000000	99.769591 
2248.000000	99.769453 
2247.000000	99.759989 
2246.000000	99.745546 
2245.000000	99.729448 
2244.000000	99.716618 
2243.000000	99.712030 
2242.000000	99.715212 
2241.000000	99.719847 
2240.000000	99.720188 
2239.000000	99.715990 
2238.000000	99.710611 
2237.000000	99.705929 
2236.000000	99.699750 
2235.000000	99.688267 
2234.000000	99.672087 
2233.000000	99.659104 
2232.000000	99.658176 
2231.000000	99.669561 
2230.000000	99.685676 
2229.000000	99.702068 
2228.000000	99.721596 
2227.000000	99.744298 
2226.000000	99.759821 
2225.000000	99.757372 
2224.000000	99.740033 
2223.000000	99.721970 
2222.000000	99.713338 
2221.000000	99.714057 
2220.000000	99.719950 
2219.000000	99.727453 
2218.000000	99.732999 
2217.000000	99.735313 
2216.000000	99.739079 
2215.000000	99.749892 
2214.000000	99.764654 
2213.000000	99.772767 
2212.000000	99.768177 
2211.000000	99.755777 
2210.000000	99.745907 
2209.000000	99.746866 
2208.000000	99.760612 
2207.000000	99.779024 
2206.000000	99.785582 
2205.000000	99.769216 
2204.000000	99.737637 
2203.000000	99.709659 
2202.000000	99.694119 
2201.000000	99.684106 
2200.000000	99.671874 
2199.000000	99.659267 
2198.000000	99.650541 
2197.000000	99.645266 
2196.000000	99.644356 
2195.000000	99.654932 
2194.000000	99.681310 
2193.000000	99.715171 
2192.000000	99.740441 
2191.000000	99.745394 
2190.000000	99.728236 
2189.000000	99.697749 
2188.000000	99.671979 
2187.000000	99.668344 
2186.000000	99.688189 
2185.000000	99.714629 
2184.000000	99.729729 
2183.000000	99.729312 
2182.000000	99.718704 
2181.000000	99.703728 
2180.000000	99.692302 
2179.000000	99.695222 
2178.000000	99.714719 
2177.000000	99.736624 
2176.000000	99.743149 
2175.000000	99.731394 
2174.000000	99.712744 
2173.000000	99.698221 
2172.000000	99.692102 
2171.000000	99.695798 
2170.000000	99.708529 
2169.000000	99.724680 
2168.000000	99.737580 
2167.000000	99.745777 
2166.000000	99.751062 
2165.000000	99.752849 
2164.000000	99.750049 
2163.000000	99.745675 
2162.000000	99.743174 
2161.000000	99.740270 
2160.000000	99.732296 
2159.000000	99.719518 
2158.000000	99.705895 
2157.000000	99.694619 
2156.000000	99.690581 
2155.000000	99.700377 
2154.000000	99.721446 
2153.000000	99.736552 
2152.000000	99.729129 
2151.000000	99.703125 
2150.000000	99.680712 
2149.000000	99.680605 
2148.000000	99.702316 
2147.000000	99.729724 
2146.000000	99.745448 
2145.000000	99.743790 
2144.000000	99.734410 
2143.000000	99.731720 
2142.000000	99.738350 
2141.000000	99.743191 
2140.000000	99.738720 
2139.000000	99.733243 
2138.000000	99.738426 
2137.000000	99.750054 
2136.000000	99.751790 
2135.000000	99.737287 
2134.000000	99.718864 
2133.000000	99.711949 
2132.000000	99.717747 
2131.000000	99.724129 
2130.000000	99.719129 
2129.000000	99.701753 
2128.000000	99.682443 
2127.000000	99.673329 
2126.000000	99.676463 
2125.000000	99.682980 
2124.000000	99.685663 
2123.000000	99.688662 
2122.000000	99.700053 
2121.000000	99.717989 
2120.000000	99.731229 
2119.000000	99.732636 
2118.000000	99.725502 
2117.000000	99.716514 
2116.000000	99.709385 
2115.000000	99.706916 
2114.000000	99.712378 
2113.000000	99.724572 
2112.000000	99.735735 
2111.000000	99.738415 
2110.000000	99.732393 
2109.000000	99.723000 
2108.000000	99.715280 
2107.000000	99.711242 
2106.000000	99.709546 
2105.000000	99.705987 
2104.000000	99.697434 
2103.000000	99.687079 
2102.000000	99.682378 
2101.000000	99.685626 
2100.000000	99.689992 
2099.000000	99.687677 
2098.000000	99.679417 
2097.000000	99.673131 
2096.000000	99.674882 
2095.000000	99.683233 
2094.000000	99.690990 
2093.000000	99.691428 
2092.000000	99.684972 
2091.000000	99.680148 
2090.000000	99.684702 
2089.000000	99.694700 
2088.000000	99.696792 
2087.000000	99.684012 
2086.000000	99.665105 
2085.000000	99.654489 
2084.000000	99.656363 
2083.000000	99.663628 
2082.000000	99.670113 
2081.000000	99.677241 
2080.000000	99.687897 
2079.000000	99.699156 
2078.000000	99.704655 
2077.000000	99.702562 
2076.000000	99.698663 
2075.000000	99.701187 
2074.000000	99.713155 
2073.000000	99.729850 
2072.000000	99.743148 
2071.000000	99.747514 
2070.000000	99.741730 
2069.000000	99.727310 
2068.000000	99.708085 
2067.000000	99.690380 
2066.000000	99.679928 
2065.000000	99.677110 
2064.000000	99.677669 
2063.000000	99.679328 
2062.000000	99.684612 
2061.000000	99.695550 
2060.000000	99.708804 
2059.000000	99.718588 
2058.000000	99.722333 
2057.000000	99.721392 
2056.000000	99.718254 
2055.000000	99.715245 
2054.000000	99.714151 
2053.000000	99.714806 
2052.000000	99.715540 
2051.000000	99.716779 
2050.000000	99.721840 
2049.000000	99.731050 
2048.000000	99.737117 
2047.000000	99.731252 
2046.000000	99.713312 
2045.000000	99.691622 
2044.000000	99.673584 
2043.000000	99.661083 
2042.000000	99.655119 
2041.000000	99.659094 
2040.000000	99.674133 
2039.000000	99.694157 
2038.000000	99.708735 
2037.000000	99.710454 
2036.000000	99.699318 
2035.000000	99.681565 
2034.000000	99.665557 
2033.000000	99.657596 
2032.000000	99.659109 
2031.000000	99.666843 
2030.000000	99.675555 
2029.000000	99.680469 
2028.000000	99.678712 
2027.000000	99.671244 
2026.000000	99.664888 
2025.000000	99.670420 
2024.000000	99.693597 
2023.000000	99.725599 
2022.000000	99.745153 
2021.000000	99.735653 
2020.000000	99.702687 
2019.000000	99.670899 
2018.000000	99.660560 
2017.000000	99.668188 
2016.000000	99.673516 
2015.000000	99.665318 
2014.000000	99.654015 
2013.000000	99.657482 
2012.000000	99.679593 
2011.000000	99.706413 
2010.000000	99.721584 
2009.000000	99.721098 
2008.000000	99.712881 
2007.000000	99.705962 
2006.000000	99.703505 
2005.000000	99.704654 
2004.000000	99.707650 
2003.000000	99.709547 
2002.000000	99.706893 
2001.000000	99.699591 
2000.000000	99.692047 
1999.000000	99.687424 
1998.000000	99.683432 
1997.000000	99.678183 
1996.000000	99.677323 
1995.000000	99.688621 
1994.000000	99.709151 
1993.000000	99.723827 
1992.000000	99.720399 
1991.000000	99.702273 
1990.000000	99.682366 
1989.000000	99.670038 
1988.000000	99.668770 
1987.000000	99.679344 
1986.000000	99.697629 
1985.000000	99.712802 
1984.000000	99.715546 
1983.000000	99.707667 
1982.000000	99.698454 
1981.000000	99.692322 
1980.000000	99.685426 
1979.000000	99.674104 
1978.000000	99.661346 
1977.000000	99.653550 
1976.000000	99.654501 
1975.000000	99.664046 
1974.000000	99.679169 
1973.000000	99.694998 
1972.000000	99.707285 
1971.000000	99.714137 
1970.000000	99.714024 
1969.000000	99.704967 
1968.000000	99.688988 
1967.000000	99.674268 
1966.000000	99.667590 
1965.000000	99.666740 
1964.000000	99.665645 
1963.000000	99.663883 
1962.000000	99.664769 
1961.000000	99.666305 
1960.000000	99.662111 
1959.000000	99.652199 
1958.000000	99.645150 
1957.000000	99.646960 
1956.000000	99.653742 
1955.000000	99.658361 
1954.000000	99.659377 
1953.000000	99.660497 
1952.000000	99.664794 
1951.000000	99.672755 
1950.000000	99.683258 
1949.000000	99.693236 
1948.000000	99.698422 
1947.000000	99.696284 
1946.000000	99.686904 
1945.000000	99.670994 
1944.000000	99.650426 
1943.000000	99.632003 
1942.000000	99.625771 
1941.000000	99.635034 
1940.000000	99.651567 
1939.000000	99.664114 
1938.000000	99.668501 
1937.000000	99.667908 
1936.000000	99.665931 
1935.000000	99.662334 
1934.000000	99.655971 
1933.000000	99.649711 
1932.000000	99.650403 
1931.000000	99.663687 
1930.000000	99.687982 
1929.000000	99.713374 
1928.000000	99.728950 
1927.000000	99.731562 
1926.000000	99.726954 
1925.000000	99.722671 
1924.000000	99.721772 
1923.000000	99.723372 
1922.000000	99.725910 
1921.000000	99.727899 
1920.000000	99.726681 
1919.000000	99.719062 
1918.000000	99.704168 
1917.000000	99.685501 
1916.000000	99.669220 
1915.000000	99.660113 
1914.000000	99.659727 
1913.000000	99.666380 
1912.000000	99.675892 
1911.000000	99.684258 
1910.000000	99.689708 
1909.000000	99.692472 
1908.000000	99.694020 
1907.000000	99.695670 
1906.000000	99.697378 
1905.000000	99.697380 
1904.000000	99.693926 
1903.000000	99.688114 
1902.000000	99.683579 
1901.000000	99.683696 
1900.000000	99.689618 
1899.000000	99.699777 
1898.000000	99.710491 
1897.000000	99.717245 
1896.000000	99.716823 
1895.000000	99.709185 
1894.000000	99.697020 
1893.000000	99.684365 
1892.000000	99.675699 
1891.000000	99.674389 
1890.000000	99.679375 
1889.000000	99.684448 
1888.000000	99.684813 
1887.000000	99.682337 
1886.000000	99.681677 
1885.000000	99.684632 
1884.000000	99.689768 
1883.000000	99.695344 
1882.000000	99.699823 
1881.000000	99.701187 
1880.000000	99.699823 
1879.000000	99.700521 
1878.000000	99.708007 
1877.000000	99.720587 
1876.000000	99.731007 
1875.000000	99.734016 
1874.000000	99.729875 
1873.000000	99.720560 
1872.000000	99.707092 
1871.000000	99.692041 
1870.000000	99.681832 
1869.000000	99.683277 
1868.000000	99.698147 
1867.000000	99.722721 
1866.000000	99.748943 
1865.000000	99.764720 
1864.000000	99.759488 
1863.000000	99.733646 
1862.000000	99.700578 
1861.000000	99.676248 
1860.000000	99.666883 
1859.000000	99.668212 
1858.000000	99.673826 
1857.000000	99.680198 
1856.000000	99.685644 
1855.000000	99.689115 
1854.000000	99.690858 
1853.000000	99.691993 
1852.000000	99.693774 
1851.000000	99.696959 
1850.000000	99.701798 
1849.000000	99.707852 
1848.000000	99.713458 
1847.000000	99.717071 
1846.000000	99.718722 
1845.000000	99.719480 
1844.000000	99.719410 
1843.000000	99.718744 
1842.000000	99.719090 
1841.000000	99.720802 
1840.000000	99.722355 
1839.000000	99.722052 
1838.000000	99.720121 
1837.000000	99.718628 
1836.000000	99.718564 
1835.000000	99.718373 
1834.000000	99.715868 
1833.000000	99.710976 
1832.000000	99.705733 
1831.000000	99.701885 
1830.000000	99.699876 
1829.000000	99.700254 
1828.000000	99.703351 
1827.000000	99.707218 
1826.000000	99.709268 
1825.000000	99.709540 
1824.000000	99.709678 
1823.000000	99.709079 
1822.000000	99.704328 
1821.000000	99.694521 
1820.000000	99.685019 
1819.000000	99.682714 
1818.000000	99.688506 
1817.000000	99.696288 
1816.000000	99.700682 
1815.000000	99.703364 
1814.000000	99.708722 
1813.000000	99.717132 
1812.000000	99.724573 
1811.000000	99.728222 
1810.000000	99.729713 
1809.000000	99.730951 
1808.000000	99.731219 
1807.000000	99.729475 
1806.000000	99.725604 
1805.000000	99.719113 
1804.000000	99.709886 
1803.000000	99.701209 
1802.000000	99.698376 
1801.000000	99.702802 
1800.000000	99.709029 
1799.000000	99.711066 
1798.000000	99.709257 
1797.000000	99.707748 
1796.000000	99.708793 
1795.000000	99.710970 
1794.000000	99.711514 
1793.000000	99.709822 
1792.000000	99.708072 
1791.000000	99.708891 
1790.000000	99.711855 
1789.000000	99.713267 
1788.000000	99.711226 
1787.000000	99.708421 
1786.000000	99.708602 
1785.000000	99.711201 
1784.000000	99.712215 
1783.000000	99.710168 
1782.000000	99.706343 
1781.000000	99.701985 
1780.000000	99.696734 
1779.000000	99.690298 
1778.000000	99.684537 
1777.000000	99.681621 
1776.000000	99.682601 
1775.000000	99.686633 
1774.000000	99.691894 
1773.000000	99.697076 
1772.000000	99.700619 
1771.000000	99.701816 
1770.000000	99.702083 
1769.000000	99.702447 
1768.000000	99.702828 
1767.000000	99.703560 
1766.000000	99.705020 
1765.000000	99.706507 
1764.000000	99.706552 
1763.000000	99.705107 
1762.000000	99.703504 
1761.000000	99.703050 
1760.000000	99.702998 
1759.000000	99.701478 
1758.000000	99.699151 
1757.000000	99.699579 
1756.000000	99.704787 
1755.000000	99.711016 
1754.000000	99.712467 
1753.000000	99.707633 
1752.000000	99.700366 
1751.000000	99.694067 
1750.000000	99.688069 
1749.000000	99.681140 
1748.000000	99.675991 
1747.000000	99.677078 
1746.000000	99.683941 
1745.000000	99.691046 
1744.000000	99.692485 
1743.000000	99.687113 
1742.000000	99.679541 
1741.000000	99.675591 
1740.000000	99.677700 
1739.000000	99.684572 
1738.000000	99.693153 
1737.000000	99.700018 
1736.000000	99.702913 
1735.000000	99.703210 
1734.000000	99.701830 
1733.000000	99.699417 
1732.000000	99.697681 
1731.000000	99.694836 
1730.000000	99.690128 
1729.000000	99.686296 
1728.000000	99.685328 
1727.000000	99.686567 
1726.000000	99.688126 
1725.000000	99.689458 
1724.000000	99.689871 
1723.000000	99.688275 
1722.000000	99.684740 
1721.000000	99.680116 
1720.000000	99.676064 
1719.000000	99.675999 
1718.000000	99.682093 
1717.000000	99.689701 
1716.000000	99.693555 
1715.000000	99.695441 
1714.000000	99.698691 
1713.000000	99.702346 
1712.000000	99.702742 
1711.000000	99.698665 
1710.000000	99.692936 
1709.000000	99.689336 
1708.000000	99.689780 
1707.000000	99.693863 
1706.000000	99.700090 
1705.000000	99.704979 
1704.000000	99.705930 
1703.000000	99.703053 
1702.000000	99.697965 
1701.000000	99.693250 
1700.000000	99.688446 
1699.000000	99.686609 
1698.000000	99.691389 
1697.000000	99.698372 
1696.000000	99.701775 
1695.000000	99.700548 
1694.000000	99.699265 
1693.000000	99.699595 
1692.000000	99.698750 
1691.000000	99.696298 
1690.000000	99.693484 
1689.000000	99.691342 
1688.000000	99.690952 
1687.000000	99.691904 
1686.000000	99.693532 
1685.000000	99.695768 
1684.000000	99.694032 
1683.000000	99.688777 
1682.000000	99.686721 
1681.000000	99.687571 
1680.000000	99.689755 
1679.000000	99.693343 
1678.000000	99.695580 
1677.000000	99.693241 
1676.000000	99.686247 
1675.000000	99.679004 
1674.000000	99.677018 
1673.000000	99.682010 
1672.000000	99.690402 
1671.000000	99.697857 
1670.000000	99.699933 
1669.000000	99.694552 
1668.000000	99.687437 
1667.000000	99.684139 
1666.000000	99.683267 
1665.000000	99.681735 
1664.000000	99.679196 
1663.000000	99.677687 
1662.000000	99.677819 
1661.000000	99.679220 
1660.000000	99.682696 
1659.000000	99.688456 
1658.000000	99.694304 
1657.000000	99.695974 
1656.000000	99.691613 
1655.000000	99.683439 
1654.000000	99.680627 
1653.000000	99.682123 
1652.000000	99.682227 
1651.000000	99.685618 
1650.000000	99.689133 
1649.000000	99.690054 
1648.000000	99.692164 
1647.000000	99.694765 
1646.000000	99.695509 
1645.000000	99.696568 
1644.000000	99.699383 
1643.000000	99.701320 
1642.000000	99.700459 
1641.000000	99.697085 
1640.000000	99.692735 
1639.000000	99.688506 
1638.000000	99.685234 
1637.000000	99.684795 
1636.000000	99.688558 
1635.000000	99.694006 
1634.000000	99.699010 
1633.000000	99.701458 
1632.000000	99.698050 
1631.000000	99.689939 
1630.000000	99.681903 
1629.000000	99.678074 
1628.000000	99.678858 
1627.000000	99.681620 
1626.000000	99.683595 
1625.000000	99.683697 
1624.000000	99.682229 
1623.000000	99.679891 
1622.000000	99.678079 
1621.000000	99.678401 
1620.000000	99.680451 
1619.000000	99.681829 
1618.000000	99.680934 
1617.000000	99.678089 
1616.000000	99.677028 
1615.000000	99.681562 
1614.000000	99.689504 
1613.000000	99.696274 
1612.000000	99.700779 
1611.000000	99.703764 
1610.000000	99.703659 
1609.000000	99.698155 
1608.000000	99.689107 
1607.000000	99.682340 
1606.000000	99.681303 
1605.000000	99.684353 
1604.000000	99.688007 
1603.000000	99.690065 
1602.000000	99.690512 
1601.000000	99.690248 
1600.000000	99.689930 
1599.000000	99.690145 
1598.000000	99.691788 
1597.000000	99.695334 
1596.000000	99.699620 
1595.000000	99.702636 
1594.000000	99.703749 
1593.000000	99.704192 
1592.000000	99.704836 
1591.000000	99.704574 
1590.000000	99.701891 
1589.000000	99.697491 
1588.000000	99.694054 
1587.000000	99.693285 
1586.000000	99.694565 
1585.000000	99.696382 
1584.000000	99.698814 
1583.000000	99.702148 
1582.000000	99.705149 
1581.000000	99.706636 
1580.000000	99.706859 
1579.000000	99.706035 
1578.000000	99.703861 
1577.000000	99.701305 
1576.000000	99.699705 
1575.000000	99.700213 
1574.000000	99.702407 
1573.000000	99.703978 
1572.000000	99.704050 
1571.000000	99.704239 
1570.000000	99.704888 
1569.000000	99.704110 
1568.000000	99.702570 
1567.000000	99.700851 
1566.000000	99.697366 
1565.000000	99.692229 
1564.000000	99.688873 
1563.000000	99.688895 
1562.000000	99.691521 
1561.000000	99.694990 
1560.000000	99.703091 
1559.000000	99.707595 
1558.000000	99.699834 
1557.000000	99.695751 
1556.000000	99.698491 
1555.000000	99.699347 
1554.000000	99.697528 
1553.000000	99.695914 
1552.000000	99.696401 
1551.000000	99.696591 
1550.000000	99.695225 
1549.000000	99.693542 
1548.000000	99.693061 
1547.000000	99.692321 
1546.000000	99.688069 
1545.000000	99.679560 
1544.000000	99.670433 
1543.000000	99.667199 
1542.000000	99.675291 
1541.000000	99.694305 
1540.000000	99.711037 
1539.000000	99.713918 
1538.000000	99.710220 
1537.000000	99.707670 
1536.000000	99.706020 
1535.000000	99.706379 
1534.000000	99.708093 
1533.000000	99.706822 
1532.000000	99.701984 
1531.000000	99.698138 
1530.000000	99.697419 
1529.000000	99.697993 
1528.000000	99.697729 
1527.000000	99.697713 
1526.000000	99.701114 
1525.000000	99.708454 
1524.000000	99.716592 
1523.000000	99.723317 
1522.000000	99.728667 
1521.000000	99.729663 
1520.000000	99.724164 
1519.000000	99.714562 
1518.000000	99.704030 
1517.000000	99.695832 
1516.000000	99.690761 
1515.000000	99.687668 
1514.000000	99.686462 
1513.000000	99.688290 
1512.000000	99.692573 
1511.000000	99.694962 
1510.000000	99.692882 
1509.000000	99.689648 
1508.000000	99.693869 
1507.000000	99.705740 
1506.000000	99.713196 
1505.000000	99.715765 
1504.000000	99.720234 
1503.000000	99.725743 
1502.000000	99.729923 
1501.000000	99.729841 
1500.000000	99.723205 
1499.000000	99.712076 
1498.000000	99.703151 
1497.000000	99.701412 
1496.000000	99.703584 
1495.000000	99.704825 
1494.000000	99.704644 
1493.000000	99.703840 
1492.000000	99.702865 
1491.000000	99.702962 
1490.000000	99.705401 
1489.000000	99.709379 
1488.000000	99.711848 
1487.000000	99.710892 
1486.000000	99.707114 
1485.000000	99.701426 
1484.000000	99.695288 
1483.000000	99.690370 
1482.000000	99.688780 
1481.000000	99.691646 
1480.000000	99.696710 
1479.000000	99.699593 
1478.000000	99.697201 
1477.000000	99.690225 
1476.000000	99.683080 
1475.000000	99.681909 
1474.000000	99.689525 
1473.000000	99.700988 
1472.000000	99.706456 
1471.000000	99.703765 
1470.000000	99.698733 
1469.000000	99.694367 
1468.000000	99.689987 
1467.000000	99.685155 
1466.000000	99.681305 
1465.000000	99.680785 
1464.000000	99.684349 
1463.000000	99.689835 
1462.000000	99.694602 
1461.000000	99.697638 
1460.000000	99.699778 
1459.000000	99.700969 
1458.000000	99.697866 
1457.000000	99.685975 
1456.000000	99.672077 
1455.000000	99.667935 
1454.000000	99.672580 
1453.000000	99.681014 
1452.000000	99.690970 
1451.000000	99.698916 
1450.000000	99.700717 
1449.000000	99.695439 
1448.000000	99.687102 
1447.000000	99.681880 
1446.000000	99.681622 
1445.000000	99.683876 
1444.000000	99.686299 
1443.000000	99.688078 
1442.000000	99.689424 
1441.000000	99.690078 
1440.000000	99.689652 
1439.000000	99.688216 
1438.000000	99.687675 
1437.000000	99.688910 
1436.000000	99.689640 
1435.000000	99.688746 
1434.000000	99.687116 
1433.000000	99.685253 
1432.000000	99.684538 
1431.000000	99.686023 
1430.000000	99.688038 
1429.000000	99.687424 
1428.000000	99.683038 
1427.000000	99.677925 
1426.000000	99.675879 
1425.000000	99.678920 
1424.000000	99.685587 
1423.000000	99.690963 
1422.000000	99.691206 
1421.000000	99.685761 
1420.000000	99.677472 
1419.000000	99.671230 
1418.000000	99.671408 
1417.000000	99.677142 
1416.000000	99.681974 
1415.000000	99.681384 
1414.000000	99.676795 
1413.000000	99.672446 
1412.000000	99.670700 
1411.000000	99.670741 
1410.000000	99.671244 
1409.000000	99.671874 
1408.000000	99.672350 
1407.000000	99.673112 
1406.000000	99.674892 
1405.000000	99.677068 
1404.000000	99.677922 
1403.000000	99.677309 
1402.000000	99.677465 
1401.000000	99.679784 
1400.000000	99.682987 
1399.000000	99.684726 
1398.000000	99.684968 
1397.000000	99.684627 
1396.000000	99.682188 
1395.000000	99.676967 
1394.000000	99.673504 
1393.000000	99.677813 
1392.000000	99.688907 
1391.000000	99.700197 
1390.000000	99.707525 
1389.000000	99.711263 
1388.000000	99.712193 
1387.000000	99.709313 
1386.000000	99.703205 
1385.000000	99.697003 
1384.000000	99.692357 
1383.000000	99.687957 
1382.000000	99.682526 
1381.000000	99.676844 
1380.000000	99.673172 
1379.000000	99.673482 
1378.000000	99.677890 
1377.000000	99.684243 
1376.000000	99.689485 
1375.000000	99.692195 
1374.000000	99.693777 
1373.000000	99.696756 
1372.000000	99.700948 
1371.000000	99.703357 
1370.000000	99.701952 
1369.000000	99.698308 
1368.000000	99.695648 
1367.000000	99.695195 
1366.000000	99.695995 
1365.000000	99.696917 
1364.000000	99.697452 
1363.000000	99.697045 
1362.000000	99.695200 
1361.000000	99.692188 
1360.000000	99.688685 
1359.000000	99.685801 
1358.000000	99.685427 
1357.000000	99.688749 
1356.000000	99.694316 
1355.000000	99.699392 
1354.000000	99.703365 
1353.000000	99.707657 
1352.000000	99.711791 
1351.000000	99.713094 
1350.000000	99.710464 
1349.000000	99.706902 
1348.000000	99.705999 
1347.000000	99.707313 
1346.000000	99.707893 
1345.000000	99.706738 
1344.000000	99.705146 
1343.000000	99.703556 
1342.000000	99.700955 
1341.000000	99.697402 
1340.000000	99.694737 
1339.000000	99.694151 
1338.000000	99.695121 
1337.000000	99.697214 
1336.000000	99.700792 
1335.000000	99.705474 
1334.000000	99.709415 
1333.000000	99.710800 
1332.000000	99.709456 
1331.000000	99.706883 
1330.000000	99.705224 
1329.000000	99.706071 
1328.000000	99.709095 
1327.000000	99.711878 
1326.000000	99.712123 
1325.000000	99.710561 
1324.000000	99.710316 
1323.000000	99.713029 
1322.000000	99.717095 
1321.000000	99.720029 
1320.000000	99.721215 
1319.000000	99.721601 
1318.000000	99.721817 
1317.000000	99.721466 
1316.000000	99.719841 
1315.000000	99.716675 
1314.000000	99.712415 
1313.000000	99.708030 
1312.000000	99.704306 
1311.000000	99.701268 
1310.000000	99.698551 
1309.000000	99.696368 
1308.000000	99.695638 
1307.000000	99.697194 
1306.000000	99.700819 
1305.000000	99.705205 
1304.000000	99.708603 
1303.000000	99.709816 
1302.000000	99.709103 
1301.000000	99.707820 
1300.000000	99.706892 
1299.000000	99.706013 
1298.000000	99.704732 
1297.000000	99.703619 
1296.000000	99.703632 
1295.000000	99.704709 
1294.000000	99.705799 
1293.000000	99.706030 
1292.000000	99.705077 
1291.000000	99.702752 
1290.000000	99.699274 
1289.000000	99.695887 
1288.000000	99.694222 
1287.000000	99.694666 
1286.000000	99.695929 
1285.000000	99.696463 
1284.000000	99.695908 
1283.000000	99.695065 
1282.000000	99.694824 
1281.000000	99.695107 
1280.000000	99.694768 
1279.000000	99.692707 
1278.000000	99.689259 
1277.000000	99.685930 
1276.000000	99.683389 
1275.000000	99.680424 
1274.000000	99.675752 
1273.000000	99.670542 
1272.000000	99.668092 
1271.000000	99.670772 
1270.000000	99.677728 
1269.000000	99.685507 
1268.000000	99.690335 
1267.000000	99.690139 
1266.000000	99.685803 
1265.000000	99.680677 
1264.000000	99.677779 
1263.000000	99.676956 
1262.000000	99.675323 
1261.000000	99.670679 
1260.000000	99.663979 
1259.000000	99.658118 
1258.000000	99.654990 
1257.000000	99.654299 
1256.000000	99.654947 
1255.000000	99.656923 
1254.000000	99.661512 
1253.000000	99.669438 
1252.000000	99.678903 
1251.000000	99.686146 
1250.000000	99.688554 
1249.000000	99.686816 
1248.000000	99.683359 
1247.000000	99.679308 
1246.000000	99.674030 
1245.000000	99.667099 
1244.000000	99.659249 
1243.000000	99.651433 
1242.000000	99.644472 
1241.000000	99.639879 
1240.000000	99.639426 
1239.000000	99.642827 
1238.000000	99.646947 
1237.000000	99.648617 
1236.000000	99.647779 
1235.000000	99.646948 
1234.000000	99.647955 
1233.000000	99.649861 
1232.000000	99.649598 
1231.000000	99.644189 
1230.000000	99.633382 
1229.000000	99.621255 
1228.000000	99.614348 
1227.000000	99.616266 
1226.000000	99.623756 
1225.000000	99.629476 
1224.000000	99.629030 
1223.000000	99.624128 
1222.000000	99.618817 
1221.000000	99.614627 
1220.000000	99.610693 
1219.000000	99.606831 
1218.000000	99.604074 
1217.000000	99.602469 
1216.000000	99.600493 
1215.000000	99.597085 
1214.000000	99.592571 
1213.000000	99.586806 
1212.000000	99.578049 
1211.000000	99.565397 
1210.000000	99.551604 
1209.000000	99.541577 
1208.000000	99.537660 
1207.000000	99.537310 
1206.000000	99.535800 
1205.000000	99.530612 
1204.000000	99.522806 
1203.000000	99.514801 
1202.000000	99.507756 
1201.000000	99.501218 
1200.000000	99.494820 
1199.000000	99.489683 
1198.000000	99.487684 
1197.000000	99.488973 
1196.000000	99.490249 
1195.000000	99.486266 
1194.000000	99.474084 
1193.000000	99.456112 
1192.000000	99.438348 
1191.000000	99.425184 
1190.000000	99.416155 
1189.000000	99.408002 
1188.000000	99.399190 
1187.000000	99.391428 
1186.000000	99.386970 
1185.000000	99.385482 
1184.000000	99.383918 
1183.000000	99.378964 
1182.000000	99.369716 
1181.000000	99.358623 
1180.000000	99.349600 
1179.000000	99.344227 
1178.000000	99.339921 
1177.000000	99.332963 
1176.000000	99.322967 
1175.000000	99.312441 
1174.000000	99.301965 
1173.000000	99.288743 
1172.000000	99.271568 
1171.000000	99.254512 
1170.000000	99.242649 
1169.000000	99.235426 
1168.000000	99.227459 
1167.000000	99.215689 
1166.000000	99.203053 
1165.000000	99.194936 
1164.000000	99.194445 
1163.000000	99.201350 
1162.000000	99.212915 
1161.000000	99.224731 
1160.000000	99.232813 
1159.000000	99.236170 
1158.000000	99.236162 
1157.000000	99.233040 
1156.000000	99.225326 
1155.000000	99.213576 
1154.000000	99.202282 
1153.000000	99.195859 
1152.000000	99.194089 
1151.000000	99.193182 
1150.000000	99.190055 
1149.000000	99.183811 
1148.000000	99.174285 
1147.000000	99.161635 
1146.000000	99.147280 
1145.000000	99.133378 
1144.000000	99.121174 
1143.000000	99.110868 
1142.000000	99.102756 
1141.000000	99.097349 
1140.000000	99.094569 
1139.000000	99.093777 
1138.000000	99.094207 
1137.000000	99.094356 
1136.000000	99.091480 
1135.000000	99.083159 
1134.000000	99.069453 
1133.000000	99.052578 
1132.000000	99.034868 
1131.000000	99.018258 
1130.000000	99.005167 
1129.000000	98.997747 
1128.000000	98.995431 
1127.000000	98.994277 
1126.000000	98.989826 
1125.000000	98.980755 
1124.000000	98.969597 
1123.000000	98.959971 
1122.000000	98.952954 
1121.000000	98.946066 
1120.000000	98.936239 
1119.000000	98.923760 
1118.000000	98.912338 
1117.000000	98.904912 
1116.000000	98.900655 
1115.000000	98.896905 
1114.000000	98.892664 
1113.000000	98.888710 
1112.000000	98.885220 
1111.000000	98.881144 
1110.000000	98.875601 
1109.000000	98.868562 
1108.000000	98.860583 
1107.000000	98.853115 
1106.000000	98.847950 
1105.000000	98.844268 
1104.000000	98.837349 
1103.000000	98.823196 
1102.000000	98.804272 
1101.000000	98.787715 
1100.000000	98.777415 
1099.000000	98.771084 
1098.000000	98.765553 
1097.000000	98.761423 
1096.000000	98.760405 
1095.000000	98.760937 
1094.000000	98.759447 
1093.000000	98.754381 
1092.000000	98.746406 
1091.000000	98.736084 
1090.000000	98.723993 
1089.000000	98.712095 
1088.000000	98.702335 
1087.000000	98.694629 
1086.000000	98.688760 
1085.000000	98.687327 
1084.000000	98.693274 
1083.000000	98.704028 
1082.000000	98.711234 
1081.000000	98.707814 
1080.000000	98.693572 
1079.000000	98.673508 
1078.000000	98.653082 
1077.000000	98.636064 
1076.000000	98.624396 
1075.000000	98.617615 
1074.000000	98.613191 
1073.000000	98.609011 
1072.000000	98.604824 
1071.000000	98.600190 
1070.000000	98.592366 
1069.000000	98.578244 
1068.000000	98.557984 
1067.000000	98.535222 
1066.000000	98.513884 
1065.000000	98.496185 
1064.000000	98.483371 
1063.000000	98.475824 
1062.000000	98.470938 
1061.000000	98.462503 
1060.000000	98.444737 
1059.000000	98.417705 
1058.000000	98.387827 
1057.000000	98.362348 
1056.000000	98.343903 
1055.000000	98.330695 
1054.000000	98.320364 
1053.000000	98.311619 
1052.000000	98.302297 
1051.000000	98.288772 
1050.000000	98.269617 
1049.000000	98.248235 
1048.000000	98.229071 
1047.000000	98.212011 
1046.000000	98.193014 
1045.000000	98.169565 
1044.000000	98.142883 
1043.000000	98.115081 
1042.000000	98.087295 
1041.000000	98.061613 
1040.000000	98.041858 
1039.000000	98.029668 
1038.000000	98.021044 
1037.000000	98.009603 
1036.000000	97.993196 
1035.000000	97.975549 
1034.000000	97.961635 
1033.000000	97.953089 
1032.000000	97.948039 
1031.000000	97.943760 
1030.000000	97.939107 
1029.000000	97.935288 
1028.000000	97.934382 
1027.000000	97.936477 
1026.000000	97.938606 
1025.000000	97.937118 
1024.000000	97.930503 
1023.000000	97.919559 
1022.000000	97.906376 
1021.000000	97.894441 
1020.000000	97.888199 
1019.000000	97.889986 
1018.000000	97.897318 
1017.000000	97.904766 
1016.000000	97.908385 
1015.000000	97.907255 
1014.000000	97.901814 
1013.000000	97.893000 
1012.000000	97.882923 
1011.000000	97.874169 
1010.000000	97.867828 
1009.000000	97.863626 
1008.000000	97.862129 
1007.000000	97.864823 
1006.000000	97.871229 
1005.000000	97.877603 
1004.000000	97.879813 
1003.000000	97.876987 
1002.000000	97.871841 
1001.000000	97.868042 
1000.000000	97.867607 
999.000000	 97.869935 
998.000000	 97.872596 
997.000000	 97.873489 
996.000000	 97.872829 
995.000000	 97.873110 
994.000000	 97.877134 
993.000000	 97.886043 
992.000000	 97.898586 
991.000000	 97.911581 
990.000000	 97.921623 
989.000000	 97.927640 
988.000000	 97.931999 
987.000000	 97.938336 
986.000000	 97.947957 
985.000000	 97.958822 
984.000000	 97.968139 
983.000000	 97.975402 
982.000000	 97.982502 
981.000000	 97.991189 
980.000000	 98.001129 
979.000000	 98.011119 
978.000000	 98.022030 
977.000000	 98.037064 
976.000000	 98.057724 
975.000000	 98.080338 
974.000000	 98.098927 
973.000000	 98.111983 
972.000000	 98.124352 
971.000000	 98.141407 
970.000000	 98.163196 
969.000000	 98.185782 
968.000000	 98.206749 
967.000000	 98.227251 
966.000000	 98.249319 
965.000000	 98.272855 
964.000000	 98.295152 
963.000000	 98.312511 
962.000000	 98.323196 
961.000000	 98.329989 
960.000000	 98.338874 
959.000000	 98.353508 
958.000000	 98.371331 
957.000000	 98.386589 
956.000000	 98.396864 
955.000000	 98.405155 
954.000000	 98.415887 
953.000000	 98.430615 
952.000000	 98.447663 
951.000000	 98.464023 
950.000000	 98.476721 
949.000000	 98.483808 
948.000000	 98.485340 
947.000000	 98.483170 
946.000000	 98.479248 
945.000000	 98.474601 
944.000000	 98.470554 
943.000000	 98.470111 
942.000000	 98.476451 
941.000000	 98.489239 
940.000000	 98.503038 
939.000000	 98.510736 
938.000000	 98.509628 
937.000000	 98.504183 
936.000000	 98.502291 
935.000000	 98.508491 
934.000000	 98.520612 
933.000000	 98.532556 
932.000000	 98.539973 
931.000000	 98.543703 
930.000000	 98.548497 
929.000000	 98.558029 
928.000000	 98.570286 
927.000000	 98.578340 
926.000000	 98.577255 
925.000000	 98.570351 
924.000000	 98.566996 
923.000000	 98.573482 
922.000000	 98.587067 
921.000000	 98.599348 
920.000000	 98.603920 
919.000000	 98.600055 
918.000000	 98.591259 
917.000000	 98.582674 
916.000000	 98.578965 
915.000000	 98.581770 
914.000000	 98.588133 
913.000000	 98.592858 
912.000000	 98.593373 
911.000000	 98.591978 
910.000000	 98.593487 
909.000000	 98.601683 
908.000000	 98.618035 
907.000000	 98.641732 
906.000000	 98.668959 
905.000000	 98.692790 
904.000000	 98.706509 
903.000000	 98.709410 
902.000000	 98.709422 
901.000000	 98.717894 
900.000000	 98.739873 
899.000000	 98.769017 
898.000000	 98.792505 
897.000000	 98.801543 
896.000000	 98.797943 
895.000000	 98.791962 
894.000000	 98.794145 
893.000000	 98.807586 
892.000000	 98.826717 
891.000000	 98.844168 
890.000000	 98.859300 
889.000000	 98.878209 
888.000000	 98.904045 
887.000000	 98.930159 
886.000000	 98.946689 
885.000000	 98.952928 
884.000000	 98.958436 
883.000000	 98.971103 
882.000000	 98.988304 
881.000000	 99.001854 
880.000000	 99.007837 
879.000000	 99.008039 
878.000000	 99.004441 
877.000000	 98.997325 
876.000000	 98.989132 
875.000000	 98.986154 
874.000000	 98.993745 
873.000000	 99.010648 
872.000000	 99.029452 
871.000000	 99.042911 
870.000000	 99.050086 
869.000000	 99.056730 
868.000000	 99.069486 
867.000000	 99.089332 
866.000000	 99.110594 
865.000000	 99.126355 
864.000000	 99.134484 
863.000000	 99.138385 
862.000000	 99.142739 
861.000000	 99.149320 
860.000000	 99.156864 
859.000000	 99.163899 
858.000000	 99.170430 
857.000000	 99.176864 
856.000000	 99.183125 
855.000000	 99.190383 
854.000000	 99.201944 
853.000000	 99.219077 
852.000000	 99.236057 
851.000000	 99.243537 
850.000000	 99.239002 
849.000000	 99.230713 
848.000000	 99.228556 
847.000000	 99.233769 
846.000000	 99.240689 
845.000000	 99.245609 
844.000000	 99.249244 
843.000000	 99.252287 
842.000000	 99.254054 
841.000000	 99.255256 
840.000000	 99.256978 
839.000000	 99.256544 
838.000000	 99.249454 
837.000000	 99.236634 
836.000000	 99.224991 
835.000000	 99.218967 
834.000000	 99.215591 
833.000000	 99.209736 
832.000000	 99.199878 
831.000000	 99.186461 
830.000000	 99.170123 
829.000000	 99.156323 
828.000000	 99.156702 
827.000000	 99.177565 
826.000000	 99.207831 
825.000000	 99.226519 
824.000000	 99.224023 
823.000000	 99.210292 
822.000000	 99.201333 
821.000000	 99.204284 
820.000000	 99.217509 
819.000000	 99.237688 
818.000000	 99.261341 
817.000000	 99.282508 
816.000000	 99.294063 
815.000000	 99.293013 
814.000000	 99.283653 
813.000000	 99.273777 
812.000000	 99.266322 
811.000000	 99.254806 
810.000000	 99.228841 
809.000000	 99.185463 
808.000000	 99.133604 
807.000000	 99.085398 
806.000000	 99.043539 
805.000000	 98.999714 
804.000000	 98.946371 
803.000000	 98.888307 
802.000000	 98.841128 
801.000000	 98.818270 
800.000000	 98.819711 
799.000000	 98.832561 
798.000000	 98.842402 
797.000000	 98.844466 
796.000000	 98.843579 
795.000000	 98.844564 
794.000000	 98.846075 
793.000000	 98.845002 
792.000000	 98.843257 
791.000000	 98.846227 
790.000000	 98.855700 
789.000000	 98.867727 
788.000000	 98.876817 
787.000000	 98.879139 
786.000000	 98.872270 
785.000000	 98.855522 
784.000000	 98.831461 
783.000000	 98.804742 
782.000000	 98.778972 
781.000000	 98.756691 
780.000000	 98.741773 
779.000000	 98.737728 
778.000000	 98.742354 
777.000000	 98.748082 
776.000000	 98.750584 
775.000000	 98.754439 
774.000000	 98.766893 
773.000000	 98.787579 
772.000000	 98.808289 
771.000000	 98.822893 
770.000000	 98.833560 
769.000000	 98.844778 
768.000000	 98.854016 
767.000000	 98.853534 
766.000000	 98.842688 
765.000000	 98.833918 
764.000000	 98.841708 
763.000000	 98.866298 
762.000000	 98.892490 
761.000000	 98.905495 
760.000000	 98.904082 
759.000000	 98.896778 
758.000000	 98.890173 
757.000000	 98.884965 
756.000000	 98.879844 
755.000000	 98.873212 
754.000000	 98.862060 
753.000000	 98.845429 
752.000000	 98.830498 
751.000000	 98.829985 
750.000000	 98.849475 
749.000000	 98.879323 
748.000000	 98.902570 
747.000000	 98.910591 
746.000000	 98.909095 
745.000000	 98.909141 
744.000000	 98.914948 
743.000000	 98.922314 
742.000000	 98.927362 
741.000000	 98.933084 
740.000000	 98.945220 
739.000000	 98.963871 
738.000000	 98.982630 
737.000000	 98.995495 
736.000000	 99.000981 
735.000000	 98.999576 
734.000000	 98.992448 
733.000000	 98.985075 
732.000000	 98.987174 
731.000000	 99.003839 
730.000000	 99.028568 
729.000000	 99.049364 
728.000000	 99.060247 
727.000000	 99.063226 
726.000000	 99.061577 
725.000000	 99.056411 
724.000000	 99.049061 
723.000000	 99.041560 
722.000000	 99.033967 
721.000000	 99.025657 
720.000000	 99.020666 
719.000000	 99.027345 
718.000000	 99.049596 
717.000000	 99.080515 
716.000000	 99.106159 
715.000000	 99.114875 
714.000000	 99.104801 
713.000000	 99.085368 
712.000000	 99.071122 
711.000000	 99.071021 
710.000000	 99.082314 
709.000000	 99.095521 
708.000000	 99.103691 
707.000000	 99.104287 
706.000000	 99.095222 
705.000000	 99.075446 
704.000000	 99.050128 
703.000000	 99.029524 
702.000000	 99.019400 
701.000000	 99.015860 
700.000000	 99.011954 
699.000000	 99.005831 
698.000000	 99.000368 
697.000000	 98.997473 
696.000000	 98.995249 
695.000000	 98.989647 
694.000000	 98.977155 
693.000000	 98.957655 
692.000000	 98.935869 
691.000000	 98.918862 
690.000000	 98.913076 
689.000000	 98.924507 
688.000000	 98.956848 
687.000000	 99.002786 
686.000000	 99.040077 
685.000000	 99.047184 
684.000000	 99.025954 
683.000000	 99.002291 
682.000000	 99.001985 
681.000000	 99.029557 
680.000000	 99.069419 
679.000000	 99.100650 
678.000000	 99.109432 
677.000000	 99.096732 
676.000000	 99.078873 
675.000000	 99.072087 
674.000000	 99.076024 
673.000000	 99.077218 
672.000000	 99.068079 
671.000000	 99.055959 
670.000000	 99.053863 
669.000000	 99.067487 
668.000000	 99.082364 
667.000000	 99.079593 
666.000000	 99.067432 
665.000000	 99.056693 
664.000000	 99.052999 
663.000000	 99.062905 
662.000000	 99.081738 
661.000000	 99.090624 
660.000000	 99.077547 
659.000000	 99.053934 
658.000000	 99.039656 
657.000000	 99.036823 
656.000000	 99.031320 
655.000000	 99.016468 
654.000000	 99.003928 
653.000000	 99.006892 
652.000000	 99.022403 
651.000000	 99.036275 
650.000000	 99.037154 

