4000.000000	99.753755 
3999.000000	99.753751 
3998.000000	99.752777 
3997.000000	99.752229 
3996.000000	99.752783 
3995.000000	99.754253 
3994.000000	99.755977 
3993.000000	99.757331 
3992.000000	99.757939 
3991.000000	99.757542 
3990.000000	99.756030 
3989.000000	99.753833 
3988.000000	99.752047 
3987.000000	99.751711 
3986.000000	99.752815 
3985.000000	99.754161 
3984.000000	99.754317 
3983.000000	99.752799 
3982.000000	99.750425 
3981.000000	99.748568 
3980.000000	99.747990 
3979.000000	99.748444 
3978.000000	99.749417 
3977.000000	99.750995 
3976.000000	99.753634 
3975.000000	99.757037 
3974.000000	99.759690 
3973.000000	99.759847 
3972.000000	99.756987 
3971.000000	99.752217 
3970.000000	99.747458 
3969.000000	99.744318 
3968.000000	99.743428 
3967.000000	99.744401 
3966.000000	99.746346 
3965.000000	99.748543 
3964.000000	99.750595 
3963.000000	99.751910 
3962.000000	99.751424 
3961.000000	99.748317 
3960.000000	99.743231 
3959.000000	99.738394 
3958.000000	99.736055 
3957.000000	99.736746 
3956.000000	99.739256 
3955.000000	99.742339 
3954.000000	99.746109 
3953.000000	99.751349 
3952.000000	99.757543 
3951.000000	99.762180 
3950.000000	99.762771 
3949.000000	99.759687 
3948.000000	99.756160 
3947.000000	99.754963 
3946.000000	99.755832 
3945.000000	99.756469 
3944.000000	99.755298 
3943.000000	99.752675 
3942.000000	99.749947 
3941.000000	99.747986 
3940.000000	99.747001 
3939.000000	99.747194 
3938.000000	99.748805 
3937.000000	99.751554 
3936.000000	99.754421 
3935.000000	99.756263 
3934.000000	99.756621 
3933.000000	99.756016 
3932.000000	99.755688 
3931.000000	99.756866 
3930.000000	99.759975 
3929.000000	99.764105 
3928.000000	99.767076 
3927.000000	99.766727 
3926.000000	99.762712 
3925.000000	99.756877 
3924.000000	99.751526 
3923.000000	99.747604 
3922.000000	99.744914 
3921.000000	99.743439 
3920.000000	99.743534 
3919.000000	99.745102 
3918.000000	99.747425 
3917.000000	99.749943 
3916.000000	99.752591 
3915.000000	99.754985 
3914.000000	99.756056 
3913.000000	99.754702 
3912.000000	99.751115 
3911.000000	99.747236 
3910.000000	99.745450 
3909.000000	99.746685 
3908.000000	99.749654 
3907.000000	99.752165 
3906.000000	99.753400 
3905.000000	99.754798 
3904.000000	99.758287 
3903.000000	99.763663 
3902.000000	99.768605 
3901.000000	99.771444 
3900.000000	99.772526 
3899.000000	99.772559 
3898.000000	99.771468 
3897.000000	99.769098 
3896.000000	99.766173 
3895.000000	99.763612 
3894.000000	99.761549 
3893.000000	99.759788 
3892.000000	99.759206 
3891.000000	99.761018 
3890.000000	99.764113 
3889.000000	99.765321 
3888.000000	99.763185 
3887.000000	99.760245 
3886.000000	99.760265 
3885.000000	99.762553 
3884.000000	99.761887 
3883.000000	99.755123 
3882.000000	99.745753 
3881.000000	99.741182 
3880.000000	99.745119 
3879.000000	99.753076 
3878.000000	99.757731 
3877.000000	99.756818 
3876.000000	99.754585 
3875.000000	99.756467 
3874.000000	99.762389 
3873.000000	99.766486 
3872.000000	99.764279 
3871.000000	99.758362 
3870.000000	99.755331 
3869.000000	99.757201 
3868.000000	99.759459 
3867.000000	99.758278 
3866.000000	99.755315 
3865.000000	99.754430 
3864.000000	99.756705 
3863.000000	99.759842 
3862.000000	99.761903 
3861.000000	99.763562 
3860.000000	99.766623 
3859.000000	99.771619 
3858.000000	99.776942 
3857.000000	99.779948 
3856.000000	99.778885 
3855.000000	99.774747 
3854.000000	99.770645 
3853.000000	99.768317 
3852.000000	99.766197 
3851.000000	99.762475 
3850.000000	99.757955 
3849.000000	99.754944 
3848.000000	99.754764 
3847.000000	99.757194 
3846.000000	99.761401 
3845.000000	99.766849 
3844.000000	99.773335 
3843.000000	99.779281 
3842.000000	99.781198 
3841.000000	99.776492 
3840.000000	99.766719 
3839.000000	99.757715 
3838.000000	99.755183 
3837.000000	99.759470 
3836.000000	99.765608 
3835.000000	99.768086 
3834.000000	99.764733 
3833.000000	99.757659 
3832.000000	99.751236 
3831.000000	99.748434 
3830.000000	99.748835 
3829.000000	99.750229 
3828.000000	99.752180 
3827.000000	99.756741 
3826.000000	99.764897 
3825.000000	99.773592 
3824.000000	99.777837 
3823.000000	99.775778 
3822.000000	99.771260 
3821.000000	99.770034 
3820.000000	99.772436 
3819.000000	99.773434 
3818.000000	99.769823 
3817.000000	99.764459 
3816.000000	99.762320 
3815.000000	99.763376 
3814.000000	99.763476 
3813.000000	99.761456 
3812.000000	99.760586 
3811.000000	99.763693 
3810.000000	99.769265 
3809.000000	99.773221 
3808.000000	99.774164 
3807.000000	99.774816 
3806.000000	99.777234 
3805.000000	99.779238 
3804.000000	99.777599 
3803.000000	99.772671 
3802.000000	99.768170 
3801.000000	99.766022 
3800.000000	99.763701 
3799.000000	99.758825 
3798.000000	99.753246 
3797.000000	99.751290 
3796.000000	99.754578 
3795.000000	99.759818 
3794.000000	99.762433 
3793.000000	99.760837 
3792.000000	99.756529 
3791.000000	99.751656 
3790.000000	99.747345 
3789.000000	99.743764 
3788.000000	99.740904 
3787.000000	99.738967 
3786.000000	99.738421 
3785.000000	99.739529 
3784.000000	99.741724 
3783.000000	99.743837 
3782.000000	99.745503 
3781.000000	99.747707 
3780.000000	99.751219 
3779.000000	99.754494 
3778.000000	99.754492 
3777.000000	99.750343 
3776.000000	99.745211 
3775.000000	99.743569 
3774.000000	99.746745 
3773.000000	99.751850 
3772.000000	99.755402 
3771.000000	99.756996 
3770.000000	99.758559 
3769.000000	99.760847 
3768.000000	99.762368 
3767.000000	99.762004 
3766.000000	99.761100 
3765.000000	99.761750 
3764.000000	99.763885 
3763.000000	99.765248 
3762.000000	99.764150 
3761.000000	99.760745 
3760.000000	99.756405 
3759.000000	99.753556 
3758.000000	99.754982 
3757.000000	99.761576 
3756.000000	99.771045 
3755.000000	99.779818 
3754.000000	99.785759 
3753.000000	99.788504 
3752.000000	99.787944 
3751.000000	99.784552 
3750.000000	99.780859 
3749.000000	99.778708 
3748.000000	99.775948 
3747.000000	99.769523 
3746.000000	99.761131 
3745.000000	99.757534 
3744.000000	99.761720 
3743.000000	99.767164 
3742.000000	99.768052 
3741.000000	99.766668 
3740.000000	99.767985 
3739.000000	99.773059 
3738.000000	99.778399 
3737.000000	99.780701 
3736.000000	99.780223 
3735.000000	99.778819 
3734.000000	99.777141 
3733.000000	99.775170 
3732.000000	99.773195 
3731.000000	99.770454 
3730.000000	99.765016 
3729.000000	99.756887 
3728.000000	99.749968 
3727.000000	99.748773 
3726.000000	99.752576 
3725.000000	99.755497 
3724.000000	99.753752 
3723.000000	99.749609 
3722.000000	99.747657 
3721.000000	99.749352 
3720.000000	99.752444 
3719.000000	99.754898 
3718.000000	99.756947 
3717.000000	99.759085 
3716.000000	99.760260 
3715.000000	99.759011 
3714.000000	99.755567 
3713.000000	99.751593 
3712.000000	99.747922 
3711.000000	99.743840 
3710.000000	99.738655 
3709.000000	99.732820 
3708.000000	99.727383 
3707.000000	99.722962 
3706.000000	99.719566 
3705.000000	99.717284 
3704.000000	99.716890 
3703.000000	99.719345 
3702.000000	99.724184 
3701.000000	99.728641 
3700.000000	99.728953 
3699.000000	99.723240 
3698.000000	99.713518 
3697.000000	99.704426 
3696.000000	99.699766 
3695.000000	99.700500 
3694.000000	99.705595 
3693.000000	99.713140 
3692.000000	99.719867 
3691.000000	99.721140 
3690.000000	99.714208 
3689.000000	99.702601 
3688.000000	99.693800 
3687.000000	99.691396 
3686.000000	99.693568 
3685.000000	99.697653 
3684.000000	99.702167 
3683.000000	99.705961 
3682.000000	99.708035 
3681.000000	99.709074 
3680.000000	99.710973 
3679.000000	99.713557 
3678.000000	99.714017 
3677.000000	99.710765 
3676.000000	99.706596 
3675.000000	99.705224 
3674.000000	99.705306 
3673.000000	99.702765 
3672.000000	99.697432 
3671.000000	99.693693 
3670.000000	99.694029 
3669.000000	99.695135 
3668.000000	99.693323 
3667.000000	99.689617 
3666.000000	99.687641 
3665.000000	99.688912 
3664.000000	99.690963 
3663.000000	99.690155 
3662.000000	99.685615 
3661.000000	99.680258 
3660.000000	99.678066 
3659.000000	99.681213 
3658.000000	99.689523 
3657.000000	99.701101 
3656.000000	99.712724 
3655.000000	99.720784 
3654.000000	99.723123 
3653.000000	99.720676 
3652.000000	99.717410 
3651.000000	99.717503 
3650.000000	99.720857 
3649.000000	99.722845 
3648.000000	99.720634 
3647.000000	99.716242 
3646.000000	99.712813 
3645.000000	99.711160 
3644.000000	99.709986 
3643.000000	99.707645 
3642.000000	99.703308 
3641.000000	99.697730 
3640.000000	99.693255 
3639.000000	99.692041 
3638.000000	99.693556 
3637.000000	99.694726 
3636.000000	99.693726 
3635.000000	99.692657 
3634.000000	99.694745 
3633.000000	99.699590 
3632.000000	99.703641 
3631.000000	99.705132 
3630.000000	99.706299 
3629.000000	99.708692 
3628.000000	99.708814 
3627.000000	99.703157 
3626.000000	99.693923 
3625.000000	99.686912 
3624.000000	99.686023 
3623.000000	99.690438 
3622.000000	99.696565 
3621.000000	99.701610 
3620.000000	99.704723 
3619.000000	99.705999 
3618.000000	99.705704 
3617.000000	99.704289 
3616.000000	99.702671 
3615.000000	99.702126 
3614.000000	99.703467 
3613.000000	99.706429 
3612.000000	99.710301 
3611.000000	99.714826 
3610.000000	99.720011 
3609.000000	99.724827 
3608.000000	99.727001 
3607.000000	99.725348 
3606.000000	99.721330 
3605.000000	99.717574 
3604.000000	99.715426 
3603.000000	99.714205 
3602.000000	99.712674 
3601.000000	99.710869 
3600.000000	99.709902 
3599.000000	99.710575 
3598.000000	99.712684 
3597.000000	99.715599 
3596.000000	99.719281 
3595.000000	99.724032 
3594.000000	99.729099 
3593.000000	99.732233 
3592.000000	99.731248 
3591.000000	99.725857 
3590.000000	99.718200 
3589.000000	99.711584 
3588.000000	99.708363 
3587.000000	99.708746 
3586.000000	99.711296 
3585.000000	99.714097 
3584.000000	99.715831 
3583.000000	99.716420 
3582.000000	99.716842 
3581.000000	99.717902 
3580.000000	99.719057 
3579.000000	99.718802 
3578.000000	99.716353 
3577.000000	99.712377 
3576.000000	99.707986 
3575.000000	99.703643 
3574.000000	99.699392 
3573.000000	99.695828 
3572.000000	99.694191 
3571.000000	99.695545 
3570.000000	99.700284 
3569.000000	99.708055 
3568.000000	99.717185 
3567.000000	99.724710 
3566.000000	99.728381 
3565.000000	99.728452 
3564.000000	99.726884 
3563.000000	99.725458 
3562.000000	99.724683 
3561.000000	99.723984 
3560.000000	99.722554 
3559.000000	99.720027 
3558.000000	99.716747 
3557.000000	99.713859 
3556.000000	99.712995 
3555.000000	99.715318 
3554.000000	99.720216 
3553.000000	99.724910 
3552.000000	99.726012 
3551.000000	99.722036 
3550.000000	99.714444 
3549.000000	99.706465 
3548.000000	99.701008 
3547.000000	99.699193 
3546.000000	99.700320 
3545.000000	99.703008 
3544.000000	99.706414 
3543.000000	99.710517 
3542.000000	99.715512 
3541.000000	99.721023 
3540.000000	99.725722 
3539.000000	99.727815 
3538.000000	99.726164 
3537.000000	99.721204 
3536.000000	99.714869 
3535.000000	99.709481 
3534.000000	99.706511 
3533.000000	99.705953 
3532.000000	99.706480 
3531.000000	99.706275 
3530.000000	99.704300 
3529.000000	99.701101 
3528.000000	99.698226 
3527.000000	99.696848 
3526.000000	99.697283 
3525.000000	99.699644 
3524.000000	99.704112 
3523.000000	99.710144 
3522.000000	99.716067 
3521.000000	99.720176 
3520.000000	99.722126 
3519.000000	99.722752 
3518.000000	99.722685 
3517.000000	99.721643 
3516.000000	99.719354 
3515.000000	99.716690 
3514.000000	99.715266 
3513.000000	99.715876 
3512.000000	99.717621 
3511.000000	99.718666 
3510.000000	99.717823 
3509.000000	99.715325 
3508.000000	99.712066 
3507.000000	99.708458 
3506.000000	99.704474 
3505.000000	99.700650 
3504.000000	99.698474 
3503.000000	99.699277 
3502.000000	99.702805 
3501.000000	99.707156 
3500.000000	99.710111 
3499.000000	99.710376 
3498.000000	99.707970 
3497.000000	99.704047 
3496.000000	99.700267 
3495.000000	99.697802 
3494.000000	99.696620 
3493.000000	99.695872 
3492.000000	99.695041 
3491.000000	99.694368 
3490.000000	99.694169 
3489.000000	99.694137 
3488.000000	99.693710 
3487.000000	99.693039 
3486.000000	99.693244 
3485.000000	99.695425 
3484.000000	99.699408 
3483.000000	99.703438 
3482.000000	99.705324 
3481.000000	99.704128 
3480.000000	99.700725 
3479.000000	99.696829 
3478.000000	99.693950 
3477.000000	99.693350 
3476.000000	99.696055 
3475.000000	99.701735 
3474.000000	99.707617 
3473.000000	99.709796 
3472.000000	99.706499 
3471.000000	99.699808 
3470.000000	99.693687 
3469.000000	99.690590 
3468.000000	99.690268 
3467.000000	99.691181 
3466.000000	99.692136 
3465.000000	99.692526 
3464.000000	99.692010 
3463.000000	99.690594 
3462.000000	99.688721 
3461.000000	99.686891 
3460.000000	99.685346 
3459.000000	99.684329 
3458.000000	99.684259 
3457.000000	99.685236 
3456.000000	99.686577 
3455.000000	99.687339 
3454.000000	99.687381 
3453.000000	99.687413 
3452.000000	99.687807 
3451.000000	99.687917 
3450.000000	99.687109 
3449.000000	99.686055 
3448.000000	99.686051 
3447.000000	99.686889 
3446.000000	99.686494 
3445.000000	99.683565 
3444.000000	99.679822 
3443.000000	99.678606 
3442.000000	99.681325 
3441.000000	99.686028 
3440.000000	99.689615 
3439.000000	99.690680 
3438.000000	99.690044 
3437.000000	99.689427 
3436.000000	99.690138 
3435.000000	99.692375 
3434.000000	99.695057 
3433.000000	99.696479 
3432.000000	99.695635 
3431.000000	99.692962 
3430.000000	99.689774 
3429.000000	99.687381 
3428.000000	99.686988 
3427.000000	99.689674 
3426.000000	99.695445 
3425.000000	99.702317 
3424.000000	99.707192 
3423.000000	99.708227 
3422.000000	99.706268 
3421.000000	99.703731 
3420.000000	99.702292 
3419.000000	99.701850 
3418.000000	99.701568 
3417.000000	99.701269 
3416.000000	99.701296 
3415.000000	99.701201 
3414.000000	99.699372 
3413.000000	99.694660 
3412.000000	99.688163 
3411.000000	99.682660 
3410.000000	99.680122 
3409.000000	99.680304 
3408.000000	99.681764 
3407.000000	99.683413 
3406.000000	99.684576 
3405.000000	99.684464 
3404.000000	99.682825 
3403.000000	99.681060 
3402.000000	99.681657 
3401.000000	99.685818 
3400.000000	99.691892 
3399.000000	99.696356 
3398.000000	99.696371 
3397.000000	99.691655 
3396.000000	99.684399 
3395.000000	99.677599 
3394.000000	99.673273 
3393.000000	99.671878 
3392.000000	99.672889 
3391.000000	99.675409 
3390.000000	99.678234 
3389.000000	99.680082 
3388.000000	99.680503 
3387.000000	99.680456 
3386.000000	99.681512 
3385.000000	99.684399 
3384.000000	99.688474 
3383.000000	99.692318 
3382.000000	99.694511 
3381.000000	99.694312 
3380.000000	99.692393 
3379.000000	99.690732 
3378.000000	99.690836 
3377.000000	99.691987 
3376.000000	99.692068 
3375.000000	99.690292 
3374.000000	99.688120 
3373.000000	99.687131 
3372.000000	99.687057 
3371.000000	99.686874 
3370.000000	99.687023 
3369.000000	99.689055 
3368.000000	99.693013 
3367.000000	99.696491 
3366.000000	99.697022 
3365.000000	99.694806 
3364.000000	99.692290 
3363.000000	99.691286 
3362.000000	99.691157 
3361.000000	99.689914 
3360.000000	99.686693 
3359.000000	99.682944 
3358.000000	99.681230 
3357.000000	99.682797 
3356.000000	99.686193 
3355.000000	99.688340 
3354.000000	99.687246 
3353.000000	99.683698 
3352.000000	99.680240 
3351.000000	99.678675 
3350.000000	99.678798 
3349.000000	99.679375 
3348.000000	99.679648 
3347.000000	99.679587 
3346.000000	99.679300 
3345.000000	99.678908 
3344.000000	99.678885 
3343.000000	99.679904 
3342.000000	99.682211 
3341.000000	99.685419 
3340.000000	99.688792 
3339.000000	99.691363 
3338.000000	99.692006 
3337.000000	99.690231 
3336.000000	99.687127 
3335.000000	99.684913 
3334.000000	99.685125 
3333.000000	99.687560 
3332.000000	99.691015 
3331.000000	99.694440 
3330.000000	99.697014 
3329.000000	99.697766 
3328.000000	99.695922 
3327.000000	99.691623 
3326.000000	99.685997 
3325.000000	99.680635 
3324.000000	99.677095 
3323.000000	99.676376 
3322.000000	99.678350 
3321.000000	99.681938 
3320.000000	99.686166 
3319.000000	99.690696 
3318.000000	99.695032 
3317.000000	99.697951 
3316.000000	99.698705 
3315.000000	99.698457 
3314.000000	99.699340 
3313.000000	99.701876 
3312.000000	99.704259 
3311.000000	99.704562 
3310.000000	99.702960 
3309.000000	99.701272 
3308.000000	99.700907 
3307.000000	99.701892 
3306.000000	99.703506 
3305.000000	99.705060 
3304.000000	99.706089 
3303.000000	99.706364 
3302.000000	99.705865 
3301.000000	99.704320 
3300.000000	99.700712 
3299.000000	99.693894 
3298.000000	99.684285 
3297.000000	99.674792 
3296.000000	99.669361 
3295.000000	99.670100 
3294.000000	99.675770 
3293.000000	99.683057 
3292.000000	99.689213 
3291.000000	99.693566 
3290.000000	99.696939 
3289.000000	99.700050 
3288.000000	99.702516 
3287.000000	99.703269 
3286.000000	99.702083 
3285.000000	99.700646 
3284.000000	99.701536 
3283.000000	99.705510 
3282.000000	99.710053 
3281.000000	99.711264 
3280.000000	99.707263 
3279.000000	99.699526 
3278.000000	99.691427 
3277.000000	99.686255 
3276.000000	99.685957 
3275.000000	99.690012 
3274.000000	99.694988 
3273.000000	99.696708 
3272.000000	99.694008 
3271.000000	99.689696 
3270.000000	99.687039 
3269.000000	99.686221 
3268.000000	99.685296 
3267.000000	99.683706 
3266.000000	99.683100 
3265.000000	99.684699 
3264.000000	99.687427 
3263.000000	99.689291 
3262.000000	99.689573 
3261.000000	99.689018 
3260.000000	99.688670 
3259.000000	99.689326 
3258.000000	99.691652 
3257.000000	99.695816 
3256.000000	99.700740 
3255.000000	99.704231 
3254.000000	99.704418 
3253.000000	99.701227 
3252.000000	99.696418 
3251.000000	99.692178 
3250.000000	99.689716 
3249.000000	99.689168 
3248.000000	99.690354 
3247.000000	99.692976 
3246.000000	99.696064 
3245.000000	99.697934 
3244.000000	99.697240 
3243.000000	99.693937 
3242.000000	99.689036 
3241.000000	99.683907 
3240.000000	99.680111 
3239.000000	99.679290 
3238.000000	99.682364 
3237.000000	99.688565 
3236.000000	99.695404 
3235.000000	99.699687 
3234.000000	99.699083 
3233.000000	99.693634 
3232.000000	99.686141 
3231.000000	99.680352 
3230.000000	99.678138 
3229.000000	99.678672 
3228.000000	99.680360 
3227.000000	99.682520 
3226.000000	99.684688 
3225.000000	99.685602 
3224.000000	99.684354 
3223.000000	99.682025 
3222.000000	99.680815 
3221.000000	99.681685 
3220.000000	99.684049 
3219.000000	99.687478 
3218.000000	99.692071 
3217.000000	99.696840 
3216.000000	99.699385 
3215.000000	99.698223 
3214.000000	99.694704 
3213.000000	99.691785 
3212.000000	99.691293 
3211.000000	99.692838 
3210.000000	99.694737 
3209.000000	99.695297 
3208.000000	99.693663 
3207.000000	99.690302 
3206.000000	99.686739 
3205.000000	99.684424 
3204.000000	99.683775 
3203.000000	99.684379 
3202.000000	99.685775 
3201.000000	99.687692 
3200.000000	99.689777 
3199.000000	99.691589 
3198.000000	99.692873 
3197.000000	99.693405 
3196.000000	99.692448 
3195.000000	99.688925 
3194.000000	99.682780 
3193.000000	99.676145 
3192.000000	99.672384 
3191.000000	99.673302 
3190.000000	99.677360 
3189.000000	99.681063 
3188.000000	99.682016 
3187.000000	99.680457 
3186.000000	99.678443 
3185.000000	99.678505 
3184.000000	99.682573 
3183.000000	99.690385 
3182.000000	99.698324 
3181.000000	99.701295 
3180.000000	99.697153 
3179.000000	99.688820 
3178.000000	99.681325 
3177.000000	99.677479 
3176.000000	99.677110 
3175.000000	99.679076 
3174.000000	99.682105 
3173.000000	99.684399 
3172.000000	99.684650 
3171.000000	99.683741 
3170.000000	99.683744 
3169.000000	99.684807 
3168.000000	99.684629 
3167.000000	99.681782 
3166.000000	99.678237 
3165.000000	99.677476 
3164.000000	99.680744 
3163.000000	99.685896 
3162.000000	99.689461 
3161.000000	99.689281 
3160.000000	99.685718 
3159.000000	99.681113 
3158.000000	99.678031 
3157.000000	99.677548 
3156.000000	99.678954 
3155.000000	99.680707 
3154.000000	99.681270 
3153.000000	99.679466 
3152.000000	99.675131 
3151.000000	99.669729 
3150.000000	99.665539 
3149.000000	99.663833 
3148.000000	99.664307 
3147.000000	99.666351 
3146.000000	99.670013 
3145.000000	99.675284 
3144.000000	99.681125 
3143.000000	99.685742 
3142.000000	99.687513 
3141.000000	99.685525 
3140.000000	99.680043 
3139.000000	99.672991 
3138.000000	99.667320 
3137.000000	99.665039 
3136.000000	99.665852 
3135.000000	99.667939 
3134.000000	99.669635 
3133.000000	99.670102 
3132.000000	99.669109 
3131.000000	99.667075 
3130.000000	99.665189 
3129.000000	99.664760 
3128.000000	99.666200 
3127.000000	99.668930 
3126.000000	99.672316 
3125.000000	99.676266 
3124.000000	99.680572 
3123.000000	99.683855 
3122.000000	99.683771 
3121.000000	99.678966 
3120.000000	99.670977 
3119.000000	99.663739 
3118.000000	99.660625 
3117.000000	99.661947 
3116.000000	99.665517 
3115.000000	99.669187 
3114.000000	99.672185 
3113.000000	99.674359 
3112.000000	99.675425 
3111.000000	99.675574 
3110.000000	99.676003 
3109.000000	99.677709 
3108.000000	99.679763 
3107.000000	99.679686 
3106.000000	99.676344 
3105.000000	99.672249 
3104.000000	99.671881 
3103.000000	99.676974 
3102.000000	99.684056 
3101.000000	99.687843 
3100.000000	99.687012 
3099.000000	99.685079 
3098.000000	99.685306 
3097.000000	99.686783 
3096.000000	99.686906 
3095.000000	99.686049 
3094.000000	99.687169 
3093.000000	99.691098 
3092.000000	99.694719 
3091.000000	99.694544 
3090.000000	99.690523 
3089.000000	99.685529 
3088.000000	99.682278 
3087.000000	99.681510 
3086.000000	99.682112 
3085.000000	99.682127 
3084.000000	99.680357 
3083.000000	99.677753 
3082.000000	99.676719 
3081.000000	99.678486 
3080.000000	99.681727 
3079.000000	99.684208 
3078.000000	99.685123 
3077.000000	99.685272 
3076.000000	99.685611 
3075.000000	99.686284 
3074.000000	99.686665 
3073.000000	99.685879 
3072.000000	99.683787 
3071.000000	99.681817 
3070.000000	99.682065 
3069.000000	99.684981 
3068.000000	99.688480 
3067.000000	99.690032 
3066.000000	99.689185 
3065.000000	99.687427 
3064.000000	99.686029 
3063.000000	99.684732 
3062.000000	99.682230 
3061.000000	99.677435 
3060.000000	99.670725 
3059.000000	99.664516 
3058.000000	99.661958 
3057.000000	99.664046 
3056.000000	99.668173 
3055.000000	99.670360 
3054.000000	99.668900 
3053.000000	99.665354 
3052.000000	99.662399 
3051.000000	99.661491 
3050.000000	99.662336 
3049.000000	99.663620 
3048.000000	99.664098 
3047.000000	99.663611 
3046.000000	99.663190 
3045.000000	99.663720 
3044.000000	99.664634 
3043.000000	99.664680 
3042.000000	99.663925 
3041.000000	99.664020 
3040.000000	99.665957 
3039.000000	99.668275 
3038.000000	99.668299 
3037.000000	99.664984 
3036.000000	99.659955 
3035.000000	99.655745 
3034.000000	99.653459 
3033.000000	99.652285 
3032.000000	99.650992 
3031.000000	99.649510 
3030.000000	99.648842 
3029.000000	99.649417 
3028.000000	99.649886 
3027.000000	99.648072 
3026.000000	99.643483 
3025.000000	99.638568 
3024.000000	99.636641 
3023.000000	99.638071 
3022.000000	99.639001 
3021.000000	99.634674 
3020.000000	99.624227 
3019.000000	99.611741 
3018.000000	99.602342 
3017.000000	99.597778 
3016.000000	99.596231 
3015.000000	99.595773 
3014.000000	99.596655 
3013.000000	99.599624 
3012.000000	99.602891 
3011.000000	99.602175 
3010.000000	99.594589 
3009.000000	99.582203 
3008.000000	99.570933 
3007.000000	99.565382 
3006.000000	99.564924 
3005.000000	99.565228 
3004.000000	99.563269 
3003.000000	99.559896 
3002.000000	99.557474 
3001.000000	99.556385 
3000.000000	99.554887 
2999.000000	99.551635 
2998.000000	99.546883 
2997.000000	99.541301 
2996.000000	99.534938 
2995.000000	99.527859 
2994.000000	99.520936 
2993.000000	99.515194 
2992.000000	99.510649 
2991.000000	99.506315 
2990.000000	99.501385 
2989.000000	99.496233 
2988.000000	99.492338 
2987.000000	99.491261 
2986.000000	99.493494 
2985.000000	99.498032 
2984.000000	99.502908 
2983.000000	99.506095 
2982.000000	99.506271 
2981.000000	99.503507 
2980.000000	99.499608 
2979.000000	99.497107 
2978.000000	99.497047 
2977.000000	99.497820 
2976.000000	99.496787 
2975.000000	99.493070 
2974.000000	99.488334 
2973.000000	99.485021 
2972.000000	99.484404 
2971.000000	99.486142 
2970.000000	99.488859 
2969.000000	99.490941 
2968.000000	99.491543 
2967.000000	99.491302 
2966.000000	99.491784 
2965.000000	99.493977 
2964.000000	99.497427 
2963.000000	99.500741 
2962.000000	99.502599 
2961.000000	99.502515 
2960.000000	99.501285 
2959.000000	99.500696 
2958.000000	99.502168 
2957.000000	99.505485 
2956.000000	99.509203 
2955.000000	99.512236 
2954.000000	99.514552 
2953.000000	99.516463 
2952.000000	99.518005 
2951.000000	99.519070 
2950.000000	99.519422 
2949.000000	99.518489 
2948.000000	99.515968 
2947.000000	99.512859 
2946.000000	99.510999 
2945.000000	99.510992 
2944.000000	99.511215 
2943.000000	99.509427 
2942.000000	99.504966 
2941.000000	99.498958 
2940.000000	99.493034 
2939.000000	99.488571 
2938.000000	99.486622 
2937.000000	99.487301 
2936.000000	99.488898 
2935.000000	99.488420 
2934.000000	99.483866 
2933.000000	99.476071 
2932.000000	99.468006 
2931.000000	99.462032 
2930.000000	99.457900 
2929.000000	99.453517 
2928.000000	99.447466 
2927.000000	99.440396 
2926.000000	99.434065 
2925.000000	99.429736 
2924.000000	99.427781 
2923.000000	99.428099 
2922.000000	99.430196 
2921.000000	99.433326 
2920.000000	99.437288 
2919.000000	99.442698 
2918.000000	99.449647 
2917.000000	99.456429 
2916.000000	99.460702 
2915.000000	99.462035 
2914.000000	99.462449 
2913.000000	99.464212 
2912.000000	99.467810 
2911.000000	99.472321 
2910.000000	99.477070 
2909.000000	99.482370 
2908.000000	99.488879 
2907.000000	99.496335 
2906.000000	99.502639 
2905.000000	99.504495 
2904.000000	99.500005 
2903.000000	99.491224 
2902.000000	99.483685 
2901.000000	99.482516 
2900.000000	99.488808 
2899.000000	99.499345 
2898.000000	99.509287 
2897.000000	99.515296 
2896.000000	99.517103 
2895.000000	99.517111 
2894.000000	99.518465 
2893.000000	99.522776 
2892.000000	99.529106 
2891.000000	99.534854 
2890.000000	99.537783 
2889.000000	99.537749 
2888.000000	99.536901 
2887.000000	99.537954 
2886.000000	99.541816 
2885.000000	99.546809 
2884.000000	99.550303 
2883.000000	99.550898 
2882.000000	99.549039 
2881.000000	99.546307 
2880.000000	99.544745 
2879.000000	99.546134 
2878.000000	99.550791 
2877.000000	99.557048 
2876.000000	99.562652 
2875.000000	99.566543 
2874.000000	99.568645 
2873.000000	99.568465 
2872.000000	99.565306 
2871.000000	99.560085 
2870.000000	99.555682 
2869.000000	99.554693 
2868.000000	99.557174 
2867.000000	99.560907 
2866.000000	99.563457 
2865.000000	99.563908 
2864.000000	99.563135 
2863.000000	99.562624 
2862.000000	99.562769 
2861.000000	99.562452 
2860.000000	99.560659 
2859.000000	99.557998 
2858.000000	99.555894 
2857.000000	99.554723 
2856.000000	99.553767 
2855.000000	99.552748 
2854.000000	99.552197 
2853.000000	99.552470 
2852.000000	99.553616 
2851.000000	99.556204 
2850.000000	99.560931 
2849.000000	99.567235 
2848.000000	99.573745 
2847.000000	99.580409 
2846.000000	99.588675 
2845.000000	99.598876 
2844.000000	99.608887 
2843.000000	99.616429 
2842.000000	99.621586 
2841.000000	99.625898 
2840.000000	99.629857 
2839.000000	99.632563 
2838.000000	99.633332 
2837.000000	99.632545 
2836.000000	99.631239 
2835.000000	99.630737 
2834.000000	99.632201 
2833.000000	99.635502 
2832.000000	99.638815 
2831.000000	99.640361 
2830.000000	99.640472 
2829.000000	99.641023 
2828.000000	99.642949 
2827.000000	99.645330 
2826.000000	99.647000 
2825.000000	99.648002 
2824.000000	99.648887 
2823.000000	99.649390 
2822.000000	99.648712 
2821.000000	99.647011 
2820.000000	99.645859 
2819.000000	99.646789 
2818.000000	99.649558 
2817.000000	99.652262 
2816.000000	99.653283 
2815.000000	99.652851 
2814.000000	99.652475 
2813.000000	99.653113 
2812.000000	99.654301 
2811.000000	99.654879 
2810.000000	99.654049 
2809.000000	99.651760 
2808.000000	99.648675 
2807.000000	99.646018 
2806.000000	99.645129 
2805.000000	99.646821 
2804.000000	99.650980 
2803.000000	99.656363 
2802.000000	99.660564 
2801.000000	99.660930 
2800.000000	99.656690 
2799.000000	99.650270 
2798.000000	99.645675 
2797.000000	99.645317 
2796.000000	99.648740 
2795.000000	99.654060 
2794.000000	99.659496 
2793.000000	99.663548 
2792.000000	99.665135 
2791.000000	99.664435 
2790.000000	99.662873 
2789.000000	99.661620 
2788.000000	99.660535 
2787.000000	99.658893 
2786.000000	99.656503 
2785.000000	99.653789 
2784.000000	99.651519 
2783.000000	99.650789 
2782.000000	99.652397 
2781.000000	99.655653 
2780.000000	99.658633 
2779.000000	99.660265 
2778.000000	99.661446 
2777.000000	99.663388 
2776.000000	99.665613 
2775.000000	99.666516 
2774.000000	99.665388 
2773.000000	99.662943 
2772.000000	99.660206 
2771.000000	99.657814 
2770.000000	99.656312 
2769.000000	99.656259 
2768.000000	99.657802 
2767.000000	99.660437 
2766.000000	99.663127 
2765.000000	99.664679 
2764.000000	99.664587 
2763.000000	99.663784 
2762.000000	99.663863 
2761.000000	99.665045 
2760.000000	99.665615 
2759.000000	99.663964 
2758.000000	99.660476 
2757.000000	99.656725 
2756.000000	99.653728 
2755.000000	99.652051 
2754.000000	99.652699 
2753.000000	99.656198 
2752.000000	99.660912 
2751.000000	99.663872 
2750.000000	99.663597 
2749.000000	99.661088 
2748.000000	99.657977 
2747.000000	99.655010 
2746.000000	99.652683 
2745.000000	99.651918 
2744.000000	99.653087 
2743.000000	99.655116 
2742.000000	99.656515 
2741.000000	99.656938 
2740.000000	99.657082 
2739.000000	99.657419 
2738.000000	99.657743 
2737.000000	99.657750 
2736.000000	99.657366 
2735.000000	99.656455 
2734.000000	99.654808 
2733.000000	99.652682 
2732.000000	99.651065 
2731.000000	99.651045 
2730.000000	99.652847 
2729.000000	99.655602 
2728.000000	99.658242 
2727.000000	99.660610 
2726.000000	99.663401 
2725.000000	99.666866 
2724.000000	99.669922 
2723.000000	99.671087 
2722.000000	99.670115 
2721.000000	99.668114 
2720.000000	99.665919 
2719.000000	99.663067 
2718.000000	99.658881 
2717.000000	99.654110 
2716.000000	99.650832 
2715.000000	99.650653 
2714.000000	99.653397 
2713.000000	99.657508 
2712.000000	99.661350 
2711.000000	99.664014 
2710.000000	99.665337 
2709.000000	99.665644 
2708.000000	99.665524 
2707.000000	99.665525 
2706.000000	99.665789 
2705.000000	99.665920 
2704.000000	99.665342 
2703.000000	99.663930 
2702.000000	99.662338 
2701.000000	99.661602 
2700.000000	99.662218 
2699.000000	99.663595 
2698.000000	99.664561 
2697.000000	99.664492 
2696.000000	99.663760 
2695.000000	99.662909 
2694.000000	99.661657 
2693.000000	99.659251 
2692.000000	99.655923 
2691.000000	99.653445 
2690.000000	99.653658 
2689.000000	99.656501 
2688.000000	99.660021 
2687.000000	99.662475 
2686.000000	99.663956 
2685.000000	99.665531 
2684.000000	99.667093 
2683.000000	99.666875 
2682.000000	99.663516 
2681.000000	99.658110 
2680.000000	99.653441 
2679.000000	99.651251 
2678.000000	99.651021 
2677.000000	99.651630 
2676.000000	99.653205 
2675.000000	99.656408 
2674.000000	99.660523 
2673.000000	99.663587 
2672.000000	99.664528 
2671.000000	99.664105 
2670.000000	99.663409 
2669.000000	99.662447 
2668.000000	99.660783 
2667.000000	99.658770 
2666.000000	99.657371 
2665.000000	99.657231 
2664.000000	99.658549 
2663.000000	99.661411 
2662.000000	99.665534 
2661.000000	99.669950 
2660.000000	99.673451 
2659.000000	99.675199 
2658.000000	99.674725 
2657.000000	99.672022 
2656.000000	99.667996 
2655.000000	99.664097 
2654.000000	99.660987 
2653.000000	99.658523 
2652.000000	99.657534 
2651.000000	99.659861 
2650.000000	99.664854 
2649.000000	99.667332 
2648.000000	99.662052 
2647.000000	99.650459 
2646.000000	99.640556 
2645.000000	99.639125 
2644.000000	99.645667 
2643.000000	99.654480 
2642.000000	99.660571 
2641.000000	99.662455 
2640.000000	99.661329 
2639.000000	99.659843 
2638.000000	99.660845 
2637.000000	99.665167 
2636.000000	99.670491 
2635.000000	99.673603 
2634.000000	99.673823 
2633.000000	99.673441 
2632.000000	99.674982 
2631.000000	99.678799 
2630.000000	99.683095 
2629.000000	99.685405 
2628.000000	99.684238 
2627.000000	99.680118 
2626.000000	99.675166 
2625.000000	99.671259 
2624.000000	99.668661 
2623.000000	99.666681 
2622.000000	99.665117 
2621.000000	99.664299 
2620.000000	99.663997 
2619.000000	99.663211 
2618.000000	99.661299 
2617.000000	99.658858 
2616.000000	99.657101 
2615.000000	99.656383 
2614.000000	99.655502 
2613.000000	99.652833 
2612.000000	99.648495 
2611.000000	99.645037 
2610.000000	99.645236 
2609.000000	99.649162 
2608.000000	99.654121 
2607.000000	99.657563 
2606.000000	99.659342 
2605.000000	99.661061 
2604.000000	99.664044 
2603.000000	99.668198 
2602.000000	99.672066 
2601.000000	99.673758 
2600.000000	99.672646 
2599.000000	99.670305 
2598.000000	99.668877 
2597.000000	99.668464 
2596.000000	99.667347 
2595.000000	99.664916 
2594.000000	99.662705 
2593.000000	99.661804 
2592.000000	99.660981 
2591.000000	99.658737 
2590.000000	99.655999 
2589.000000	99.655191 
2588.000000	99.657340 
2587.000000	99.661386 
2586.000000	99.665662 
2585.000000	99.668808 
2584.000000	99.669926 
2583.000000	99.669258 
2582.000000	99.668306 
2581.000000	99.667965 
2580.000000	99.666964 
2579.000000	99.663439 
2578.000000	99.657684 
2577.000000	99.651984 
2576.000000	99.648004 
2575.000000	99.645801 
2574.000000	99.645399 
2573.000000	99.647718 
2572.000000	99.653331 
2571.000000	99.661073 
2570.000000	99.668226 
2569.000000	99.671702 
2568.000000	99.669700 
2567.000000	99.663488 
2566.000000	99.657424 
2565.000000	99.655751 
2564.000000	99.658870 
2563.000000	99.663529 
2562.000000	99.666597 
2561.000000	99.667459 
2560.000000	99.666832 
2559.000000	99.665190 
2558.000000	99.663334 
2557.000000	99.663000 
2556.000000	99.665224 
2555.000000	99.668624 
2554.000000	99.670708 
2553.000000	99.670857 
2552.000000	99.670904 
2551.000000	99.672515 
2550.000000	99.674809 
2549.000000	99.675124 
2548.000000	99.671950 
2547.000000	99.666824 
2546.000000	99.663260 
2545.000000	99.663683 
2544.000000	99.667201 
2543.000000	99.670481 
2542.000000	99.670902 
2541.000000	99.668690 
2540.000000	99.665861 
2539.000000	99.663600 
2538.000000	99.661369 
2537.000000	99.658448 
2536.000000	99.655461 
2535.000000	99.653867 
2534.000000	99.654349 
2533.000000	99.656180 
2532.000000	99.657967 
2531.000000	99.658712 
2530.000000	99.658522 
2529.000000	99.658874 
2528.000000	99.661941 
2527.000000	99.668593 
2526.000000	99.676601 
2525.000000	99.681441 
2524.000000	99.679751 
2523.000000	99.672277 
2522.000000	99.663399 
2521.000000	99.657822 
2520.000000	99.657423 
2519.000000	99.660519 
2518.000000	99.663649 
2517.000000	99.664402 
2516.000000	99.663264 
2515.000000	99.663157 
2514.000000	99.667083 
2513.000000	99.675727 
2512.000000	99.686569 
2511.000000	99.695031 
2510.000000	99.697282 
2509.000000	99.693089 
2508.000000	99.685958 
2507.000000	99.679848 
2506.000000	99.675960 
2505.000000	99.673457 
2504.000000	99.672441 
2503.000000	99.674080 
2502.000000	99.677568 
2501.000000	99.679349 
2500.000000	99.676869 
2499.000000	99.671711 
2498.000000	99.667504 
2497.000000	99.665859 
2496.000000	99.665947 
2495.000000	99.666982 
2494.000000	99.669084 
2493.000000	99.672056 
2492.000000	99.675239 
2491.000000	99.678597 
2490.000000	99.682267 
2489.000000	99.684840 
2488.000000	99.683737 
2487.000000	99.678074 
2486.000000	99.670283 
2485.000000	99.664385 
2484.000000	99.662984 
2483.000000	99.665823 
2482.000000	99.670466 
2481.000000	99.674251 
2480.000000	99.676133 
2479.000000	99.676814 
2478.000000	99.677210 
2477.000000	99.677566 
2476.000000	99.678264 
2475.000000	99.680081 
2474.000000	99.682580 
2473.000000	99.683404 
2472.000000	99.680715 
2471.000000	99.675653 
2470.000000	99.671119 
2469.000000	99.669027 
2468.000000	99.670071 
2467.000000	99.674729 
2466.000000	99.682007 
2465.000000	99.687917 
2464.000000	99.688140 
2463.000000	99.682661 
2462.000000	99.675727 
2461.000000	99.671001 
2460.000000	99.668684 
2459.000000	99.667474 
2458.000000	99.666972 
2457.000000	99.667389 
2456.000000	99.668761 
2455.000000	99.671019 
2454.000000	99.673176 
2453.000000	99.672395 
2452.000000	99.666517 
2451.000000	99.658362 
2450.000000	99.654894 
2449.000000	99.660310 
2448.000000	99.671473 
2447.000000	99.681419 
2446.000000	99.685680 
2445.000000	99.684082 
2444.000000	99.678686 
2443.000000	99.672282 
2442.000000	99.667619 
2441.000000	99.665679 
2440.000000	99.664914 
2439.000000	99.663668 
2438.000000	99.662976 
2437.000000	99.665816 
2436.000000	99.673831 
2435.000000	99.685350 
2434.000000	99.695925 
2433.000000	99.700519 
2432.000000	99.696813 
2431.000000	99.687606 
2430.000000	99.678874 
2429.000000	99.674327 
2428.000000	99.672918 
2427.000000	99.672432 
2426.000000	99.673458 
2425.000000	99.677584 
2424.000000	99.683060 
2423.000000	99.685298 
2422.000000	99.681988 
2421.000000	99.675831 
2420.000000	99.671750 
2419.000000	99.672779 
2418.000000	99.678696 
2417.000000	99.686864 
2416.000000	99.693463 
2415.000000	99.695208 
2414.000000	99.691422 
2413.000000	99.684711 
2412.000000	99.678987 
2411.000000	99.676327 
2410.000000	99.675517 
2409.000000	99.673705 
2408.000000	99.669643 
2407.000000	99.665153 
2406.000000	99.663090 
2405.000000	99.664244 
2404.000000	99.667014 
2403.000000	99.669818 
2402.000000	99.672508 
2401.000000	99.675106 
2400.000000	99.676459 
2399.000000	99.675027 
2398.000000	99.670410 
2397.000000	99.663743 
2396.000000	99.657341 
2395.000000	99.654108 
2394.000000	99.655903 
2393.000000	99.661474 
2392.000000	99.666877 
2391.000000	99.668907 
2390.000000	99.667615 
2389.000000	99.665080 
2388.000000	99.662966 
2387.000000	99.662201 
2386.000000	99.663655 
2385.000000	99.667305 
2384.000000	99.671254 
2383.000000	99.673398 
2382.000000	99.674199 
2381.000000	99.676436 
2380.000000	99.681808 
2379.000000	99.688633 
2378.000000	99.693156 
2377.000000	99.692480 
2376.000000	99.686398 
2375.000000	99.677707 
2374.000000	99.671199 
2373.000000	99.670988 
2372.000000	99.677279 
2371.000000	99.685771 
2370.000000	99.691066 
2369.000000	99.691042 
2368.000000	99.687890 
2367.000000	99.685042 
2366.000000	99.683403 
2365.000000	99.680850 
2364.000000	99.675443 
2363.000000	99.668745 
2362.000000	99.665199 
2361.000000	99.668004 
2360.000000	99.676183 
2359.000000	99.685278 
2358.000000	99.690516 
2357.000000	99.689897 
2356.000000	99.685317 
2355.000000	99.681128 
2354.000000	99.680172 
2353.000000	99.681662 
2352.000000	99.683052 
2351.000000	99.683052 
2350.000000	99.682397 
2349.000000	99.682021 
2348.000000	99.682110 
2347.000000	99.682128 
2346.000000	99.681666 
2345.000000	99.681240 
2344.000000	99.681346 
2343.000000	99.681804 
2342.000000	99.682349 
2341.000000	99.684160 
2340.000000	99.688718 
2339.000000	99.694739 
2338.000000	99.697956 
2337.000000	99.695228 
2336.000000	99.688624 
2335.000000	99.683172 
2334.000000	99.680627 
2333.000000	99.677779 
2332.000000	99.672156 
2331.000000	99.666745 
2330.000000	99.666893 
2329.000000	99.672783 
2328.000000	99.679015 
2327.000000	99.681041 
2326.000000	99.679694 
2325.000000	99.678623 
2324.000000	99.678909 
2323.000000	99.678524 
2322.000000	99.675616 
2321.000000	99.671324 
2320.000000	99.668290 
2319.000000	99.667820 
2318.000000	99.669342 
2317.000000	99.671728 
2316.000000	99.674696 
2315.000000	99.678489 
2314.000000	99.682857 
2313.000000	99.686314 
2312.000000	99.687122 
2311.000000	99.685059 
2310.000000	99.682497 
2309.000000	99.683330 
2308.000000	99.689881 
2307.000000	99.699816 
2306.000000	99.706423 
2305.000000	99.704036 
2304.000000	99.694270 
2303.000000	99.685675 
2302.000000	99.685483 
2301.000000	99.692399 
2300.000000	99.699167 
2299.000000	99.701316 
2298.000000	99.700658 
2297.000000	99.700083 
2296.000000	99.698425 
2295.000000	99.692548 
2294.000000	99.682613 
2293.000000	99.672683 
2292.000000	99.666433 
2291.000000	99.664050 
2290.000000	99.663298 
2289.000000	99.662442 
2288.000000	99.661650 
2287.000000	99.661940 
2286.000000	99.662816 
2285.000000	99.661574 
2284.000000	99.656134 
2283.000000	99.648621 
2282.000000	99.644338 
2281.000000	99.646244 
2280.000000	99.651894 
2279.000000	99.657048 
2278.000000	99.660682 
2277.000000	99.664536 
2276.000000	99.668879 
2275.000000	99.671261 
2274.000000	99.669821 
2273.000000	99.666233 
2272.000000	99.664583 
2271.000000	99.667616 
2270.000000	99.674039 
2269.000000	99.679131 
2268.000000	99.678309 
2267.000000	99.670712 
2266.000000	99.659563 
2265.000000	99.649455 
2264.000000	99.643652 
2263.000000	99.643159 
2262.000000	99.646533 
2261.000000	99.650403 
2260.000000	99.652111 
2259.000000	99.652944 
2258.000000	99.657376 
2257.000000	99.667857 
2256.000000	99.681086 
2255.000000	99.690342 
2254.000000	99.691027 
2253.000000	99.683786 
2252.000000	99.673508 
2251.000000	99.666064 
2250.000000	99.664894 
2249.000000	99.669181 
2248.000000	99.675203 
2247.000000	99.679542 
2246.000000	99.680654 
2245.000000	99.678130 
2244.000000	99.672146 
2243.000000	99.664039 
2242.000000	99.656189 
2241.000000	99.650742 
2240.000000	99.648718 
2239.000000	99.649637 
2238.000000	99.650822 
2237.000000	99.648359 
2236.000000	99.641364 
2235.000000	99.634910 
2234.000000	99.635992 
2233.000000	99.646447 
2232.000000	99.662086 
2231.000000	99.678049 
2230.000000	99.691318 
2229.000000	99.698370 
2228.000000	99.695720 
2227.000000	99.685054 
2226.000000	99.674367 
2225.000000	99.671682 
2224.000000	99.679464 
2223.000000	99.695375 
2222.000000	99.714145 
2221.000000	99.727180 
2220.000000	99.725780 
2219.000000	99.709037 
2218.000000	99.686030 
2217.000000	99.667489 
2216.000000	99.657740 
2215.000000	99.656474 
2214.000000	99.663144 
2213.000000	99.674549 
2212.000000	99.682170 
2211.000000	99.678740 
2210.000000	99.666563 
2209.000000	99.654524 
2208.000000	99.647973 
2207.000000	99.646499 
2206.000000	99.650369 
2205.000000	99.662132 
2204.000000	99.680143 
2203.000000	99.696165 
2202.000000	99.702856 
2201.000000	99.700898 
2200.000000	99.696229 
2199.000000	99.692612 
2198.000000	99.689855 
2197.000000	99.687543 
2196.000000	99.686465 
2195.000000	99.685707 
2194.000000	99.681705 
2193.000000	99.673144 
2192.000000	99.665714 
2191.000000	99.668083 
2190.000000	99.681419 
2189.000000	99.695462 
2188.000000	99.698095 
2187.000000	99.687307 
2186.000000	99.670463 
2185.000000	99.653740 
2184.000000	99.637581 
2183.000000	99.622560 
2182.000000	99.613422 
2181.000000	99.614141 
2180.000000	99.623347 
2179.000000	99.637734 
2178.000000	99.655769 
2177.000000	99.674885 
2176.000000	99.689595 
2175.000000	99.696703 
2174.000000	99.699296 
2173.000000	99.701699 
2172.000000	99.703374 
2171.000000	99.701622 
2170.000000	99.697210 
2169.000000	99.692703 
2168.000000	99.687556 
2167.000000	99.680305 
2166.000000	99.674587 
2165.000000	99.676765 
2164.000000	99.685982 
2163.000000	99.691508 
2162.000000	99.683144 
2161.000000	99.663057 
2160.000000	99.646243 
2159.000000	99.648994 
2158.000000	99.674831 
2157.000000	99.710056 
2156.000000	99.734458 
2155.000000	99.737255 
2154.000000	99.723114 
2153.000000	99.705392 
2152.000000	99.694994 
2151.000000	99.694315 
2150.000000	99.698631 
2149.000000	99.700781 
2148.000000	99.695546 
2147.000000	99.681926 
2146.000000	99.662621 
2145.000000	99.642322 
2144.000000	99.626755 
2143.000000	99.621474 
2142.000000	99.628668 
2141.000000	99.644568 
2140.000000	99.662076 
2139.000000	99.676398 
2138.000000	99.686634 
2137.000000	99.693125 
2136.000000	99.696444 
2135.000000	99.698175 
2134.000000	99.698814 
2133.000000	99.695238 
2132.000000	99.684624 
2131.000000	99.670818 
2130.000000	99.661736 
2129.000000	99.659321 
2128.000000	99.657097 
2127.000000	99.650245 
2126.000000	99.643264 
2125.000000	99.643358 
2124.000000	99.649638 
2123.000000	99.654115 
2122.000000	99.651984 
2121.000000	99.646344 
2120.000000	99.643185 
2119.000000	99.645652 
2118.000000	99.653397 
2117.000000	99.664020 
2116.000000	99.674155 
2115.000000	99.681261 
2114.000000	99.684889 
2113.000000	99.685260 
2112.000000	99.681816 
2111.000000	99.675367 
2110.000000	99.670410 
2109.000000	99.671691 
2108.000000	99.678256 
2107.000000	99.684135 
2106.000000	99.685714 
2105.000000	99.685674 
2104.000000	99.688496 
2103.000000	99.694277 
2102.000000	99.698435 
2101.000000	99.696211 
2100.000000	99.686618 
2099.000000	99.673395 
2098.000000	99.663316 
2097.000000	99.662531 
2096.000000	99.672673 
2095.000000	99.689552 
2094.000000	99.705104 
2093.000000	99.711107 
2092.000000	99.703536 
2091.000000	99.685609 
2090.000000	99.666402 
2089.000000	99.654494 
2088.000000	99.652118 
2087.000000	99.656194 
2086.000000	99.664031 
2085.000000	99.675516 
2084.000000	99.689648 
2083.000000	99.701553 
2082.000000	99.705280 
2081.000000	99.699962 
2080.000000	99.692223 
2079.000000	99.690818 
2078.000000	99.697739 
2077.000000	99.705226 
2076.000000	99.703515 
2075.000000	99.691599 
2074.000000	99.677815 
2073.000000	99.669717 
2072.000000	99.667027 
2071.000000	99.666262 
2070.000000	99.667511 
2069.000000	99.671650 
2068.000000	99.674115 
2067.000000	99.668345 
2066.000000	99.655529 
2065.000000	99.645121 
2064.000000	99.643928 
2063.000000	99.649800 
2062.000000	99.658222 
2061.000000	99.669403 
2060.000000	99.684656 
2059.000000	99.699564 
2058.000000	99.706072 
2057.000000	99.700941 
2056.000000	99.688601 
2055.000000	99.675697 
2054.000000	99.665828 
2053.000000	99.659758 
2052.000000	99.657528 
2051.000000	99.658977 
2050.000000	99.664137 
2049.000000	99.674300 
2048.000000	99.690582 
2047.000000	99.709201 
2046.000000	99.720135 
2045.000000	99.714923 
2044.000000	99.696988 
2043.000000	99.680951 
2042.000000	99.679368 
2041.000000	99.691329 
2040.000000	99.705520 
2039.000000	99.712498 
2038.000000	99.710742 
2037.000000	99.703362 
2036.000000	99.694861 
2035.000000	99.691101 
2034.000000	99.696672 
2033.000000	99.709591 
2032.000000	99.722723 
2031.000000	99.732376 
2030.000000	99.740334 
2029.000000	99.745220 
2028.000000	99.739056 
2027.000000	99.718754 
2026.000000	99.696691 
2025.000000	99.691305 
2024.000000	99.706257 
2023.000000	99.725224 
2022.000000	99.729195 
2021.000000	99.714912 
2020.000000	99.695499 
2019.000000	99.686721 
2018.000000	99.694508 
2017.000000	99.711803 
2016.000000	99.725035 
2015.000000	99.726092 
2014.000000	99.719166 
2013.000000	99.715188 
2012.000000	99.719132 
2011.000000	99.724155 
2010.000000	99.719922 
2009.000000	99.705837 
2008.000000	99.693492 
2007.000000	99.694427 
2006.000000	99.706540 
2005.000000	99.715072 
2004.000000	99.708012 
2003.000000	99.688568 
2002.000000	99.670955 
2001.000000	99.665279 
2000.000000	99.668583 
1999.000000	99.671195 
1998.000000	99.669073 
1997.000000	99.667136 
1996.000000	99.671494 
1995.000000	99.681442 
1994.000000	99.690073 
1993.000000	99.691351 
1992.000000	99.686170 
1991.000000	99.681391 
1990.000000	99.682840 
1989.000000	99.690240 
1988.000000	99.699034 
1987.000000	99.705543 
1986.000000	99.709127 
1985.000000	99.710401 
1984.000000	99.709952 
1983.000000	99.709465 
1982.000000	99.711851 
1981.000000	99.718422 
1980.000000	99.726814 
1979.000000	99.732768 
1978.000000	99.733378 
1977.000000	99.728753 
1976.000000	99.721907 
1975.000000	99.716918 
1974.000000	99.715062 
1973.000000	99.712337 
1972.000000	99.703547 
1971.000000	99.690271 
1970.000000	99.682042 
1969.000000	99.687027 
1968.000000	99.702207 
1967.000000	99.714757 
1966.000000	99.713330 
1965.000000	99.696762 
1964.000000	99.672952 
1963.000000	99.652575 
1962.000000	99.643599 
1961.000000	99.647683 
1960.000000	99.659664 
1959.000000	99.671289 
1958.000000	99.676058 
1957.000000	99.672093 
1956.000000	99.663255 
1955.000000	99.658025 
1954.000000	99.664081 
1953.000000	99.681047 
1952.000000	99.699604 
1951.000000	99.709749 
1950.000000	99.709015 
1949.000000	99.701717 
1948.000000	99.692725 
1947.000000	99.684735 
1946.000000	99.679854 
1945.000000	99.679507 
1944.000000	99.681874 
1943.000000	99.682186 
1942.000000	99.677526 
1941.000000	99.670160 
1940.000000	99.664722 
1939.000000	99.663626 
1938.000000	99.665932 
1937.000000	99.669181 
1936.000000	99.672133 
1935.000000	99.676037 
1934.000000	99.682369 
1933.000000	99.689052 
1932.000000	99.690697 
1931.000000	99.684465 
1930.000000	99.674342 
1929.000000	99.667141 
1928.000000	99.665090 
1927.000000	99.664893 
1926.000000	99.663721 
1925.000000	99.662779 
1924.000000	99.664115 
1923.000000	99.666850 
1922.000000	99.668539 
1921.000000	99.668547 
1920.000000	99.667752 
1919.000000	99.666011 
1918.000000	99.662074 
1917.000000	99.656046 
1916.000000	99.650341 
1915.000000	99.647762 
1914.000000	99.649431 
1913.000000	99.654249 
1912.000000	99.659766 
1911.000000	99.663980 
1910.000000	99.666275 
1909.000000	99.666477 
1908.000000	99.664117 
1907.000000	99.659624 
1906.000000	99.655755 
1905.000000	99.656104 
1904.000000	99.661379 
1903.000000	99.668397 
1902.000000	99.673122 
1901.000000	99.673856 
1900.000000	99.671404 
1899.000000	99.667143 
1898.000000	99.662044 
1897.000000	99.657016 
1896.000000	99.652643 
1895.000000	99.648765 
1894.000000	99.645398 
1893.000000	99.644060 
1892.000000	99.647183 
1891.000000	99.655749 
1890.000000	99.667407 
1889.000000	99.677448 
1888.000000	99.682436 
1887.000000	99.682072 
1886.000000	99.677703 
1885.000000	99.671098 
1884.000000	99.664381 
1883.000000	99.659336 
1882.000000	99.656497 
1881.000000	99.655701 
1880.000000	99.657257 
1879.000000	99.660989 
1878.000000	99.664106 
1877.000000	99.662373 
1876.000000	99.654821 
1875.000000	99.645783 
1874.000000	99.640519 
1873.000000	99.639640 
1872.000000	99.640195 
1871.000000	99.641882 
1870.000000	99.649135 
1869.000000	99.663938 
1868.000000	99.678249 
1867.000000	99.680869 
1866.000000	99.670326 
1865.000000	99.655697 
1864.000000	99.647544 
1863.000000	99.649526 
1862.000000	99.657053 
1861.000000	99.662865 
1860.000000	99.663474 
1859.000000	99.660533 
1858.000000	99.657160 
1857.000000	99.654572 
1856.000000	99.652342 
1855.000000	99.650237 
1854.000000	99.648592 
1853.000000	99.647578 
1852.000000	99.647644 
1851.000000	99.650087 
1850.000000	99.655696 
1849.000000	99.662895 
1848.000000	99.668276 
1847.000000	99.669666 
1846.000000	99.667719 
1845.000000	99.664610 
1844.000000	99.661514 
1843.000000	99.657577 
1842.000000	99.652064 
1841.000000	99.646295 
1840.000000	99.642883 
1839.000000	99.643562 
1838.000000	99.647522 
1837.000000	99.652082 
1836.000000	99.655483 
1835.000000	99.658332 
1834.000000	99.661628 
1833.000000	99.664470 
1832.000000	99.664602 
1831.000000	99.660819 
1830.000000	99.655435 
1829.000000	99.653771 
1828.000000	99.658895 
1827.000000	99.668159 
1826.000000	99.675139 
1825.000000	99.674317 
1824.000000	99.666055 
1823.000000	99.656026 
1822.000000	99.649261 
1821.000000	99.646879 
1820.000000	99.647097 
1819.000000	99.647405 
1818.000000	99.646586 
1817.000000	99.645498 
1816.000000	99.645787 
1815.000000	99.647718 
1814.000000	99.649317 
1813.000000	99.648267 
1812.000000	99.644639 
1811.000000	99.641027 
1810.000000	99.639857 
1809.000000	99.641086 
1808.000000	99.643218 
1807.000000	99.645413 
1806.000000	99.647318 
1805.000000	99.648109 
1804.000000	99.647351 
1803.000000	99.646209 
1802.000000	99.646198 
1801.000000	99.647206 
1800.000000	99.647894 
1799.000000	99.647632 
1798.000000	99.646530 
1797.000000	99.643993 
1796.000000	99.639680 
1795.000000	99.635399 
1794.000000	99.634089 
1793.000000	99.636933 
1792.000000	99.641994 
1791.000000	99.646741 
1790.000000	99.650446 
1789.000000	99.652505 
1788.000000	99.651808 
1787.000000	99.648767 
1786.000000	99.646129 
1785.000000	99.646637 
1784.000000	99.650263 
1783.000000	99.654729 
1782.000000	99.657192 
1781.000000	99.655518 
1780.000000	99.650303 
1779.000000	99.645178 
1778.000000	99.643487 
1777.000000	99.645151 
1776.000000	99.648236 
1775.000000	99.651654 
1774.000000	99.654317 
1773.000000	99.652935 
1772.000000	99.645042 
1771.000000	99.635096 
1770.000000	99.630598 
1769.000000	99.632832 
1768.000000	99.636730 
1767.000000	99.638301 
1766.000000	99.639175 
1765.000000	99.642390 
1764.000000	99.646772 
1763.000000	99.647926 
1762.000000	99.644043 
1761.000000	99.638873 
1760.000000	99.636696 
1759.000000	99.637738 
1758.000000	99.639855 
1757.000000	99.640696 
1756.000000	99.638987 
1755.000000	99.635227 
1754.000000	99.631295 
1753.000000	99.629122 
1752.000000	99.629740 
1751.000000	99.632545 
1750.000000	99.634872 
1749.000000	99.633563 
1748.000000	99.627452 
1747.000000	99.618922 
1746.000000	99.612490 
1745.000000	99.611269 
1744.000000	99.614104 
1743.000000	99.616700 
1742.000000	99.616655 
1741.000000	99.615901 
1740.000000	99.617022 
1739.000000	99.619215 
1738.000000	99.620304 
1737.000000	99.620940 
1736.000000	99.623187 
1735.000000	99.627665 
1734.000000	99.631502 
1733.000000	99.630589 
1732.000000	99.625834 
1731.000000	99.621036 
1730.000000	99.617977 
1729.000000	99.616568 
1728.000000	99.617027 
1727.000000	99.620023 
1726.000000	99.625000 
1725.000000	99.629447 
1724.000000	99.630054 
1723.000000	99.625233 
1722.000000	99.616627 
1721.000000	99.607617 
1720.000000	99.601820 
1719.000000	99.603050 
1718.000000	99.613503 
1717.000000	99.627743 
1716.000000	99.635460 
1715.000000	99.634002 
1714.000000	99.629167 
1713.000000	99.626452 
1712.000000	99.627127 
1711.000000	99.630036 
1710.000000	99.633858 
1709.000000	99.637181 
1708.000000	99.639056 
1707.000000	99.640010 
1706.000000	99.641574 
1705.000000	99.644097 
1704.000000	99.646101 
1703.000000	99.647113 
1702.000000	99.647915 
1701.000000	99.650209 
1700.000000	99.652902 
1699.000000	99.651269 
1698.000000	99.645335 
1697.000000	99.638513 
1696.000000	99.634051 
1695.000000	99.634357 
1694.000000	99.637815 
1693.000000	99.641488 
1692.000000	99.644658 
1691.000000	99.647994 
1690.000000	99.652060 
1689.000000	99.655687 
1688.000000	99.656998 
1687.000000	99.655996 
1686.000000	99.654743 
1685.000000	99.657034 
1684.000000	99.662374 
1683.000000	99.665100 
1682.000000	99.664062 
1681.000000	99.661648 
1680.000000	99.659236 
1679.000000	99.657469 
1678.000000	99.657514 
1677.000000	99.660526 
1676.000000	99.666275 
1675.000000	99.671774 
1674.000000	99.673677 
1673.000000	99.672699 
1672.000000	99.671625 
1671.000000	99.671036 
1670.000000	99.669142 
1669.000000	99.665168 
1668.000000	99.662160 
1667.000000	99.663139 
1666.000000	99.667467 
1665.000000	99.672513 
1664.000000	99.676085 
1663.000000	99.677638 
1662.000000	99.677484 
1661.000000	99.675787 
1660.000000	99.673527 
1659.000000	99.672820 
1658.000000	99.675711 
1657.000000	99.682539 
1656.000000	99.692010 
1655.000000	99.701110 
1654.000000	99.705327 
1653.000000	99.700502 
1652.000000	99.689310 
1651.000000	99.678756 
1650.000000	99.671916 
1649.000000	99.669395 
1648.000000	99.669264 
1647.000000	99.669334 
1646.000000	99.669534 
1645.000000	99.670739 
1644.000000	99.672120 
1643.000000	99.672880 
1642.000000	99.672706 
1641.000000	99.671062 
1640.000000	99.668001 
1639.000000	99.665120 
1638.000000	99.664532 
1637.000000	99.666417 
1636.000000	99.667828 
1635.000000	99.666851 
1634.000000	99.666260 
1633.000000	99.668486 
1632.000000	99.672002 
1631.000000	99.673854 
1630.000000	99.672539 
1629.000000	99.668843 
1628.000000	99.664461 
1627.000000	99.660527 
1626.000000	99.657316 
1625.000000	99.654610 
1624.000000	99.652382 
1623.000000	99.651394 
1622.000000	99.652631 
1621.000000	99.655733 
1620.000000	99.658986 
1619.000000	99.660104 
1618.000000	99.657134 
1617.000000	99.650449 
1616.000000	99.643157 
1615.000000	99.637978 
1614.000000	99.635400 
1613.000000	99.635123 
1612.000000	99.636886 
1611.000000	99.640585 
1610.000000	99.645813 
1609.000000	99.651171 
1608.000000	99.654384 
1607.000000	99.653513 
1606.000000	99.648602 
1605.000000	99.642238 
1604.000000	99.637898 
1603.000000	99.636937 
1602.000000	99.637663 
1601.000000	99.637789 
1600.000000	99.637343 
1599.000000	99.638405 
1598.000000	99.642155 
1597.000000	99.646850 
1596.000000	99.648909 
1595.000000	99.646175 
1594.000000	99.640161 
1593.000000	99.634734 
1592.000000	99.632850 
1591.000000	99.634854 
1590.000000	99.639010 
1589.000000	99.643003 
1588.000000	99.645466 
1587.000000	99.646515 
1586.000000	99.646998 
1585.000000	99.647314 
1584.000000	99.647409 
1583.000000	99.647342 
1582.000000	99.647156 
1581.000000	99.646819 
1580.000000	99.646431 
1579.000000	99.646494 
1578.000000	99.647651 
1577.000000	99.650400 
1576.000000	99.653511 
1575.000000	99.653851 
1574.000000	99.650267 
1573.000000	99.644749 
1572.000000	99.639492 
1571.000000	99.636244 
1570.000000	99.637470 
1569.000000	99.644193 
1568.000000	99.654153 
1567.000000	99.663119 
1566.000000	99.667438 
1565.000000	99.665594 
1564.000000	99.659726 
1563.000000	99.653047 
1562.000000	99.647168 
1561.000000	99.641200 
1560.000000	99.638983 
1559.000000	99.646329 
1558.000000	99.657213 
1557.000000	99.664824 
1556.000000	99.670039 
1555.000000	99.674573 
1554.000000	99.676107 
1553.000000	99.673073 
1552.000000	99.667014 
1551.000000	99.661809 
1550.000000	99.660472 
1549.000000	99.663451 
1548.000000	99.668489 
1547.000000	99.673180 
1546.000000	99.676207 
1545.000000	99.677051 
1544.000000	99.675386 
1543.000000	99.670967 
1542.000000	99.664404 
1541.000000	99.658056 
1540.000000	99.655000 
1539.000000	99.656093 
1538.000000	99.658197 
1537.000000	99.658595 
1536.000000	99.658283 
1535.000000	99.659376 
1534.000000	99.663372 
1533.000000	99.668890 
1532.000000	99.672684 
1531.000000	99.673453 
1530.000000	99.672277 
1529.000000	99.670303 
1528.000000	99.667665 
1527.000000	99.664202 
1526.000000	99.660640 
1525.000000	99.658247 
1524.000000	99.657545 
1523.000000	99.658014 
1522.000000	99.658974 
1521.000000	99.659908 
1520.000000	99.660349 
1519.000000	99.660587 
1518.000000	99.661617 
1517.000000	99.663475 
1516.000000	99.664469 
1515.000000	99.663265 
1514.000000	99.660412 
1513.000000	99.657965 
1512.000000	99.658212 
1511.000000	99.662009 
1510.000000	99.668641 
1509.000000	99.676456 
1508.000000	99.682823 
1507.000000	99.682590 
1506.000000	99.674399 
1505.000000	99.664130 
1504.000000	99.656250 
1503.000000	99.652353 
1502.000000	99.651868 
1501.000000	99.652505 
1500.000000	99.652128 
1499.000000	99.650844 
1498.000000	99.650054 
1497.000000	99.649398 
1496.000000	99.645884 
1495.000000	99.638731 
1494.000000	99.631725 
1493.000000	99.628398 
1492.000000	99.628227 
1491.000000	99.627678 
1490.000000	99.624349 
1489.000000	99.620113 
1488.000000	99.617914 
1487.000000	99.617886 
1486.000000	99.619037 
1485.000000	99.620892 
1484.000000	99.623519 
1483.000000	99.626209 
1482.000000	99.626650 
1481.000000	99.623120 
1480.000000	99.616851 
1479.000000	99.611026 
1478.000000	99.607827 
1477.000000	99.607638 
1476.000000	99.609698 
1475.000000	99.612578 
1474.000000	99.613595 
1473.000000	99.609173 
1472.000000	99.599503 
1471.000000	99.590230 
1470.000000	99.585949 
1469.000000	99.586445 
1468.000000	99.589224 
1467.000000	99.592117 
1466.000000	99.594166 
1465.000000	99.595287 
1464.000000	99.596379 
1463.000000	99.598342 
1462.000000	99.600632 
1461.000000	99.601269 
1460.000000	99.598683 
1459.000000	99.593659 
1458.000000	99.589639 
1457.000000	99.589229 
1456.000000	99.590142 
1455.000000	99.590224 
1454.000000	99.592050 
1453.000000	99.597863 
1452.000000	99.604428 
1451.000000	99.606048 
1450.000000	99.601022 
1449.000000	99.593463 
1448.000000	99.588505 
1447.000000	99.587922 
1446.000000	99.590104 
1445.000000	99.592863 
1444.000000	99.594715 
1443.000000	99.594409 
1442.000000	99.591766 
1441.000000	99.588054 
1440.000000	99.584801 
1439.000000	99.582504 
1438.000000	99.581068 
1437.000000	99.581080 
1436.000000	99.582865 
1435.000000	99.585283 
1434.000000	99.587464 
1433.000000	99.589539 
1432.000000	99.591128 
1431.000000	99.591407 
1430.000000	99.590246 
1429.000000	99.588558 
1428.000000	99.587064 
1427.000000	99.585804 
1426.000000	99.584727 
1425.000000	99.584103 
1424.000000	99.584464 
1423.000000	99.585610 
1422.000000	99.586743 
1421.000000	99.587305 
1420.000000	99.587453 
1419.000000	99.587040 
1418.000000	99.584519 
1417.000000	99.578844 
1416.000000	99.570814 
1415.000000	99.562512 
1414.000000	99.556037 
1413.000000	99.551885 
1412.000000	99.548488 
1411.000000	99.544183 
1410.000000	99.539664 
1409.000000	99.537631 
1408.000000	99.539568 
1407.000000	99.543985 
1406.000000	99.547849 
1405.000000	99.549511 
1404.000000	99.550206 
1403.000000	99.551821 
1402.000000	99.554614 
1401.000000	99.557780 
1400.000000	99.560780 
1399.000000	99.563364 
1398.000000	99.564451 
1397.000000	99.562009 
1396.000000	99.554911 
1395.000000	99.545887 
1394.000000	99.540806 
1393.000000	99.542849 
1392.000000	99.549795 
1391.000000	99.557517 
1390.000000	99.563601 
1389.000000	99.567699 
1388.000000	99.570169 
1387.000000	99.571192 
1386.000000	99.570857 
1385.000000	99.569153 
1384.000000	99.565972 
1383.000000	99.561843 
1382.000000	99.558625 
1381.000000	99.558363 
1380.000000	99.561234 
1379.000000	99.565657 
1378.000000	99.570133 
1377.000000	99.574215 
1376.000000	99.577871 
1375.000000	99.580808 
1374.000000	99.582696 
1373.000000	99.583611 
1372.000000	99.583709 
1371.000000	99.583102 
1370.000000	99.582405 
1369.000000	99.582699 
1368.000000	99.584821 
1367.000000	99.588372 
1366.000000	99.591935 
1365.000000	99.594225 
1364.000000	99.594798 
1363.000000	99.594242 
1362.000000	99.593904 
1361.000000	99.594839 
1360.000000	99.597218 
1359.000000	99.600938 
1358.000000	99.605757 
1357.000000	99.610553 
1356.000000	99.613436 
1355.000000	99.613326 
1354.000000	99.611263 
1353.000000	99.609672 
1352.000000	99.610247 
1351.000000	99.612988 
1350.000000	99.616483 
1349.000000	99.618598 
1348.000000	99.618169 
1347.000000	99.616140 
1346.000000	99.614456 
1345.000000	99.613579 
1344.000000	99.612229 
1343.000000	99.609965 
1342.000000	99.608710 
1341.000000	99.610455 
1340.000000	99.614075 
1339.000000	99.616013 
1338.000000	99.614467 
1337.000000	99.611318 
1336.000000	99.609760 
1335.000000	99.611380 
1334.000000	99.615139 
1333.000000	99.618112 
1332.000000	99.617611 
1331.000000	99.613606 
1330.000000	99.608806 
1329.000000	99.605698 
1328.000000	99.604331 
1327.000000	99.603865 
1326.000000	99.604907 
1325.000000	99.608445 
1324.000000	99.613106 
1323.000000	99.615422 
1322.000000	99.613662 
1321.000000	99.610177 
1320.000000	99.608981 
1319.000000	99.611344 
1318.000000	99.614608 
1317.000000	99.615587 
1316.000000	99.614316 
1315.000000	99.613715 
1314.000000	99.615877 
1313.000000	99.619466 
1312.000000	99.621401 
1311.000000	99.620642 
1310.000000	99.619015 
1309.000000	99.618387 
1308.000000	99.618509 
1307.000000	99.618165 
1306.000000	99.617093 
1305.000000	99.615791 
1304.000000	99.614526 
1303.000000	99.613358 
1302.000000	99.612279 
1301.000000	99.610496 
1300.000000	99.606828 
1299.000000	99.602061 
1298.000000	99.599615 
1297.000000	99.601971 
1296.000000	99.607058 
1295.000000	99.610103 
1294.000000	99.608834 
1293.000000	99.605316 
1292.000000	99.602911 
1291.000000	99.603161 
1290.000000	99.605452 
1289.000000	99.607894 
1288.000000	99.608239 
1287.000000	99.605563 
1286.000000	99.601490 
1285.000000	99.598480 
1284.000000	99.596817 
1283.000000	99.594573 
1282.000000	99.590615 
1281.000000	99.586134 
1280.000000	99.582912 
1279.000000	99.581609 
1278.000000	99.582092 
1277.000000	99.583784 
1276.000000	99.585044 
1275.000000	99.583894 
1274.000000	99.580443 
1273.000000	99.577275 
1272.000000	99.576298 
1271.000000	99.576335 
1270.000000	99.575088 
1269.000000	99.572411 
1268.000000	99.570032 
1267.000000	99.568763 
1266.000000	99.567822 
1265.000000	99.566737 
1264.000000	99.566023 
1263.000000	99.565336 
1262.000000	99.562495 
1261.000000	99.555656 
1260.000000	99.546028 
1259.000000	99.537224 
1258.000000	99.531730 
1257.000000	99.528838 
1256.000000	99.526311 
1255.000000	99.523145 
1254.000000	99.520026 
1253.000000	99.517738 
1252.000000	99.516341 
1251.000000	99.515947 
1250.000000	99.516987 
1249.000000	99.519080 
1248.000000	99.520599 
1247.000000	99.520130 
1246.000000	99.517633 
1245.000000	99.513496 
1244.000000	99.507502 
1243.000000	99.500085 
1242.000000	99.493946 
1241.000000	99.492551 
1240.000000	99.496694 
1239.000000	99.503437 
1238.000000	99.508497 
1237.000000	99.508956 
1236.000000	99.504147 
1235.000000	99.495647 
1234.000000	99.486787 
1233.000000	99.480578 
1232.000000	99.477156 
1231.000000	99.473996 
1230.000000	99.469174 
1229.000000	99.463633 
1228.000000	99.459552 
1227.000000	99.457144 
1226.000000	99.453934 
1225.000000	99.447129 
1224.000000	99.436439 
1223.000000	99.424734 
1222.000000	99.415805 
1221.000000	99.410948 
1220.000000	99.407709 
1219.000000	99.402385 
1218.000000	99.393650 
1217.000000	99.383164 
1216.000000	99.372984 
1215.000000	99.363567 
1214.000000	99.354363 
1213.000000	99.344943 
1212.000000	99.334841 
1211.000000	99.323336 
1210.000000	99.310405 
1209.000000	99.297333 
1208.000000	99.285532 
1207.000000	99.275036 
1206.000000	99.264679 
1205.000000	99.253350 
1204.000000	99.240577 
1203.000000	99.226483 
1202.000000	99.212000 
1201.000000	99.198701 
1200.000000	99.187531 
1199.000000	99.177676 
1198.000000	99.167341 
1197.000000	99.155614 
1196.000000	99.142937 
1195.000000	99.129897 
1194.000000	99.116476 
1193.000000	99.102592 
1192.000000	99.088510 
1191.000000	99.074301 
1190.000000	99.059610 
1189.000000	99.044342 
1188.000000	99.028837 
1187.000000	99.012756 
1186.000000	98.994625 
1185.000000	98.973522 
1184.000000	98.950857 
1183.000000	98.929508 
1182.000000	98.911341 
1181.000000	98.896236 
1180.000000	98.883012 
1179.000000	98.869927 
1178.000000	98.854586 
1177.000000	98.835210 
1176.000000	98.812648 
1175.000000	98.789920 
1174.000000	98.769058 
1173.000000	98.749239 
1172.000000	98.728397 
1171.000000	98.705431 
1170.000000	98.680479 
1169.000000	98.654840 
1168.000000	98.631724 
1167.000000	98.615421 
1166.000000	98.607926 
1165.000000	98.607221 
1164.000000	98.610156 
1163.000000	98.615930 
1162.000000	98.625264 
1161.000000	98.637149 
1160.000000	98.648205 
1159.000000	98.654830 
1158.000000	98.654681 
1157.000000	98.646790 
1156.000000	98.632135 
1155.000000	98.614022 
1154.000000	98.596029 
1153.000000	98.579150 
1152.000000	98.562020 
1151.000000	98.543528 
1150.000000	98.523564 
1149.000000	98.501786 
1148.000000	98.478201 
1147.000000	98.455282 
1146.000000	98.436776 
1145.000000	98.423092 
1144.000000	98.409948 
1143.000000	98.393219 
1142.000000	98.373623 
1141.000000	98.354801 
1140.000000	98.337988 
1139.000000	98.320848 
1138.000000	98.301172 
1137.000000	98.279475 
1136.000000	98.257338 
1135.000000	98.234880 
1134.000000	98.211067 
1133.000000	98.185719 
1132.000000	98.160098 
1131.000000	98.135747 
1130.000000	98.113643 
1129.000000	98.094345 
1128.000000	98.077627 
1127.000000	98.061176 
1126.000000	98.040820 
1125.000000	98.013797 
1124.000000	97.981939 
1123.000000	97.950413 
1122.000000	97.922938 
1121.000000	97.899261 
1120.000000	97.877546 
1119.000000	97.857552 
1118.000000	97.840200 
1117.000000	97.825089 
1116.000000	97.810072 
1115.000000	97.793178 
1114.000000	97.773914 
1113.000000	97.752619 
1112.000000	97.729433 
1111.000000	97.704368 
1110.000000	97.678226 
1109.000000	97.653041 
1108.000000	97.631098 
1107.000000	97.612963 
1106.000000	97.596756 
1105.000000	97.580075 
1104.000000	97.562369 
1103.000000	97.544748 
1102.000000	97.528047 
1101.000000	97.512511 
1100.000000	97.498955 
1099.000000	97.488229 
1098.000000	97.479395 
1097.000000	97.469897 
1096.000000	97.458200 
1095.000000	97.444919 
1094.000000	97.431078 
1093.000000	97.416787 
1092.000000	97.402029 
1091.000000	97.387052 
1090.000000	97.371188 
1089.000000	97.352825 
1088.000000	97.331457 
1087.000000	97.308667 
1086.000000	97.286417 
1085.000000	97.265588 
1084.000000	97.246781 
1083.000000	97.231100 
1082.000000	97.219135 
1081.000000	97.210032 
1080.000000	97.201927 
1079.000000	97.192388 
1078.000000	97.178764 
1077.000000	97.159931 
1076.000000	97.137692 
1075.000000	97.114712 
1074.000000	97.091247 
1073.000000	97.065923 
1072.000000	97.038865 
1071.000000	97.010479 
1070.000000	96.977180 
1069.000000	96.933294 
1068.000000	96.879608 
1067.000000	96.826338 
1066.000000	96.784009 
1065.000000	96.753117 
1064.000000	96.725038 
1063.000000	96.690612 
1062.000000	96.645592 
1061.000000	96.591186 
1060.000000	96.533657 
1059.000000	96.481964 
1058.000000	96.441439 
1057.000000	96.409361 
1056.000000	96.378706 
1055.000000	96.345125 
1054.000000	96.308076 
1053.000000	96.266885 
1052.000000	96.219681 
1051.000000	96.166868 
1050.000000	96.112852 
1049.000000	96.062803 
1048.000000	96.018510 
1047.000000	95.977211 
1046.000000	95.933815 
1045.000000	95.885654 
1044.000000	95.836335 
1043.000000	95.793499 
1042.000000	95.761074 
1041.000000	95.734848 
1040.000000	95.707205 
1039.000000	95.675012 
1038.000000	95.641523 
1037.000000	95.612129 
1036.000000	95.590301 
1035.000000	95.576610 
1034.000000	95.569313 
1033.000000	95.565510 
1032.000000	95.562538 
1031.000000	95.558471 
1030.000000	95.552139 
1029.000000	95.544366 
1028.000000	95.539026 
1027.000000	95.540390 
1026.000000	95.548258 
1025.000000	95.557467 
1024.000000	95.563338 
1023.000000	95.566223 
1022.000000	95.569758 
1021.000000	95.575860 
1020.000000	95.582414 
1019.000000	95.585121 
1018.000000	95.581117 
1017.000000	95.571601 
1016.000000	95.561273 
1015.000000	95.554703 
1014.000000	95.553274 
1013.000000	95.555881 
1012.000000	95.561062 
1011.000000	95.566721 
1010.000000	95.569320 
1009.000000	95.566440 
1008.000000	95.559967 
1007.000000	95.554479 
1006.000000	95.552969 
1005.000000	95.556589 
1004.000000	95.567436 
1003.000000	95.587319 
1002.000000	95.613186 
1001.000000	95.637721 
1000.000000	95.656136 
999.000000	 95.669945 
998.000000	 95.683257 
997.000000	 95.698254 
996.000000	 95.715434 
995.000000	 95.735135 
994.000000	 95.756510 
993.000000	 95.776935 
992.000000	 95.794612 
991.000000	 95.810989 
990.000000	 95.829555 
989.000000	 95.852897 
988.000000	 95.880952 
987.000000	 95.910698 
986.000000	 95.937801 
985.000000	 95.960864 
984.000000	 95.984327 
983.000000	 96.014762 
982.000000	 96.053676 
981.000000	 96.096190 
980.000000	 96.137379 
979.000000	 96.177448 
978.000000	 96.219886 
977.000000	 96.266900 
976.000000	 96.317763 
975.000000	 96.369493 
974.000000	 96.418189 
973.000000	 96.461827 
972.000000	 96.502797 
971.000000	 96.545676 
970.000000	 96.591527 
969.000000	 96.636669 
968.000000	 96.678298 
967.000000	 96.718643 
966.000000	 96.761515 
965.000000	 96.806969 
964.000000	 96.852063 
963.000000	 96.895313 
962.000000	 96.937375 
961.000000	 96.978031 
960.000000	 97.015640 
959.000000	 97.049976 
958.000000	 97.083110 
957.000000	 97.116368 
956.000000	 97.148049 
955.000000	 97.175554 
954.000000	 97.199083 
953.000000	 97.221950 
952.000000	 97.246883 
951.000000	 97.272435 
950.000000	 97.293984 
949.000000	 97.309166 
948.000000	 97.321647 
947.000000	 97.337410 
946.000000	 97.356825 
945.000000	 97.373070 
944.000000	 97.380563 
943.000000	 97.382965 
942.000000	 97.389621 
941.000000	 97.404780 
940.000000	 97.423508 
939.000000	 97.438179 
938.000000	 97.445825 
937.000000	 97.448534 
936.000000	 97.449886 
935.000000	 97.452980 
934.000000	 97.459746 
933.000000	 97.469837 
932.000000	 97.480867 
931.000000	 97.490787 
930.000000	 97.499320 
929.000000	 97.506934 
928.000000	 97.514196 
927.000000	 97.522697 
926.000000	 97.534304 
925.000000	 97.548062 
924.000000	 97.559786 
923.000000	 97.566472 
922.000000	 97.569357 
921.000000	 97.570801 
920.000000	 97.570222 
919.000000	 97.566053 
918.000000	 97.560242 
917.000000	 97.557132 
916.000000	 97.557868 
915.000000	 97.559335 
914.000000	 97.559759 
913.000000	 97.562661 
912.000000	 97.573169 
911.000000	 97.591712 
910.000000	 97.613448 
909.000000	 97.633843 
908.000000	 97.653248 
907.000000	 97.675454 
906.000000	 97.702855 
905.000000	 97.734156 
904.000000	 97.766554 
903.000000	 97.798551 
902.000000	 97.829606 
901.000000	 97.858339 
900.000000	 97.883708 
899.000000	 97.908459 
898.000000	 97.938540 
897.000000	 97.976630 
896.000000	 98.017429 
895.000000	 98.051780 
894.000000	 98.075292 
893.000000	 98.091285 
892.000000	 98.105929 
891.000000	 98.122734 
890.000000	 98.141344 
889.000000	 98.159175 
888.000000	 98.174000 
887.000000	 98.187071 
886.000000	 98.203965 
885.000000	 98.229885 
884.000000	 98.263061 
883.000000	 98.294574 
882.000000	 98.316186 
881.000000	 98.327690 
880.000000	 98.335838 
879.000000	 98.347073 
878.000000	 98.362080 
877.000000	 98.377037 
876.000000	 98.389590 
875.000000	 98.402679 
874.000000	 98.421203 
873.000000	 98.445213 
872.000000	 98.468999 
871.000000	 98.487767 
870.000000	 98.502197 
869.000000	 98.514635 
868.000000	 98.524545 
867.000000	 98.531510 
866.000000	 98.539812 
865.000000	 98.554823 
864.000000	 98.575917 
863.000000	 98.597635 
862.000000	 98.617274 
861.000000	 98.636424 
860.000000	 98.654874 
859.000000	 98.668326 
858.000000	 98.674050 
857.000000	 98.675115 
856.000000	 98.677563 
855.000000	 98.686179 
854.000000	 98.702864 
853.000000	 98.725087 
852.000000	 98.745627 
851.000000	 98.758434 
850.000000	 98.765558 
849.000000	 98.773458 
848.000000	 98.781771 
847.000000	 98.781994 
846.000000	 98.769836 
845.000000	 98.752888 
844.000000	 98.742101 
843.000000	 98.740496 
842.000000	 98.744329 
841.000000	 98.750836 
840.000000	 98.759269 
839.000000	 98.766712 
838.000000	 98.768179 
837.000000	 98.760649 
836.000000	 98.744530 
835.000000	 98.722954 
834.000000	 98.701816 
833.000000	 98.687503 
832.000000	 98.681353 
831.000000	 98.678822 
830.000000	 98.677337 
829.000000	 98.681701 
828.000000	 98.696653 
827.000000	 98.716931 
826.000000	 98.732050 
825.000000	 98.740312 
824.000000	 98.749788 
823.000000	 98.764466 
822.000000	 98.778426 
821.000000	 98.786611 
820.000000	 98.792761 
819.000000	 98.801597 
818.000000	 98.809014 
817.000000	 98.805816 
816.000000	 98.789091 
815.000000	 98.765309 
814.000000	 98.741997 
813.000000	 98.719727 
812.000000	 98.693348 
811.000000	 98.657703 
810.000000	 98.609591 
809.000000	 98.546780 
808.000000	 98.469545 
807.000000	 98.383161 
806.000000	 98.294974 
805.000000	 98.208138 
804.000000	 98.121705 
803.000000	 98.037538 
802.000000	 97.962572 
801.000000	 97.902343 
800.000000	 97.856902 
799.000000	 97.825963 
798.000000	 97.813407 
797.000000	 97.821869 
796.000000	 97.845667 
795.000000	 97.874392 
794.000000	 97.902474 
793.000000	 97.930240 
792.000000	 97.956377 
791.000000	 97.975735 
790.000000	 97.986017 
789.000000	 97.990771 
788.000000	 97.992920 
787.000000	 97.989961 
786.000000	 97.978368 
785.000000	 97.958291 
784.000000	 97.930824 
783.000000	 97.895185 
782.000000	 97.853182 
781.000000	 97.813326 
780.000000	 97.785465 
779.000000	 97.772390 
778.000000	 97.770097 
777.000000	 97.774869 
776.000000	 97.786254 
775.000000	 97.804170 
774.000000	 97.827484 
773.000000	 97.855647 
772.000000	 97.888076 
771.000000	 97.921335 
770.000000	 97.949964 
769.000000	 97.970606 
768.000000	 97.983061 
767.000000	 97.988007 
766.000000	 97.987060 
765.000000	 97.984944 
764.000000	 97.987741 
763.000000	 97.997303 
762.000000	 98.009255 
761.000000	 98.017553 
760.000000	 98.019835 
759.000000	 98.018513 
758.000000	 98.018682 
757.000000	 98.024953 
756.000000	 98.038116 
755.000000	 98.054325 
754.000000	 98.068964 
753.000000	 98.080885 
752.000000	 98.090714 
751.000000	 98.096291 
750.000000	 98.094511 
749.000000	 98.088681 
748.000000	 98.089221 
747.000000	 98.103210 
746.000000	 98.125630 
745.000000	 98.145588 
744.000000	 98.160495 
743.000000	 98.179088 
742.000000	 98.208926 
741.000000	 98.245053 
740.000000	 98.274745 
739.000000	 98.291742 
738.000000	 98.301654 
737.000000	 98.312974 
736.000000	 98.326836 
735.000000	 98.337789 
734.000000	 98.341617 
733.000000	 98.339159 
732.000000	 98.334200 
731.000000	 98.331230 
730.000000	 98.334080 
729.000000	 98.342639 
728.000000	 98.350895 
727.000000	 98.352677 
726.000000	 98.350822 
725.000000	 98.356620 
724.000000	 98.377551 
723.000000	 98.408188 
722.000000	 98.435477 
721.000000	 98.451044 
720.000000	 98.456374 
719.000000	 98.457707 
718.000000	 98.458603 
717.000000	 98.457466 
716.000000	 98.450719 
715.000000	 98.438324 
714.000000	 98.426679 
713.000000	 98.425062 
712.000000	 98.438086 
711.000000	 98.461537 
710.000000	 98.485125 
709.000000	 98.498550 
708.000000	 98.496369 
707.000000	 98.480401 
706.000000	 98.458615 
705.000000	 98.439454 
704.000000	 98.425872 
703.000000	 98.415149 
702.000000	 98.402554 
701.000000	 98.382476 
700.000000	 98.348095 
699.000000	 98.295576 
698.000000	 98.230881 
697.000000	 98.169296 
696.000000	 98.126247 
695.000000	 98.109638 
694.000000	 98.119119 
693.000000	 98.147848 
692.000000	 98.183820 
691.000000	 98.214120 
690.000000	 98.232370 
689.000000	 98.241298 
688.000000	 98.247636 
687.000000	 98.256943 
686.000000	 98.272322 
685.000000	 98.292926 
684.000000	 98.312470 
683.000000	 98.324013 
682.000000	 98.327953 
681.000000	 98.331240 
680.000000	 98.337765 
679.000000	 98.344931 
678.000000	 98.351431 
677.000000	 98.361655 
676.000000	 98.377964 
675.000000	 98.393989 
674.000000	 98.402396 
673.000000	 98.404680 
672.000000	 98.407232 
671.000000	 98.412363 
670.000000	 98.418538 
669.000000	 98.423384 
668.000000	 98.420484 
667.000000	 98.406659 
666.000000	 98.393329 
665.000000	 98.392982 
664.000000	 98.409732 
663.000000	 98.437779 
662.000000	 98.462328 
661.000000	 98.469215 
660.000000	 98.453074 
659.000000	 98.419847 
658.000000	 98.388527 
657.000000	 98.382426 
656.000000	 98.409003 
655.000000	 98.450307 
654.000000	 98.479716 
653.000000	 98.486238 
652.000000	 98.476595 
651.000000	 98.462414 
650.000000	 98.453923 

