4000.000000	99.509692 
3999.000000	99.509653 
3998.000000	99.510248 
3997.000000	99.510092 
3996.000000	99.507816 
3995.000000	99.503435 
3994.000000	99.498798 
3993.000000	99.496371 
3992.000000	99.497229 
3991.000000	99.500145 
3990.000000	99.502817 
3989.000000	99.504068 
3988.000000	99.504718 
3987.000000	99.506350 
3986.000000	99.509469 
3985.000000	99.512882 
3984.000000	99.514624 
3983.000000	99.513349 
3982.000000	99.509160 
3981.000000	99.503451 
3980.000000	99.497907 
3979.000000	99.493658 
3978.000000	99.491372 
3977.000000	99.491606 
3976.000000	99.494511 
3975.000000	99.499254 
3974.000000	99.504243 
3973.000000	99.508091 
3972.000000	99.510153 
3971.000000	99.510409 
3970.000000	99.509233 
3969.000000	99.507283 
3968.000000	99.505348 
3967.000000	99.503914 
3966.000000	99.503024 
3965.000000	99.502739 
3964.000000	99.503230 
3963.000000	99.504074 
3962.000000	99.503810 
3961.000000	99.500820 
3960.000000	99.494886 
3959.000000	99.487945 
3958.000000	99.483011 
3957.000000	99.481921 
3956.000000	99.484187 
3955.000000	99.487592 
3954.000000	99.489892 
3953.000000	99.489998 
3952.000000	99.488037 
3951.000000	99.485251 
3950.000000	99.483419 
3949.000000	99.483844 
3948.000000	99.486331 
3947.000000	99.489281 
3946.000000	99.491236 
3945.000000	99.492030 
3944.000000	99.492345 
3943.000000	99.492254 
3942.000000	99.491252 
3941.000000	99.489517 
3940.000000	99.487751 
3939.000000	99.485731 
3938.000000	99.482223 
3937.000000	99.476749 
3936.000000	99.471285 
3935.000000	99.469304 
3934.000000	99.473129 
3933.000000	99.481843 
3932.000000	99.491366 
3931.000000	99.496834 
3930.000000	99.495672 
3929.000000	99.489382 
3928.000000	99.482469 
3927.000000	99.479045 
3926.000000	99.480063 
3925.000000	99.482797 
3924.000000	99.483262 
3923.000000	99.480054 
3922.000000	99.475250 
3921.000000	99.472235 
3920.000000	99.473052 
3919.000000	99.477413 
3918.000000	99.483487 
3917.000000	99.489098 
3916.000000	99.492766 
3915.000000	99.494488 
3914.000000	99.495819 
3913.000000	99.498563 
3912.000000	99.502919 
3911.000000	99.507353 
3910.000000	99.510376 
3909.000000	99.511978 
3908.000000	99.513197 
3907.000000	99.513875 
3906.000000	99.511465 
3905.000000	99.502510 
3904.000000	99.486169 
3903.000000	99.467255 
3902.000000	99.454078 
3901.000000	99.452124 
3900.000000	99.460290 
3899.000000	99.472363 
3898.000000	99.482156 
3897.000000	99.487183 
3896.000000	99.487815 
3895.000000	99.485291 
3894.000000	99.481173 
3893.000000	99.477027 
3892.000000	99.473656 
3891.000000	99.470604 
3890.000000	99.467453 
3889.000000	99.464518 
3888.000000	99.462701 
3887.000000	99.463043 
3886.000000	99.465080 
3885.000000	99.466588 
3884.000000	99.466244 
3883.000000	99.465332 
3882.000000	99.466416 
3881.000000	99.470446 
3880.000000	99.475574 
3879.000000	99.479394 
3878.000000	99.482012 
3877.000000	99.485441 
3876.000000	99.490932 
3875.000000	99.496315 
3874.000000	99.496766 
3873.000000	99.489893 
3872.000000	99.479371 
3871.000000	99.471679 
3870.000000	99.469573 
3869.000000	99.470885 
3868.000000	99.473078 
3867.000000	99.475950 
3866.000000	99.480624 
3865.000000	99.486674 
3864.000000	99.490534 
3863.000000	99.489201 
3862.000000	99.483908 
3861.000000	99.478625 
3860.000000	99.476154 
3859.000000	99.475853 
3858.000000	99.474546 
3857.000000	99.470209 
3856.000000	99.465001 
3855.000000	99.464600 
3854.000000	99.469983 
3853.000000	99.474630 
3852.000000	99.476125 
3851.000000	99.477767 
3850.000000	99.480542 
3849.000000	99.483610 
3848.000000	99.486283 
3847.000000	99.488258 
3846.000000	99.489353 
3845.000000	99.489605 
3844.000000	99.489710 
3843.000000	99.491144 
3842.000000	99.494644 
3841.000000	99.498992 
3840.000000	99.501877 
3839.000000	99.501514 
3838.000000	99.497963 
3837.000000	99.493109 
3836.000000	99.488901 
3835.000000	99.486378 
3834.000000	99.486331 
3833.000000	99.489649 
3832.000000	99.496146 
3831.000000	99.503521 
3830.000000	99.508706 
3829.000000	99.509909 
3828.000000	99.507211 
3827.000000	99.501886 
3826.000000	99.495616 
3825.000000	99.490100 
3824.000000	99.487193 
3823.000000	99.488796 
3822.000000	99.494028 
3821.000000	99.497828 
3820.000000	99.497164 
3819.000000	99.494790 
3818.000000	99.494160 
3817.000000	99.495557 
3816.000000	99.495714 
3815.000000	99.491592 
3814.000000	99.484567 
3813.000000	99.478877 
3812.000000	99.477920 
3811.000000	99.482209 
3810.000000	99.489427 
3809.000000	99.496448 
3808.000000	99.501076 
3807.000000	99.502301 
3806.000000	99.500442 
3805.000000	99.496800 
3804.000000	99.493282 
3803.000000	99.492239 
3802.000000	99.493897 
3801.000000	99.495317 
3800.000000	99.494746 
3799.000000	99.493138 
3798.000000	99.491725 
3797.000000	99.491007 
3796.000000	99.490426 
3795.000000	99.489023 
3794.000000	99.486511 
3793.000000	99.483533 
3792.000000	99.481401 
3791.000000	99.481380 
3790.000000	99.483708 
3789.000000	99.487215 
3788.000000	99.489887 
3787.000000	99.490069 
3786.000000	99.487717 
3785.000000	99.484384 
3784.000000	99.481814 
3783.000000	99.480632 
3782.000000	99.480622 
3781.000000	99.481782 
3780.000000	99.484156 
3779.000000	99.486895 
3778.000000	99.488617 
3777.000000	99.488435 
3776.000000	99.486283 
3775.000000	99.482958 
3774.000000	99.479712 
3773.000000	99.477693 
3772.000000	99.477602 
3771.000000	99.479007 
3770.000000	99.479930 
3769.000000	99.478643 
3768.000000	99.475984 
3767.000000	99.474276 
3766.000000	99.474579 
3765.000000	99.475742 
3764.000000	99.475799 
3763.000000	99.474073 
3762.000000	99.471928 
3761.000000	99.471413 
3760.000000	99.473090 
3759.000000	99.475696 
3758.000000	99.478074 
3757.000000	99.480163 
3756.000000	99.481835 
3755.000000	99.482666 
3754.000000	99.482897 
3753.000000	99.483528 
3752.000000	99.484378 
3751.000000	99.482989 
3750.000000	99.478859 
3749.000000	99.475411 
3748.000000	99.474614 
3747.000000	99.475113 
3746.000000	99.475459 
3745.000000	99.474720 
3744.000000	99.472479 
3743.000000	99.470681 
3742.000000	99.470431 
3741.000000	99.469382 
3740.000000	99.465164 
3739.000000	99.458121 
3738.000000	99.451733 
3737.000000	99.449847 
3736.000000	99.451809 
3735.000000	99.452435 
3734.000000	99.448434 
3733.000000	99.442721 
3732.000000	99.440444 
3731.000000	99.443338 
3730.000000	99.449260 
3729.000000	99.455339 
3728.000000	99.460382 
3727.000000	99.464032 
3726.000000	99.465217 
3725.000000	99.463404 
3724.000000	99.460209 
3723.000000	99.458232 
3722.000000	99.458375 
3721.000000	99.459712 
3720.000000	99.460846 
3719.000000	99.460869 
3718.000000	99.459862 
3717.000000	99.458262 
3716.000000	99.455941 
3715.000000	99.452637 
3714.000000	99.449423 
3713.000000	99.448832 
3712.000000	99.451629 
3711.000000	99.455499 
3710.000000	99.457785 
3709.000000	99.457357 
3708.000000	99.454245 
3707.000000	99.449340 
3706.000000	99.444338 
3705.000000	99.441395 
3704.000000	99.442014 
3703.000000	99.445385 
3702.000000	99.447941 
3701.000000	99.446097 
3700.000000	99.439687 
3699.000000	99.431394 
3698.000000	99.424231 
3697.000000	99.420082 
3696.000000	99.419386 
3695.000000	99.421683 
3694.000000	99.426209 
3693.000000	99.431595 
3692.000000	99.435024 
3691.000000	99.433152 
3690.000000	99.424753 
3689.000000	99.413108 
3688.000000	99.404055 
3687.000000	99.400366 
3686.000000	99.400147 
3685.000000	99.401168 
3684.000000	99.403246 
3683.000000	99.406739 
3682.000000	99.410529 
3681.000000	99.411796 
3680.000000	99.407673 
3679.000000	99.397075 
3678.000000	99.382582 
3677.000000	99.370909 
3676.000000	99.367821 
3675.000000	99.371433 
3674.000000	99.375883 
3673.000000	99.377931 
3672.000000	99.377940 
3671.000000	99.378924 
3670.000000	99.381949 
3669.000000	99.385373 
3668.000000	99.389232 
3667.000000	99.394951 
3666.000000	99.402286 
3665.000000	99.408993 
3664.000000	99.412411 
3663.000000	99.411636 
3662.000000	99.408116 
3661.000000	99.403882 
3660.000000	99.400034 
3659.000000	99.397342 
3658.000000	99.397210 
3657.000000	99.400264 
3656.000000	99.404425 
3655.000000	99.406717 
3654.000000	99.406117 
3653.000000	99.403661 
3652.000000	99.400882 
3651.000000	99.398214 
3650.000000	99.394505 
3649.000000	99.389975 
3648.000000	99.387630 
3647.000000	99.388942 
3646.000000	99.392277 
3645.000000	99.396227 
3644.000000	99.401305 
3643.000000	99.408518 
3642.000000	99.418046 
3641.000000	99.428693 
3640.000000	99.438486 
3639.000000	99.445357 
3638.000000	99.447956 
3637.000000	99.446749 
3636.000000	99.443686 
3635.000000	99.440301 
3634.000000	99.436095 
3633.000000	99.429821 
3632.000000	99.422416 
3631.000000	99.417562 
3630.000000	99.417867 
3629.000000	99.419629 
3628.000000	99.417431 
3627.000000	99.413296 
3626.000000	99.412336 
3625.000000	99.415640 
3624.000000	99.420714 
3623.000000	99.424944 
3622.000000	99.428126 
3621.000000	99.432348 
3620.000000	99.437973 
3619.000000	99.441053 
3618.000000	99.438159 
3617.000000	99.431837 
3616.000000	99.428017 
3615.000000	99.430196 
3614.000000	99.435531 
3613.000000	99.436769 
3612.000000	99.429878 
3611.000000	99.418866 
3610.000000	99.411579 
3609.000000	99.411817 
3608.000000	99.416342 
3607.000000	99.420304 
3606.000000	99.423329 
3605.000000	99.427931 
3604.000000	99.434878 
3603.000000	99.442376 
3602.000000	99.448573 
3601.000000	99.453399 
3600.000000	99.456911 
3599.000000	99.457604 
3598.000000	99.454159 
3597.000000	99.447835 
3596.000000	99.442021 
3595.000000	99.439774 
3594.000000	99.441032 
3593.000000	99.443184 
3592.000000	99.443660 
3591.000000	99.441437 
3590.000000	99.437684 
3589.000000	99.435108 
3588.000000	99.435413 
3587.000000	99.436827 
3586.000000	99.436813 
3585.000000	99.435911 
3584.000000	99.437072 
3583.000000	99.441855 
3582.000000	99.448753 
3581.000000	99.454461 
3580.000000	99.456810 
3579.000000	99.456137 
3578.000000	99.453923 
3577.000000	99.451366 
3576.000000	99.449299 
3575.000000	99.448603 
3574.000000	99.449475 
3573.000000	99.450452 
3572.000000	99.449519 
3571.000000	99.446105 
3570.000000	99.441316 
3569.000000	99.436921 
3568.000000	99.434371 
3567.000000	99.434130 
3566.000000	99.435922 
3565.000000	99.439382 
3564.000000	99.444138 
3563.000000	99.449881 
3562.000000	99.456286 
3561.000000	99.462284 
3560.000000	99.466101 
3559.000000	99.466491 
3558.000000	99.464213 
3557.000000	99.461682 
3556.000000	99.461123 
3555.000000	99.462921 
3554.000000	99.465662 
3553.000000	99.467074 
3552.000000	99.465527 
3551.000000	99.461332 
3550.000000	99.456326 
3549.000000	99.452267 
3548.000000	99.450121 
3547.000000	99.450142 
3546.000000	99.452136 
3545.000000	99.454994 
3544.000000	99.457029 
3543.000000	99.457484 
3542.000000	99.457587 
3541.000000	99.459208 
3540.000000	99.462862 
3539.000000	99.467043 
3538.000000	99.469836 
3537.000000	99.470720 
3536.000000	99.470619 
3535.000000	99.470567 
3534.000000	99.470619 
3533.000000	99.470594 
3532.000000	99.471007 
3531.000000	99.472791 
3530.000000	99.475498 
3529.000000	99.476542 
3528.000000	99.473320 
3527.000000	99.466319 
3526.000000	99.459153 
3525.000000	99.455301 
3524.000000	99.455380 
3523.000000	99.457617 
3522.000000	99.460323 
3521.000000	99.462926 
3520.000000	99.465453 
3519.000000	99.468043 
3518.000000	99.471051 
3517.000000	99.474531 
3516.000000	99.477230 
3515.000000	99.477112 
3514.000000	99.473377 
3513.000000	99.467807 
3512.000000	99.463512 
3511.000000	99.462300 
3510.000000	99.463219 
3509.000000	99.463861 
3508.000000	99.462970 
3507.000000	99.461685 
3506.000000	99.462262 
3505.000000	99.465492 
3504.000000	99.469492 
3503.000000	99.471572 
3502.000000	99.471637 
3501.000000	99.472735 
3500.000000	99.477486 
3499.000000	99.484646 
3498.000000	99.489895 
3497.000000	99.490038 
3496.000000	99.485908 
3495.000000	99.481036 
3494.000000	99.478210 
3493.000000	99.477742 
3492.000000	99.478467 
3491.000000	99.479292 
3490.000000	99.479794 
3489.000000	99.480138 
3488.000000	99.480743 
3487.000000	99.481629 
3486.000000	99.481985 
3485.000000	99.480795 
3484.000000	99.478069 
3483.000000	99.475215 
3482.000000	99.473772 
3481.000000	99.473946 
3480.000000	99.474745 
3479.000000	99.475212 
3478.000000	99.475043 
3477.000000	99.474380 
3476.000000	99.473861 
3475.000000	99.474855 
3474.000000	99.478572 
3473.000000	99.484270 
3472.000000	99.489066 
3471.000000	99.490507 
3470.000000	99.489143 
3469.000000	99.487769 
3468.000000	99.488293 
3467.000000	99.490120 
3466.000000	99.491765 
3465.000000	99.492924 
3464.000000	99.494149 
3463.000000	99.495174 
3462.000000	99.494697 
3461.000000	99.492127 
3460.000000	99.488809 
3459.000000	99.487023 
3458.000000	99.487817 
3457.000000	99.489908 
3456.000000	99.490803 
3455.000000	99.489098 
3454.000000	99.485678 
3453.000000	99.482780 
3452.000000	99.481814 
3451.000000	99.482457 
3450.000000	99.483604 
3449.000000	99.484683 
3448.000000	99.485585 
3447.000000	99.485805 
3446.000000	99.484537 
3445.000000	99.481971 
3444.000000	99.479910 
3443.000000	99.480459 
3442.000000	99.483943 
3441.000000	99.488275 
3440.000000	99.490686 
3439.000000	99.490039 
3438.000000	99.487380 
3437.000000	99.484478 
3436.000000	99.482290 
3435.000000	99.480893 
3434.000000	99.480249 
3433.000000	99.480559 
3432.000000	99.481716 
3431.000000	99.483079 
3430.000000	99.484070 
3429.000000	99.484902 
3428.000000	99.486294 
3427.000000	99.488187 
3426.000000	99.489059 
3425.000000	99.487006 
3424.000000	99.481773 
3423.000000	99.475389 
3422.000000	99.470461 
3421.000000	99.468083 
3420.000000	99.467854 
3419.000000	99.469476 
3418.000000	99.473261 
3417.000000	99.478857 
3416.000000	99.484419 
3415.000000	99.487773 
3414.000000	99.488218 
3413.000000	99.486826 
3412.000000	99.485280 
3411.000000	99.484777 
3410.000000	99.485678 
3409.000000	99.487395 
3408.000000	99.488399 
3407.000000	99.486904 
3406.000000	99.482268 
3405.000000	99.475825 
3404.000000	99.470147 
3403.000000	99.467240 
3402.000000	99.467388 
3401.000000	99.469755 
3400.000000	99.473708 
3399.000000	99.479023 
3398.000000	99.484799 
3397.000000	99.489002 
3396.000000	99.489760 
3395.000000	99.486951 
3394.000000	99.482028 
3393.000000	99.476548 
3392.000000	99.471523 
3391.000000	99.468048 
3390.000000	99.467601 
3389.000000	99.470957 
3388.000000	99.477028 
3387.000000	99.483305 
3386.000000	99.487689 
3385.000000	99.489883 
3384.000000	99.490924 
3383.000000	99.491431 
3382.000000	99.490446 
3381.000000	99.486475 
3380.000000	99.479797 
3379.000000	99.473440 
3378.000000	99.470993 
3377.000000	99.473195 
3376.000000	99.477108 
3375.000000	99.479007 
3374.000000	99.477858 
3373.000000	99.475777 
3372.000000	99.475481 
3371.000000	99.477651 
3370.000000	99.480544 
3369.000000	99.481640 
3368.000000	99.479813 
3367.000000	99.476373 
3366.000000	99.474097 
3365.000000	99.474811 
3364.000000	99.477842 
3363.000000	99.481064 
3362.000000	99.483232 
3361.000000	99.484585 
3360.000000	99.485105 
3359.000000	99.483285 
3358.000000	99.477816 
3357.000000	99.470420 
3356.000000	99.465696 
3355.000000	99.467051 
3354.000000	99.472814 
3353.000000	99.477216 
3352.000000	99.475582 
3351.000000	99.468573 
3350.000000	99.461351 
3349.000000	99.458869 
3348.000000	99.462046 
3347.000000	99.467754 
3346.000000	99.471688 
3345.000000	99.471346 
3344.000000	99.467388 
3343.000000	99.462984 
3342.000000	99.461298 
3341.000000	99.462778 
3340.000000	99.464824 
3339.000000	99.464669 
3338.000000	99.462528 
3337.000000	99.461217 
3336.000000	99.462649 
3335.000000	99.465689 
3334.000000	99.468000 
3333.000000	99.469042 
3332.000000	99.470182 
3331.000000	99.472163 
3330.000000	99.473742 
3329.000000	99.473267 
3328.000000	99.470877 
3327.000000	99.468377 
3326.000000	99.467078 
3325.000000	99.466263 
3324.000000	99.463893 
3323.000000	99.458927 
3322.000000	99.452940 
3321.000000	99.449310 
3320.000000	99.450419 
3319.000000	99.455500 
3318.000000	99.461404 
3317.000000	99.465350 
3316.000000	99.466600 
3315.000000	99.465975 
3314.000000	99.464844 
3313.000000	99.464839 
3312.000000	99.467297 
3311.000000	99.471884 
3310.000000	99.476229 
3309.000000	99.477892 
3308.000000	99.476576 
3307.000000	99.473838 
3306.000000	99.471087 
3305.000000	99.468832 
3304.000000	99.467551 
3303.000000	99.467824 
3302.000000	99.469163 
3301.000000	99.469701 
3300.000000	99.467834 
3299.000000	99.463924 
3298.000000	99.460031 
3297.000000	99.458187 
3296.000000	99.458824 
3295.000000	99.460477 
3294.000000	99.461083 
3293.000000	99.460124 
3292.000000	99.459320 
3291.000000	99.460267 
3290.000000	99.461483 
3289.000000	99.459339 
3288.000000	99.452533 
3287.000000	99.444425 
3286.000000	99.439796 
3285.000000	99.439942 
3284.000000	99.442092 
3283.000000	99.443128 
3282.000000	99.442708 
3281.000000	99.442755 
3280.000000	99.444958 
3279.000000	99.449066 
3278.000000	99.453015 
3277.000000	99.454526 
3276.000000	99.452878 
3275.000000	99.449198 
3274.000000	99.444997 
3273.000000	99.440926 
3272.000000	99.437259 
3271.000000	99.434770 
3270.000000	99.434085 
3269.000000	99.434525 
3268.000000	99.434627 
3267.000000	99.433855 
3266.000000	99.432985 
3265.000000	99.432825 
3264.000000	99.433348 
3263.000000	99.434248 
3262.000000	99.435605 
3261.000000	99.437601 
3260.000000	99.440033 
3259.000000	99.442252 
3258.000000	99.443327 
3257.000000	99.442370 
3256.000000	99.439201 
3255.000000	99.434722 
3254.000000	99.430315 
3253.000000	99.426983 
3252.000000	99.425386 
3251.000000	99.426204 
3250.000000	99.429478 
3249.000000	99.433702 
3248.000000	99.436560 
3247.000000	99.436901 
3246.000000	99.435444 
3245.000000	99.433488 
3244.000000	99.431653 
3243.000000	99.430021 
3242.000000	99.428616 
3241.000000	99.427292 
3240.000000	99.425915 
3239.000000	99.425294 
3238.000000	99.427336 
3237.000000	99.433383 
3236.000000	99.442279 
3235.000000	99.450504 
3234.000000	99.454472 
3233.000000	99.452935 
3232.000000	99.447646 
3231.000000	99.442002 
3230.000000	99.438750 
3229.000000	99.438425 
3228.000000	99.439482 
3227.000000	99.439602 
3226.000000	99.437038 
3225.000000	99.431566 
3224.000000	99.424876 
3223.000000	99.419749 
3222.000000	99.417919 
3221.000000	99.418424 
3220.000000	99.418531 
3219.000000	99.416505 
3218.000000	99.413331 
3217.000000	99.411853 
3216.000000	99.414628 
3215.000000	99.422202 
3214.000000	99.432456 
3213.000000	99.441365 
3212.000000	99.445124 
3211.000000	99.442318 
3210.000000	99.434448 
3209.000000	99.424840 
3208.000000	99.417154 
3207.000000	99.413882 
3206.000000	99.414885 
3205.000000	99.417366 
3204.000000	99.418384 
3203.000000	99.417728 
3202.000000	99.417578 
3201.000000	99.419346 
3200.000000	99.422074 
3199.000000	99.424145 
3198.000000	99.425262 
3197.000000	99.425960 
3196.000000	99.426407 
3195.000000	99.426769 
3194.000000	99.427844 
3193.000000	99.429964 
3192.000000	99.431609 
3191.000000	99.430410 
3190.000000	99.425641 
3189.000000	99.419020 
3188.000000	99.413092 
3187.000000	99.409488 
3186.000000	99.408597 
3185.000000	99.409872 
3184.000000	99.412113 
3183.000000	99.413987 
3182.000000	99.414870 
3181.000000	99.415245 
3180.000000	99.416237 
3179.000000	99.418617 
3178.000000	99.421872 
3177.000000	99.424182 
3176.000000	99.423883 
3175.000000	99.421330 
3174.000000	99.418794 
3173.000000	99.417970 
3172.000000	99.417994 
3171.000000	99.416622 
3170.000000	99.413070 
3169.000000	99.408830 
3168.000000	99.405760 
3167.000000	99.404323 
3166.000000	99.403970 
3165.000000	99.404450 
3164.000000	99.406097 
3163.000000	99.409089 
3162.000000	99.412854 
3161.000000	99.416181 
3160.000000	99.417849 
3159.000000	99.417297 
3158.000000	99.414832 
3157.000000	99.411194 
3156.000000	99.407070 
3155.000000	99.403112 
3154.000000	99.399969 
3153.000000	99.397646 
3152.000000	99.395001 
3151.000000	99.390762 
3150.000000	99.385519 
3149.000000	99.382084 
3148.000000	99.383093 
3147.000000	99.388200 
3146.000000	99.394119 
3145.000000	99.397618 
3144.000000	99.398264 
3143.000000	99.398104 
3142.000000	99.399045 
3141.000000	99.401068 
3140.000000	99.402873 
3139.000000	99.403496 
3138.000000	99.402784 
3137.000000	99.400864 
3136.000000	99.398179 
3135.000000	99.396048 
3134.000000	99.396069 
3133.000000	99.398210 
3132.000000	99.400121 
3131.000000	99.399386 
3130.000000	99.396364 
3129.000000	99.394109 
3128.000000	99.395424 
3127.000000	99.400480 
3126.000000	99.407089 
3125.000000	99.412385 
3124.000000	99.414197 
3123.000000	99.411962 
3122.000000	99.407244 
3121.000000	99.402845 
3120.000000	99.400565 
3119.000000	99.399888 
3118.000000	99.399282 
3117.000000	99.398468 
3116.000000	99.398665 
3115.000000	99.400615 
3114.000000	99.403207 
3113.000000	99.404460 
3112.000000	99.403465 
3111.000000	99.401034 
3110.000000	99.398692 
3109.000000	99.397345 
3108.000000	99.396741 
3107.000000	99.395947 
3106.000000	99.394327 
3105.000000	99.392226 
3104.000000	99.390697 
3103.000000	99.390543 
3102.000000	99.391724 
3101.000000	99.393658 
3100.000000	99.395863 
3099.000000	99.398112 
3098.000000	99.400191 
3097.000000	99.401827 
3096.000000	99.402777 
3095.000000	99.402747 
3094.000000	99.401316 
3093.000000	99.398331 
3092.000000	99.394451 
3091.000000	99.391114 
3090.000000	99.389832 
3089.000000	99.391335 
3088.000000	99.394985 
3087.000000	99.398830 
3086.000000	99.400755 
3085.000000	99.400248 
3084.000000	99.398794 
3083.000000	99.397878 
3082.000000	99.396923 
3081.000000	99.394234 
3080.000000	99.390061 
3079.000000	99.387433 
3078.000000	99.389125 
3077.000000	99.394463 
3076.000000	99.399948 
3075.000000	99.402651 
3074.000000	99.402246 
3073.000000	99.400207 
3072.000000	99.397935 
3071.000000	99.395765 
3070.000000	99.393092 
3069.000000	99.389168 
3068.000000	99.384154 
3067.000000	99.379572 
3066.000000	99.377597 
3065.000000	99.379632 
3064.000000	99.385148 
3063.000000	99.391364 
3062.000000	99.394335 
3061.000000	99.391537 
3060.000000	99.384323 
3059.000000	99.377375 
3058.000000	99.374976 
3057.000000	99.377859 
3056.000000	99.383744 
3055.000000	99.390031 
3054.000000	99.395073 
3053.000000	99.397669 
3052.000000	99.397067 
3051.000000	99.393917 
3050.000000	99.390370 
3049.000000	99.388727 
3048.000000	99.389991 
3047.000000	99.393236 
3046.000000	99.395714 
3045.000000	99.394182 
3044.000000	99.387688 
3043.000000	99.379373 
3042.000000	99.374333 
3041.000000	99.374981 
3040.000000	99.379003 
3039.000000	99.382107 
3038.000000	99.381921 
3037.000000	99.378852 
3036.000000	99.374267 
3035.000000	99.369040 
3034.000000	99.363625 
3033.000000	99.358412 
3032.000000	99.353593 
3031.000000	99.348987 
3030.000000	99.344232 
3029.000000	99.339183 
3028.000000	99.334255 
3027.000000	99.330410 
3026.000000	99.328371 
3025.000000	99.327440 
3024.000000	99.325472 
3023.000000	99.320668 
3022.000000	99.313372 
3021.000000	99.305443 
3020.000000	99.297773 
3019.000000	99.289192 
3018.000000	99.278462 
3017.000000	99.266693 
3016.000000	99.256656 
3015.000000	99.249536 
3014.000000	99.243635 
3013.000000	99.236965 
3012.000000	99.230138 
3011.000000	99.225302 
3010.000000	99.222654 
3009.000000	99.219725 
3008.000000	99.214424 
3007.000000	99.207341 
3006.000000	99.200211 
3005.000000	99.193216 
3004.000000	99.185129 
3003.000000	99.175614 
3002.000000	99.166132 
3001.000000	99.158531 
3000.000000	99.153567 
2999.000000	99.150873 
2998.000000	99.149634 
2997.000000	99.148997 
2996.000000	99.148179 
2995.000000	99.146295 
2994.000000	99.142067 
2993.000000	99.134117 
2992.000000	99.122086 
2991.000000	99.107384 
2990.000000	99.092617 
2989.000000	99.080507 
2988.000000	99.073297 
2987.000000	99.072249 
2986.000000	99.076632 
2985.000000	99.083420 
2984.000000	99.088860 
2983.000000	99.090715 
2982.000000	99.089004 
2981.000000	99.085196 
2980.000000	99.081238 
2979.000000	99.078787 
2978.000000	99.078164 
2977.000000	99.077792 
2976.000000	99.075247 
2975.000000	99.069170 
2974.000000	99.060157 
2973.000000	99.050336 
2972.000000	99.042513 
2971.000000	99.038974 
2970.000000	99.039802 
2969.000000	99.042305 
2968.000000	99.043094 
2967.000000	99.041134 
2966.000000	99.038241 
2965.000000	99.036552 
2964.000000	99.036268 
2963.000000	99.036108 
2962.000000	99.035207 
2961.000000	99.033949 
2960.000000	99.033208 
2959.000000	99.033298 
2958.000000	99.033854 
2957.000000	99.034684 
2956.000000	99.036425 
2955.000000	99.039971 
2954.000000	99.045228 
2953.000000	99.051027 
2952.000000	99.056465 
2951.000000	99.061648 
2950.000000	99.066663 
2949.000000	99.070482 
2948.000000	99.071656 
2947.000000	99.069628 
2946.000000	99.064745 
2945.000000	99.057436 
2944.000000	99.048106 
2943.000000	99.037320 
2942.000000	99.025136 
2941.000000	99.010650 
2940.000000	98.993257 
2939.000000	98.974210 
2938.000000	98.955999 
2937.000000	98.940229 
2936.000000	98.926828 
2935.000000	98.914889 
2934.000000	98.903105 
2933.000000	98.889530 
2932.000000	98.872368 
2931.000000	98.851609 
2930.000000	98.829332 
2929.000000	98.808352 
2928.000000	98.790889 
2927.000000	98.777892 
2926.000000	98.768552 
2925.000000	98.760810 
2924.000000	98.753739 
2923.000000	98.749429 
2922.000000	98.751342 
2921.000000	98.760759 
2920.000000	98.775984 
2919.000000	98.794786 
2918.000000	98.816020 
2917.000000	98.838546 
2916.000000	98.860249 
2915.000000	98.879140 
2914.000000	98.894798 
2913.000000	98.908179 
2912.000000	98.920633 
2911.000000	98.933271 
2910.000000	98.946408 
2909.000000	98.959192 
2908.000000	98.970272 
2907.000000	98.979106 
2906.000000	98.986033 
2905.000000	98.991132 
2904.000000	98.993878 
2903.000000	98.994329 
2902.000000	98.994124 
2901.000000	98.996486 
2900.000000	99.004098 
2899.000000	99.017492 
2898.000000	99.033577 
2897.000000	99.046985 
2896.000000	99.054420 
2895.000000	99.057715 
2894.000000	99.061433 
2893.000000	99.067615 
2892.000000	99.074554 
2891.000000	99.080391 
2890.000000	99.085620 
2889.000000	99.091270 
2888.000000	99.096723 
2887.000000	99.100849 
2886.000000	99.103994 
2885.000000	99.107434 
2884.000000	99.111771 
2883.000000	99.117115 
2882.000000	99.123925 
2881.000000	99.132163 
2880.000000	99.140118 
2879.000000	99.145587 
2878.000000	99.148257 
2877.000000	99.149999 
2876.000000	99.152730 
2875.000000	99.156653 
2874.000000	99.160453 
2873.000000	99.162567 
2872.000000	99.162275 
2871.000000	99.160124 
2870.000000	99.157444 
2869.000000	99.155460 
2868.000000	99.154962 
2867.000000	99.156372 
2866.000000	99.159122 
2865.000000	99.160898 
2864.000000	99.158757 
2863.000000	99.151631 
2862.000000	99.140879 
2861.000000	99.127978 
2860.000000	99.113005 
2859.000000	99.096259 
2858.000000	99.079861 
2857.000000	99.066189 
2856.000000	99.055624 
2855.000000	99.047531 
2854.000000	99.042958 
2853.000000	99.044624 
2852.000000	99.054189 
2851.000000	99.070764 
2850.000000	99.092205 
2849.000000	99.116594 
2848.000000	99.142258 
2847.000000	99.167532 
2846.000000	99.191219 
2845.000000	99.212707 
2844.000000	99.231405 
2843.000000	99.246698 
2842.000000	99.258907 
2841.000000	99.269652 
2840.000000	99.280657 
2839.000000	99.292306 
2838.000000	99.303570 
2837.000000	99.313049 
2836.000000	99.319873 
2835.000000	99.324016 
2834.000000	99.326313 
2833.000000	99.328181 
2832.000000	99.330797 
2831.000000	99.334175 
2830.000000	99.337071 
2829.000000	99.338125 
2828.000000	99.337406 
2827.000000	99.336837 
2826.000000	99.338935 
2825.000000	99.344798 
2824.000000	99.353146 
2823.000000	99.361145 
2822.000000	99.366295 
2821.000000	99.367985 
2820.000000	99.367667 
2819.000000	99.367496 
2818.000000	99.368498 
2817.000000	99.370024 
2816.000000	99.370993 
2815.000000	99.371241 
2814.000000	99.371181 
2813.000000	99.370612 
2812.000000	99.368858 
2811.000000	99.366263 
2810.000000	99.364651 
2809.000000	99.365642 
2808.000000	99.368862 
2807.000000	99.372222 
2806.000000	99.373753 
2805.000000	99.372981 
2804.000000	99.370993 
2803.000000	99.369630 
2802.000000	99.370269 
2801.000000	99.372778 
2800.000000	99.375574 
2799.000000	99.376975 
2798.000000	99.376562 
2797.000000	99.375176 
2796.000000	99.373883 
2795.000000	99.373218 
2794.000000	99.373255 
2793.000000	99.373886 
2792.000000	99.374786 
2791.000000	99.375344 
2790.000000	99.375050 
2789.000000	99.374258 
2788.000000	99.374416 
2787.000000	99.376972 
2786.000000	99.381581 
2785.000000	99.385566 
2784.000000	99.385799 
2783.000000	99.381469 
2782.000000	99.375044 
2781.000000	99.370482 
2780.000000	99.370371 
2779.000000	99.374321 
2778.000000	99.379642 
2777.000000	99.383693 
2776.000000	99.385920 
2775.000000	99.387641 
2774.000000	99.389842 
2773.000000	99.391780 
2772.000000	99.392272 
2771.000000	99.391737 
2770.000000	99.391814 
2769.000000	99.393081 
2768.000000	99.394388 
2767.000000	99.394878 
2766.000000	99.395486 
2765.000000	99.397346 
2764.000000	99.399293 
2763.000000	99.398257 
2762.000000	99.392593 
2761.000000	99.384448 
2760.000000	99.378331 
2759.000000	99.377385 
2758.000000	99.381188 
2757.000000	99.386927 
2756.000000	99.391970 
2755.000000	99.394964 
2754.000000	99.395161 
2753.000000	99.392250 
2752.000000	99.387523 
2751.000000	99.384126 
2750.000000	99.384718 
2749.000000	99.388803 
2748.000000	99.393220 
2747.000000	99.395317 
2746.000000	99.394920 
2745.000000	99.393223 
2744.000000	99.390910 
2743.000000	99.388047 
2742.000000	99.385156 
2741.000000	99.383381 
2740.000000	99.383416 
2739.000000	99.384693 
2738.000000	99.386008 
2737.000000	99.386960 
2736.000000	99.388467 
2735.000000	99.391406 
2734.000000	99.394827 
2733.000000	99.396355 
2732.000000	99.394820 
2731.000000	99.391769 
2730.000000	99.389596 
2729.000000	99.388778 
2728.000000	99.388025 
2727.000000	99.386752 
2726.000000	99.385977 
2725.000000	99.386658 
2724.000000	99.388470 
2723.000000	99.390790 
2722.000000	99.393721 
2721.000000	99.397269 
2720.000000	99.400203 
2719.000000	99.400709 
2718.000000	99.398098 
2717.000000	99.393429 
2716.000000	99.388735 
2715.000000	99.385945 
2714.000000	99.386082 
2713.000000	99.388681 
2712.000000	99.391966 
2711.000000	99.394184 
2710.000000	99.395136 
2709.000000	99.396207 
2708.000000	99.398592 
2707.000000	99.401430 
2706.000000	99.402150 
2705.000000	99.399208 
2704.000000	99.394410 
2703.000000	99.391656 
2702.000000	99.392926 
2701.000000	99.396162 
2700.000000	99.397892 
2699.000000	99.397343 
2698.000000	99.396852 
2697.000000	99.398385 
2696.000000	99.400956 
2695.000000	99.401956 
2694.000000	99.400327 
2693.000000	99.397747 
2692.000000	99.396849 
2691.000000	99.398437 
2690.000000	99.400435 
2689.000000	99.399831 
2688.000000	99.396025 
2687.000000	99.391816 
2686.000000	99.390592 
2685.000000	99.392875 
2684.000000	99.396366 
2683.000000	99.398817 
2682.000000	99.399663 
2681.000000	99.398978 
2680.000000	99.396495 
2679.000000	99.392445 
2678.000000	99.388563 
2677.000000	99.387362 
2676.000000	99.390413 
2675.000000	99.397213 
2674.000000	99.405192 
2673.000000	99.410845 
2672.000000	99.411878 
2671.000000	99.408801 
2670.000000	99.404179 
2669.000000	99.400289 
2668.000000	99.397936 
2667.000000	99.397277 
2666.000000	99.398621 
2665.000000	99.401925 
2664.000000	99.406154 
2663.000000	99.409728 
2662.000000	99.411509 
2661.000000	99.411433 
2660.000000	99.410572 
2659.000000	99.410362 
2658.000000	99.411223 
2657.000000	99.412183 
2656.000000	99.412450 
2655.000000	99.412689 
2654.000000	99.413637 
2653.000000	99.414226 
2652.000000	99.413084 
2651.000000	99.411627 
2650.000000	99.413101 
2649.000000	99.417726 
2648.000000	99.421347 
2647.000000	99.420722 
2646.000000	99.418383 
2645.000000	99.419890 
2644.000000	99.426919 
2643.000000	99.435042 
2642.000000	99.438162 
2641.000000	99.433843 
2640.000000	99.424714 
2639.000000	99.416195 
2638.000000	99.412707 
2637.000000	99.414437 
2636.000000	99.417302 
2635.000000	99.416857 
2634.000000	99.412433 
2633.000000	99.407119 
2632.000000	99.404363 
2631.000000	99.405470 
2630.000000	99.409563 
2629.000000	99.414184 
2628.000000	99.416096 
2627.000000	99.413461 
2626.000000	99.408134 
2625.000000	99.404609 
2624.000000	99.405815 
2623.000000	99.410463 
2622.000000	99.414878 
2621.000000	99.416622 
2620.000000	99.415795 
2619.000000	99.413827 
2618.000000	99.412234 
2617.000000	99.412284 
2616.000000	99.414685 
2615.000000	99.419047 
2614.000000	99.424003 
2613.000000	99.428161 
2612.000000	99.430838 
2611.000000	99.431897 
2610.000000	99.431307 
2609.000000	99.429222 
2608.000000	99.426284 
2607.000000	99.423482 
2606.000000	99.421797 
2605.000000	99.422188 
2604.000000	99.425424 
2603.000000	99.431020 
2602.000000	99.436492 
2601.000000	99.439043 
2600.000000	99.438630 
2599.000000	99.438224 
2598.000000	99.439855 
2597.000000	99.441312 
2596.000000	99.438316 
2595.000000	99.429756 
2594.000000	99.419290 
2593.000000	99.411647 
2592.000000	99.408643 
2591.000000	99.409110 
2590.000000	99.411354 
2589.000000	99.414704 
2588.000000	99.419147 
2587.000000	99.424145 
2586.000000	99.427991 
2585.000000	99.428742 
2584.000000	99.426382 
2583.000000	99.423590 
2582.000000	99.423368 
2581.000000	99.425981 
2580.000000	99.429046 
2579.000000	99.430278 
2578.000000	99.428968 
2577.000000	99.425141 
2576.000000	99.419141 
2575.000000	99.412665 
2574.000000	99.408741 
2573.000000	99.409442 
2572.000000	99.413967 
2571.000000	99.419400 
2570.000000	99.423095 
2569.000000	99.424374 
2568.000000	99.424533 
2567.000000	99.425165 
2566.000000	99.426044 
2565.000000	99.425185 
2564.000000	99.421853 
2563.000000	99.418691 
2562.000000	99.419262 
2561.000000	99.423703 
2560.000000	99.428290 
2559.000000	99.429202 
2558.000000	99.425397 
2557.000000	99.418415 
2556.000000	99.411488 
2555.000000	99.408603 
2554.000000	99.411709 
2553.000000	99.417953 
2552.000000	99.421748 
2551.000000	99.420602 
2550.000000	99.417223 
2549.000000	99.415175 
2548.000000	99.414476 
2547.000000	99.412675 
2546.000000	99.408565 
2545.000000	99.403394 
2544.000000	99.399527 
2543.000000	99.398842 
2542.000000	99.401234 
2541.000000	99.403967 
2540.000000	99.403912 
2539.000000	99.401047 
2538.000000	99.397986 
2537.000000	99.395497 
2536.000000	99.391115 
2535.000000	99.383771 
2534.000000	99.377117 
2533.000000	99.375432 
2532.000000	99.377904 
2531.000000	99.380173 
2530.000000	99.380802 
2529.000000	99.382869 
2528.000000	99.388597 
2527.000000	99.395148 
2526.000000	99.397426 
2525.000000	99.393995 
2524.000000	99.389019 
2523.000000	99.388511 
2522.000000	99.394914 
2521.000000	99.404834 
2520.000000	99.411661 
2519.000000	99.410703 
2518.000000	99.402433 
2517.000000	99.391561 
2516.000000	99.383353 
2515.000000	99.380116 
2514.000000	99.380202 
2513.000000	99.380388 
2512.000000	99.379904 
2511.000000	99.381608 
2510.000000	99.388023 
2509.000000	99.396982 
2508.000000	99.403481 
2507.000000	99.405691 
2506.000000	99.406267 
2505.000000	99.406783 
2504.000000	99.404023 
2503.000000	99.394434 
2502.000000	99.380578 
2501.000000	99.370246 
2500.000000	99.369310 
2499.000000	99.377056 
2498.000000	99.387981 
2497.000000	99.396293 
2496.000000	99.399078 
2495.000000	99.397154 
2494.000000	99.393616 
2493.000000	99.390697 
2492.000000	99.387900 
2491.000000	99.383826 
2490.000000	99.379651 
2489.000000	99.379784 
2488.000000	99.388459 
2487.000000	99.405359 
2486.000000	99.424067 
2485.000000	99.435256 
2484.000000	99.433243 
2483.000000	99.420658 
2482.000000	99.406055 
2481.000000	99.396277 
2480.000000	99.391757 
2479.000000	99.389315 
2478.000000	99.387389 
2477.000000	99.386928 
2476.000000	99.388724 
2475.000000	99.392344 
2474.000000	99.397295 
2473.000000	99.403144 
2472.000000	99.408367 
2471.000000	99.410838 
2470.000000	99.409953 
2469.000000	99.407165 
2468.000000	99.404175 
2467.000000	99.401641 
2466.000000	99.399704 
2465.000000	99.398537 
2464.000000	99.397981 
2463.000000	99.397606 
2462.000000	99.397540 
2461.000000	99.398292 
2460.000000	99.399384 
2459.000000	99.399184 
2458.000000	99.396920 
2457.000000	99.394190 
2456.000000	99.393419 
2455.000000	99.394962 
2454.000000	99.396538 
2453.000000	99.395654 
2452.000000	99.391912 
2451.000000	99.386655 
2450.000000	99.381125 
2449.000000	99.375945 
2448.000000	99.372287 
2447.000000	99.372258 
2446.000000	99.377098 
2445.000000	99.385042 
2444.000000	99.391625 
2443.000000	99.392546 
2442.000000	99.386743 
2441.000000	99.377517 
2440.000000	99.370782 
2439.000000	99.371016 
2438.000000	99.377667 
2437.000000	99.385667 
2436.000000	99.390079 
2435.000000	99.389984 
2434.000000	99.387604 
2433.000000	99.385080 
2432.000000	99.383480 
2431.000000	99.383657 
2430.000000	99.385519 
2429.000000	99.386590 
2428.000000	99.383938 
2427.000000	99.378425 
2426.000000	99.374902 
2425.000000	99.376817 
2424.000000	99.382302 
2423.000000	99.387182 
2422.000000	99.390328 
2421.000000	99.393625 
2420.000000	99.397166 
2419.000000	99.397318 
2418.000000	99.390926 
2417.000000	99.380013 
2416.000000	99.370579 
2415.000000	99.366833 
2414.000000	99.367822 
2413.000000	99.369806 
2412.000000	99.370482 
2411.000000	99.369895 
2410.000000	99.368446 
2409.000000	99.366041 
2408.000000	99.363245 
2407.000000	99.361400 
2406.000000	99.360946 
2405.000000	99.361133 
2404.000000	99.362045 
2403.000000	99.365094 
2402.000000	99.370254 
2401.000000	99.374381 
2400.000000	99.374060 
2399.000000	99.369203 
2398.000000	99.362573 
2397.000000	99.356976 
2396.000000	99.354274 
2395.000000	99.355425 
2394.000000	99.359104 
2393.000000	99.361334 
2392.000000	99.359066 
2391.000000	99.353617 
2390.000000	99.348586 
2389.000000	99.345482 
2388.000000	99.343972 
2387.000000	99.345239 
2386.000000	99.351106 
2385.000000	99.359669 
2384.000000	99.365524 
2383.000000	99.365636 
2382.000000	99.362099 
2381.000000	99.357981 
2380.000000	99.353460 
2379.000000	99.347993 
2378.000000	99.343538 
2377.000000	99.342583 
2376.000000	99.344790 
2375.000000	99.347884 
2374.000000	99.350258 
2373.000000	99.350803 
2372.000000	99.347681 
2371.000000	99.340683 
2370.000000	99.333233 
2369.000000	99.329072 
2368.000000	99.327922 
2367.000000	99.327650 
2366.000000	99.329001 
2365.000000	99.334135 
2364.000000	99.342143 
2363.000000	99.350689 
2362.000000	99.356784 
2361.000000	99.357487 
2360.000000	99.353231 
2359.000000	99.345645 
2358.000000	99.337684 
2357.000000	99.331523 
2356.000000	99.328493 
2355.000000	99.331823 
2354.000000	99.338368 
2353.000000	99.341007 
2352.000000	99.331656 
2351.000000	99.312755 
2350.000000	99.298578 
2349.000000	99.299130 
2348.000000	99.314654 
2347.000000	99.333005 
2346.000000	99.343725 
2345.000000	99.346906 
2344.000000	99.347373 
2343.000000	99.351770 
2342.000000	99.356220 
2341.000000	99.357627 
2340.000000	99.355880 
2339.000000	99.355412 
2338.000000	99.359471 
2337.000000	99.364734 
2336.000000	99.366002 
2335.000000	99.360877 
2334.000000	99.354481 
2333.000000	99.353222 
2332.000000	99.360288 
2331.000000	99.368545 
2330.000000	99.373088 
2329.000000	99.369372 
2328.000000	99.367166 
2327.000000	99.372412 
2326.000000	99.387725 
2325.000000	99.405017 
2324.000000	99.414616 
2323.000000	99.414940 
2322.000000	99.410857 
2321.000000	99.409252 
2320.000000	99.409267 
2319.000000	99.406105 
2318.000000	99.399274 
2317.000000	99.392195 
2316.000000	99.389813 
2315.000000	99.389827 
2314.000000	99.390895 
2313.000000	99.390923 
2312.000000	99.392899 
2311.000000	99.395196 
2310.000000	99.397110 
2309.000000	99.395883 
2308.000000	99.393668 
2307.000000	99.391646 
2306.000000	99.392024 
2305.000000	99.393902 
2304.000000	99.396897 
2303.000000	99.399186 
2302.000000	99.400506 
2301.000000	99.400052 
2300.000000	99.399748 
2299.000000	99.401042 
2298.000000	99.405400 
2297.000000	99.409865 
2296.000000	99.411284 
2295.000000	99.407975 
2294.000000	99.403326 
2293.000000	99.401173 
2292.000000	99.403229 
2291.000000	99.407664 
2290.000000	99.411836 
2289.000000	99.413872 
2288.000000	99.413283 
2287.000000	99.410959 
2286.000000	99.407981 
2285.000000	99.404568 
2284.000000	99.399980 
2283.000000	99.394918 
2282.000000	99.391771 
2281.000000	99.392391 
2280.000000	99.395451 
2279.000000	99.397833 
2278.000000	99.397030 
2277.000000	99.392185 
2276.000000	99.384292 
2275.000000	99.376743 
2274.000000	99.374217 
2273.000000	99.378098 
2272.000000	99.384394 
2271.000000	99.387884 
2270.000000	99.388113 
2269.000000	99.388638 
2268.000000	99.391021 
2267.000000	99.392312 
2266.000000	99.389383 
2265.000000	99.383120 
2264.000000	99.377054 
2263.000000	99.372993 
2262.000000	99.370060 
2261.000000	99.367392 
2260.000000	99.365835 
2259.000000	99.366699 
2258.000000	99.369298 
2257.000000	99.371480 
2256.000000	99.372210 
2255.000000	99.372860 
2254.000000	99.375127 
2253.000000	99.378807 
2252.000000	99.382958 
2251.000000	99.387598 
2250.000000	99.392515 
2249.000000	99.394875 
2248.000000	99.391044 
2247.000000	99.381593 
2246.000000	99.371769 
2245.000000	99.366728 
2244.000000	99.367777 
2243.000000	99.372935 
2242.000000	99.378573 
2241.000000	99.380574 
2240.000000	99.377662 
2239.000000	99.374560 
2238.000000	99.377822 
2237.000000	99.386675 
2236.000000	99.391890 
2235.000000	99.386808 
2234.000000	99.376035 
2233.000000	99.369379 
2232.000000	99.369639 
2231.000000	99.370725 
2230.000000	99.366422 
2229.000000	99.356855 
2228.000000	99.346570 
2227.000000	99.339735 
2226.000000	99.337783 
2225.000000	99.339566 
2224.000000	99.343541 
2223.000000	99.350328 
2222.000000	99.361005 
2221.000000	99.371391 
2220.000000	99.372053 
2219.000000	99.358848 
2218.000000	99.341650 
2217.000000	99.336867 
2216.000000	99.350163 
2215.000000	99.370737 
2214.000000	99.383573 
2213.000000	99.383421 
2212.000000	99.375430 
2211.000000	99.366730 
2210.000000	99.361724 
2209.000000	99.363230 
2208.000000	99.372073 
2207.000000	99.383343 
2206.000000	99.386663 
2205.000000	99.375031 
2204.000000	99.354260 
2203.000000	99.340017 
2202.000000	99.342797 
2201.000000	99.357004 
2200.000000	99.367276 
2199.000000	99.364523 
2198.000000	99.352543 
2197.000000	99.340286 
2196.000000	99.333004 
2195.000000	99.332060 
2194.000000	99.337480 
2193.000000	99.346148 
2192.000000	99.351104 
2191.000000	99.348356 
2190.000000	99.343542 
2189.000000	99.347048 
2188.000000	99.361309 
2187.000000	99.375929 
2186.000000	99.377066 
2185.000000	99.360820 
2184.000000	99.336964 
2183.000000	99.319982 
2182.000000	99.316789 
2181.000000	99.322581 
2180.000000	99.327917 
2179.000000	99.328506 
2178.000000	99.326923 
2177.000000	99.326731 
2176.000000	99.328174 
2175.000000	99.329629 
2174.000000	99.330309 
2173.000000	99.330664 
2172.000000	99.332587 
2171.000000	99.339850 
2170.000000	99.355579 
2169.000000	99.377801 
2168.000000	99.399432 
2167.000000	99.413899 
2166.000000	99.419651 
2165.000000	99.419953 
2164.000000	99.420790 
2163.000000	99.427468 
2162.000000	99.437972 
2161.000000	99.438625 
2160.000000	99.412632 
2159.000000	99.358072 
2158.000000	99.293879 
2157.000000	99.243317 
2156.000000	99.215508 
2155.000000	99.206693 
2154.000000	99.211793 
2153.000000	99.228157 
2152.000000	99.252003 
2151.000000	99.276754 
2150.000000	99.295528 
2149.000000	99.305065 
2148.000000	99.308423 
2147.000000	99.312498 
2146.000000	99.319811 
2145.000000	99.323652 
2144.000000	99.315662 
2143.000000	99.297864 
2142.000000	99.281754 
2141.000000	99.274556 
2140.000000	99.271996 
2139.000000	99.267460 
2138.000000	99.262850 
2137.000000	99.265265 
2136.000000	99.276037 
2135.000000	99.288701 
2134.000000	99.297297 
2133.000000	99.302270 
2132.000000	99.307284 
2131.000000	99.313049 
2130.000000	99.316076 
2129.000000	99.313004 
2128.000000	99.305142 
2127.000000	99.297733 
2126.000000	99.294527 
2125.000000	99.294714 
2124.000000	99.296640 
2123.000000	99.302380 
2122.000000	99.314848 
2121.000000	99.330948 
2120.000000	99.342337 
2119.000000	99.344601 
2118.000000	99.342073 
2117.000000	99.341672 
2116.000000	99.344931 
2115.000000	99.348356 
2114.000000	99.348951 
2113.000000	99.346358 
2112.000000	99.341309 
2111.000000	99.335296 
2110.000000	99.331446 
2109.000000	99.332885 
2108.000000	99.339117 
2107.000000	99.344997 
2106.000000	99.344218 
2105.000000	99.334938 
2104.000000	99.322840 
2103.000000	99.317354 
2102.000000	99.322603 
2101.000000	99.332327 
2100.000000	99.336202 
2099.000000	99.330913 
2098.000000	99.322168 
2097.000000	99.316423 
2096.000000	99.314868 
2095.000000	99.316389 
2094.000000	99.321378 
2093.000000	99.329427 
2092.000000	99.337002 
2091.000000	99.341118 
2090.000000	99.343275 
2089.000000	99.346586 
2088.000000	99.350049 
2087.000000	99.348397 
2086.000000	99.337787 
2085.000000	99.320854 
2084.000000	99.306641 
2083.000000	99.304942 
2082.000000	99.318306 
2081.000000	99.338589 
2080.000000	99.353689 
2079.000000	99.358864 
2078.000000	99.359455 
2077.000000	99.362563 
2076.000000	99.369189 
2075.000000	99.375081 
2074.000000	99.375309 
2073.000000	99.366641 
2072.000000	99.349680 
2071.000000	99.330723 
2070.000000	99.317953 
2069.000000	99.313310 
2068.000000	99.310700 
2067.000000	99.304255 
2066.000000	99.295427 
2065.000000	99.290551 
2064.000000	99.294750 
2063.000000	99.309312 
2062.000000	99.329959 
2061.000000	99.345584 
2060.000000	99.345644 
2059.000000	99.333114 
2058.000000	99.324143 
2057.000000	99.329589 
2056.000000	99.342099 
2055.000000	99.347771 
2054.000000	99.345882 
2053.000000	99.348619 
2052.000000	99.363113 
2051.000000	99.381815 
2050.000000	99.391254 
2049.000000	99.385293 
2048.000000	99.369408 
2047.000000	99.355098 
2046.000000	99.351077 
2045.000000	99.356867 
2044.000000	99.363407 
2043.000000	99.362080 
2042.000000	99.353525 
2041.000000	99.345725 
2040.000000	99.343875 
2039.000000	99.345087 
2038.000000	99.343296 
2037.000000	99.336793 
2036.000000	99.329952 
2035.000000	99.327490 
2034.000000	99.326920 
2033.000000	99.319141 
2032.000000	99.300405 
2031.000000	99.281679 
2030.000000	99.279223 
2029.000000	99.294961 
2028.000000	99.312619 
2027.000000	99.315877 
2026.000000	99.303918 
2025.000000	99.287257 
2024.000000	99.276112 
2023.000000	99.276169 
2022.000000	99.287430 
2021.000000	99.300943 
2020.000000	99.303378 
2019.000000	99.291547 
2018.000000	99.277259 
2017.000000	99.272302 
2016.000000	99.274405 
2015.000000	99.275208 
2014.000000	99.274375 
2013.000000	99.276260 
2012.000000	99.279485 
2011.000000	99.280141 
2010.000000	99.281164 
2009.000000	99.288265 
2008.000000	99.298755 
2007.000000	99.304557 
2006.000000	99.304900 
2005.000000	99.306166 
2004.000000	99.310221 
2003.000000	99.312401 
2002.000000	99.310752 
2001.000000	99.308426 
2000.000000	99.306236 
1999.000000	99.300325 
1998.000000	99.288580 
1997.000000	99.274292 
1996.000000	99.262837 
1995.000000	99.258798 
1994.000000	99.265801 
1993.000000	99.283473 
1992.000000	99.303334 
1991.000000	99.313758 
1990.000000	99.311321 
1989.000000	99.302804 
1988.000000	99.296666 
1987.000000	99.297078 
1986.000000	99.305094 
1985.000000	99.319504 
1984.000000	99.334783 
1983.000000	99.342565 
1982.000000	99.338101 
1981.000000	99.324142 
1980.000000	99.308320 
1979.000000	99.298375 
1978.000000	99.298052 
1977.000000	99.303484 
1976.000000	99.304340 
1975.000000	99.292970 
1974.000000	99.272958 
1973.000000	99.256146 
1972.000000	99.250876 
1971.000000	99.255427 
1970.000000	99.263127 
1969.000000	99.270778 
1968.000000	99.280116 
1967.000000	99.292221 
1966.000000	99.303399 
1965.000000	99.308471 
1964.000000	99.307003 
1963.000000	99.303871 
1962.000000	99.303420 
1961.000000	99.304898 
1960.000000	99.305098 
1959.000000	99.303808 
1958.000000	99.303703 
1957.000000	99.305720 
1956.000000	99.307353 
1955.000000	99.305133 
1954.000000	99.296549 
1953.000000	99.280985 
1952.000000	99.262106 
1951.000000	99.248302 
1950.000000	99.246727 
1949.000000	99.255711 
1948.000000	99.266087 
1947.000000	99.271019 
1946.000000	99.270742 
1945.000000	99.267400 
1944.000000	99.260801 
1943.000000	99.251902 
1942.000000	99.245342 
1941.000000	99.243716 
1940.000000	99.243756 
1939.000000	99.242011 
1938.000000	99.240200 
1937.000000	99.242366 
1936.000000	99.249091 
1935.000000	99.256861 
1934.000000	99.261523 
1933.000000	99.260789 
1932.000000	99.255598 
1931.000000	99.251155 
1930.000000	99.254767 
1929.000000	99.268458 
1928.000000	99.284727 
1927.000000	99.293106 
1926.000000	99.289396 
1925.000000	99.276837 
1924.000000	99.261345 
1923.000000	99.249119 
1922.000000	99.245895 
1921.000000	99.252955 
1920.000000	99.264608 
1919.000000	99.272657 
1918.000000	99.273445 
1917.000000	99.269804 
1916.000000	99.266386 
1915.000000	99.266438 
1914.000000	99.271588 
1913.000000	99.280319 
1912.000000	99.287226 
1911.000000	99.287168 
1910.000000	99.280471 
1909.000000	99.271705 
1908.000000	99.264868 
1907.000000	99.262873 
1906.000000	99.268565 
1905.000000	99.280806 
1904.000000	99.290544 
1903.000000	99.287028 
1902.000000	99.269188 
1901.000000	99.247276 
1900.000000	99.233390 
1899.000000	99.232683 
1898.000000	99.242208 
1897.000000	99.254363 
1896.000000	99.261445 
1895.000000	99.261139 
1894.000000	99.258471 
1893.000000	99.259636 
1892.000000	99.264976 
1891.000000	99.270423 
1890.000000	99.273590 
1889.000000	99.275436 
1888.000000	99.276883 
1887.000000	99.277984 
1886.000000	99.279385 
1885.000000	99.281112 
1884.000000	99.280784 
1883.000000	99.275852 
1882.000000	99.267438 
1881.000000	99.259425 
1880.000000	99.254740 
1879.000000	99.253986 
1878.000000	99.255649 
1877.000000	99.256039 
1876.000000	99.251852 
1875.000000	99.245416 
1874.000000	99.244877 
1873.000000	99.255168 
1872.000000	99.270291 
1871.000000	99.278391 
1870.000000	99.273649 
1869.000000	99.261090 
1868.000000	99.248502 
1867.000000	99.238462 
1866.000000	99.231290 
1865.000000	99.227856 
1864.000000	99.228182 
1863.000000	99.231689 
1862.000000	99.238896 
1861.000000	99.249843 
1860.000000	99.260901 
1859.000000	99.267139 
1858.000000	99.268196 
1857.000000	99.267934 
1856.000000	99.268860 
1855.000000	99.270677 
1854.000000	99.273006 
1853.000000	99.275547 
1852.000000	99.276000 
1851.000000	99.271658 
1850.000000	99.263188 
1849.000000	99.254966 
1848.000000	99.250870 
1847.000000	99.251607 
1846.000000	99.256220 
1845.000000	99.262335 
1844.000000	99.265118 
1843.000000	99.261598 
1842.000000	99.255529 
1841.000000	99.252596 
1840.000000	99.254786 
1839.000000	99.260473 
1838.000000	99.267006 
1837.000000	99.272470 
1836.000000	99.275623 
1835.000000	99.276513 
1834.000000	99.276857 
1833.000000	99.278567 
1832.000000	99.282213 
1831.000000	99.286125 
1830.000000	99.287043 
1829.000000	99.283392 
1828.000000	99.277489 
1827.000000	99.272684 
1826.000000	99.270925 
1825.000000	99.273127 
1824.000000	99.277999 
1823.000000	99.281839 
1822.000000	99.281557 
1821.000000	99.276331 
1820.000000	99.267850 
1819.000000	99.259539 
1818.000000	99.254937 
1817.000000	99.255430 
1816.000000	99.258195 
1815.000000	99.259175 
1814.000000	99.258269 
1813.000000	99.259538 
1812.000000	99.266797 
1811.000000	99.278723 
1810.000000	99.291097 
1809.000000	99.301844 
1808.000000	99.309291 
1807.000000	99.309828 
1806.000000	99.301847 
1805.000000	99.289390 
1804.000000	99.278884 
1803.000000	99.273549 
1802.000000	99.273011 
1801.000000	99.276101 
1800.000000	99.280383 
1799.000000	99.282176 
1798.000000	99.281114 
1797.000000	99.280322 
1796.000000	99.281854 
1795.000000	99.285023 
1794.000000	99.288294 
1793.000000	99.290694 
1792.000000	99.292378 
1791.000000	99.293048 
1790.000000	99.292323 
1789.000000	99.291581 
1788.000000	99.293044 
1787.000000	99.297587 
1786.000000	99.303726 
1785.000000	99.307959 
1784.000000	99.306823 
1783.000000	99.301307 
1782.000000	99.296617 
1781.000000	99.295492 
1780.000000	99.294256 
1779.000000	99.287612 
1778.000000	99.277200 
1777.000000	99.269815 
1776.000000	99.269516 
1775.000000	99.275763 
1774.000000	99.285643 
1773.000000	99.294352 
1772.000000	99.296572 
1771.000000	99.292476 
1770.000000	99.287758 
1769.000000	99.285919 
1768.000000	99.286183 
1767.000000	99.285381 
1766.000000	99.282136 
1765.000000	99.278631 
1764.000000	99.277073 
1763.000000	99.277190 
1762.000000	99.277027 
1761.000000	99.275471 
1760.000000	99.273626 
1759.000000	99.272132 
1758.000000	99.269664 
1757.000000	99.263678 
1756.000000	99.253081 
1755.000000	99.239929 
1754.000000	99.226192 
1753.000000	99.211551 
1752.000000	99.197155 
1751.000000	99.188821 
1750.000000	99.189647 
1749.000000	99.193951 
1748.000000	99.194393 
1747.000000	99.189427 
1746.000000	99.182106 
1745.000000	99.175525 
1744.000000	99.171898 
1743.000000	99.172463 
1742.000000	99.176753 
1741.000000	99.183232 
1740.000000	99.189665 
1739.000000	99.194028 
1738.000000	99.196861 
1737.000000	99.200137 
1736.000000	99.204217 
1735.000000	99.207085 
1734.000000	99.207325 
1733.000000	99.207663 
1732.000000	99.212987 
1731.000000	99.224375 
1730.000000	99.238923 
1729.000000	99.251922 
1728.000000	99.260133 
1727.000000	99.263823 
1726.000000	99.264440 
1725.000000	99.262370 
1724.000000	99.258176 
1723.000000	99.254194 
1722.000000	99.254012 
1721.000000	99.259917 
1720.000000	99.270599 
1719.000000	99.280700 
1718.000000	99.282999 
1717.000000	99.276839 
1716.000000	99.268734 
1715.000000	99.262496 
1714.000000	99.259036 
1713.000000	99.258648 
1712.000000	99.259492 
1711.000000	99.259360 
1710.000000	99.258423 
1709.000000	99.258625 
1708.000000	99.261339 
1707.000000	99.267023 
1706.000000	99.277050 
1705.000000	99.290977 
1704.000000	99.301887 
1703.000000	99.301028 
1702.000000	99.286534 
1701.000000	99.269485 
1700.000000	99.267318 
1699.000000	99.278711 
1698.000000	99.292732 
1697.000000	99.306029 
1696.000000	99.316659 
1695.000000	99.320452 
1694.000000	99.319599 
1693.000000	99.319031 
1692.000000	99.317898 
1691.000000	99.313417 
1690.000000	99.306703 
1689.000000	99.301984 
1688.000000	99.300577 
1687.000000	99.300014 
1686.000000	99.299414 
1685.000000	99.302253 
1684.000000	99.308504 
1683.000000	99.311783 
1682.000000	99.312414 
1681.000000	99.312372 
1680.000000	99.312542 
1679.000000	99.313434 
1678.000000	99.315257 
1677.000000	99.317732 
1676.000000	99.319897 
1675.000000	99.321211 
1674.000000	99.321945 
1673.000000	99.322860 
1672.000000	99.323894 
1671.000000	99.324751 
1670.000000	99.326081 
1669.000000	99.327996 
1668.000000	99.330206 
1667.000000	99.331956 
1666.000000	99.330638 
1665.000000	99.324975 
1664.000000	99.318269 
1663.000000	99.316875 
1662.000000	99.323752 
1661.000000	99.334680 
1660.000000	99.343707 
1659.000000	99.349109 
1658.000000	99.352486 
1657.000000	99.354158 
1656.000000	99.351308 
1655.000000	99.342608 
1654.000000	99.333424 
1653.000000	99.326633 
1652.000000	99.319887 
1651.000000	99.320534 
1650.000000	99.323845 
1649.000000	99.323526 
1648.000000	99.318864 
1647.000000	99.312818 
1646.000000	99.308347 
1645.000000	99.308777 
1644.000000	99.314744 
1643.000000	99.323393 
1642.000000	99.331693 
1641.000000	99.337426 
1640.000000	99.339091 
1639.000000	99.336696 
1638.000000	99.332248 
1637.000000	99.328938 
1636.000000	99.327453 
1635.000000	99.325870 
1634.000000	99.326858 
1633.000000	99.332010 
1632.000000	99.337680 
1631.000000	99.340888 
1630.000000	99.341646 
1629.000000	99.341403 
1628.000000	99.340781 
1627.000000	99.339762 
1626.000000	99.338829 
1625.000000	99.338651 
1624.000000	99.339632 
1623.000000	99.342029 
1622.000000	99.346221 
1621.000000	99.351325 
1620.000000	99.354434 
1619.000000	99.353447 
1618.000000	99.349584 
1617.000000	99.345918 
1616.000000	99.343754 
1615.000000	99.343411 
1614.000000	99.343708 
1613.000000	99.342338 
1612.000000	99.338742 
1611.000000	99.334199 
1610.000000	99.330462 
1609.000000	99.328163 
1608.000000	99.326769 
1607.000000	99.325776 
1606.000000	99.325033 
1605.000000	99.324448 
1604.000000	99.324390 
1603.000000	99.325688 
1602.000000	99.328278 
1601.000000	99.330340 
1600.000000	99.330120 
1599.000000	99.328276 
1598.000000	99.327303 
1597.000000	99.329159 
1596.000000	99.333780 
1595.000000	99.339368 
1594.000000	99.343751 
1593.000000	99.345459 
1592.000000	99.344560 
1591.000000	99.342681 
1590.000000	99.341670 
1589.000000	99.341804 
1588.000000	99.342374 
1587.000000	99.343521 
1586.000000	99.345600 
1585.000000	99.347312 
1584.000000	99.346461 
1583.000000	99.342797 
1582.000000	99.338694 
1581.000000	99.336476 
1580.000000	99.336311 
1579.000000	99.337221 
1578.000000	99.338320 
1577.000000	99.337974 
1576.000000	99.334073 
1575.000000	99.330240 
1574.000000	99.332171 
1573.000000	99.336704 
1572.000000	99.337868 
1571.000000	99.334771 
1570.000000	99.332069 
1569.000000	99.333178 
1568.000000	99.336480 
1567.000000	99.339220 
1566.000000	99.339968 
1565.000000	99.339341 
1564.000000	99.338980 
1563.000000	99.339754 
1562.000000	99.340432 
1561.000000	99.337892 
1560.000000	99.330208 
1559.000000	99.319579 
1558.000000	99.307938 
1557.000000	99.306833 
1556.000000	99.316663 
1555.000000	99.328342 
1554.000000	99.334927 
1553.000000	99.334594 
1552.000000	99.331328 
1551.000000	99.329864 
1550.000000	99.332091 
1549.000000	99.335841 
1548.000000	99.337348 
1547.000000	99.335239 
1546.000000	99.330048 
1545.000000	99.324220 
1544.000000	99.320410 
1543.000000	99.318948 
1542.000000	99.320095 
1541.000000	99.325081 
1540.000000	99.327207 
1539.000000	99.320960 
1538.000000	99.316887 
1537.000000	99.319577 
1536.000000	99.323327 
1535.000000	99.324077 
1534.000000	99.324290 
1533.000000	99.327790 
1532.000000	99.332709 
1531.000000	99.334288 
1530.000000	99.331963 
1529.000000	99.328941 
1528.000000	99.327457 
1527.000000	99.327534 
1526.000000	99.328450 
1525.000000	99.329696 
1524.000000	99.330578 
1523.000000	99.330941 
1522.000000	99.333286 
1521.000000	99.338940 
1520.000000	99.342244 
1519.000000	99.338868 
1518.000000	99.331250 
1517.000000	99.325129 
1516.000000	99.323126 
1515.000000	99.323111 
1514.000000	99.323512 
1513.000000	99.324274 
1512.000000	99.325140 
1511.000000	99.324886 
1510.000000	99.322348 
1509.000000	99.319106 
1508.000000	99.322348 
1507.000000	99.336322 
1506.000000	99.344229 
1505.000000	99.339448 
1504.000000	99.333739 
1503.000000	99.331044 
1502.000000	99.331321 
1501.000000	99.335214 
1500.000000	99.342628 
1499.000000	99.351313 
1498.000000	99.357508 
1497.000000	99.360878 
1496.000000	99.363761 
1495.000000	99.364628 
1494.000000	99.359880 
1493.000000	99.348799 
1492.000000	99.333714 
1491.000000	99.319643 
1490.000000	99.312057 
1489.000000	99.311701 
1488.000000	99.313160 
1487.000000	99.311962 
1486.000000	99.310568 
1485.000000	99.312646 
1484.000000	99.317797 
1483.000000	99.323429 
1482.000000	99.326204 
1481.000000	99.324276 
1480.000000	99.318338 
1479.000000	99.310661 
1478.000000	99.303399 
1477.000000	99.298133 
1476.000000	99.295394 
1475.000000	99.292931 
1474.000000	99.289356 
1473.000000	99.286484 
1472.000000	99.284451 
1471.000000	99.279259 
1470.000000	99.270484 
1469.000000	99.262120 
1468.000000	99.257595 
1467.000000	99.257159 
1466.000000	99.259675 
1465.000000	99.264019 
1464.000000	99.268254 
1463.000000	99.270801 
1462.000000	99.271656 
1461.000000	99.271860 
1460.000000	99.271426 
1459.000000	99.269387 
1458.000000	99.264834 
1457.000000	99.259340 
1456.000000	99.255237 
1455.000000	99.253258 
1454.000000	99.253830 
1453.000000	99.257246 
1452.000000	99.262308 
1451.000000	99.266580 
1450.000000	99.269402 
1449.000000	99.273017 
1448.000000	99.278815 
1447.000000	99.284229 
1446.000000	99.287071 
1445.000000	99.288387 
1444.000000	99.289627 
1443.000000	99.290097 
1442.000000	99.288814 
1441.000000	99.286529 
1440.000000	99.285060 
1439.000000	99.285548 
1438.000000	99.287001 
1437.000000	99.288391 
1436.000000	99.288920 
1435.000000	99.287018 
1434.000000	99.283559 
1433.000000	99.282218 
1432.000000	99.285118 
1431.000000	99.291709 
1430.000000	99.298758 
1429.000000	99.303174 
1428.000000	99.304392 
1427.000000	99.303225 
1426.000000	99.300532 
1425.000000	99.296452 
1424.000000	99.292591 
1423.000000	99.290803 
1422.000000	99.289297 
1421.000000	99.284687 
1420.000000	99.276482 
1419.000000	99.269177 
1418.000000	99.264744 
1417.000000	99.261034 
1416.000000	99.257997 
1415.000000	99.255441 
1414.000000	99.250884 
1413.000000	99.242465 
1412.000000	99.232820 
1411.000000	99.227060 
1410.000000	99.226040 
1409.000000	99.226715 
1408.000000	99.227356 
1407.000000	99.227884 
1406.000000	99.228402 
1405.000000	99.229845 
1404.000000	99.234473 
1403.000000	99.241537 
1402.000000	99.246097 
1401.000000	99.245437 
1400.000000	99.242520 
1399.000000	99.242289 
1398.000000	99.243056 
1397.000000	99.238271 
1396.000000	99.226587 
1395.000000	99.215098 
1394.000000	99.211876 
1393.000000	99.217693 
1392.000000	99.230016 
1391.000000	99.245881 
1390.000000	99.260941 
1389.000000	99.270470 
1388.000000	99.272373 
1387.000000	99.268583 
1386.000000	99.262123 
1385.000000	99.255132 
1384.000000	99.249028 
1383.000000	99.244364 
1382.000000	99.241047 
1381.000000	99.240157 
1380.000000	99.242942 
1379.000000	99.248317 
1378.000000	99.252739 
1377.000000	99.253640 
1376.000000	99.252859 
1375.000000	99.255555 
1374.000000	99.264250 
1373.000000	99.274368 
1372.000000	99.280141 
1371.000000	99.282335 
1370.000000	99.286649 
1369.000000	99.295278 
1368.000000	99.305311 
1367.000000	99.313216 
1366.000000	99.318110 
1365.000000	99.320838 
1364.000000	99.321762 
1363.000000	99.321545 
1362.000000	99.321912 
1361.000000	99.323348 
1360.000000	99.324539 
1359.000000	99.325125 
1358.000000	99.326828 
1357.000000	99.330975 
1356.000000	99.336491 
1355.000000	99.341225 
1354.000000	99.344394 
1353.000000	99.346328 
1352.000000	99.346091 
1351.000000	99.342171 
1350.000000	99.336892 
1349.000000	99.333789 
1348.000000	99.334069 
1347.000000	99.336470 
1346.000000	99.339995 
1345.000000	99.343919 
1344.000000	99.346551 
1343.000000	99.346370 
1342.000000	99.344350 
1341.000000	99.343062 
1340.000000	99.343739 
1339.000000	99.345509 
1338.000000	99.347188 
1337.000000	99.348817 
1336.000000	99.350872 
1335.000000	99.353056 
1334.000000	99.355029 
1333.000000	99.357154 
1332.000000	99.359506 
1331.000000	99.361234 
1330.000000	99.361419 
1329.000000	99.359605 
1328.000000	99.356139 
1327.000000	99.352503 
1326.000000	99.350951 
1325.000000	99.351797 
1324.000000	99.353725 
1323.000000	99.355743 
1322.000000	99.357539 
1321.000000	99.358193 
1320.000000	99.356533 
1319.000000	99.353102 
1318.000000	99.350043 
1317.000000	99.348555 
1316.000000	99.347602 
1315.000000	99.345786 
1314.000000	99.343219 
1313.000000	99.341082 
1312.000000	99.340101 
1311.000000	99.340367 
1310.000000	99.342075 
1309.000000	99.345123 
1308.000000	99.348202 
1307.000000	99.349167 
1306.000000	99.347299 
1305.000000	99.343928 
1304.000000	99.341768 
1303.000000	99.342900 
1302.000000	99.347425 
1301.000000	99.353331 
1300.000000	99.357675 
1299.000000	99.358268 
1298.000000	99.354928 
1297.000000	99.349572 
1296.000000	99.344835 
1295.000000	99.342776 
1294.000000	99.344185 
1293.000000	99.348363 
1292.000000	99.352992 
1291.000000	99.354744 
1290.000000	99.351675 
1289.000000	99.345610 
1288.000000	99.340901 
1287.000000	99.339887 
1286.000000	99.340357 
1285.000000	99.338702 
1284.000000	99.334667 
1283.000000	99.331139 
1282.000000	99.329952 
1281.000000	99.330109 
1280.000000	99.330131 
1279.000000	99.329899 
1278.000000	99.329093 
1277.000000	99.326102 
1276.000000	99.320000 
1275.000000	99.312836 
1274.000000	99.308139 
1273.000000	99.307471 
1272.000000	99.309458 
1271.000000	99.311520 
1270.000000	99.311529 
1269.000000	99.308701 
1268.000000	99.304273 
1267.000000	99.300736 
1266.000000	99.298913 
1265.000000	99.296635 
1264.000000	99.291411 
1263.000000	99.283373 
1262.000000	99.274446 
1261.000000	99.265964 
1260.000000	99.258769 
1259.000000	99.254599 
1258.000000	99.254636 
1257.000000	99.257473 
1256.000000	99.260436 
1255.000000	99.262589 
1254.000000	99.264572 
1253.000000	99.266009 
1252.000000	99.265324 
1251.000000	99.262565 
1250.000000	99.260259 
1249.000000	99.260759 
1248.000000	99.264341 
1247.000000	99.270044 
1246.000000	99.276059 
1245.000000	99.279059 
1244.000000	99.275760 
1243.000000	99.266884 
1242.000000	99.258103 
1241.000000	99.255310 
1240.000000	99.259440 
1239.000000	99.266613 
1238.000000	99.272255 
1237.000000	99.274153 
1236.000000	99.272533 
1235.000000	99.268782 
1234.000000	99.264194 
1233.000000	99.259217 
1232.000000	99.253806 
1231.000000	99.248270 
1230.000000	99.243072 
1229.000000	99.237997 
1228.000000	99.232818 
1227.000000	99.229051 
1226.000000	99.229438 
1225.000000	99.234485 
1224.000000	99.240582 
1223.000000	99.243037 
1222.000000	99.240624 
1221.000000	99.236098 
1220.000000	99.232721 
1219.000000	99.231511 
1218.000000	99.231355 
1217.000000	99.230387 
1216.000000	99.227112 
1215.000000	99.221539 
1214.000000	99.215980 
1213.000000	99.213866 
1212.000000	99.216605 
1211.000000	99.221373 
1210.000000	99.222901 
1209.000000	99.218100 
1208.000000	99.208698 
1207.000000	99.199092 
1206.000000	99.192116 
1205.000000	99.187513 
1204.000000	99.183901 
1203.000000	99.180521 
1202.000000	99.176400 
1201.000000	99.169574 
1200.000000	99.159128 
1199.000000	99.147603 
1198.000000	99.139292 
1197.000000	99.135829 
1196.000000	99.134769 
1195.000000	99.132584 
1194.000000	99.127745 
1193.000000	99.120543 
1192.000000	99.111623 
1191.000000	99.101792 
1190.000000	99.092284 
1189.000000	99.084217 
1188.000000	99.078239 
1187.000000	99.074922 
1186.000000	99.074308 
1185.000000	99.074425 
1184.000000	99.071391 
1183.000000	99.062319 
1182.000000	99.048154 
1181.000000	99.033084 
1180.000000	99.021407 
1179.000000	99.015062 
1178.000000	99.012828 
1177.000000	99.010942 
1176.000000	99.005487 
1175.000000	98.995659 
1174.000000	98.984701 
1173.000000	98.976689 
1172.000000	98.972748 
1171.000000	98.971023 
1170.000000	98.969359 
1169.000000	98.966640 
1168.000000	98.962029 
1167.000000	98.954744 
1166.000000	98.945238 
1165.000000	98.935649 
1164.000000	98.928500 
1163.000000	98.925181 
1162.000000	98.925584 
1161.000000	98.928562 
1160.000000	98.932661 
1159.000000	98.937062 
1158.000000	98.941828 
1157.000000	98.946578 
1156.000000	98.949035 
1155.000000	98.946021 
1154.000000	98.936510 
1153.000000	98.923165 
1152.000000	98.910398 
1151.000000	98.901212 
1150.000000	98.895816 
1149.000000	98.892379 
1148.000000	98.888497 
1147.000000	98.882328 
1146.000000	98.873226 
1145.000000	98.861793 
1144.000000	98.849509 
1143.000000	98.838443 
1142.000000	98.830731 
1141.000000	98.827236 
1140.000000	98.826181 
1139.000000	98.823763 
1138.000000	98.817206 
1137.000000	98.807473 
1136.000000	98.798424 
1135.000000	98.793082 
1134.000000	98.791043 
1133.000000	98.789477 
1132.000000	98.785858 
1131.000000	98.779337 
1130.000000	98.770461 
1129.000000	98.760654 
1128.000000	98.751535 
1127.000000	98.743469 
1126.000000	98.734771 
1125.000000	98.723564 
1124.000000	98.710528 
1123.000000	98.698464 
1122.000000	98.688613 
1121.000000	98.679010 
1120.000000	98.667610 
1119.000000	98.655458 
1118.000000	98.644902 
1117.000000	98.635631 
1116.000000	98.624814 
1115.000000	98.610929 
1114.000000	98.595232 
1113.000000	98.579143 
1112.000000	98.562706 
1111.000000	98.546876 
1110.000000	98.534975 
1109.000000	98.529282 
1108.000000	98.527129 
1107.000000	98.522420 
1106.000000	98.511661 
1105.000000	98.496952 
1104.000000	98.482398 
1103.000000	98.469415 
1102.000000	98.457187 
1101.000000	98.446338 
1100.000000	98.439993 
1099.000000	98.438651 
1098.000000	98.438246 
1097.000000	98.434116 
1096.000000	98.426518 
1095.000000	98.419734 
1094.000000	98.415916 
1093.000000	98.412258 
1092.000000	98.404905 
1091.000000	98.393216 
1090.000000	98.378570 
1089.000000	98.360878 
1088.000000	98.338990 
1087.000000	98.314226 
1086.000000	98.291110 
1085.000000	98.273773 
1084.000000	98.262593 
1083.000000	98.254480 
1082.000000	98.245468 
1081.000000	98.233055 
1080.000000	98.217169 
1079.000000	98.199681 
1078.000000	98.183026 
1077.000000	98.169202 
1076.000000	98.159726 
1075.000000	98.155353 
1074.000000	98.155019 
1073.000000	98.155655 
1072.000000	98.153486 
1071.000000	98.144928 
1070.000000	98.126635 
1069.000000	98.097369 
1068.000000	98.061888 
1067.000000	98.031286 
1066.000000	98.015737 
1065.000000	98.015757 
1064.000000	98.022100 
1063.000000	98.024015 
1062.000000	98.016105 
1061.000000	97.998343 
1060.000000	97.973609 
1059.000000	97.947483 
1058.000000	97.927492 
1057.000000	97.918218 
1056.000000	97.916368 
1055.000000	97.912654 
1054.000000	97.899863 
1053.000000	97.878929 
1052.000000	97.856682 
1051.000000	97.838239 
1050.000000	97.822686 
1049.000000	97.806442 
1048.000000	97.789137 
1047.000000	97.774217 
1046.000000	97.764124 
1045.000000	97.756986 
1044.000000	97.749045 
1043.000000	97.739262 
1042.000000	97.729978 
1041.000000	97.722904 
1040.000000	97.716078 
1039.000000	97.706229 
1038.000000	97.693687 
1037.000000	97.683430 
1036.000000	97.680873 
1035.000000	97.687618 
1034.000000	97.701280 
1033.000000	97.717513 
1032.000000	97.730790 
1031.000000	97.735231 
1030.000000	97.728602 
1029.000000	97.716413 
1028.000000	97.709402 
1027.000000	97.714829 
1026.000000	97.730675 
1025.000000	97.749030 
1024.000000	97.763658 
1023.000000	97.773099 
1022.000000	97.778482 
1021.000000	97.781224 
1020.000000	97.782818 
1019.000000	97.784608 
1018.000000	97.786673 
1017.000000	97.787734 
1016.000000	97.786828 
1015.000000	97.784903 
1014.000000	97.784468 
1013.000000	97.787364 
1012.000000	97.792495 
1011.000000	97.796089 
1010.000000	97.795489 
1009.000000	97.792964 
1008.000000	97.794289 
1007.000000	97.802835 
1006.000000	97.816420 
1005.000000	97.830755 
1004.000000	97.843970 
1003.000000	97.856148 
1002.000000	97.866580 
1001.000000	97.874527 
1000.000000	97.881689 
999.000000	 97.890722 
998.000000	 97.901116 
997.000000	 97.909405 
996.000000	 97.914343 
995.000000	 97.919678 
994.000000	 97.930346 
993.000000	 97.946953 
992.000000	 97.964885 
991.000000	 97.978225 
990.000000	 97.984478 
989.000000	 97.986495 
988.000000	 97.989963 
987.000000	 97.998235 
986.000000	 98.009693 
985.000000	 98.020925 
984.000000	 98.031526 
983.000000	 98.044001 
982.000000	 98.059718 
981.000000	 98.077573 
980.000000	 98.096661 
979.000000	 98.117307 
978.000000	 98.138592 
977.000000	 98.157725 
976.000000	 98.173649 
975.000000	 98.189282 
974.000000	 98.208257 
973.000000	 98.230834 
972.000000	 98.254652 
971.000000	 98.277920 
970.000000	 98.299916 
969.000000	 98.319849 
968.000000	 98.337840 
967.000000	 98.356291 
966.000000	 98.377446 
965.000000	 98.399469 
964.000000	 98.417398 
963.000000	 98.428568 
962.000000	 98.435180 
961.000000	 98.441009 
960.000000	 98.447827 
959.000000	 98.456023 
958.000000	 98.466281 
957.000000	 98.478565 
956.000000	 98.490920 
955.000000	 98.501515 
954.000000	 98.511305 
953.000000	 98.522733 
952.000000	 98.536059 
951.000000	 98.548765 
950.000000	 98.558679 
949.000000	 98.566019 
948.000000	 98.572091 
947.000000	 98.577695 
946.000000	 98.583664 
945.000000	 98.591519 
944.000000	 98.602044 
943.000000	 98.613491 
942.000000	 98.622386 
941.000000	 98.626521 
940.000000	 98.626897 
939.000000	 98.626762 
938.000000	 98.628857 
937.000000	 98.633340 
936.000000	 98.638073 
935.000000	 98.640839 
934.000000	 98.641304 
933.000000	 98.640852 
932.000000	 98.640956 
931.000000	 98.642377 
930.000000	 98.645850 
929.000000	 98.652454 
928.000000	 98.662286 
927.000000	 98.673015 
926.000000	 98.680995 
925.000000	 98.684436 
924.000000	 98.684789 
923.000000	 98.684236 
922.000000	 98.682400 
921.000000	 98.676999 
920.000000	 98.668107 
919.000000	 98.660085 
918.000000	 98.657637 
917.000000	 98.660543 
916.000000	 98.664102 
915.000000	 98.664806 
914.000000	 98.663847 
913.000000	 98.664570 
912.000000	 98.668197 
911.000000	 98.673265 
910.000000	 98.678069 
909.000000	 98.682173 
908.000000	 98.685994 
907.000000	 98.689958 
906.000000	 98.693754 
905.000000	 98.695988 
904.000000	 98.695951 
903.000000	 98.696964 
902.000000	 98.706079 
901.000000	 98.727399 
900.000000	 98.755831 
899.000000	 98.780229 
898.000000	 98.793548 
897.000000	 98.797995 
896.000000	 98.799650 
895.000000	 98.801374 
894.000000	 98.803184 
893.000000	 98.806812 
892.000000	 98.815814 
891.000000	 98.831188 
890.000000	 98.849968 
889.000000	 98.869062 
888.000000	 98.887973 
887.000000	 98.906156 
886.000000	 98.919880 
885.000000	 98.924793 
884.000000	 98.921685 
883.000000	 98.917221 
882.000000	 98.917380 
881.000000	 98.921528 
880.000000	 98.925132 
879.000000	 98.927566 
878.000000	 98.933845 
877.000000	 98.947069 
876.000000	 98.961913 
875.000000	 98.968920 
874.000000	 98.964848 
873.000000	 98.956303 
872.000000	 98.953098 
871.000000	 98.959932 
870.000000	 98.973794 
869.000000	 98.986732 
868.000000	 98.991054 
867.000000	 98.985106 
866.000000	 98.975790 
865.000000	 98.973505 
864.000000	 98.982970 
863.000000	 98.999860 
862.000000	 99.016702 
861.000000	 99.029952 
860.000000	 99.040276 
859.000000	 99.048966 
858.000000	 99.057233 
857.000000	 99.067350 
856.000000	 99.080591 
855.000000	 99.093879 
854.000000	 99.101536 
853.000000	 99.101370 
852.000000	 99.097009 
851.000000	 99.093383 
850.000000	 99.091693 
849.000000	 99.090052 
848.000000	 99.087595 
847.000000	 99.086057 
846.000000	 99.087605 
845.000000	 99.092709 
844.000000	 99.100592 
843.000000	 99.110285 
842.000000	 99.119674 
841.000000	 99.124239 
840.000000	 99.119671 
839.000000	 99.107544 
838.000000	 99.096348 
837.000000	 99.093422 
836.000000	 99.096448 
835.000000	 99.096819 
834.000000	 99.091843 
833.000000	 99.088350 
832.000000	 99.090781 
831.000000	 99.090758 
830.000000	 99.076308 
829.000000	 99.051095 
828.000000	 99.035718 
827.000000	 99.044988 
826.000000	 99.069249 
825.000000	 99.085516 
824.000000	 99.084611 
823.000000	 99.078730 
822.000000	 99.082046 
821.000000	 99.092853 
820.000000	 99.098565 
819.000000	 99.091931 
818.000000	 99.077756 
817.000000	 99.066256 
816.000000	 99.063078 
815.000000	 99.065087 
814.000000	 99.063584 
813.000000	 99.051544 
812.000000	 99.029245 
811.000000	 99.003838 
810.000000	 98.983297 
809.000000	 98.970111 
808.000000	 98.959979 
807.000000	 98.945352 
806.000000	 98.920080 
805.000000	 98.882347 
804.000000	 98.835589 
803.000000	 98.787622 
802.000000	 98.747141 
801.000000	 98.718873 
800.000000	 98.701242 
799.000000	 98.688932 
798.000000	 98.678237 
797.000000	 98.670164 
796.000000	 98.668338 
795.000000	 98.674563 
794.000000	 98.687645 
793.000000	 98.706037 
792.000000	 98.728573 
791.000000	 98.750814 
790.000000	 98.763595 
789.000000	 98.759661 
788.000000	 98.742076 
787.000000	 98.722846 
786.000000	 98.711823 
785.000000	 98.708557 
784.000000	 98.706050 
783.000000	 98.700102 
782.000000	 98.692703 
781.000000	 98.687677 
780.000000	 98.685594 
779.000000	 98.683433 
778.000000	 98.678493 
777.000000	 98.672802 
776.000000	 98.673423 
775.000000	 98.686672 
774.000000	 98.711101 
773.000000	 98.737696 
772.000000	 98.758068 
771.000000	 98.770905 
770.000000	 98.779472 
769.000000	 98.785345 
768.000000	 98.787599 
767.000000	 98.787002 
766.000000	 98.787360 
765.000000	 98.791693 
764.000000	 98.799029 
763.000000	 98.805604 
762.000000	 98.808114 
761.000000	 98.806101 
760.000000	 98.802845 
759.000000	 98.803609 
758.000000	 98.810628 
757.000000	 98.819838 
756.000000	 98.825183 
755.000000	 98.826504 
754.000000	 98.830055 
753.000000	 98.839939 
752.000000	 98.852455 
751.000000	 98.860862 
750.000000	 98.862758 
749.000000	 98.859919 
748.000000	 98.854062 
747.000000	 98.847668 
746.000000	 98.847037 
745.000000	 98.857669 
744.000000	 98.874794 
743.000000	 98.884265 
742.000000	 98.877235 
741.000000	 98.860687 
740.000000	 98.849102 
739.000000	 98.848408 
738.000000	 98.853010 
737.000000	 98.856780 
736.000000	 98.860289 
735.000000	 98.866209 
734.000000	 98.874097 
733.000000	 98.883203 
732.000000	 98.895375 
731.000000	 98.909898 
730.000000	 98.919293 
729.000000	 98.916825 
728.000000	 98.905941 
727.000000	 98.896801 
726.000000	 98.894693 
725.000000	 98.896756 
724.000000	 98.899880 
723.000000	 98.905746 
722.000000	 98.915770 
721.000000	 98.925588 
720.000000	 98.928122 
719.000000	 98.920668 
718.000000	 98.907073 
717.000000	 98.894173 
716.000000	 98.887623 
715.000000	 98.888597 
714.000000	 98.892284 
713.000000	 98.892042 
712.000000	 98.887034 
711.000000	 98.883796 
710.000000	 98.888071 
709.000000	 98.896927 
708.000000	 98.900971 
707.000000	 98.893320 
706.000000	 98.875970 
705.000000	 98.858071 
704.000000	 98.848361 
703.000000	 98.848645 
702.000000	 98.852144 
701.000000	 98.848723 
700.000000	 98.832826 
699.000000	 98.805590 
698.000000	 98.771984 
697.000000	 98.737814 
696.000000	 98.708323 
695.000000	 98.687181 
694.000000	 98.675273 
693.000000	 98.674095 
692.000000	 98.688723 
691.000000	 98.719467 
690.000000	 98.753287 
689.000000	 98.772131 
688.000000	 98.772797 
687.000000	 98.770662 
686.000000	 98.777421 
685.000000	 98.787041 
684.000000	 98.790203 
683.000000	 98.789417 
682.000000	 98.792459 
681.000000	 98.800826 
680.000000	 98.812880 
679.000000	 98.828401 
678.000000	 98.840811 
677.000000	 98.838106 
676.000000	 98.819451 
675.000000	 98.801969 
674.000000	 98.799320 
673.000000	 98.801847 
672.000000	 98.787197 
671.000000	 98.746658 
670.000000	 98.689502 
669.000000	 98.636641 
668.000000	 98.617843 
667.000000	 98.637619 
666.000000	 98.678177 
665.000000	 98.733698 
664.000000	 98.786369 
663.000000	 98.812839 
662.000000	 98.810799 
661.000000	 98.804705 
660.000000	 98.814238 
659.000000	 98.831007 
658.000000	 98.832894 
657.000000	 98.811262 
656.000000	 98.774059 
655.000000	 98.735629 
654.000000	 98.709375 
653.000000	 98.696611 
652.000000	 98.681784 
651.000000	 98.656538 
650.000000	 98.644302 

