4000.000000	99.647768 
3999.000000	99.647376 
3998.000000	99.647252 
3997.000000	99.647665 
3996.000000	99.648418 
3995.000000	99.648963 
3994.000000	99.648972 
3993.000000	99.648604 
3992.000000	99.648247 
3991.000000	99.647986 
3990.000000	99.647533 
3989.000000	99.646633 
3988.000000	99.645425 
3987.000000	99.644350 
3986.000000	99.643831 
3985.000000	99.644036 
3984.000000	99.644756 
3983.000000	99.645606 
3982.000000	99.646354 
3981.000000	99.647045 
3980.000000	99.647820 
3979.000000	99.648641 
3978.000000	99.649282 
3977.000000	99.649557 
3976.000000	99.649446 
3975.000000	99.648992 
3974.000000	99.648190 
3973.000000	99.647043 
3972.000000	99.645730 
3971.000000	99.644636 
3970.000000	99.644157 
3969.000000	99.644440 
3968.000000	99.645265 
3967.000000	99.646138 
3966.000000	99.646584 
3965.000000	99.646444 
3964.000000	99.645894 
3963.000000	99.645296 
3962.000000	99.644952 
3961.000000	99.644926 
3960.000000	99.645028 
3959.000000	99.644959 
3958.000000	99.644552 
3957.000000	99.643912 
3956.000000	99.643300 
3955.000000	99.642891 
3954.000000	99.642659 
3953.000000	99.642477 
3952.000000	99.642253 
3951.000000	99.641964 
3950.000000	99.641620 
3949.000000	99.641244 
3948.000000	99.640875 
3947.000000	99.640580 
3946.000000	99.640402 
3945.000000	99.640305 
3944.000000	99.640184 
3943.000000	99.639954 
3942.000000	99.639625 
3941.000000	99.639267 
3940.000000	99.638950 
3939.000000	99.638674 
3938.000000	99.638407 
3937.000000	99.638128 
3936.000000	99.637841 
3935.000000	99.637566 
3934.000000	99.637313 
3933.000000	99.637089 
3932.000000	99.636888 
3931.000000	99.636707 
3930.000000	99.636538 
3929.000000	99.636371 
3928.000000	99.636198 
3927.000000	99.636020 
3926.000000	99.635837 
3925.000000	99.635653 
3924.000000	99.635472 
3923.000000	99.635303 
3922.000000	99.635149 
3921.000000	99.635003 
3920.000000	99.634865 
3919.000000	99.634737 
3918.000000	99.634622 
3917.000000	99.634523 
3916.000000	99.634442 
3915.000000	99.634373 
3914.000000	99.634311 
3913.000000	99.634250 
3912.000000	99.634186 
3911.000000	99.634110 
3910.000000	99.634023 
3909.000000	99.633932 
3908.000000	99.633849 
3907.000000	99.633782 
3906.000000	99.633730 
3905.000000	99.633687 
3904.000000	99.633644 
3903.000000	99.633596 
3902.000000	99.633546 
3901.000000	99.633492 
3900.000000	99.633430 
3899.000000	99.633350 
3898.000000	99.633247 
3897.000000	99.633122 
3896.000000	99.632987 
3895.000000	99.632852 
3894.000000	99.632717 
3893.000000	99.632583 
3892.000000	99.632447 
3891.000000	99.632306 
3890.000000	99.632160 
3889.000000	99.632013 
3888.000000	99.631871 
3887.000000	99.631731 
3886.000000	99.631586 
3885.000000	99.631434 
3884.000000	99.631277 
3883.000000	99.631124 
3882.000000	99.630978 
3881.000000	99.630835 
3880.000000	99.630678 
3879.000000	99.630495 
3878.000000	99.630308 
3877.000000	99.630155 
3876.000000	99.630039 
3875.000000	99.629913 
3874.000000	99.629713 
3873.000000	99.629436 
3872.000000	99.629178 
3871.000000	99.628995 
3870.000000	99.628792 
3869.000000	99.628491 
3868.000000	99.628300 
3867.000000	99.628463 
3866.000000	99.628838 
3865.000000	99.629048 
3864.000000	99.628969 
3863.000000	99.628754 
3862.000000	99.628593 
3861.000000	99.628458 
3860.000000	99.628206 
3859.000000	99.627740 
3858.000000	99.626989 
3857.000000	99.626042 
3856.000000	99.625332 
3855.000000	99.625427 
3854.000000	99.626243 
3853.000000	99.626700 
3852.000000	99.626609 
3851.000000	99.627050 
3850.000000	99.628070 
3849.000000	99.628884 
3848.000000	99.629260 
3847.000000	99.629434 
3846.000000	99.629591 
3845.000000	99.629738 
3844.000000	99.629821 
3843.000000	99.629825 
3842.000000	99.629788 
3841.000000	99.629776 
3840.000000	99.629817 
3839.000000	99.629887 
3838.000000	99.629951 
3837.000000	99.630011 
3836.000000	99.630087 
3835.000000	99.630185 
3834.000000	99.630293 
3833.000000	99.630403 
3832.000000	99.630517 
3831.000000	99.630639 
3830.000000	99.630763 
3829.000000	99.630884 
3828.000000	99.630999 
3827.000000	99.631108 
3826.000000	99.631209 
3825.000000	99.631308 
3824.000000	99.631416 
3823.000000	99.631544 
3822.000000	99.631691 
3821.000000	99.631842 
3820.000000	99.631988 
3819.000000	99.632133 
3818.000000	99.632286 
3817.000000	99.632442 
3816.000000	99.632590 
3815.000000	99.632723 
3814.000000	99.632845 
3813.000000	99.632956 
3812.000000	99.633047 
3811.000000	99.633112 
3810.000000	99.633159 
3809.000000	99.633197 
3808.000000	99.633230 
3807.000000	99.633261 
3806.000000	99.633294 
3805.000000	99.633341 
3804.000000	99.633411 
3803.000000	99.633505 
3802.000000	99.633621 
3801.000000	99.633755 
3800.000000	99.633915 
3799.000000	99.634113 
3798.000000	99.634347 
3797.000000	99.634601 
3796.000000	99.634856 
3795.000000	99.635106 
3794.000000	99.635369 
3793.000000	99.635672 
3792.000000	99.636003 
3791.000000	99.636305 
3790.000000	99.636534 
3789.000000	99.636678 
3788.000000	99.636800 
3787.000000	99.637035 
3786.000000	99.637479 
3785.000000	99.638035 
3784.000000	99.638478 
3783.000000	99.638733 
3782.000000	99.638934 
3781.000000	99.639122 
3780.000000	99.639065 
3779.000000	99.638523 
3778.000000	99.637607 
3777.000000	99.636801 
3776.000000	99.636323 
3775.000000	99.635968 
3774.000000	99.635660 
3773.000000	99.635689 
3772.000000	99.636189 
3771.000000	99.636625 
3770.000000	99.636179 
3769.000000	99.634880 
3768.000000	99.633895 
3767.000000	99.634164 
3766.000000	99.635238 
3765.000000	99.635937 
3764.000000	99.635808 
3763.000000	99.635498 
3762.000000	99.635666 
3761.000000	99.636182 
3760.000000	99.636587 
3759.000000	99.636519 
3758.000000	99.635729 
3757.000000	99.634241 
3756.000000	99.632374 
3755.000000	99.630709 
3754.000000	99.629617 
3753.000000	99.629213 
3752.000000	99.629412 
3751.000000	99.629393 
3750.000000	99.627847 
3749.000000	99.624858 
3748.000000	99.622210 
3747.000000	99.621368 
3746.000000	99.622541 
3745.000000	99.624495 
3744.000000	99.624512 
3743.000000	99.622803 
3742.000000	99.623298 
3741.000000	99.625831 
3740.000000	99.626826 
3739.000000	99.625808 
3738.000000	99.624808 
3737.000000	99.625139 
3736.000000	99.626176 
3735.000000	99.626991 
3734.000000	99.627927 
3733.000000	99.629529 
3732.000000	99.631082 
3731.000000	99.631849 
3730.000000	99.632433 
3729.000000	99.633465 
3728.000000	99.634612 
3727.000000	99.635397 
3726.000000	99.635873 
3725.000000	99.636400 
3724.000000	99.636956 
3723.000000	99.636836 
3722.000000	99.635794 
3721.000000	99.634726 
3720.000000	99.634667 
3719.000000	99.635468 
3718.000000	99.635862 
3717.000000	99.634798 
3716.000000	99.632378 
3715.000000	99.629651 
3714.000000	99.627607 
3713.000000	99.626716 
3712.000000	99.626782 
3711.000000	99.627191 
3710.000000	99.627865 
3709.000000	99.629046 
3708.000000	99.630183 
3707.000000	99.630331 
3706.000000	99.629287 
3705.000000	99.627757 
3704.000000	99.626685 
3703.000000	99.626565 
3702.000000	99.627171 
3701.000000	99.627884 
3700.000000	99.628405 
3699.000000	99.628777 
3698.000000	99.628798 
3697.000000	99.628133 
3696.000000	99.626893 
3695.000000	99.625655 
3694.000000	99.624790 
3693.000000	99.624148 
3692.000000	99.623493 
3691.000000	99.622843 
3690.000000	99.622238 
3689.000000	99.621557 
3688.000000	99.620849 
3687.000000	99.620492 
3686.000000	99.620602 
3685.000000	99.620809 
3684.000000	99.620721 
3683.000000	99.620327 
3682.000000	99.619819 
3681.000000	99.619329 
3680.000000	99.618831 
3679.000000	99.618302 
3678.000000	99.617862 
3677.000000	99.617658 
3676.000000	99.617629 
3675.000000	99.617492 
3674.000000	99.617310 
3673.000000	99.617431 
3672.000000	99.617776 
3671.000000	99.618083 
3670.000000	99.618264 
3669.000000	99.618343 
3668.000000	99.618443 
3667.000000	99.618629 
3666.000000	99.618836 
3665.000000	99.619023 
3664.000000	99.619213 
3663.000000	99.619424 
3662.000000	99.619651 
3661.000000	99.619882 
3660.000000	99.620120 
3659.000000	99.620373 
3658.000000	99.620650 
3657.000000	99.620947 
3656.000000	99.621263 
3655.000000	99.621603 
3654.000000	99.621968 
3653.000000	99.622354 
3652.000000	99.622750 
3651.000000	99.623144 
3650.000000	99.623526 
3649.000000	99.623892 
3648.000000	99.624251 
3647.000000	99.624619 
3646.000000	99.625008 
3645.000000	99.625417 
3644.000000	99.625835 
3643.000000	99.626255 
3642.000000	99.626675 
3641.000000	99.627099 
3640.000000	99.627530 
3639.000000	99.627971 
3638.000000	99.628414 
3637.000000	99.628848 
3636.000000	99.629257 
3635.000000	99.629625 
3634.000000	99.629950 
3633.000000	99.630242 
3632.000000	99.630521 
3631.000000	99.630806 
3630.000000	99.631103 
3629.000000	99.631405 
3628.000000	99.631702 
3627.000000	99.631997 
3626.000000	99.632298 
3625.000000	99.632598 
3624.000000	99.632888 
3623.000000	99.633166 
3622.000000	99.633435 
3621.000000	99.633694 
3620.000000	99.633942 
3619.000000	99.634170 
3618.000000	99.634377 
3617.000000	99.634570 
3616.000000	99.634765 
3615.000000	99.634952 
3614.000000	99.635103 
3613.000000	99.635190 
3612.000000	99.635216 
3611.000000	99.635232 
3610.000000	99.635298 
3609.000000	99.635436 
3608.000000	99.635617 
3607.000000	99.635803 
3606.000000	99.635985 
3605.000000	99.636166 
3604.000000	99.636334 
3603.000000	99.636486 
3602.000000	99.636635 
3601.000000	99.636785 
3600.000000	99.636950 
3599.000000	99.637154 
3598.000000	99.637396 
3597.000000	99.637632 
3596.000000	99.637813 
3595.000000	99.637909 
3594.000000	99.637929 
3593.000000	99.637932 
3592.000000	99.638023 
3591.000000	99.638292 
3590.000000	99.638760 
3589.000000	99.639258 
3588.000000	99.639447 
3587.000000	99.639161 
3586.000000	99.638616 
3585.000000	99.638237 
3584.000000	99.638135 
3583.000000	99.638153 
3582.000000	99.638139 
3581.000000	99.638037 
3580.000000	99.637848 
3579.000000	99.637585 
3578.000000	99.637280 
3577.000000	99.637000 
3576.000000	99.636839 
3575.000000	99.636853 
3574.000000	99.637013 
3573.000000	99.637208 
3572.000000	99.637337 
3571.000000	99.637365 
3570.000000	99.637320 
3569.000000	99.637246 
3568.000000	99.637153 
3567.000000	99.637019 
3566.000000	99.636874 
3565.000000	99.636802 
3564.000000	99.636807 
3563.000000	99.636793 
3562.000000	99.636702 
3561.000000	99.636562 
3560.000000	99.636428 
3559.000000	99.636320 
3558.000000	99.636219 
3557.000000	99.636102 
3556.000000	99.635966 
3555.000000	99.635830 
3554.000000	99.635709 
3553.000000	99.635579 
3552.000000	99.635405 
3551.000000	99.635184 
3550.000000	99.634950 
3549.000000	99.634745 
3548.000000	99.634602 
3547.000000	99.634510 
3546.000000	99.634437 
3545.000000	99.634369 
3544.000000	99.634304 
3543.000000	99.634239 
3542.000000	99.634172 
3541.000000	99.634104 
3540.000000	99.634037 
3539.000000	99.633975 
3538.000000	99.633916 
3537.000000	99.633857 
3536.000000	99.633792 
3535.000000	99.633719 
3534.000000	99.633633 
3533.000000	99.633536 
3532.000000	99.633428 
3531.000000	99.633311 
3530.000000	99.633189 
3529.000000	99.633062 
3528.000000	99.632932 
3527.000000	99.632802 
3526.000000	99.632673 
3525.000000	99.632548 
3524.000000	99.632426 
3523.000000	99.632306 
3522.000000	99.632187 
3521.000000	99.632071 
3520.000000	99.631956 
3519.000000	99.631839 
3518.000000	99.631718 
3517.000000	99.631593 
3516.000000	99.631465 
3515.000000	99.631337 
3514.000000	99.631212 
3513.000000	99.631089 
3512.000000	99.630967 
3511.000000	99.630843 
3510.000000	99.630715 
3509.000000	99.630583 
3508.000000	99.630451 
3507.000000	99.630317 
3506.000000	99.630179 
3505.000000	99.630033 
3504.000000	99.629877 
3503.000000	99.629715 
3502.000000	99.629553 
3501.000000	99.629396 
3500.000000	99.629242 
3499.000000	99.629081 
3498.000000	99.628908 
3497.000000	99.628722 
3496.000000	99.628529 
3495.000000	99.628337 
3494.000000	99.628148 
3493.000000	99.627960 
3492.000000	99.627767 
3491.000000	99.627566 
3490.000000	99.627361 
3489.000000	99.627158 
3488.000000	99.626962 
3487.000000	99.626776 
3486.000000	99.626598 
3485.000000	99.626429 
3484.000000	99.626264 
3483.000000	99.626099 
3482.000000	99.625930 
3481.000000	99.625752 
3480.000000	99.625566 
3479.000000	99.625373 
3478.000000	99.625180 
3477.000000	99.624991 
3476.000000	99.624806 
3475.000000	99.624623 
3474.000000	99.624441 
3473.000000	99.624261 
3472.000000	99.624087 
3471.000000	99.623918 
3470.000000	99.623752 
3469.000000	99.623585 
3468.000000	99.623419 
3467.000000	99.623255 
3466.000000	99.623095 
3465.000000	99.622938 
3464.000000	99.622784 
3463.000000	99.622630 
3462.000000	99.622476 
3461.000000	99.622320 
3460.000000	99.622162 
3459.000000	99.622004 
3458.000000	99.621848 
3457.000000	99.621700 
3456.000000	99.621570 
3455.000000	99.621457 
3454.000000	99.621347 
3453.000000	99.621230 
3452.000000	99.621100 
3451.000000	99.620960 
3450.000000	99.620827 
3449.000000	99.620714 
3448.000000	99.620623 
3447.000000	99.620541 
3446.000000	99.620449 
3445.000000	99.620344 
3444.000000	99.620233 
3443.000000	99.620120 
3442.000000	99.619996 
3441.000000	99.619852 
3440.000000	99.619694 
3439.000000	99.619545 
3438.000000	99.619413 
3437.000000	99.619287 
3436.000000	99.619146 
3435.000000	99.618993 
3434.000000	99.618867 
3433.000000	99.618809 
3432.000000	99.618822 
3431.000000	99.618844 
3430.000000	99.618791 
3429.000000	99.618620 
3428.000000	99.618364 
3427.000000	99.618114 
3426.000000	99.617959 
3425.000000	99.617933 
3424.000000	99.618002 
3423.000000	99.618091 
3422.000000	99.618117 
3421.000000	99.618006 
3420.000000	99.617712 
3419.000000	99.617266 
3418.000000	99.616819 
3417.000000	99.616552 
3416.000000	99.616508 
3415.000000	99.616534 
3414.000000	99.616407 
3413.000000	99.616084 
3412.000000	99.615764 
3411.000000	99.615712 
3410.000000	99.616026 
3409.000000	99.616585 
3408.000000	99.617144 
3407.000000	99.617458 
3406.000000	99.617384 
3405.000000	99.616968 
3404.000000	99.616429 
3403.000000	99.616016 
3402.000000	99.615834 
3401.000000	99.615842 
3400.000000	99.615978 
3399.000000	99.616245 
3398.000000	99.616687 
3397.000000	99.617306 
3396.000000	99.617996 
3395.000000	99.618530 
3394.000000	99.618695 
3393.000000	99.618489 
3392.000000	99.618143 
3391.000000	99.617868 
3390.000000	99.617619 
3389.000000	99.617198 
3388.000000	99.616528 
3387.000000	99.615773 
3386.000000	99.615212 
3385.000000	99.615053 
3384.000000	99.615300 
3383.000000	99.615705 
3382.000000	99.615894 
3381.000000	99.615645 
3380.000000	99.615024 
3379.000000	99.614265 
3378.000000	99.613595 
3377.000000	99.613227 
3376.000000	99.613374 
3375.000000	99.614096 
3374.000000	99.615117 
3373.000000	99.615937 
3372.000000	99.616224 
3371.000000	99.616026 
3370.000000	99.615626 
3369.000000	99.615302 
3368.000000	99.615196 
3367.000000	99.615283 
3366.000000	99.615371 
3365.000000	99.615214 
3364.000000	99.614733 
3363.000000	99.614119 
3362.000000	99.613689 
3361.000000	99.613622 
3360.000000	99.613844 
3359.000000	99.614113 
3358.000000	99.614207 
3357.000000	99.614094 
3356.000000	99.613927 
3355.000000	99.613833 
3354.000000	99.613733 
3353.000000	99.613448 
3352.000000	99.612977 
3351.000000	99.612609 
3350.000000	99.612688 
3349.000000	99.613339 
3348.000000	99.614388 
3347.000000	99.615458 
3346.000000	99.616169 
3345.000000	99.616353 
3344.000000	99.616116 
3343.000000	99.615694 
3342.000000	99.615196 
3341.000000	99.614590 
3340.000000	99.613922 
3339.000000	99.613396 
3338.000000	99.613133 
3337.000000	99.612989 
3336.000000	99.612766 
3335.000000	99.612541 
3334.000000	99.612611 
3333.000000	99.613101 
3332.000000	99.613793 
3331.000000	99.614330 
3330.000000	99.614544 
3329.000000	99.614522 
3328.000000	99.614455 
3327.000000	99.614462 
3326.000000	99.614532 
3325.000000	99.614601 
3324.000000	99.614656 
3323.000000	99.614758 
3322.000000	99.614954 
3321.000000	99.615192 
3320.000000	99.615348 
3319.000000	99.615357 
3318.000000	99.615268 
3317.000000	99.615198 
3316.000000	99.615223 
3315.000000	99.615326 
3314.000000	99.615438 
3313.000000	99.615495 
3312.000000	99.615497 
3311.000000	99.615471 
3310.000000	99.615439 
3309.000000	99.615398 
3308.000000	99.615342 
3307.000000	99.615276 
3306.000000	99.615212 
3305.000000	99.615155 
3304.000000	99.615104 
3303.000000	99.615059 
3302.000000	99.615021 
3301.000000	99.614996 
3300.000000	99.614994 
3299.000000	99.615028 
3298.000000	99.615086 
3297.000000	99.615132 
3296.000000	99.615132 
3295.000000	99.615070 
3294.000000	99.614968 
3293.000000	99.614877 
3292.000000	99.614863 
3291.000000	99.614954 
3290.000000	99.615116 
3289.000000	99.615251 
3288.000000	99.615265 
3287.000000	99.615150 
3286.000000	99.615004 
3285.000000	99.614941 
3284.000000	99.614975 
3283.000000	99.615013 
3282.000000	99.614958 
3281.000000	99.614772 
3280.000000	99.614439 
3279.000000	99.613919 
3278.000000	99.613231 
3277.000000	99.612552 
3276.000000	99.612179 
3275.000000	99.612298 
3274.000000	99.612827 
3273.000000	99.613416 
3272.000000	99.613618 
3271.000000	99.613156 
3270.000000	99.612136 
3269.000000	99.611099 
3268.000000	99.610677 
3267.000000	99.611136 
3266.000000	99.612253 
3265.000000	99.613579 
3264.000000	99.614793 
3263.000000	99.615752 
3262.000000	99.616348 
3261.000000	99.616505 
3260.000000	99.616299 
3259.000000	99.615913 
3258.000000	99.615453 
3257.000000	99.614849 
3256.000000	99.613973 
3255.000000	99.612846 
3254.000000	99.611778 
3253.000000	99.611277 
3252.000000	99.611653 
3251.000000	99.612675 
3250.000000	99.613624 
3249.000000	99.613917 
3248.000000	99.613643 
3247.000000	99.613358 
3246.000000	99.613419 
3245.000000	99.613673 
3244.000000	99.613844 
3243.000000	99.614022 
3242.000000	99.614591 
3241.000000	99.615744 
3240.000000	99.617191 
3239.000000	99.618321 
3238.000000	99.618702 
3237.000000	99.618371 
3236.000000	99.617749 
3235.000000	99.617266 
3234.000000	99.617061 
3233.000000	99.617090 
3232.000000	99.617369 
3231.000000	99.617988 
3230.000000	99.618881 
3229.000000	99.619701 
3228.000000	99.620037 
3227.000000	99.619754 
3226.000000	99.619066 
3225.000000	99.618391 
3224.000000	99.618079 
3223.000000	99.618197 
3222.000000	99.618524 
3221.000000	99.618787 
3220.000000	99.618969 
3219.000000	99.619305 
3218.000000	99.619948 
3217.000000	99.620738 
3216.000000	99.621337 
3215.000000	99.621543 
3214.000000	99.621410 
3213.000000	99.621124 
3212.000000	99.620883 
3211.000000	99.620894 
3210.000000	99.621328 
3209.000000	99.622163 
3208.000000	99.623075 
3207.000000	99.623655 
3206.000000	99.623782 
3205.000000	99.623760 
3204.000000	99.624052 
3203.000000	99.624838 
3202.000000	99.625885 
3201.000000	99.626849 
3200.000000	99.627609 
3199.000000	99.628202 
3198.000000	99.628518 
3197.000000	99.628338 
3196.000000	99.627701 
3195.000000	99.627007 
3194.000000	99.626567 
3193.000000	99.626247 
3192.000000	99.625811 
3191.000000	99.625440 
3190.000000	99.625612 
3189.000000	99.626488 
3188.000000	99.627660 
3187.000000	99.628554 
3186.000000	99.628946 
3185.000000	99.628951 
3184.000000	99.628725 
3183.000000	99.628362 
3182.000000	99.628004 
3181.000000	99.627827 
3180.000000	99.627890 
3179.000000	99.628090 
3178.000000	99.628270 
3177.000000	99.628297 
3176.000000	99.628072 
3175.000000	99.627632 
3174.000000	99.627294 
3173.000000	99.627491 
3172.000000	99.628346 
3171.000000	99.629490 
3170.000000	99.630333 
3169.000000	99.630641 
3168.000000	99.630641 
3167.000000	99.630701 
3166.000000	99.630936 
3165.000000	99.631175 
3164.000000	99.631247 
3163.000000	99.631186 
3162.000000	99.631147 
3161.000000	99.631227 
3160.000000	99.631394 
3159.000000	99.631554 
3158.000000	99.631628 
3157.000000	99.631593 
3156.000000	99.631488 
3155.000000	99.631381 
3154.000000	99.631323 
3153.000000	99.631332 
3152.000000	99.631403 
3151.000000	99.631519 
3150.000000	99.631645 
3149.000000	99.631730 
3148.000000	99.631748 
3147.000000	99.631724 
3146.000000	99.631703 
3145.000000	99.631684 
3144.000000	99.631612 
3143.000000	99.631474 
3142.000000	99.631344 
3141.000000	99.631302 
3140.000000	99.631328 
3139.000000	99.631309 
3138.000000	99.631160 
3137.000000	99.630921 
3136.000000	99.630739 
3135.000000	99.630711 
3134.000000	99.630795 
3133.000000	99.630839 
3132.000000	99.630728 
3131.000000	99.630483 
3130.000000	99.630218 
3129.000000	99.630012 
3128.000000	99.629834 
3127.000000	99.629626 
3126.000000	99.629425 
3125.000000	99.629331 
3124.000000	99.629340 
3123.000000	99.629288 
3122.000000	99.629005 
3121.000000	99.628518 
3120.000000	99.628067 
3119.000000	99.627888 
3118.000000	99.627963 
3117.000000	99.627992 
3116.000000	99.627655 
3115.000000	99.626934 
3114.000000	99.626142 
3113.000000	99.625611 
3112.000000	99.625377 
3111.000000	99.625287 
3110.000000	99.625297 
3109.000000	99.625488 
3108.000000	99.625786 
3107.000000	99.625900 
3106.000000	99.625610 
3105.000000	99.625044 
3104.000000	99.624578 
3103.000000	99.624546 
3102.000000	99.625075 
3101.000000	99.626093 
3100.000000	99.627308 
3099.000000	99.628248 
3098.000000	99.628530 
3097.000000	99.628158 
3096.000000	99.627514 
3095.000000	99.627012 
3094.000000	99.626773 
3093.000000	99.626703 
3092.000000	99.626717 
3091.000000	99.626744 
3090.000000	99.626617 
3089.000000	99.626176 
3088.000000	99.625548 
3087.000000	99.625150 
3086.000000	99.625274 
3085.000000	99.625763 
3084.000000	99.626173 
3083.000000	99.626256 
3082.000000	99.626144 
3081.000000	99.626077 
3080.000000	99.626111 
3079.000000	99.626155 
3078.000000	99.626160 
3077.000000	99.626140 
3076.000000	99.626065 
3075.000000	99.625908 
3074.000000	99.625747 
3073.000000	99.625719 
3072.000000	99.625852 
3071.000000	99.626050 
3070.000000	99.626247 
3069.000000	99.626427 
3068.000000	99.626390 
3067.000000	99.625722 
3066.000000	99.624244 
3065.000000	99.622499 
3064.000000	99.621464 
3063.000000	99.621610 
3062.000000	99.622486 
3061.000000	99.623241 
3060.000000	99.623542 
3059.000000	99.623730 
3058.000000	99.624167 
3057.000000	99.624770 
3056.000000	99.625218 
3055.000000	99.625404 
3054.000000	99.625490 
3053.000000	99.625581 
3052.000000	99.625580 
3051.000000	99.625432 
3050.000000	99.625328 
3049.000000	99.625420 
3048.000000	99.625353 
3047.000000	99.624341 
3046.000000	99.621974 
3045.000000	99.618903 
3044.000000	99.616448 
3043.000000	99.615404 
3042.000000	99.615452 
3041.000000	99.615787 
3040.000000	99.616048 
3039.000000	99.616443 
3038.000000	99.617124 
3037.000000	99.617867 
3036.000000	99.618432 
3035.000000	99.618930 
3034.000000	99.619576 
3033.000000	99.620171 
3032.000000	99.620095 
3031.000000	99.618926 
3030.000000	99.616919 
3029.000000	99.614697 
3028.000000	99.612574 
3027.000000	99.610418 
3026.000000	99.608183 
3025.000000	99.606284 
3024.000000	99.605139 
3023.000000	99.604456 
3022.000000	99.603333 
3021.000000	99.601218 
3020.000000	99.598622 
3019.000000	99.596686 
3018.000000	99.596077 
3017.000000	99.596388 
3016.000000	99.596516 
3015.000000	99.595533 
3014.000000	99.593251 
3013.000000	99.590135 
3012.000000	99.586774 
3011.000000	99.583403 
3010.000000	99.579940 
3009.000000	99.576466 
3008.000000	99.573495 
3007.000000	99.571606 
3006.000000	99.570867 
3005.000000	99.570680 
3004.000000	99.570167 
3003.000000	99.568726 
3002.000000	99.566276 
3001.000000	99.563177 
3000.000000	99.560021 
2999.000000	99.557299 
2998.000000	99.555130 
2997.000000	99.553350 
2996.000000	99.551856 
2995.000000	99.550715 
2994.000000	99.549813 
2993.000000	99.548541 
2992.000000	99.546192 
2991.000000	99.542605 
2990.000000	99.538464 
2989.000000	99.534844 
2988.000000	99.532201 
2987.000000	99.529953 
2986.000000	99.527293 
2985.000000	99.524443 
2984.000000	99.522541 
2983.000000	99.522178 
2982.000000	99.522535 
2981.000000	99.522267 
2980.000000	99.520949 
2979.000000	99.519214 
2978.000000	99.517632 
2977.000000	99.516013 
2976.000000	99.513895 
2975.000000	99.511258 
2974.000000	99.508436 
2973.000000	99.505529 
2972.000000	99.502228 
2971.000000	99.498140 
2970.000000	99.493057 
2969.000000	99.487074 
2968.000000	99.480751 
2967.000000	99.475060 
2966.000000	99.470755 
2965.000000	99.467706 
2964.000000	99.465134 
2963.000000	99.462657 
2962.000000	99.460768 
2961.000000	99.460035 
2960.000000	99.460113 
2959.000000	99.460007 
2958.000000	99.459297 
2957.000000	99.458587 
2956.000000	99.458426 
2955.000000	99.458139 
2954.000000	99.456421 
2953.000000	99.453447 
2952.000000	99.451799 
2951.000000	99.454322 
2950.000000	99.460693 
2949.000000	99.466757 
2948.000000	99.468026 
2947.000000	99.463591 
2946.000000	99.456223 
2945.000000	99.449015 
2944.000000	99.442732 
2943.000000	99.436419 
2942.000000	99.429319 
2941.000000	99.421270 
2940.000000	99.411882 
2939.000000	99.400457 
2938.000000	99.386846 
2937.000000	99.371798 
2936.000000	99.356490 
2935.000000	99.342137 
2934.000000	99.329809 
2933.000000	99.319856 
2932.000000	99.311351 
2931.000000	99.302637 
2930.000000	99.292594 
2929.000000	99.281176 
2928.000000	99.269076 
2927.000000	99.257611 
2926.000000	99.248793 
2925.000000	99.244399 
2924.000000	99.244614 
2923.000000	99.248249 
2922.000000	99.254510 
2921.000000	99.263706 
2920.000000	99.275809 
2919.000000	99.289390 
2918.000000	99.302850 
2917.000000	99.316048 
2916.000000	99.329777 
2915.000000	99.344178 
2914.000000	99.358656 
2913.000000	99.372969 
2912.000000	99.387187 
2911.000000	99.400520 
2910.000000	99.411340 
2909.000000	99.418848 
2908.000000	99.424012 
2907.000000	99.428462 
2906.000000	99.433021 
2905.000000	99.437519 
2904.000000	99.441278 
2903.000000	99.443348 
2902.000000	99.443078 
2901.000000	99.441384 
2900.000000	99.440932 
2899.000000	99.444118 
2898.000000	99.450643 
2897.000000	99.457765 
2896.000000	99.463260 
2895.000000	99.467618 
2894.000000	99.472938 
2893.000000	99.479962 
2892.000000	99.486863 
2891.000000	99.491218 
2890.000000	99.492740 
2889.000000	99.493494 
2888.000000	99.495448 
2887.000000	99.498465 
2886.000000	99.501123 
2885.000000	99.502879 
2884.000000	99.504491 
2883.000000	99.506555 
2882.000000	99.508660 
2881.000000	99.510340 
2880.000000	99.512022 
2879.000000	99.514467 
2878.000000	99.517706 
2877.000000	99.520913 
2876.000000	99.522920 
2875.000000	99.522523 
2874.000000	99.518938 
2873.000000	99.512865 
2872.000000	99.506922 
2871.000000	99.504120 
2870.000000	99.505488 
2869.000000	99.509301 
2868.000000	99.512617 
2867.000000	99.513491 
2866.000000	99.512068 
2865.000000	99.509969 
2864.000000	99.508403 
2863.000000	99.506447 
2862.000000	99.501481 
2861.000000	99.491945 
2860.000000	99.479581 
2859.000000	99.468273 
2858.000000	99.460509 
2857.000000	99.455661 
2856.000000	99.451681 
2855.000000	99.447782 
2854.000000	99.445134 
2853.000000	99.445397 
2852.000000	99.449258 
2851.000000	99.456301 
2850.000000	99.465844 
2849.000000	99.477515 
2848.000000	99.490983 
2847.000000	99.505296 
2846.000000	99.518904 
2845.000000	99.530547 
2844.000000	99.539993 
2843.000000	99.547773 
2842.000000	99.554504 
2841.000000	99.560686 
2840.000000	99.566724 
2839.000000	99.572553 
2838.000000	99.577310 
2837.000000	99.579950 
2836.000000	99.580395 
2835.000000	99.579895 
2834.000000	99.580282 
2833.000000	99.582942 
2832.000000	99.588076 
2831.000000	99.594434 
2830.000000	99.599996 
2829.000000	99.603631 
2828.000000	99.606163 
2827.000000	99.609240 
2826.000000	99.613073 
2825.000000	99.615968 
2824.000000	99.616400 
2823.000000	99.614981 
2822.000000	99.613924 
2821.000000	99.614869 
2820.000000	99.617615 
2819.000000	99.620831 
2818.000000	99.623564 
2817.000000	99.625894 
2816.000000	99.628268 
2815.000000	99.630452 
2814.000000	99.631460 
2813.000000	99.630600 
2812.000000	99.628313 
2811.000000	99.625707 
2810.000000	99.623521 
2809.000000	99.621973 
2808.000000	99.621391 
2807.000000	99.622326 
2806.000000	99.624854 
2805.000000	99.628170 
2804.000000	99.631131 
2803.000000	99.633049 
2802.000000	99.633969 
2801.000000	99.634368 
2800.000000	99.634623 
2799.000000	99.634617 
2798.000000	99.633998 
2797.000000	99.632951 
2796.000000	99.632369 
2795.000000	99.632854 
2794.000000	99.633779 
2793.000000	99.633916 
2792.000000	99.632863 
2791.000000	99.631358 
2790.000000	99.630314 
2789.000000	99.630121 
2788.000000	99.630856 
2787.000000	99.632439 
2786.000000	99.634391 
2785.000000	99.636002 
2784.000000	99.637009 
2783.000000	99.637699 
2782.000000	99.638230 
2781.000000	99.638301 
2780.000000	99.637710 
2779.000000	99.636854 
2778.000000	99.636401 
2777.000000	99.636597 
2776.000000	99.637150 
2775.000000	99.637653 
2774.000000	99.637896 
2773.000000	99.637865 
2772.000000	99.637645 
2771.000000	99.637392 
2770.000000	99.637298 
2769.000000	99.637511 
2768.000000	99.638089 
2767.000000	99.638963 
2766.000000	99.639896 
2765.000000	99.640529 
2764.000000	99.640622 
2763.000000	99.640276 
2762.000000	99.639913 
2761.000000	99.639926 
2760.000000	99.640409 
2759.000000	99.641205 
2758.000000	99.642069 
2757.000000	99.642785 
2756.000000	99.643213 
2755.000000	99.643344 
2754.000000	99.643260 
2753.000000	99.643001 
2752.000000	99.642569 
2751.000000	99.642054 
2750.000000	99.641651 
2749.000000	99.641483 
2748.000000	99.641494 
2747.000000	99.641561 
2746.000000	99.641626 
2745.000000	99.641665 
2744.000000	99.641662 
2743.000000	99.641668 
2742.000000	99.641789 
2741.000000	99.642035 
2740.000000	99.642277 
2739.000000	99.642458 
2738.000000	99.642705 
2737.000000	99.643132 
2736.000000	99.643619 
2735.000000	99.643922 
2734.000000	99.643905 
2733.000000	99.643567 
2732.000000	99.642951 
2731.000000	99.642198 
2730.000000	99.641621 
2729.000000	99.641513 
2728.000000	99.641919 
2727.000000	99.642667 
2726.000000	99.643543 
2725.000000	99.644361 
2724.000000	99.644974 
2723.000000	99.645371 
2722.000000	99.645704 
2721.000000	99.646083 
2720.000000	99.646408 
2719.000000	99.646500 
2718.000000	99.646341 
2717.000000	99.646084 
2716.000000	99.645881 
2715.000000	99.645840 
2714.000000	99.646066 
2713.000000	99.646564 
2712.000000	99.647123 
2711.000000	99.647439 
2710.000000	99.647427 
2709.000000	99.647294 
2708.000000	99.647303 
2707.000000	99.647470 
2706.000000	99.647581 
2705.000000	99.647488 
2704.000000	99.647255 
2703.000000	99.647049 
2702.000000	99.646965 
2701.000000	99.646975 
2700.000000	99.647011 
2699.000000	99.647023 
2698.000000	99.647004 
2697.000000	99.646971 
2696.000000	99.646949 
2695.000000	99.646953 
2694.000000	99.646987 
2693.000000	99.647033 
2692.000000	99.647059 
2691.000000	99.647048 
2690.000000	99.647012 
2689.000000	99.646974 
2688.000000	99.646947 
2687.000000	99.646924 
2686.000000	99.646894 
2685.000000	99.646852 
2684.000000	99.646798 
2683.000000	99.646738 
2682.000000	99.646678 
2681.000000	99.646620 
2680.000000	99.646560 
2679.000000	99.646497 
2678.000000	99.646435 
2677.000000	99.646378 
2676.000000	99.646331 
2675.000000	99.646306 
2674.000000	99.646312 
2673.000000	99.646327 
2672.000000	99.646310 
2671.000000	99.646238 
2670.000000	99.646114 
2669.000000	99.645948 
2668.000000	99.645739 
2667.000000	99.645514 
2666.000000	99.645363 
2665.000000	99.645384 
2664.000000	99.645588 
2663.000000	99.645875 
2662.000000	99.646116 
2661.000000	99.646249 
2660.000000	99.646285 
2659.000000	99.646245 
2658.000000	99.646106 
2657.000000	99.645857 
2656.000000	99.645596 
2655.000000	99.645509 
2654.000000	99.645701 
2653.000000	99.646043 
2652.000000	99.646240 
2651.000000	99.646094 
2650.000000	99.645679 
2649.000000	99.645262 
2648.000000	99.645049 
2647.000000	99.645037 
2646.000000	99.645110 
2645.000000	99.645222 
2644.000000	99.645411 
2643.000000	99.645647 
2642.000000	99.645787 
2641.000000	99.645749 
2640.000000	99.645696 
2639.000000	99.645952 
2638.000000	99.646724 
2637.000000	99.647911 
2636.000000	99.649072 
2635.000000	99.649630 
2634.000000	99.649217 
2633.000000	99.648001 
2632.000000	99.646656 
2631.000000	99.645748 
2630.000000	99.645227 
2629.000000	99.644706 
2628.000000	99.644095 
2627.000000	99.643779 
2626.000000	99.644108 
2625.000000	99.644968 
2624.000000	99.645905 
2623.000000	99.646521 
2622.000000	99.646656 
2621.000000	99.646358 
2620.000000	99.645879 
2619.000000	99.645580 
2618.000000	99.645634 
2617.000000	99.645860 
2616.000000	99.645965 
2615.000000	99.645925 
2614.000000	99.645951 
2613.000000	99.646138 
2612.000000	99.646347 
2611.000000	99.646456 
2610.000000	99.646565 
2609.000000	99.646876 
2608.000000	99.647432 
2607.000000	99.648078 
2606.000000	99.648615 
2605.000000	99.648922 
2604.000000	99.648942 
2603.000000	99.648616 
2602.000000	99.647929 
2601.000000	99.647021 
2600.000000	99.646208 
2599.000000	99.645792 
2598.000000	99.645843 
2597.000000	99.646183 
2596.000000	99.646514 
2595.000000	99.646595 
2594.000000	99.646381 
2593.000000	99.646009 
2592.000000	99.645715 
2591.000000	99.645676 
2590.000000	99.645885 
2589.000000	99.646181 
2588.000000	99.646393 
2587.000000	99.646490 
2586.000000	99.646516 
2585.000000	99.646462 
2584.000000	99.646287 
2583.000000	99.646030 
2582.000000	99.645805 
2581.000000	99.645659 
2580.000000	99.645517 
2579.000000	99.645285 
2578.000000	99.644964 
2577.000000	99.644638 
2576.000000	99.644407 
2575.000000	99.644319 
2574.000000	99.644342 
2573.000000	99.644360 
2572.000000	99.644254 
2571.000000	99.644007 
2570.000000	99.643708 
2569.000000	99.643456 
2568.000000	99.643272 
2567.000000	99.643138 
2566.000000	99.643076 
2565.000000	99.643116 
2564.000000	99.643227 
2563.000000	99.643320 
2562.000000	99.643319 
2561.000000	99.643218 
2560.000000	99.643102 
2559.000000	99.643116 
2558.000000	99.643323 
2557.000000	99.643539 
2556.000000	99.643439 
2555.000000	99.642975 
2554.000000	99.642594 
2553.000000	99.642798 
2552.000000	99.643570 
2551.000000	99.644408 
2550.000000	99.644953 
2549.000000	99.645260 
2548.000000	99.645357 
2547.000000	99.644968 
2546.000000	99.644000 
2545.000000	99.642906 
2544.000000	99.642284 
2543.000000	99.642293 
2542.000000	99.642645 
2541.000000	99.643018 
2540.000000	99.643310 
2539.000000	99.643501 
2538.000000	99.643484 
2537.000000	99.643124 
2536.000000	99.642443 
2535.000000	99.641707 
2534.000000	99.641329 
2533.000000	99.641591 
2532.000000	99.642419 
2531.000000	99.643431 
2530.000000	99.644303 
2529.000000	99.644988 
2528.000000	99.645565 
2527.000000	99.646008 
2526.000000	99.646227 
2525.000000	99.646296 
2524.000000	99.646444 
2523.000000	99.646754 
2522.000000	99.647020 
2521.000000	99.646981 
2520.000000	99.646636 
2519.000000	99.646226 
2518.000000	99.645979 
2517.000000	99.645938 
2516.000000	99.646019 
2515.000000	99.646142 
2514.000000	99.646296 
2513.000000	99.646493 
2512.000000	99.646690 
2511.000000	99.646782 
2510.000000	99.646714 
2509.000000	99.646588 
2508.000000	99.646603 
2507.000000	99.646855 
2506.000000	99.647247 
2505.000000	99.647560 
2504.000000	99.647648 
2503.000000	99.647525 
2502.000000	99.647325 
2501.000000	99.647200 
2500.000000	99.647231 
2499.000000	99.647431 
2498.000000	99.647760 
2497.000000	99.648131 
2496.000000	99.648443 
2495.000000	99.648604 
2494.000000	99.648551 
2493.000000	99.648275 
2492.000000	99.647849 
2491.000000	99.647395 
2490.000000	99.647022 
2489.000000	99.646788 
2488.000000	99.646687 
2487.000000	99.646661 
2486.000000	99.646646 
2485.000000	99.646635 
2484.000000	99.646680 
2483.000000	99.646814 
2482.000000	99.646961 
2481.000000	99.646990 
2480.000000	99.646863 
2479.000000	99.646709 
2478.000000	99.646706 
2477.000000	99.646864 
2476.000000	99.647006 
2475.000000	99.646989 
2474.000000	99.646866 
2473.000000	99.646783 
2472.000000	99.646804 
2471.000000	99.646896 
2470.000000	99.647025 
2469.000000	99.647128 
2468.000000	99.647034 
2467.000000	99.646584 
2466.000000	99.645881 
2465.000000	99.645325 
2464.000000	99.645275 
2463.000000	99.645689 
2462.000000	99.646100 
2461.000000	99.645975 
2460.000000	99.645194 
2459.000000	99.644186 
2458.000000	99.643570 
2457.000000	99.643623 
2456.000000	99.644108 
2455.000000	99.644584 
2454.000000	99.644727 
2453.000000	99.644340 
2452.000000	99.643317 
2451.000000	99.641793 
2450.000000	99.640270 
2449.000000	99.639355 
2448.000000	99.639343 
2447.000000	99.640147 
2446.000000	99.641485 
2445.000000	99.643011 
2444.000000	99.644365 
2443.000000	99.645286 
2442.000000	99.645787 
2441.000000	99.646119 
2440.000000	99.646474 
2439.000000	99.646719 
2438.000000	99.646498 
2437.000000	99.645627 
2436.000000	99.644283 
2435.000000	99.642739 
2434.000000	99.640977 
2433.000000	99.638810 
2432.000000	99.636501 
2431.000000	99.634953 
2430.000000	99.634924 
2429.000000	99.636221 
2428.000000	99.637946 
2427.000000	99.639542 
2426.000000	99.641116 
2425.000000	99.642611 
2424.000000	99.643277 
2423.000000	99.642424 
2422.000000	99.640433 
2421.000000	99.638706 
2420.000000	99.638377 
2419.000000	99.639415 
2418.000000	99.640977 
2417.000000	99.642299 
2416.000000	99.643180 
2415.000000	99.643723 
2414.000000	99.644001 
2413.000000	99.644070 
2412.000000	99.644064 
2411.000000	99.644092 
2410.000000	99.644070 
2409.000000	99.643869 
2408.000000	99.643688 
2407.000000	99.644098 
2406.000000	99.645461 
2405.000000	99.647372 
2404.000000	99.648893 
2403.000000	99.649359 
2402.000000	99.648886 
2401.000000	99.648111 
2400.000000	99.647597 
2399.000000	99.647497 
2398.000000	99.647685 
2397.000000	99.648036 
2396.000000	99.648560 
2395.000000	99.649354 
2394.000000	99.650470 
2393.000000	99.651821 
2392.000000	99.653234 
2391.000000	99.654619 
2390.000000	99.656025 
2389.000000	99.657478 
2388.000000	99.658829 
2387.000000	99.659867 
2386.000000	99.660569 
2385.000000	99.661147 
2384.000000	99.661862 
2383.000000	99.662804 
2382.000000	99.663881 
2381.000000	99.664939 
2380.000000	99.665850 
2379.000000	99.666525 
2378.000000	99.666953 
2377.000000	99.667249 
2376.000000	99.667625 
2375.000000	99.668217 
2374.000000	99.668991 
2373.000000	99.669807 
2372.000000	99.670566 
2371.000000	99.671272 
2370.000000	99.671955 
2369.000000	99.672582 
2368.000000	99.673098 
2367.000000	99.673525 
2366.000000	99.673943 
2365.000000	99.674418 
2364.000000	99.674939 
2363.000000	99.675467 
2362.000000	99.675976 
2361.000000	99.676467 
2360.000000	99.676948 
2359.000000	99.677420 
2358.000000	99.677878 
2357.000000	99.678316 
2356.000000	99.678729 
2355.000000	99.679114 
2354.000000	99.679468 
2353.000000	99.679795 
2352.000000	99.680102 
2351.000000	99.680399 
2350.000000	99.680698 
2349.000000	99.681004 
2348.000000	99.681312 
2347.000000	99.681614 
2346.000000	99.681915 
2345.000000	99.682184 
2344.000000	99.682349 
2343.000000	99.682408 
2342.000000	99.682494 
2341.000000	99.682754 
2340.000000	99.683153 
2339.000000	99.683524 
2338.000000	99.683799 
2337.000000	99.684088 
2336.000000	99.684455 
2335.000000	99.684786 
2334.000000	99.684901 
2333.000000	99.684808 
2332.000000	99.684587 
2331.000000	99.684248 
2330.000000	99.683604 
2329.000000	99.682762 
2328.000000	99.682174 
2327.000000	99.682344 
2326.000000	99.683147 
2325.000000	99.683678 
2324.000000	99.683070 
2323.000000	99.681485 
2322.000000	99.680397 
2321.000000	99.681204 
2320.000000	99.683708 
2319.000000	99.686154 
2318.000000	99.686815 
2317.000000	99.685532 
2316.000000	99.683411 
2315.000000	99.681848 
2314.000000	99.681444 
2313.000000	99.682264 
2312.000000	99.684020 
2311.000000	99.686446 
2310.000000	99.689077 
2309.000000	99.691309 
2308.000000	99.692204 
2307.000000	99.690949 
2306.000000	99.687506 
2305.000000	99.682875 
2304.000000	99.678257 
2303.000000	99.674305 
2302.000000	99.671098 
2301.000000	99.668754 
2300.000000	99.667340 
2299.000000	99.666447 
2298.000000	99.665325 
2297.000000	99.663986 
2296.000000	99.663440 
2295.000000	99.664445 
2294.000000	99.666231 
2293.000000	99.667121 
2292.000000	99.666301 
2291.000000	99.664418 
2290.000000	99.662495 
2289.000000	99.660841 
2288.000000	99.659225 
2287.000000	99.657482 
2286.000000	99.655593 
2285.000000	99.653545 
2284.000000	99.651588 
2283.000000	99.650251 
2282.000000	99.649643 
2281.000000	99.648987 
2280.000000	99.647478 
2279.000000	99.645600 
2278.000000	99.644884 
2277.000000	99.646120 
2276.000000	99.648408 
2275.000000	99.649986 
2274.000000	99.649817 
2273.000000	99.648089 
2272.000000	99.645522 
2271.000000	99.642691 
2270.000000	99.640118 
2269.000000	99.638665 
2268.000000	99.639190 
2267.000000	99.641684 
2266.000000	99.644893 
2265.000000	99.647077 
2264.000000	99.647285 
2263.000000	99.645847 
2262.000000	99.644042 
2261.000000	99.643251 
2260.000000	99.644036 
2259.000000	99.645643 
2258.000000	99.646449 
2257.000000	99.645383 
2256.000000	99.642966 
2255.000000	99.640698 
2254.000000	99.639357 
2253.000000	99.638358 
2252.000000	99.636971 
2251.000000	99.635614 
2250.000000	99.635461 
2249.000000	99.637103 
2248.000000	99.639973 
2247.000000	99.642865 
2246.000000	99.644595 
2245.000000	99.644279 
2244.000000	99.641625 
2243.000000	99.637322 
2242.000000	99.632992 
2241.000000	99.630315 
2240.000000	99.629878 
2239.000000	99.630701 
2238.000000	99.630926 
2237.000000	99.629138 
2236.000000	99.625148 
2235.000000	99.619725 
2234.000000	99.614130 
2233.000000	99.610041 
2232.000000	99.609238 
2231.000000	99.612495 
2230.000000	99.618693 
2229.000000	99.625428 
2228.000000	99.630806 
2227.000000	99.634321 
2226.000000	99.636084 
2225.000000	99.636114 
2224.000000	99.634619 
2223.000000	99.632333 
2222.000000	99.630194 
2221.000000	99.628898 
2220.000000	99.628761 
2219.000000	99.629694 
2218.000000	99.631225 
2217.000000	99.632914 
2216.000000	99.634837 
2215.000000	99.637201 
2214.000000	99.639380 
2213.000000	99.639923 
2212.000000	99.638005 
2211.000000	99.634696 
2210.000000	99.632488 
2209.000000	99.633205 
2208.000000	99.636335 
2207.000000	99.639279 
2206.000000	99.639541 
2205.000000	99.636713 
2204.000000	99.632341 
2203.000000	99.628256 
2202.000000	99.625273 
2201.000000	99.623532 
2200.000000	99.623062 
2199.000000	99.623393 
2198.000000	99.623326 
2197.000000	99.622108 
2196.000000	99.620683 
2195.000000	99.620852 
2194.000000	99.623216 
2193.000000	99.626582 
2192.000000	99.629177 
2191.000000	99.629932 
2190.000000	99.628724 
2189.000000	99.626244 
2188.000000	99.623948 
2187.000000	99.623256 
2186.000000	99.624498 
2185.000000	99.626959 
2184.000000	99.629734 
2183.000000	99.632218 
2182.000000	99.633781 
2181.000000	99.633942 
2180.000000	99.633202 
2179.000000	99.632815 
2178.000000	99.633262 
2177.000000	99.633688 
2176.000000	99.633157 
2175.000000	99.631779 
2174.000000	99.630235 
2173.000000	99.628880 
2172.000000	99.627814 
2171.000000	99.627306 
2170.000000	99.627643 
2169.000000	99.628897 
2168.000000	99.631062 
2167.000000	99.633957 
2166.000000	99.636777 
2165.000000	99.638449 
2164.000000	99.638803 
2163.000000	99.638741 
2162.000000	99.639141 
2161.000000	99.639977 
2160.000000	99.640774 
2159.000000	99.641274 
2158.000000	99.641353 
2157.000000	99.640977 
2156.000000	99.640590 
2155.000000	99.640885 
2154.000000	99.641926 
2153.000000	99.642963 
2152.000000	99.643299 
2151.000000	99.643086 
2150.000000	99.643036 
2149.000000	99.643569 
2148.000000	99.644518 
2147.000000	99.645386 
2146.000000	99.645678 
2145.000000	99.645161 
2144.000000	99.644058 
2143.000000	99.643011 
2142.000000	99.642478 
2141.000000	99.642351 
2140.000000	99.642224 
2139.000000	99.641893 
2138.000000	99.641493 
2137.000000	99.641156 
2136.000000	99.640845 
2135.000000	99.640546 
2134.000000	99.640371 
2133.000000	99.640359 
2132.000000	99.640349 
2131.000000	99.640139 
2130.000000	99.639660 
2129.000000	99.638970 
2128.000000	99.638193 
2127.000000	99.637464 
2126.000000	99.636855 
2125.000000	99.636327 
2124.000000	99.635806 
2123.000000	99.635406 
2122.000000	99.635336 
2121.000000	99.635498 
2120.000000	99.635404 
2119.000000	99.634716 
2118.000000	99.633679 
2117.000000	99.632883 
2116.000000	99.632576 
2115.000000	99.632555 
2114.000000	99.632629 
2113.000000	99.632822 
2112.000000	99.632983 
2111.000000	99.632669 
2110.000000	99.631681 
2109.000000	99.630457 
2108.000000	99.629708 
2107.000000	99.629623 
2106.000000	99.629582 
2105.000000	99.628616 
2104.000000	99.626237 
2103.000000	99.623064 
2102.000000	99.620586 
2101.000000	99.619833 
2100.000000	99.620510 
2099.000000	99.621574 
2098.000000	99.622569 
2097.000000	99.624016 
2096.000000	99.626302 
2095.000000	99.628582 
2094.000000	99.629085 
2093.000000	99.626656 
2092.000000	99.622151 
2091.000000	99.618309 
2090.000000	99.617489 
2089.000000	99.619357 
2088.000000	99.621119 
2087.000000	99.620520 
2086.000000	99.618313 
2085.000000	99.617086 
2084.000000	99.618160 
2083.000000	99.620517 
2082.000000	99.622594 
2081.000000	99.624317 
2080.000000	99.626755 
2079.000000	99.630234 
2078.000000	99.633635 
2077.000000	99.635794 
2076.000000	99.637119 
2075.000000	99.639061 
2074.000000	99.641866 
2073.000000	99.643827 
2072.000000	99.643305 
2071.000000	99.640699 
2070.000000	99.637787 
2069.000000	99.635589 
2068.000000	99.633841 
2067.000000	99.632376 
2066.000000	99.631756 
2065.000000	99.632169 
2064.000000	99.632693 
2063.000000	99.632425 
2062.000000	99.631773 
2061.000000	99.631890 
2060.000000	99.633124 
2059.000000	99.634619 
2058.000000	99.635334 
2057.000000	99.635032 
2056.000000	99.634116 
2055.000000	99.632864 
2054.000000	99.631192 
2053.000000	99.629214 
2052.000000	99.627666 
2051.000000	99.627351 
2050.000000	99.628129 
2049.000000	99.628740 
2048.000000	99.627979 
2047.000000	99.625851 
2046.000000	99.623361 
2045.000000	99.621514 
2044.000000	99.620660 
2043.000000	99.620566 
2042.000000	99.620695 
2041.000000	99.620476 
2040.000000	99.619696 
2039.000000	99.618631 
2038.000000	99.617676 
2037.000000	99.616873 
2036.000000	99.615974 
2035.000000	99.614908 
2034.000000	99.613859 
2033.000000	99.612914 
2032.000000	99.611924 
2031.000000	99.610805 
2030.000000	99.609754 
2029.000000	99.609016 
2028.000000	99.608561 
2027.000000	99.608147 
2026.000000	99.607668 
2025.000000	99.607321 
2024.000000	99.607311 
2023.000000	99.607499 
2022.000000	99.607448 
2021.000000	99.606869 
2020.000000	99.605971 
2019.000000	99.605392 
2018.000000	99.605491 
2017.000000	99.606001 
2016.000000	99.606322 
2015.000000	99.606279 
2014.000000	99.606175 
2013.000000	99.606261 
2012.000000	99.606473 
2011.000000	99.606662 
2010.000000	99.606866 
2009.000000	99.607210 
2008.000000	99.607720 
2007.000000	99.608329 
2006.000000	99.608929 
2005.000000	99.609368 
2004.000000	99.609557 
2003.000000	99.609602 
2002.000000	99.609711 
2001.000000	99.609954 
2000.000000	99.610225 
1999.000000	99.610431 
1998.000000	99.610609 
1997.000000	99.610854 
1996.000000	99.611213 
1995.000000	99.611667 
1994.000000	99.612163 
1993.000000	99.612641 
1992.000000	99.613055 
1991.000000	99.613392 
1990.000000	99.613680 
1989.000000	99.613964 
1988.000000	99.614284 
1987.000000	99.614661 
1986.000000	99.615068 
1985.000000	99.615427 
1984.000000	99.615654 
1983.000000	99.615757 
1982.000000	99.615903 
1981.000000	99.616214 
1980.000000	99.616470 
1979.000000	99.616284 
1978.000000	99.615647 
1977.000000	99.615000 
1976.000000	99.614519 
1975.000000	99.613821 
1974.000000	99.612696 
1973.000000	99.611824 
1972.000000	99.612177 
1971.000000	99.613923 
1970.000000	99.615987 
1969.000000	99.616870 
1968.000000	99.615994 
1967.000000	99.614172 
1966.000000	99.612811 
1965.000000	99.612443 
1964.000000	99.612618 
1963.000000	99.612932 
1962.000000	99.613471 
1961.000000	99.614238 
1960.000000	99.615010 
1959.000000	99.616014 
1958.000000	99.617919 
1957.000000	99.620622 
1956.000000	99.622836 
1955.000000	99.623580 
1954.000000	99.623436 
1953.000000	99.623616 
1952.000000	99.623985 
1951.000000	99.623065 
1950.000000	99.620006 
1949.000000	99.615732 
1948.000000	99.612167 
1947.000000	99.610407 
1946.000000	99.609545 
1945.000000	99.607274 
1944.000000	99.602288 
1943.000000	99.596544 
1942.000000	99.594064 
1941.000000	99.596528 
1940.000000	99.601351 
1939.000000	99.604957 
1938.000000	99.607033 
1937.000000	99.610125 
1936.000000	99.615571 
1935.000000	99.621337 
1934.000000	99.624551 
1933.000000	99.625197 
1932.000000	99.625982 
1931.000000	99.628978 
1930.000000	99.633283 
1929.000000	99.636147 
1928.000000	99.636348 
1927.000000	99.635014 
1926.000000	99.633726 
1925.000000	99.632678 
1924.000000	99.631077 
1923.000000	99.629246 
1922.000000	99.628801 
1921.000000	99.630487 
1920.000000	99.632696 
1919.000000	99.632670 
1918.000000	99.629014 
1917.000000	99.623250 
1916.000000	99.618571 
1915.000000	99.616788 
1914.000000	99.617607 
1913.000000	99.620007 
1912.000000	99.623166 
1911.000000	99.626432 
1910.000000	99.628851 
1909.000000	99.629635 
1908.000000	99.629382 
1907.000000	99.629563 
1906.000000	99.630829 
1905.000000	99.632316 
1904.000000	99.632801 
1903.000000	99.632189 
1902.000000	99.631110 
1901.000000	99.630006 
1900.000000	99.629185 
1899.000000	99.629057 
1898.000000	99.629852 
1897.000000	99.631204 
1896.000000	99.632349 
1895.000000	99.632832 
1894.000000	99.632630 
1893.000000	99.631864 
1892.000000	99.630824 
1891.000000	99.630026 
1890.000000	99.629660 
1889.000000	99.629212 
1888.000000	99.628370 
1887.000000	99.627758 
1886.000000	99.628108 
1885.000000	99.629240 
1884.000000	99.630254 
1883.000000	99.630710 
1882.000000	99.630866 
1881.000000	99.630969 
1880.000000	99.631261 
1879.000000	99.632338 
1878.000000	99.634807 
1877.000000	99.638414 
1876.000000	99.641751 
1875.000000	99.643353 
1874.000000	99.642805 
1873.000000	99.640673 
1872.000000	99.638156 
1871.000000	99.636559 
1870.000000	99.636257 
1869.000000	99.636054 
1868.000000	99.634808 
1867.000000	99.633434 
1866.000000	99.633169 
1865.000000	99.633195 
1864.000000	99.631565 
1863.000000	99.627854 
1862.000000	99.624089 
1861.000000	99.622703 
1860.000000	99.624283 
1859.000000	99.627745 
1858.000000	99.631600 
1857.000000	99.634713 
1856.000000	99.636706 
1855.000000	99.638136 
1854.000000	99.639783 
1853.000000	99.641369 
1852.000000	99.641946 
1851.000000	99.641204 
1850.000000	99.640098 
1849.000000	99.640253 
1848.000000	99.642280 
1847.000000	99.645132 
1846.000000	99.646948 
1845.000000	99.646714 
1844.000000	99.645316 
1843.000000	99.644930 
1842.000000	99.646354 
1841.000000	99.648096 
1840.000000	99.648618 
1839.000000	99.647732 
1838.000000	99.646322 
1837.000000	99.645222 
1836.000000	99.644565 
1835.000000	99.644283 
1834.000000	99.644354 
1833.000000	99.644616 
1832.000000	99.644746 
1831.000000	99.644350 
1830.000000	99.643430 
1829.000000	99.642751 
1828.000000	99.642909 
1827.000000	99.643470 
1826.000000	99.643710 
1825.000000	99.643508 
1824.000000	99.643155 
1823.000000	99.642734 
1822.000000	99.641857 
1821.000000	99.640386 
1820.000000	99.639073 
1819.000000	99.638918 
1818.000000	99.640162 
1817.000000	99.641854 
1816.000000	99.642794 
1815.000000	99.643029 
1814.000000	99.643428 
1813.000000	99.644388 
1812.000000	99.645329 
1811.000000	99.645677 
1810.000000	99.645804 
1809.000000	99.646023 
1808.000000	99.645793 
1807.000000	99.644637 
1806.000000	99.642988 
1805.000000	99.641758 
1804.000000	99.641383 
1803.000000	99.641661 
1802.000000	99.641890 
1801.000000	99.641370 
1800.000000	99.640055 
1799.000000	99.638803 
1798.000000	99.638595 
1797.000000	99.639402 
1796.000000	99.640378 
1795.000000	99.640880 
1794.000000	99.640921 
1793.000000	99.640768 
1792.000000	99.640371 
1791.000000	99.639848 
1790.000000	99.639759 
1789.000000	99.640078 
1788.000000	99.640338 
1787.000000	99.640452 
1786.000000	99.640858 
1785.000000	99.641652 
1784.000000	99.642132 
1783.000000	99.641611 
1782.000000	99.639615 
1781.000000	99.636436 
1780.000000	99.633133 
1779.000000	99.630663 
1778.000000	99.629606 
1777.000000	99.629821 
1776.000000	99.631008 
1775.000000	99.632333 
1774.000000	99.632680 
1773.000000	99.632048 
1772.000000	99.631652 
1771.000000	99.632233 
1770.000000	99.633022 
1769.000000	99.632307 
1768.000000	99.629387 
1767.000000	99.625470 
1766.000000	99.622429 
1765.000000	99.621000 
1764.000000	99.620623 
1763.000000	99.620409 
1762.000000	99.619337 
1761.000000	99.617326 
1760.000000	99.615043 
1759.000000	99.612792 
1758.000000	99.611100 
1757.000000	99.610639 
1756.000000	99.611663 
1755.000000	99.612480 
1754.000000	99.610896 
1753.000000	99.606874 
1752.000000	99.602559 
1751.000000	99.598671 
1750.000000	99.594046 
1749.000000	99.588387 
1748.000000	99.583287 
1747.000000	99.580572 
1746.000000	99.579535 
1745.000000	99.578840 
1744.000000	99.577971 
1743.000000	99.577121 
1742.000000	99.576840 
1741.000000	99.577002 
1740.000000	99.576843 
1739.000000	99.577047 
1738.000000	99.579602 
1737.000000	99.584158 
1736.000000	99.588975 
1735.000000	99.593507 
1734.000000	99.596395 
1733.000000	99.597443 
1732.000000	99.599106 
1731.000000	99.600057 
1730.000000	99.599237 
1729.000000	99.597742 
1728.000000	99.597218 
1727.000000	99.598111 
1726.000000	99.599973 
1725.000000	99.603020 
1724.000000	99.606519 
1723.000000	99.608768 
1722.000000	99.609170 
1721.000000	99.608080 
1720.000000	99.606565 
1719.000000	99.606221 
1718.000000	99.607782 
1717.000000	99.609088 
1716.000000	99.608408 
1715.000000	99.607401 
1714.000000	99.607958 
1713.000000	99.609452 
1712.000000	99.610035 
1711.000000	99.609546 
1710.000000	99.609264 
1709.000000	99.609950 
1708.000000	99.611258 
1707.000000	99.612560 
1706.000000	99.613782 
1705.000000	99.614878 
1704.000000	99.615724 
1703.000000	99.616279 
1702.000000	99.616721 
1701.000000	99.617274 
1700.000000	99.617476 
1699.000000	99.617681 
1698.000000	99.618540 
1697.000000	99.619477 
1696.000000	99.620046 
1695.000000	99.620256 
1694.000000	99.620527 
1693.000000	99.620884 
1692.000000	99.621083 
1691.000000	99.621304 
1690.000000	99.621813 
1689.000000	99.622605 
1688.000000	99.623671 
1687.000000	99.624888 
1686.000000	99.626243 
1685.000000	99.627553 
1684.000000	99.627874 
1683.000000	99.627326 
1682.000000	99.626902 
1681.000000	99.626333 
1680.000000	99.625798 
1679.000000	99.625703 
1678.000000	99.625960 
1677.000000	99.626227 
1676.000000	99.626457 
1675.000000	99.626782 
1674.000000	99.627264 
1673.000000	99.627972 
1672.000000	99.628751 
1671.000000	99.629428 
1670.000000	99.629769 
1669.000000	99.629608 
1668.000000	99.629405 
1667.000000	99.629516 
1666.000000	99.629754 
1665.000000	99.629918 
1664.000000	99.630026 
1663.000000	99.630238 
1662.000000	99.630529 
1661.000000	99.630801 
1660.000000	99.631132 
1659.000000	99.631550 
1658.000000	99.631943 
1657.000000	99.632212 
1656.000000	99.632360 
1655.000000	99.632520 
1654.000000	99.632896 
1653.000000	99.632915 
1652.000000	99.632627 
1651.000000	99.633187 
1650.000000	99.633810 
1649.000000	99.634086 
1648.000000	99.634306 
1647.000000	99.634574 
1646.000000	99.634654 
1645.000000	99.634731 
1644.000000	99.634891 
1643.000000	99.635120 
1642.000000	99.635398 
1641.000000	99.635623 
1640.000000	99.635764 
1639.000000	99.635822 
1638.000000	99.635981 
1637.000000	99.636585 
1636.000000	99.637712 
1635.000000	99.638697 
1634.000000	99.639209 
1633.000000	99.639129 
1632.000000	99.638111 
1631.000000	99.636569 
1630.000000	99.635265 
1629.000000	99.634705 
1628.000000	99.634933 
1627.000000	99.635688 
1626.000000	99.636292 
1625.000000	99.636151 
1624.000000	99.635429 
1623.000000	99.634954 
1622.000000	99.635367 
1621.000000	99.636525 
1620.000000	99.637823 
1619.000000	99.638747 
1618.000000	99.639338 
1617.000000	99.639728 
1616.000000	99.640323 
1615.000000	99.641672 
1614.000000	99.643169 
1613.000000	99.644050 
1612.000000	99.644786 
1611.000000	99.646050 
1610.000000	99.647147 
1609.000000	99.646925 
1608.000000	99.645604 
1607.000000	99.644368 
1606.000000	99.643566 
1605.000000	99.643059 
1604.000000	99.643269 
1603.000000	99.644304 
1602.000000	99.645531 
1601.000000	99.646352 
1600.000000	99.646972 
1599.000000	99.647794 
1598.000000	99.648664 
1597.000000	99.649246 
1596.000000	99.649431 
1595.000000	99.649150 
1594.000000	99.648208 
1593.000000	99.646823 
1592.000000	99.645902 
1591.000000	99.646117 
1590.000000	99.647018 
1589.000000	99.647726 
1588.000000	99.648185 
1587.000000	99.648833 
1586.000000	99.649390 
1585.000000	99.649008 
1584.000000	99.648032 
1583.000000	99.647351 
1582.000000	99.646852 
1581.000000	99.646161 
1580.000000	99.645440 
1579.000000	99.644763 
1578.000000	99.643810 
1577.000000	99.642475 
1576.000000	99.640958 
1575.000000	99.640023 
1574.000000	99.639903 
1573.000000	99.639876 
1572.000000	99.639739 
1571.000000	99.639879 
1570.000000	99.640205 
1569.000000	99.640194 
1568.000000	99.640160 
1567.000000	99.640044 
1566.000000	99.639226 
1565.000000	99.637740 
1564.000000	99.636338 
1563.000000	99.635461 
1562.000000	99.634723 
1561.000000	99.633853 
1560.000000	99.633693 
1559.000000	99.633629 
1558.000000	99.632804 
1557.000000	99.633016 
1556.000000	99.633382 
1555.000000	99.633254 
1554.000000	99.632954 
1553.000000	99.632978 
1552.000000	99.633192 
1551.000000	99.633085 
1550.000000	99.632837 
1549.000000	99.633030 
1548.000000	99.633791 
1547.000000	99.634505 
1546.000000	99.634425 
1545.000000	99.633495 
1544.000000	99.632459 
1543.000000	99.632237 
1542.000000	99.633261 
1541.000000	99.635229 
1540.000000	99.636812 
1539.000000	99.637328 
1538.000000	99.637595 
1537.000000	99.637950 
1536.000000	99.638228 
1535.000000	99.638631 
1534.000000	99.639087 
1533.000000	99.639138 
1532.000000	99.638879 
1531.000000	99.638801 
1530.000000	99.639071 
1529.000000	99.639417 
1528.000000	99.639463 
1527.000000	99.639347 
1526.000000	99.639733 
1525.000000	99.641170 
1524.000000	99.643519 
1523.000000	99.646240 
1522.000000	99.648643 
1521.000000	99.649676 
1520.000000	99.649234 
1519.000000	99.647969 
1518.000000	99.646053 
1517.000000	99.643994 
1516.000000	99.642488 
1515.000000	99.641812 
1514.000000	99.641595 
1513.000000	99.641694 
1512.000000	99.642215 
1511.000000	99.642813 
1510.000000	99.642996 
1509.000000	99.642759 
1508.000000	99.643221 
1507.000000	99.645085 
1506.000000	99.647181 
1505.000000	99.648332 
1504.000000	99.648214 
1503.000000	99.647284 
1502.000000	99.646509 
1501.000000	99.646165 
1500.000000	99.645366 
1499.000000	99.643286 
1498.000000	99.640636 
1497.000000	99.638933 
1496.000000	99.638417 
1495.000000	99.639168 
1494.000000	99.641513 
1493.000000	99.644675 
1492.000000	99.647158 
1491.000000	99.647851 
1490.000000	99.646831 
1489.000000	99.645063 
1488.000000	99.642953 
1487.000000	99.640660 
1486.000000	99.638529 
1485.000000	99.636003 
1484.000000	99.633191 
1483.000000	99.631056 
1482.000000	99.630555 
1481.000000	99.631430 
1480.000000	99.631875 
1479.000000	99.630656 
1478.000000	99.628121 
1477.000000	99.625506 
1476.000000	99.623440 
1475.000000	99.622284 
1474.000000	99.621915 
1473.000000	99.621296 
1472.000000	99.619297 
1471.000000	99.616333 
1470.000000	99.613449 
1469.000000	99.610446 
1468.000000	99.607039 
1467.000000	99.603961 
1466.000000	99.602516 
1465.000000	99.603287 
1464.000000	99.605603 
1463.000000	99.607813 
1462.000000	99.608896 
1461.000000	99.608698 
1460.000000	99.607469 
1459.000000	99.605290 
1458.000000	99.601949 
1457.000000	99.597602 
1456.000000	99.594315 
1455.000000	99.594030 
1454.000000	99.595487 
1453.000000	99.598140 
1452.000000	99.602297 
1451.000000	99.606954 
1450.000000	99.610337 
1449.000000	99.611325 
1448.000000	99.609925 
1447.000000	99.607729 
1446.000000	99.606494 
1445.000000	99.607015 
1444.000000	99.608987 
1443.000000	99.611030 
1442.000000	99.612403 
1441.000000	99.613351 
1440.000000	99.614150 
1439.000000	99.614223 
1438.000000	99.613636 
1437.000000	99.613358 
1436.000000	99.613768 
1435.000000	99.614478 
1434.000000	99.614796 
1433.000000	99.614412 
1432.000000	99.613669 
1431.000000	99.612847 
1430.000000	99.612102 
1429.000000	99.611868 
1428.000000	99.612174 
1427.000000	99.612654 
1426.000000	99.612644 
1425.000000	99.612209 
1424.000000	99.612028 
1423.000000	99.612025 
1422.000000	99.611684 
1421.000000	99.610761 
1420.000000	99.609598 
1419.000000	99.608501 
1418.000000	99.607951 
1417.000000	99.608170 
1416.000000	99.608249 
1415.000000	99.607552 
1414.000000	99.606485 
1413.000000	99.605874 
1412.000000	99.606006 
1411.000000	99.606334 
1410.000000	99.606310 
1409.000000	99.605930 
1408.000000	99.605375 
1407.000000	99.604922 
1406.000000	99.604767 
1405.000000	99.604954 
1404.000000	99.605469 
1403.000000	99.606264 
1402.000000	99.607422 
1401.000000	99.608944 
1400.000000	99.610494 
1399.000000	99.611463 
1398.000000	99.611573 
1397.000000	99.610941 
1396.000000	99.609690 
1395.000000	99.608229 
1394.000000	99.607424 
1393.000000	99.607931 
1392.000000	99.609503 
1391.000000	99.611249 
1390.000000	99.612474 
1389.000000	99.612976 
1388.000000	99.612769 
1387.000000	99.612035 
1386.000000	99.611285 
1385.000000	99.611022 
1384.000000	99.611237 
1383.000000	99.611466 
1382.000000	99.611350 
1381.000000	99.610974 
1380.000000	99.610729 
1379.000000	99.610973 
1378.000000	99.611780 
1377.000000	99.612918 
1376.000000	99.613992 
1375.000000	99.614725 
1374.000000	99.615218 
1373.000000	99.615946 
1372.000000	99.617178 
1371.000000	99.618634 
1370.000000	99.619810 
1369.000000	99.620494 
1368.000000	99.620893 
1367.000000	99.621271 
1366.000000	99.621783 
1365.000000	99.622500 
1364.000000	99.623430 
1363.000000	99.624402 
1362.000000	99.625140 
1361.000000	99.625540 
1360.000000	99.625772 
1359.000000	99.626192 
1358.000000	99.627158 
1357.000000	99.628753 
1356.000000	99.630599 
1355.000000	99.632110 
1354.000000	99.633146 
1353.000000	99.634074 
1352.000000	99.634999 
1351.000000	99.635514 
1350.000000	99.635336 
1349.000000	99.635022 
1348.000000	99.635331 
1347.000000	99.636123 
1346.000000	99.636731 
1345.000000	99.636974 
1344.000000	99.637240 
1343.000000	99.637663 
1342.000000	99.637972 
1341.000000	99.638154 
1340.000000	99.638643 
1339.000000	99.639641 
1338.000000	99.640817 
1337.000000	99.641846 
1336.000000	99.642711 
1335.000000	99.643371 
1334.000000	99.643632 
1333.000000	99.643509 
1332.000000	99.643443 
1331.000000	99.643816 
1330.000000	99.644465 
1329.000000	99.645011 
1328.000000	99.645372 
1327.000000	99.645630 
1326.000000	99.645636 
1325.000000	99.645286 
1324.000000	99.644942 
1323.000000	99.645084 
1322.000000	99.645736 
1321.000000	99.646561 
1320.000000	99.647416 
1319.000000	99.648392 
1318.000000	99.649340 
1317.000000	99.649762 
1316.000000	99.649307 
1315.000000	99.648173 
1314.000000	99.646961 
1313.000000	99.646183 
1312.000000	99.645939 
1311.000000	99.645978 
1310.000000	99.646000 
1309.000000	99.645937 
1308.000000	99.645942 
1307.000000	99.646127 
1306.000000	99.646319 
1305.000000	99.646214 
1304.000000	99.645764 
1303.000000	99.645258 
1302.000000	99.645062 
1301.000000	99.645259 
1300.000000	99.645623 
1299.000000	99.645966 
1298.000000	99.646478 
1297.000000	99.647534 
1296.000000	99.649076 
1295.000000	99.650350 
1294.000000	99.650494 
1293.000000	99.649327 
1292.000000	99.647438 
1291.000000	99.645675 
1290.000000	99.644640 
1289.000000	99.644506 
1288.000000	99.644985 
1287.000000	99.645383 
1286.000000	99.645063 
1285.000000	99.644032 
1284.000000	99.642914 
1283.000000	99.642252 
1282.000000	99.641972 
1281.000000	99.641598 
1280.000000	99.640844 
1279.000000	99.639801 
1278.000000	99.638696 
1277.000000	99.637712 
1276.000000	99.637004 
1275.000000	99.636649 
1274.000000	99.636465 
1273.000000	99.636064 
1272.000000	99.635225 
1271.000000	99.634172 
1270.000000	99.633361 
1269.000000	99.632968 
1268.000000	99.632719 
1267.000000	99.632217 
1266.000000	99.631336 
1265.000000	99.630239 
1264.000000	99.629099 
1263.000000	99.627966 
1262.000000	99.626860 
1261.000000	99.625843 
1260.000000	99.624958 
1259.000000	99.624177 
1258.000000	99.623468 
1257.000000	99.622877 
1256.000000	99.622553 
1255.000000	99.622705 
1254.000000	99.623386 
1253.000000	99.624282 
1252.000000	99.624813 
1251.000000	99.624598 
1250.000000	99.623816 
1249.000000	99.623000 
1248.000000	99.622488 
1247.000000	99.622183 
1246.000000	99.621754 
1245.000000	99.620853 
1244.000000	99.619219 
1243.000000	99.616931 
1242.000000	99.614653 
1241.000000	99.613270 
1240.000000	99.613098 
1239.000000	99.613647 
1238.000000	99.614207 
1237.000000	99.614559 
1236.000000	99.614851 
1235.000000	99.615017 
1234.000000	99.614737 
1233.000000	99.613838 
1232.000000	99.612388 
1231.000000	99.610426 
1230.000000	99.608008 
1229.000000	99.605600 
1228.000000	99.604046 
1227.000000	99.603885 
1226.000000	99.604791 
1225.000000	99.605752 
1224.000000	99.605927 
1223.000000	99.605249 
1222.000000	99.604226 
1221.000000	99.603324 
1220.000000	99.602717 
1219.000000	99.602602 
1218.000000	99.603279 
1217.000000	99.604506 
1216.000000	99.605047 
1215.000000	99.603644 
1214.000000	99.600397 
1213.000000	99.596745 
1212.000000	99.593860 
1211.000000	99.591611 
1210.000000	99.589508 
1209.000000	99.587854 
1208.000000	99.587207 
1207.000000	99.587183 
1206.000000	99.586670 
1205.000000	99.585171 
1204.000000	99.583219 
1203.000000	99.581514 
1202.000000	99.580250 
1201.000000	99.579299 
1200.000000	99.578429 
1199.000000	99.577231 
1198.000000	99.575395 
1197.000000	99.573112 
1196.000000	99.570645 
1195.000000	99.567727 
1194.000000	99.564033 
1193.000000	99.560071 
1192.000000	99.556882 
1191.000000	99.554723 
1190.000000	99.552712 
1189.000000	99.550052 
1188.000000	99.547034 
1187.000000	99.544514 
1186.000000	99.542829 
1185.000000	99.541573 
1184.000000	99.540059 
1183.000000	99.537753 
1182.000000	99.534619 
1181.000000	99.531364 
1180.000000	99.528989 
1179.000000	99.527685 
1178.000000	99.526447 
1177.000000	99.524170 
1176.000000	99.520866 
1175.000000	99.517298 
1174.000000	99.513627 
1173.000000	99.509162 
1172.000000	99.503731 
1171.000000	99.498611 
1170.000000	99.495367 
1169.000000	99.494041 
1168.000000	99.492944 
1167.000000	99.490454 
1166.000000	99.486769 
1165.000000	99.483537 
1164.000000	99.482079 
1163.000000	99.482327 
1162.000000	99.483199 
1161.000000	99.483726 
1160.000000	99.483778 
1159.000000	99.483752 
1158.000000	99.483698 
1157.000000	99.482812 
1156.000000	99.480011 
1155.000000	99.475214 
1154.000000	99.469957 
1153.000000	99.466335 
1152.000000	99.465069 
1151.000000	99.464864 
1150.000000	99.463697 
1149.000000	99.460706 
1148.000000	99.456621 
1147.000000	99.452677 
1146.000000	99.449401 
1145.000000	99.446458 
1144.000000	99.443298 
1143.000000	99.439695 
1142.000000	99.435859 
1141.000000	99.432288 
1140.000000	99.429482 
1139.000000	99.427598 
1138.000000	99.426228 
1137.000000	99.424550 
1136.000000	99.421886 
1135.000000	99.418183 
1134.000000	99.413909 
1133.000000	99.409517 
1132.000000	99.405120 
1131.000000	99.400762 
1130.000000	99.396766 
1129.000000	99.393476 
1128.000000	99.390697 
1127.000000	99.387690 
1126.000000	99.383913 
1125.000000	99.379562 
1124.000000	99.375315 
1123.000000	99.371617 
1122.000000	99.368306 
1121.000000	99.364903 
1120.000000	99.361093 
1119.000000	99.356945 
1118.000000	99.352755 
1117.000000	99.348732 
1116.000000	99.344875 
1115.000000	99.341092 
1114.000000	99.337329 
1113.000000	99.333574 
1112.000000	99.329810 
1111.000000	99.326017 
1110.000000	99.322158 
1109.000000	99.318160 
1108.000000	99.313985 
1107.000000	99.309768 
1106.000000	99.305785 
1105.000000	99.302154 
1104.000000	99.298593 
1103.000000	99.294637 
1102.000000	99.290170 
1101.000000	99.285582 
1100.000000	99.281292 
1099.000000	99.277309 
1098.000000	99.273438 
1097.000000	99.269685 
1096.000000	99.266201 
1095.000000	99.262880 
1094.000000	99.259360 
1093.000000	99.255437 
1092.000000	99.251152 
1091.000000	99.246423 
1090.000000	99.240997 
1089.000000	99.234985 
1088.000000	99.229105 
1087.000000	99.224145 
1086.000000	99.220326 
1085.000000	99.217329 
1084.000000	99.214729 
1083.000000	99.212137 
1082.000000	99.209088 
1081.000000	99.205132 
1080.000000	99.199999 
1079.000000	99.193715 
1078.000000	99.186635 
1077.000000	99.179545 
1076.000000	99.173545 
1075.000000	99.169489 
1074.000000	99.167452 
1073.000000	99.166571 
1072.000000	99.165207 
1071.000000	99.161526 
1070.000000	99.154580 
1069.000000	99.145194 
1068.000000	99.135553 
1067.000000	99.127595 
1066.000000	99.121895 
1065.000000	99.118008 
1064.000000	99.115305 
1063.000000	99.112995 
1062.000000	99.109680 
1061.000000	99.103683 
1060.000000	99.094264 
1059.000000	99.082555 
1058.000000	99.071015 
1057.000000	99.061677 
1056.000000	99.055006 
1055.000000	99.050486 
1054.000000	99.047768 
1053.000000	99.046512 
1052.000000	99.045295 
1051.000000	99.041958 
1050.000000	99.035747 
1049.000000	99.028109 
1048.000000	99.020633 
1047.000000	99.013469 
1046.000000	99.006641 
1045.000000	99.001258 
1044.000000	98.997814 
1043.000000	98.994375 
1042.000000	98.988711 
1041.000000	98.982048 
1040.000000	98.978295 
1039.000000	98.978953 
1038.000000	98.980821 
1037.000000	98.979792 
1036.000000	98.975623 
1035.000000	98.971559 
1034.000000	98.970318 
1033.000000	98.971900 
1032.000000	98.974558 
1031.000000	98.976531 
1030.000000	98.977183 
1029.000000	98.977615 
1028.000000	98.980049 
1027.000000	98.985648 
1026.000000	98.992815 
1025.000000	98.998286 
1024.000000	98.999959 
1023.000000	98.998423 
1022.000000	98.996124 
1021.000000	98.995589 
1020.000000	98.998117 
1019.000000	99.003283 
1018.000000	99.009293 
1017.000000	99.014254 
1016.000000	99.017570 
1015.000000	99.020177 
1014.000000	99.023320 
1013.000000	99.026912 
1012.000000	99.029159 
1011.000000	99.028256 
1010.000000	99.024766 
1009.000000	99.021990 
1008.000000	99.023396 
1007.000000	99.029752 
1006.000000	99.038911 
1005.000000	99.047826 
1004.000000	99.054454 
1003.000000	99.058418 
1002.000000	99.061133 
1001.000000	99.065165 
1000.000000	99.072055 
999.000000	 99.080321 
998.000000	 99.086637 
997.000000	 99.089709 
996.000000	 99.092110 
995.000000	 99.097522 
994.000000	 99.106803 
993.000000	 99.117425 
992.000000	 99.126262 
991.000000	 99.132171 
990.000000	 99.136023 
989.000000	 99.139158 
988.000000	 99.142208 
987.000000	 99.145254 
986.000000	 99.148808 
985.000000	 99.154162 
984.000000	 99.162209 
983.000000	 99.172057 
982.000000	 99.181490 
981.000000	 99.188982 
980.000000	 99.194782 
979.000000	 99.200126 
978.000000	 99.206293 
977.000000	 99.214446 
976.000000	 99.225181 
975.000000	 99.237519 
974.000000	 99.249155 
973.000000	 99.258570 
972.000000	 99.266439 
971.000000	 99.274525 
970.000000	 99.283789 
969.000000	 99.294026 
968.000000	 99.304529 
967.000000	 99.314312 
966.000000	 99.322308 
965.000000	 99.328216 
964.000000	 99.332832 
963.000000	 99.337138 
962.000000	 99.341632 
961.000000	 99.346920 
960.000000	 99.353996 
959.000000	 99.362878 
958.000000	 99.371588 
957.000000	 99.377706 
956.000000	 99.380856 
955.000000	 99.382917 
954.000000	 99.386011 
953.000000	 99.390972 
952.000000	 99.397524 
951.000000	 99.404875 
950.000000	 99.411804 
949.000000	 99.416982 
948.000000	 99.419692 
947.000000	 99.419988 
946.000000	 99.418098 
945.000000	 99.414268 
944.000000	 99.409578 
943.000000	 99.406376 
942.000000	 99.407021 
941.000000	 99.411854 
940.000000	 99.418508 
939.000000	 99.423490 
938.000000	 99.424970 
937.000000	 99.424213 
936.000000	 99.424317 
935.000000	 99.427472 
934.000000	 99.433376 
933.000000	 99.440073 
932.000000	 99.445963 
931.000000	 99.450844 
930.000000	 99.455186 
929.000000	 99.458768 
928.000000	 99.460374 
927.000000	 99.459058 
926.000000	 99.455712 
925.000000	 99.453059 
924.000000	 99.453631 
923.000000	 99.457743 
922.000000	 99.463487 
921.000000	 99.468452 
920.000000	 99.471326 
919.000000	 99.472073 
918.000000	 99.471340 
917.000000	 99.470036 
916.000000	 99.469046 
915.000000	 99.468921 
914.000000	 99.469786 
913.000000	 99.471594 
912.000000	 99.474286 
911.000000	 99.477680 
910.000000	 99.481552 
909.000000	 99.485990 
908.000000	 99.491259 
907.000000	 99.497055 
906.000000	 99.502254 
905.000000	 99.505818 
904.000000	 99.507830 
903.000000	 99.509452 
902.000000	 99.512037 
901.000000	 99.516336 
900.000000	 99.522217 
899.000000	 99.528539 
898.000000	 99.533479 
897.000000	 99.535733 
896.000000	 99.535581 
895.000000	 99.534739 
894.000000	 99.534773 
893.000000	 99.535787 
892.000000	 99.537080 
891.000000	 99.538684 
890.000000	 99.541615 
889.000000	 99.546519 
888.000000	 99.552591 
887.000000	 99.558210 
886.000000	 99.562575 
885.000000	 99.566302 
884.000000	 99.570364 
883.000000	 99.574785 
882.000000	 99.578606 
881.000000	 99.580997 
880.000000	 99.582081 
879.000000	 99.582705 
878.000000	 99.583804 
877.000000	 99.586048 
876.000000	 99.589672 
875.000000	 99.594222 
874.000000	 99.598539 
873.000000	 99.601448 
872.000000	 99.602606 
871.000000	 99.602646 
870.000000	 99.602555 
869.000000	 99.603128 
868.000000	 99.604960 
867.000000	 99.608451 
866.000000	 99.613311 
865.000000	 99.618227 
864.000000	 99.621803 
863.000000	 99.623987 
862.000000	 99.625989 
861.000000	 99.628465 
860.000000	 99.630450 
859.000000	 99.630881 
858.000000	 99.630501 
857.000000	 99.631075 
856.000000	 99.633053 
855.000000	 99.635321 
854.000000	 99.637092 
853.000000	 99.638674 
852.000000	 99.640061 
851.000000	 99.640426 
850.000000	 99.639981 
849.000000	 99.640690 
848.000000	 99.643629 
847.000000	 99.647000 
846.000000	 99.648556 
845.000000	 99.648842 
844.000000	 99.649940 
843.000000	 99.651797 
842.000000	 99.652226 
841.000000	 99.650222 
840.000000	 99.646809 
839.000000	 99.642555 
838.000000	 99.636987 
837.000000	 99.631265 
836.000000	 99.628756 
835.000000	 99.631223 
834.000000	 99.636182 
833.000000	 99.639685 
832.000000	 99.640547 
831.000000	 99.639868 
830.000000	 99.637697 
829.000000	 99.632932 
828.000000	 99.626700 
827.000000	 99.623345 
826.000000	 99.626400 
825.000000	 99.634401 
824.000000	 99.641878 
823.000000	 99.644762 
822.000000	 99.643748 
821.000000	 99.641932 
820.000000	 99.640397 
819.000000	 99.637745 
818.000000	 99.633871 
817.000000	 99.632006 
816.000000	 99.635252 
815.000000	 99.641926 
814.000000	 99.646661 
813.000000	 99.646393 
812.000000	 99.642934 
811.000000	 99.638894 
810.000000	 99.633095 
809.000000	 99.622073 
808.000000	 99.605086 
807.000000	 99.585782 
806.000000	 99.568941 
805.000000	 99.556564 
804.000000	 99.547583 
803.000000	 99.540374 
802.000000	 99.534750 
801.000000	 99.531695 
800.000000	 99.531722 
799.000000	 99.534111 
798.000000	 99.537952 
797.000000	 99.542955 
796.000000	 99.548131 
795.000000	 99.550668 
794.000000	 99.548109 
793.000000	 99.541867 
792.000000	 99.536922 
791.000000	 99.537337 
790.000000	 99.543046 
789.000000	 99.550848 
788.000000	 99.556917 
787.000000	 99.557979 
786.000000	 99.552261 
785.000000	 99.541008 
784.000000	 99.528296 
783.000000	 99.518123 
782.000000	 99.511908 
781.000000	 99.508973 
780.000000	 99.507917 
779.000000	 99.506847 
778.000000	 99.504205 
777.000000	 99.501044 
776.000000	 99.501157 
775.000000	 99.507102 
774.000000	 99.516713 
773.000000	 99.525016 
772.000000	 99.529501 
771.000000	 99.531899 
770.000000	 99.535067 
769.000000	 99.539724 
768.000000	 99.544358 
767.000000	 99.547227 
766.000000	 99.548102 
765.000000	 99.548565 
764.000000	 99.550729 
763.000000	 99.555250 
762.000000	 99.560462 
761.000000	 99.563743 
760.000000	 99.563826 
759.000000	 99.561743 
758.000000	 99.559878 
757.000000	 99.559971 
756.000000	 99.561658 
755.000000	 99.562889 
754.000000	 99.562150 
753.000000	 99.560454 
752.000000	 99.560620 
751.000000	 99.564296 
750.000000	 99.570417 
749.000000	 99.576313 
748.000000	 99.580096 
747.000000	 99.581681 
746.000000	 99.582026 
745.000000	 99.582266 
744.000000	 99.583248 
743.000000	 99.585260 
742.000000	 99.588041 
741.000000	 99.591104 
740.000000	 99.594131 
739.000000	 99.596978 
738.000000	 99.599464 
737.000000	 99.601361 
736.000000	 99.602553 
735.000000	 99.603128 
734.000000	 99.603338 
733.000000	 99.603565 
732.000000	 99.604242 
731.000000	 99.605599 
730.000000	 99.607437 
729.000000	 99.609263 
728.000000	 99.610802 
727.000000	 99.612144 
726.000000	 99.613354 
725.000000	 99.614207 
724.000000	 99.614482 
723.000000	 99.614326 
722.000000	 99.614134 
721.000000	 99.614275 
720.000000	 99.615015 
719.000000	 99.616431 
718.000000	 99.618275 
717.000000	 99.620030 
716.000000	 99.621232 
715.000000	 99.621645 
714.000000	 99.621339 
713.000000	 99.620802 
712.000000	 99.620919 
711.000000	 99.622329 
710.000000	 99.624684 
709.000000	 99.626760 
708.000000	 99.627563 
707.000000	 99.627069 
706.000000	 99.625768 
705.000000	 99.624195 
704.000000	 99.622873 
703.000000	 99.622287 
702.000000	 99.622648 
701.000000	 99.623605 
700.000000	 99.624514 
699.000000	 99.624980 
698.000000	 99.625105 
697.000000	 99.625233 
696.000000	 99.625582 
695.000000	 99.626094 
694.000000	 99.626619 
693.000000	 99.627121 
692.000000	 99.627684 
691.000000	 99.628352 
690.000000	 99.629081 
689.000000	 99.629816 
688.000000	 99.630544 
687.000000	 99.631271 
686.000000	 99.631989 
685.000000	 99.632669 
684.000000	 99.633293 
683.000000	 99.633862 
682.000000	 99.634390 
681.000000	 99.634894 
680.000000	 99.635388 
679.000000	 99.635876 
678.000000	 99.636348 
677.000000	 99.636800 
676.000000	 99.637233 
675.000000	 99.637657 
674.000000	 99.638072 
673.000000	 99.638480 
672.000000	 99.638891 
671.000000	 99.639323 
670.000000	 99.639791 
669.000000	 99.640295 
668.000000	 99.640811 
667.000000	 99.641311 
666.000000	 99.641798 
665.000000	 99.642298 
664.000000	 99.642831 
663.000000	 99.643406 
662.000000	 99.644009 
661.000000	 99.644591 
660.000000	 99.645094 
659.000000	 99.645484 
658.000000	 99.645774 
657.000000	 99.646001 
656.000000	 99.646207 
655.000000	 99.646423 
654.000000	 99.646668 
653.000000	 99.646948 
652.000000	 99.647263 
651.000000	 99.647611 
650.000000	 99.647978 

