4000.000000	99.626311 
3999.000000	99.625856 
3998.000000	99.625536 
3997.000000	99.625718 
3996.000000	99.626334 
3995.000000	99.626946 
3994.000000	99.627249 
3993.000000	99.627300 
3992.000000	99.627264 
3991.000000	99.627117 
3990.000000	99.626651 
3989.000000	99.625743 
3988.000000	99.624559 
3987.000000	99.623514 
3986.000000	99.623024 
3985.000000	99.623264 
3984.000000	99.624063 
3983.000000	99.625041 
3982.000000	99.625901 
3981.000000	99.626590 
3980.000000	99.627170 
3979.000000	99.627638 
3978.000000	99.627909 
3977.000000	99.627905 
3976.000000	99.627578 
3975.000000	99.626910 
3974.000000	99.625960 
3973.000000	99.624903 
3972.000000	99.623981 
3971.000000	99.623407 
3970.000000	99.623313 
3969.000000	99.623682 
3968.000000	99.624291 
3967.000000	99.624759 
3966.000000	99.624762 
3965.000000	99.624252 
3964.000000	99.623481 
3963.000000	99.622858 
3962.000000	99.622650 
3961.000000	99.622787 
3960.000000	99.622897 
3959.000000	99.622623 
3958.000000	99.621959 
3957.000000	99.621241 
3956.000000	99.620824 
3955.000000	99.620753 
3954.000000	99.620784 
3953.000000	99.620647 
3952.000000	99.620250 
3951.000000	99.619677 
3950.000000	99.619071 
3949.000000	99.618525 
3948.000000	99.618072 
3947.000000	99.617726 
3946.000000	99.617481 
3945.000000	99.617285 
3944.000000	99.617057 
3943.000000	99.616752 
3942.000000	99.616420 
3941.000000	99.616139 
3940.000000	99.615919 
3939.000000	99.615702 
3938.000000	99.615450 
3937.000000	99.615164 
3936.000000	99.614862 
3935.000000	99.614552 
3934.000000	99.614246 
3933.000000	99.613974 
3932.000000	99.613765 
3931.000000	99.613629 
3930.000000	99.613538 
3929.000000	99.613440 
3928.000000	99.613285 
3927.000000	99.613043 
3926.000000	99.612722 
3925.000000	99.612400 
3924.000000	99.612211 
3923.000000	99.612223 
3922.000000	99.612272 
3921.000000	99.612108 
3920.000000	99.611726 
3919.000000	99.611358 
3918.000000	99.611140 
3917.000000	99.610995 
3916.000000	99.610886 
3915.000000	99.610924 
3914.000000	99.611156 
3913.000000	99.611409 
3912.000000	99.611459 
3911.000000	99.611179 
3910.000000	99.610674 
3909.000000	99.610188 
3908.000000	99.609967 
3907.000000	99.610085 
3906.000000	99.610376 
3905.000000	99.610556 
3904.000000	99.610475 
3903.000000	99.610291 
3902.000000	99.610223 
3901.000000	99.610185 
3900.000000	99.609927 
3899.000000	99.609420 
3898.000000	99.608878 
3897.000000	99.608460 
3896.000000	99.608145 
3895.000000	99.607942 
3894.000000	99.608096 
3893.000000	99.608706 
3892.000000	99.609398 
3891.000000	99.609677 
3890.000000	99.609807 
3889.000000	99.610309 
3888.000000	99.611009 
3887.000000	99.611312 
3886.000000	99.610908 
3885.000000	99.610102 
3884.000000	99.609661 
3883.000000	99.609712 
3882.000000	99.609552 
3881.000000	99.608706 
3880.000000	99.607447 
3879.000000	99.606603 
3878.000000	99.606758 
3877.000000	99.607592 
3876.000000	99.608375 
3875.000000	99.608634 
3874.000000	99.608411 
3873.000000	99.608192 
3872.000000	99.608045 
3871.000000	99.607247 
3870.000000	99.605467 
3869.000000	99.603939 
3868.000000	99.604262 
3867.000000	99.606006 
3866.000000	99.607336 
3865.000000	99.607637 
3864.000000	99.607656 
3863.000000	99.607913 
3862.000000	99.608159 
3861.000000	99.607938 
3860.000000	99.607243 
3859.000000	99.606003 
3858.000000	99.603998 
3857.000000	99.601396 
3856.000000	99.599357 
3855.000000	99.599259 
3854.000000	99.600237 
3853.000000	99.599763 
3852.000000	99.599662 
3851.000000	99.602614 
3850.000000	99.606660 
3849.000000	99.609356 
3848.000000	99.610683 
3847.000000	99.611431 
3846.000000	99.611969 
3845.000000	99.612310 
3844.000000	99.612477 
3843.000000	99.612566 
3842.000000	99.612710 
3841.000000	99.612799 
3840.000000	99.612659 
3839.000000	99.612264 
3838.000000	99.611743 
3837.000000	99.611225 
3836.000000	99.610862 
3835.000000	99.610676 
3834.000000	99.610582 
3833.000000	99.610601 
3832.000000	99.610881 
3831.000000	99.611521 
3830.000000	99.612427 
3829.000000	99.613232 
3828.000000	99.613493 
3827.000000	99.613067 
3826.000000	99.612362 
3825.000000	99.612012 
3824.000000	99.612231 
3823.000000	99.612660 
3822.000000	99.612759 
3821.000000	99.612250 
3820.000000	99.611728 
3819.000000	99.611899 
3818.000000	99.612385 
3817.000000	99.612513 
3816.000000	99.612208 
3815.000000	99.611940 
3814.000000	99.612109 
3813.000000	99.612465 
3812.000000	99.612518 
3811.000000	99.612234 
3810.000000	99.611972 
3809.000000	99.612046 
3808.000000	99.612390 
3807.000000	99.612589 
3806.000000	99.612551 
3805.000000	99.612660 
3804.000000	99.612879 
3803.000000	99.612714 
3802.000000	99.611894 
3801.000000	99.610571 
3800.000000	99.609758 
3799.000000	99.610061 
3798.000000	99.610524 
3797.000000	99.610360 
3796.000000	99.610040 
3795.000000	99.610391 
3794.000000	99.611456 
3793.000000	99.612553 
3792.000000	99.613267 
3791.000000	99.613787 
3790.000000	99.614225 
3789.000000	99.614513 
3788.000000	99.614934 
3787.000000	99.616116 
3786.000000	99.618162 
3785.000000	99.620346 
3784.000000	99.622087 
3783.000000	99.623539 
3782.000000	99.624844 
3781.000000	99.625410 
3780.000000	99.624434 
3779.000000	99.621803 
3778.000000	99.618679 
3777.000000	99.616227 
3776.000000	99.614402 
3775.000000	99.612831 
3774.000000	99.611990 
3773.000000	99.612469 
3772.000000	99.613744 
3771.000000	99.614334 
3770.000000	99.613482 
3769.000000	99.612296 
3768.000000	99.612391 
3767.000000	99.613509 
3766.000000	99.614102 
3765.000000	99.613725 
3764.000000	99.613602 
3763.000000	99.614728 
3762.000000	99.616420 
3761.000000	99.617566 
3760.000000	99.618026 
3759.000000	99.617905 
3758.000000	99.617145 
3757.000000	99.615868 
3756.000000	99.614506 
3755.000000	99.613197 
3754.000000	99.611850 
3753.000000	99.610896 
3752.000000	99.610648 
3751.000000	99.609613 
3750.000000	99.606146 
3749.000000	99.601902 
3748.000000	99.599679 
3747.000000	99.599551 
3746.000000	99.599978 
3745.000000	99.599693 
3744.000000	99.598168 
3743.000000	99.597913 
3742.000000	99.600213 
3741.000000	99.601507 
3740.000000	99.599932 
3739.000000	99.597574 
3738.000000	99.596696 
3737.000000	99.597350 
3736.000000	99.598391 
3735.000000	99.599446 
3734.000000	99.600697 
3733.000000	99.601638 
3732.000000	99.601891 
3731.000000	99.602417 
3730.000000	99.603961 
3729.000000	99.605577 
3728.000000	99.606024 
3727.000000	99.605664 
3726.000000	99.605924 
3725.000000	99.607372 
3724.000000	99.608857 
3723.000000	99.609086 
3722.000000	99.608252 
3721.000000	99.607579 
3720.000000	99.607833 
3719.000000	99.608441 
3718.000000	99.608292 
3717.000000	99.606890 
3716.000000	99.604579 
3715.000000	99.601979 
3714.000000	99.599666 
3713.000000	99.598282 
3712.000000	99.598114 
3711.000000	99.598905 
3710.000000	99.600360 
3709.000000	99.601996 
3708.000000	99.603097 
3707.000000	99.603315 
3706.000000	99.602937 
3705.000000	99.602454 
3704.000000	99.602134 
3703.000000	99.601942 
3702.000000	99.601706 
3701.000000	99.601411 
3700.000000	99.601250 
3699.000000	99.601222 
3698.000000	99.601030 
3697.000000	99.600545 
3696.000000	99.599979 
3695.000000	99.599577 
3694.000000	99.599347 
3693.000000	99.599152 
3692.000000	99.598878 
3691.000000	99.598471 
3690.000000	99.597933 
3689.000000	99.597336 
3688.000000	99.596793 
3687.000000	99.596335 
3686.000000	99.595905 
3685.000000	99.595457 
3684.000000	99.594985 
3683.000000	99.594506 
3682.000000	99.594030 
3681.000000	99.593562 
3680.000000	99.593109 
3679.000000	99.592678 
3678.000000	99.592275 
3677.000000	99.591905 
3676.000000	99.591568 
3675.000000	99.591265 
3674.000000	99.590998 
3673.000000	99.590762 
3672.000000	99.590542 
3671.000000	99.590321 
3670.000000	99.590088 
3669.000000	99.589838 
3668.000000	99.589573 
3667.000000	99.589298 
3666.000000	99.589008 
3665.000000	99.588706 
3664.000000	99.588404 
3663.000000	99.588112 
3662.000000	99.587829 
3661.000000	99.587541 
3660.000000	99.587237 
3659.000000	99.586919 
3658.000000	99.586590 
3657.000000	99.586249 
3656.000000	99.585896 
3655.000000	99.585590 
3654.000000	99.585393 
3653.000000	99.585276 
3652.000000	99.585163 
3651.000000	99.584983 
3650.000000	99.584622 
3649.000000	99.583937 
3648.000000	99.583019 
3647.000000	99.582244 
3646.000000	99.581864 
3645.000000	99.581840 
3644.000000	99.581940 
3643.000000	99.581978 
3642.000000	99.581933 
3641.000000	99.581861 
3640.000000	99.581821 
3639.000000	99.581896 
3638.000000	99.582218 
3637.000000	99.582830 
3636.000000	99.583411 
3635.000000	99.583372 
3634.000000	99.582437 
3633.000000	99.580983 
3632.000000	99.579708 
3631.000000	99.579069 
3630.000000	99.579031 
3629.000000	99.578809 
3628.000000	99.577859 
3627.000000	99.577060 
3626.000000	99.576950 
3625.000000	99.577052 
3624.000000	99.577070 
3623.000000	99.577009 
3622.000000	99.576810 
3621.000000	99.576422 
3620.000000	99.575999 
3619.000000	99.575789 
3618.000000	99.576057 
3617.000000	99.576903 
3616.000000	99.577904 
3615.000000	99.578396 
3614.000000	99.578036 
3613.000000	99.576993 
3612.000000	99.575805 
3611.000000	99.574965 
3610.000000	99.574602 
3609.000000	99.574617 
3608.000000	99.574832 
3607.000000	99.575170 
3606.000000	99.575730 
3605.000000	99.576588 
3604.000000	99.577726 
3603.000000	99.578943 
3602.000000	99.579852 
3601.000000	99.580258 
3600.000000	99.580434 
3599.000000	99.580800 
3598.000000	99.581333 
3597.000000	99.581680 
3596.000000	99.581591 
3595.000000	99.581189 
3594.000000	99.580850 
3593.000000	99.580969 
3592.000000	99.581683 
3591.000000	99.582822 
3590.000000	99.583991 
3589.000000	99.584675 
3588.000000	99.584447 
3587.000000	99.583431 
3586.000000	99.582407 
3585.000000	99.582009 
3584.000000	99.582171 
3583.000000	99.582557 
3582.000000	99.582887 
3581.000000	99.583034 
3580.000000	99.582999 
3579.000000	99.582866 
3578.000000	99.582703 
3577.000000	99.582550 
3576.000000	99.582464 
3575.000000	99.582514 
3574.000000	99.582702 
3573.000000	99.582939 
3572.000000	99.583102 
3571.000000	99.583119 
3570.000000	99.582999 
3569.000000	99.582798 
3568.000000	99.582589 
3567.000000	99.582445 
3566.000000	99.582426 
3565.000000	99.582520 
3564.000000	99.582622 
3563.000000	99.582637 
3562.000000	99.582570 
3561.000000	99.582486 
3560.000000	99.582427 
3559.000000	99.582377 
3558.000000	99.582292 
3557.000000	99.582167 
3556.000000	99.582050 
3555.000000	99.582002 
3554.000000	99.582032 
3553.000000	99.582090 
3552.000000	99.582118 
3551.000000	99.582101 
3550.000000	99.582030 
3549.000000	99.581860 
3548.000000	99.581564 
3547.000000	99.581204 
3546.000000	99.580912 
3545.000000	99.580819 
3544.000000	99.580988 
3543.000000	99.581355 
3542.000000	99.581782 
3541.000000	99.582114 
3540.000000	99.582302 
3539.000000	99.582418 
3538.000000	99.582528 
3537.000000	99.582600 
3536.000000	99.582552 
3535.000000	99.582377 
3534.000000	99.582157 
3533.000000	99.581994 
3532.000000	99.581935 
3531.000000	99.581967 
3530.000000	99.582034 
3529.000000	99.582080 
3528.000000	99.582098 
3527.000000	99.582127 
3526.000000	99.582186 
3525.000000	99.582238 
3524.000000	99.582233 
3523.000000	99.582161 
3522.000000	99.582065 
3521.000000	99.581982 
3520.000000	99.581912 
3519.000000	99.581845 
3518.000000	99.581789 
3517.000000	99.581772 
3516.000000	99.581808 
3515.000000	99.581894 
3514.000000	99.582016 
3513.000000	99.582145 
3512.000000	99.582225 
3511.000000	99.582208 
3510.000000	99.582102 
3509.000000	99.581969 
3508.000000	99.581868 
3507.000000	99.581796 
3506.000000	99.581707 
3505.000000	99.581575 
3504.000000	99.581412 
3503.000000	99.581246 
3502.000000	99.581100 
3501.000000	99.580969 
3500.000000	99.580845 
3499.000000	99.580710 
3498.000000	99.580548 
3497.000000	99.580356 
3496.000000	99.580144 
3495.000000	99.579942 
3494.000000	99.579770 
3493.000000	99.579613 
3492.000000	99.579436 
3491.000000	99.579221 
3490.000000	99.579003 
3489.000000	99.578837 
3488.000000	99.578743 
3487.000000	99.578693 
3486.000000	99.578642 
3485.000000	99.578574 
3484.000000	99.578508 
3483.000000	99.578469 
3482.000000	99.578431 
3481.000000	99.578313 
3480.000000	99.578044 
3479.000000	99.577659 
3478.000000	99.577306 
3477.000000	99.577104 
3476.000000	99.576985 
3475.000000	99.576735 
3474.000000	99.576237 
3473.000000	99.575640 
3472.000000	99.575220 
3471.000000	99.575097 
3470.000000	99.575155 
3469.000000	99.575233 
3468.000000	99.575276 
3467.000000	99.575267 
3466.000000	99.575103 
3465.000000	99.574640 
3464.000000	99.573838 
3463.000000	99.572789 
3462.000000	99.571624 
3461.000000	99.570448 
3460.000000	99.569341 
3459.000000	99.568448 
3458.000000	99.567953 
3457.000000	99.567882 
3456.000000	99.568035 
3455.000000	99.568105 
3454.000000	99.567981 
3453.000000	99.567963 
3452.000000	99.568436 
3451.000000	99.569378 
3450.000000	99.570312 
3449.000000	99.570717 
3448.000000	99.570418 
3447.000000	99.569601 
3446.000000	99.568610 
3445.000000	99.567771 
3444.000000	99.567264 
3443.000000	99.567038 
3442.000000	99.566852 
3441.000000	99.566503 
3440.000000	99.566037 
3439.000000	99.565639 
3438.000000	99.565360 
3437.000000	99.565035 
3436.000000	99.564527 
3435.000000	99.563948 
3434.000000	99.563572 
3433.000000	99.563555 
3432.000000	99.563790 
3431.000000	99.564000 
3430.000000	99.563956 
3429.000000	99.563615 
3428.000000	99.563093 
3427.000000	99.562557 
3426.000000	99.562118 
3425.000000	99.561816 
3424.000000	99.561660 
3423.000000	99.561623 
3422.000000	99.561622 
3421.000000	99.561533 
3420.000000	99.561278 
3419.000000	99.560889 
3418.000000	99.560508 
3417.000000	99.560291 
3416.000000	99.560278 
3415.000000	99.560383 
3414.000000	99.560467 
3413.000000	99.560441 
3412.000000	99.560317 
3411.000000	99.560159 
3410.000000	99.560040 
3409.000000	99.560012 
3408.000000	99.560074 
3407.000000	99.560155 
3406.000000	99.560150 
3405.000000	99.560012 
3404.000000	99.559821 
3403.000000	99.559727 
3402.000000	99.559815 
3401.000000	99.560043 
3400.000000	99.560287 
3399.000000	99.560450 
3398.000000	99.560518 
3397.000000	99.560549 
3396.000000	99.560614 
3395.000000	99.560719 
3394.000000	99.560803 
3393.000000	99.560815 
3392.000000	99.560780 
3391.000000	99.560741 
3390.000000	99.560686 
3389.000000	99.560586 
3388.000000	99.560475 
3387.000000	99.560425 
3386.000000	99.560449 
3385.000000	99.560471 
3384.000000	99.560418 
3383.000000	99.560319 
3382.000000	99.560281 
3381.000000	99.560367 
3380.000000	99.560511 
3379.000000	99.560576 
3378.000000	99.560480 
3377.000000	99.560301 
3376.000000	99.560233 
3375.000000	99.560415 
3374.000000	99.560832 
3373.000000	99.561307 
3372.000000	99.561625 
3371.000000	99.561676 
3370.000000	99.561492 
3369.000000	99.561231 
3368.000000	99.561075 
3367.000000	99.561092 
3366.000000	99.561180 
3365.000000	99.561164 
3364.000000	99.560987 
3363.000000	99.560777 
3362.000000	99.560696 
3361.000000	99.560744 
3360.000000	99.560778 
3359.000000	99.560677 
3358.000000	99.560474 
3357.000000	99.560325 
3356.000000	99.560387 
3355.000000	99.560671 
3354.000000	99.561005 
3353.000000	99.561165 
3352.000000	99.561096 
3351.000000	99.560996 
3350.000000	99.561158 
3349.000000	99.561721 
3348.000000	99.562585 
3347.000000	99.563467 
3346.000000	99.564069 
3345.000000	99.564234 
3344.000000	99.564007 
3343.000000	99.563563 
3342.000000	99.563047 
3341.000000	99.562534 
3340.000000	99.562139 
3339.000000	99.562028 
3338.000000	99.562237 
3337.000000	99.562538 
3336.000000	99.562630 
3335.000000	99.562488 
3334.000000	99.562414 
3333.000000	99.562680 
3332.000000	99.563236 
3331.000000	99.563780 
3330.000000	99.564081 
3329.000000	99.564175 
3328.000000	99.564274 
3327.000000	99.564530 
3326.000000	99.564897 
3325.000000	99.565212 
3324.000000	99.565393 
3323.000000	99.565524 
3322.000000	99.565739 
3321.000000	99.566034 
3320.000000	99.566272 
3319.000000	99.566346 
3318.000000	99.566302 
3317.000000	99.566282 
3316.000000	99.566378 
3315.000000	99.566571 
3314.000000	99.566767 
3313.000000	99.566899 
3312.000000	99.566968 
3311.000000	99.567016 
3310.000000	99.567078 
3309.000000	99.567150 
3308.000000	99.567195 
3307.000000	99.567182 
3306.000000	99.567133 
3305.000000	99.567107 
3304.000000	99.567128 
3303.000000	99.567175 
3302.000000	99.567238 
3301.000000	99.567368 
3300.000000	99.567630 
3299.000000	99.567992 
3298.000000	99.568276 
3297.000000	99.568277 
3296.000000	99.567962 
3295.000000	99.567572 
3294.000000	99.567500 
3293.000000	99.568005 
3292.000000	99.568990 
3291.000000	99.570007 
3290.000000	99.570574 
3289.000000	99.570513 
3288.000000	99.570002 
3287.000000	99.569397 
3286.000000	99.569011 
3285.000000	99.568999 
3284.000000	99.569327 
3283.000000	99.569754 
3282.000000	99.569916 
3281.000000	99.569521 
3280.000000	99.568559 
3279.000000	99.567356 
3278.000000	99.566392 
3277.000000	99.566040 
3276.000000	99.566372 
3275.000000	99.567107 
3274.000000	99.567781 
3273.000000	99.567989 
3272.000000	99.567535 
3271.000000	99.566467 
3270.000000	99.565080 
3269.000000	99.563881 
3268.000000	99.563415 
3267.000000	99.564009 
3266.000000	99.565577 
3265.000000	99.567636 
3264.000000	99.569574 
3263.000000	99.570984 
3262.000000	99.571828 
3261.000000	99.572318 
3260.000000	99.572622 
3259.000000	99.572684 
3258.000000	99.572369 
3257.000000	99.571716 
3256.000000	99.570983 
3255.000000	99.570449 
3254.000000	99.570262 
3253.000000	99.570448 
3252.000000	99.570950 
3251.000000	99.571585 
3250.000000	99.572094 
3249.000000	99.572332 
3248.000000	99.572382 
3247.000000	99.572429 
3246.000000	99.572546 
3245.000000	99.572653 
3244.000000	99.572682 
3243.000000	99.572723 
3242.000000	99.572992 
3241.000000	99.573654 
3240.000000	99.574628 
3239.000000	99.575507 
3238.000000	99.575807 
3237.000000	99.575361 
3236.000000	99.574468 
3235.000000	99.573703 
3234.000000	99.573464 
3233.000000	99.573773 
3232.000000	99.574443 
3231.000000	99.575281 
3230.000000	99.576124 
3229.000000	99.576773 
3228.000000	99.577009 
3227.000000	99.576723 
3226.000000	99.575993 
3225.000000	99.575105 
3224.000000	99.574476 
3223.000000	99.574420 
3222.000000	99.574939 
3221.000000	99.575707 
3220.000000	99.576383 
3219.000000	99.576890 
3218.000000	99.577299 
3217.000000	99.577550 
3216.000000	99.577460 
3215.000000	99.577012 
3214.000000	99.576485 
3213.000000	99.576228 
3212.000000	99.576397 
3211.000000	99.576964 
3210.000000	99.577827 
3209.000000	99.578801 
3208.000000	99.579616 
3207.000000	99.580090 
3206.000000	99.580323 
3205.000000	99.580619 
3204.000000	99.581238 
3203.000000	99.582224 
3202.000000	99.583453 
3201.000000	99.584774 
3200.000000	99.586089 
3199.000000	99.587260 
3198.000000	99.588025 
3197.000000	99.588180 
3196.000000	99.587914 
3195.000000	99.587721 
3194.000000	99.587730 
3193.000000	99.587294 
3192.000000	99.585701 
3191.000000	99.583316 
3190.000000	99.581546 
3189.000000	99.581449 
3188.000000	99.582806 
3187.000000	99.584608 
3186.000000	99.586047 
3185.000000	99.586775 
3184.000000	99.586613 
3183.000000	99.585559 
3182.000000	99.584027 
3181.000000	99.582663 
3180.000000	99.581814 
3179.000000	99.581358 
3178.000000	99.580966 
3177.000000	99.580280 
3176.000000	99.579001 
3175.000000	99.577283 
3174.000000	99.576056 
3173.000000	99.576448 
3172.000000	99.578603 
3171.000000	99.581296 
3170.000000	99.582999 
3169.000000	99.583402 
3168.000000	99.583582 
3167.000000	99.584725 
3166.000000	99.586948 
3165.000000	99.589334 
3164.000000	99.590954 
3163.000000	99.591692 
3162.000000	99.592119 
3161.000000	99.592764 
3160.000000	99.593611 
3159.000000	99.594243 
3158.000000	99.594319 
3157.000000	99.593821 
3156.000000	99.592922 
3155.000000	99.591777 
3154.000000	99.590525 
3153.000000	99.589469 
3152.000000	99.589081 
3151.000000	99.589609 
3150.000000	99.590648 
3149.000000	99.591339 
3148.000000	99.591227 
3147.000000	99.590781 
3146.000000	99.590799 
3145.000000	99.591383 
3144.000000	99.591841 
3143.000000	99.591667 
3142.000000	99.591232 
3141.000000	99.591290 
3140.000000	99.592040 
3139.000000	99.592977 
3138.000000	99.593571 
3137.000000	99.593778 
3136.000000	99.593830 
3135.000000	99.593791 
3134.000000	99.593524 
3133.000000	99.593001 
3132.000000	99.592440 
3131.000000	99.592100 
3130.000000	99.592040 
3129.000000	99.592095 
3128.000000	99.592066 
3127.000000	99.591904 
3126.000000	99.591715 
3125.000000	99.591601 
3124.000000	99.591543 
3123.000000	99.591453 
3122.000000	99.591294 
3121.000000	99.591122 
3120.000000	99.591031 
3119.000000	99.591048 
3118.000000	99.591120 
3117.000000	99.591153 
3116.000000	99.591104 
3115.000000	99.590998 
3114.000000	99.590893 
3113.000000	99.590821 
3112.000000	99.590762 
3111.000000	99.590693 
3110.000000	99.590640 
3109.000000	99.590656 
3108.000000	99.590742 
3107.000000	99.590831 
3106.000000	99.590850 
3105.000000	99.590795 
3104.000000	99.590717 
3103.000000	99.590682 
3102.000000	99.590731 
3101.000000	99.590873 
3100.000000	99.591075 
3099.000000	99.591263 
3098.000000	99.591374 
3097.000000	99.591406 
3096.000000	99.591418 
3095.000000	99.591484 
3094.000000	99.591623 
3093.000000	99.591796 
3092.000000	99.591939 
3091.000000	99.592008 
3090.000000	99.591999 
3089.000000	99.591956 
3088.000000	99.591956 
3087.000000	99.592065 
3086.000000	99.592279 
3085.000000	99.592499 
3084.000000	99.592601 
3083.000000	99.592543 
3082.000000	99.592403 
3081.000000	99.592300 
3080.000000	99.592285 
3079.000000	99.592317 
3078.000000	99.592319 
3077.000000	99.592238 
3076.000000	99.592087 
3075.000000	99.591967 
3074.000000	99.592013 
3073.000000	99.592289 
3072.000000	99.592740 
3071.000000	99.593259 
3070.000000	99.593775 
3069.000000	99.594201 
3068.000000	99.594354 
3067.000000	99.594062 
3066.000000	99.593373 
3065.000000	99.592618 
3064.000000	99.592144 
3063.000000	99.592034 
3062.000000	99.592114 
3061.000000	99.592199 
3060.000000	99.592257 
3059.000000	99.592344 
3058.000000	99.592469 
3057.000000	99.592582 
3056.000000	99.592651 
3055.000000	99.592713 
3054.000000	99.592842 
3053.000000	99.593076 
3052.000000	99.593372 
3051.000000	99.593649 
3050.000000	99.593871 
3049.000000	99.594007 
3048.000000	99.593907 
3047.000000	99.593326 
3046.000000	99.592200 
3045.000000	99.590912 
3044.000000	99.590099 
3043.000000	99.590056 
3042.000000	99.590518 
3041.000000	99.590938 
3040.000000	99.591009 
3039.000000	99.590857 
3038.000000	99.590789 
3037.000000	99.590981 
3036.000000	99.591399 
3035.000000	99.591858 
3034.000000	99.592145 
3033.000000	99.592143 
3032.000000	99.591884 
3031.000000	99.591484 
3030.000000	99.591033 
3029.000000	99.590534 
3028.000000	99.589975 
3027.000000	99.589421 
3026.000000	99.588998 
3025.000000	99.588774 
3024.000000	99.588655 
3023.000000	99.588426 
3022.000000	99.587922 
3021.000000	99.587182 
3020.000000	99.586433 
3019.000000	99.585905 
3018.000000	99.585671 
3017.000000	99.585635 
3016.000000	99.585620 
3015.000000	99.585461 
3014.000000	99.585082 
3013.000000	99.584498 
3012.000000	99.583785 
3011.000000	99.583014 
3010.000000	99.582216 
3009.000000	99.581413 
3008.000000	99.580653 
3007.000000	99.580002 
3006.000000	99.579490 
3005.000000	99.579073 
3004.000000	99.578622 
3003.000000	99.578002 
3002.000000	99.577175 
3001.000000	99.576217 
3000.000000	99.575285 
2999.000000	99.574486 
2998.000000	99.573823 
2997.000000	99.573222 
2996.000000	99.572616 
2995.000000	99.571991 
2994.000000	99.571339 
2993.000000	99.570601 
2992.000000	99.569729 
2991.000000	99.568754 
2990.000000	99.567777 
2989.000000	99.566889 
2988.000000	99.566096 
2987.000000	99.565310 
2986.000000	99.564440 
2985.000000	99.563529 
2984.000000	99.562749 
2983.000000	99.562217 
2982.000000	99.561836 
2981.000000	99.561352 
2980.000000	99.560616 
2979.000000	99.559734 
2978.000000	99.558953 
2977.000000	99.558431 
2976.000000	99.558130 
2975.000000	99.557836 
2974.000000	99.557247 
2973.000000	99.556110 
2972.000000	99.554413 
2971.000000	99.552434 
2970.000000	99.550541 
2969.000000	99.548936 
2968.000000	99.547623 
2967.000000	99.546561 
2966.000000	99.545739 
2965.000000	99.545079 
2964.000000	99.544479 
2963.000000	99.544056 
2962.000000	99.544128 
2961.000000	99.544676 
2960.000000	99.545011 
2959.000000	99.544366 
2958.000000	99.542836 
2957.000000	99.541338 
2956.000000	99.540422 
2955.000000	99.539443 
2954.000000	99.537373 
2953.000000	99.534463 
2952.000000	99.532686 
2951.000000	99.534043 
2950.000000	99.538341 
2949.000000	99.542831 
2948.000000	99.544490 
2947.000000	99.542648 
2946.000000	99.539269 
2945.000000	99.536810 
2944.000000	99.536019 
2943.000000	99.535916 
2942.000000	99.535343 
2941.000000	99.533906 
2940.000000	99.531597 
2939.000000	99.528226 
2938.000000	99.523573 
2937.000000	99.517913 
2936.000000	99.512211 
2935.000000	99.507801 
2934.000000	99.505690 
2933.000000	99.505717 
2932.000000	99.506286 
2931.000000	99.505351 
2930.000000	99.501990 
2929.000000	99.496939 
2928.000000	99.491685 
2927.000000	99.487459 
2926.000000	99.485141 
2925.000000	99.485346 
2924.000000	99.487968 
2923.000000	99.491913 
2922.000000	99.495852 
2921.000000	99.499158 
2920.000000	99.501746 
2919.000000	99.503418 
2918.000000	99.504107 
2917.000000	99.504661 
2916.000000	99.506658 
2915.000000	99.511161 
2914.000000	99.517893 
2913.000000	99.525502 
2912.000000	99.532290 
2911.000000	99.536869 
2910.000000	99.538813 
2909.000000	99.538987 
2908.000000	99.538791 
2907.000000	99.538864 
2906.000000	99.538920 
2905.000000	99.538874 
2904.000000	99.539321 
2903.000000	99.540450 
2902.000000	99.541350 
2901.000000	99.541153 
2900.000000	99.540392 
2899.000000	99.540341 
2898.000000	99.541133 
2897.000000	99.541739 
2896.000000	99.541811 
2895.000000	99.542553 
2894.000000	99.545195 
2893.000000	99.549187 
2892.000000	99.552592 
2891.000000	99.554069 
2890.000000	99.553965 
2889.000000	99.553621 
2888.000000	99.554111 
2887.000000	99.555617 
2886.000000	99.557554 
2885.000000	99.559026 
2884.000000	99.559393 
2883.000000	99.558730 
2882.000000	99.557798 
2881.000000	99.557462 
2880.000000	99.558135 
2879.000000	99.559709 
2878.000000	99.561873 
2877.000000	99.564281 
2876.000000	99.566424 
2875.000000	99.567603 
2874.000000	99.567329 
2873.000000	99.565848 
2872.000000	99.564210 
2871.000000	99.563601 
2870.000000	99.564492 
2869.000000	99.566394 
2868.000000	99.568368 
2867.000000	99.569795 
2866.000000	99.570769 
2865.000000	99.571819 
2864.000000	99.573237 
2863.000000	99.574538 
2862.000000	99.574603 
2861.000000	99.572550 
2860.000000	99.568691 
2859.000000	99.564663 
2858.000000	99.562254 
2857.000000	99.561932 
2856.000000	99.562623 
2855.000000	99.562958 
2854.000000	99.562728 
2853.000000	99.562862 
2852.000000	99.564152 
2851.000000	99.566427 
2850.000000	99.569020 
2849.000000	99.571639 
2848.000000	99.574431 
2847.000000	99.577404 
2846.000000	99.580130 
2845.000000	99.582012 
2844.000000	99.582723 
2843.000000	99.582501 
2842.000000	99.582247 
2841.000000	99.583133 
2840.000000	99.585678 
2839.000000	99.589067 
2838.000000	99.591633 
2837.000000	99.592264 
2836.000000	99.591215 
2835.000000	99.589704 
2834.000000	99.588973 
2833.000000	99.589675 
2832.000000	99.591773 
2831.000000	99.594597 
2830.000000	99.597191 
2829.000000	99.598991 
2828.000000	99.600173 
2827.000000	99.601187 
2826.000000	99.602061 
2825.000000	99.602371 
2824.000000	99.601881 
2823.000000	99.600999 
2822.000000	99.600549 
2821.000000	99.601170 
2820.000000	99.602846 
2819.000000	99.604886 
2818.000000	99.606433 
2817.000000	99.607188 
2816.000000	99.607524 
2815.000000	99.607875 
2814.000000	99.608206 
2813.000000	99.608228 
2812.000000	99.607878 
2811.000000	99.607330 
2810.000000	99.606687 
2809.000000	99.605965 
2808.000000	99.605366 
2807.000000	99.605266 
2806.000000	99.605842 
2805.000000	99.606872 
2804.000000	99.607993 
2803.000000	99.608992 
2802.000000	99.609797 
2801.000000	99.610307 
2800.000000	99.610386 
2799.000000	99.610013 
2798.000000	99.609384 
2797.000000	99.608888 
2796.000000	99.608882 
2795.000000	99.609404 
2794.000000	99.610075 
2793.000000	99.610406 
2792.000000	99.610221 
2791.000000	99.609718 
2790.000000	99.609233 
2789.000000	99.609066 
2788.000000	99.609443 
2787.000000	99.610376 
2786.000000	99.611510 
2785.000000	99.612332 
2784.000000	99.612675 
2783.000000	99.612801 
2782.000000	99.612961 
2781.000000	99.613076 
2780.000000	99.612976 
2779.000000	99.612805 
2778.000000	99.612921 
2777.000000	99.613450 
2776.000000	99.614156 
2775.000000	99.614722 
2774.000000	99.614995 
2773.000000	99.615000 
2772.000000	99.614881 
2771.000000	99.614850 
2770.000000	99.615063 
2769.000000	99.615552 
2768.000000	99.616330 
2767.000000	99.617442 
2766.000000	99.618716 
2765.000000	99.619605 
2764.000000	99.619600 
2763.000000	99.618838 
2762.000000	99.618078 
2761.000000	99.617963 
2760.000000	99.618508 
2759.000000	99.619368 
2758.000000	99.620264 
2757.000000	99.621022 
2756.000000	99.621521 
2755.000000	99.621841 
2754.000000	99.622216 
2753.000000	99.622619 
2752.000000	99.622663 
2751.000000	99.622140 
2750.000000	99.621393 
2749.000000	99.620863 
2748.000000	99.620421 
2747.000000	99.619569 
2746.000000	99.618216 
2745.000000	99.616923 
2744.000000	99.616351 
2743.000000	99.616693 
2742.000000	99.617676 
2741.000000	99.618810 
2740.000000	99.619667 
2739.000000	99.620111 
2738.000000	99.620346 
2737.000000	99.620679 
2736.000000	99.621151 
2735.000000	99.621478 
2734.000000	99.621356 
2733.000000	99.620738 
2732.000000	99.619811 
2731.000000	99.618829 
2730.000000	99.618023 
2729.000000	99.617604 
2728.000000	99.617740 
2727.000000	99.618453 
2726.000000	99.619492 
2725.000000	99.620391 
2724.000000	99.620785 
2723.000000	99.620745 
2722.000000	99.620701 
2721.000000	99.620964 
2720.000000	99.621401 
2719.000000	99.621654 
2718.000000	99.621573 
2717.000000	99.621288 
2716.000000	99.620986 
2715.000000	99.620799 
2714.000000	99.620879 
2713.000000	99.621319 
2712.000000	99.621918 
2711.000000	99.622226 
2710.000000	99.621999 
2709.000000	99.621461 
2708.000000	99.621084 
2707.000000	99.621075 
2706.000000	99.621214 
2705.000000	99.621187 
2704.000000	99.620940 
2703.000000	99.620669 
2702.000000	99.620545 
2701.000000	99.620553 
2700.000000	99.620571 
2699.000000	99.620500 
2698.000000	99.620311 
2697.000000	99.620030 
2696.000000	99.619709 
2695.000000	99.619430 
2694.000000	99.619285 
2693.000000	99.619309 
2692.000000	99.619426 
2691.000000	99.619491 
2690.000000	99.619437 
2689.000000	99.619378 
2688.000000	99.619501 
2687.000000	99.619853 
2686.000000	99.620236 
2685.000000	99.620350 
2684.000000	99.620068 
2683.000000	99.619557 
2682.000000	99.619146 
2681.000000	99.619053 
2680.000000	99.619242 
2679.000000	99.619512 
2678.000000	99.619669 
2677.000000	99.619638 
2676.000000	99.619460 
2675.000000	99.619233 
2674.000000	99.619057 
2673.000000	99.618968 
2672.000000	99.618894 
2671.000000	99.618697 
2670.000000	99.618290 
2669.000000	99.617699 
2668.000000	99.617051 
2667.000000	99.616544 
2666.000000	99.616343 
2665.000000	99.616484 
2664.000000	99.616838 
2663.000000	99.617200 
2662.000000	99.617470 
2661.000000	99.617661 
2660.000000	99.617772 
2659.000000	99.617709 
2658.000000	99.617402 
2657.000000	99.616923 
2656.000000	99.616474 
2655.000000	99.616232 
2654.000000	99.616229 
2653.000000	99.616359 
2652.000000	99.616465 
2651.000000	99.616454 
2650.000000	99.616351 
2649.000000	99.616269 
2648.000000	99.616287 
2647.000000	99.616391 
2646.000000	99.616515 
2645.000000	99.616650 
2644.000000	99.616839 
2643.000000	99.617078 
2642.000000	99.617287 
2641.000000	99.617418 
2640.000000	99.617548 
2639.000000	99.617803 
2638.000000	99.618217 
2637.000000	99.618685 
2636.000000	99.619040 
2635.000000	99.619184 
2634.000000	99.619143 
2633.000000	99.619078 
2632.000000	99.619189 
2631.000000	99.619534 
2630.000000	99.619982 
2629.000000	99.620304 
2628.000000	99.620391 
2627.000000	99.620317 
2626.000000	99.620272 
2625.000000	99.620384 
2624.000000	99.620663 
2623.000000	99.621009 
2622.000000	99.621261 
2621.000000	99.621325 
2620.000000	99.621284 
2619.000000	99.621340 
2618.000000	99.621577 
2617.000000	99.621878 
2616.000000	99.622090 
2615.000000	99.622201 
2614.000000	99.622303 
2613.000000	99.622473 
2612.000000	99.622767 
2611.000000	99.623237 
2610.000000	99.623854 
2609.000000	99.624447 
2608.000000	99.624833 
2607.000000	99.624993 
2606.000000	99.625052 
2605.000000	99.625122 
2604.000000	99.625199 
2603.000000	99.625179 
2602.000000	99.624943 
2601.000000	99.624494 
2600.000000	99.624021 
2599.000000	99.623759 
2598.000000	99.623750 
2597.000000	99.623806 
2596.000000	99.623719 
2595.000000	99.623426 
2594.000000	99.622969 
2593.000000	99.622414 
2592.000000	99.621896 
2591.000000	99.621607 
2590.000000	99.621623 
2589.000000	99.621826 
2588.000000	99.622006 
2587.000000	99.622030 
2586.000000	99.621858 
2585.000000	99.621468 
2584.000000	99.620897 
2583.000000	99.620286 
2582.000000	99.619828 
2581.000000	99.619589 
2580.000000	99.619490 
2579.000000	99.619395 
2578.000000	99.619238 
2577.000000	99.619042 
2576.000000	99.618852 
2575.000000	99.618693 
2574.000000	99.618558 
2573.000000	99.618418 
2572.000000	99.618233 
2571.000000	99.617988 
2570.000000	99.617699 
2569.000000	99.617406 
2568.000000	99.617146 
2567.000000	99.616943 
2566.000000	99.616808 
2565.000000	99.616736 
2564.000000	99.616710 
2563.000000	99.616708 
2562.000000	99.616713 
2561.000000	99.616712 
2560.000000	99.616704 
2559.000000	99.616714 
2558.000000	99.616788 
2557.000000	99.616921 
2556.000000	99.616998 
2555.000000	99.616895 
2554.000000	99.616682 
2553.000000	99.616640 
2552.000000	99.616955 
2551.000000	99.617466 
2550.000000	99.617822 
2549.000000	99.617910 
2548.000000	99.617884 
2547.000000	99.617813 
2546.000000	99.617593 
2545.000000	99.617283 
2544.000000	99.617255 
2543.000000	99.617819 
2542.000000	99.618866 
2541.000000	99.619963 
2540.000000	99.620727 
2539.000000	99.621048 
2538.000000	99.621042 
2537.000000	99.620851 
2536.000000	99.620435 
2535.000000	99.619635 
2534.000000	99.618557 
2533.000000	99.617744 
2532.000000	99.617732 
2531.000000	99.618465 
2530.000000	99.619404 
2529.000000	99.620214 
2528.000000	99.621032 
2527.000000	99.622030 
2526.000000	99.623117 
2525.000000	99.624235 
2524.000000	99.625549 
2523.000000	99.627059 
2522.000000	99.628231 
2521.000000	99.628425 
2520.000000	99.627618 
2519.000000	99.626484 
2518.000000	99.625743 
2517.000000	99.625551 
2516.000000	99.625542 
2515.000000	99.625286 
2514.000000	99.624716 
2513.000000	99.624153 
2512.000000	99.623883 
2511.000000	99.623723 
2510.000000	99.623244 
2509.000000	99.622500 
2508.000000	99.622225 
2507.000000	99.622996 
2506.000000	99.624348 
2505.000000	99.625032 
2504.000000	99.624274 
2503.000000	99.622459 
2502.000000	99.620769 
2501.000000	99.620138 
2500.000000	99.620699 
2499.000000	99.622045 
2498.000000	99.623681 
2497.000000	99.625208 
2496.000000	99.626305 
2495.000000	99.626734 
2494.000000	99.626427 
2493.000000	99.625496 
2492.000000	99.624147 
2491.000000	99.622606 
2490.000000	99.621144 
2489.000000	99.620068 
2488.000000	99.619572 
2487.000000	99.619591 
2486.000000	99.619874 
2485.000000	99.620259 
2484.000000	99.620802 
2483.000000	99.621535 
2482.000000	99.622220 
2481.000000	99.622492 
2480.000000	99.622242 
2479.000000	99.621708 
2478.000000	99.621182 
2477.000000	99.620706 
2476.000000	99.620170 
2475.000000	99.619600 
2474.000000	99.619201 
2473.000000	99.619130 
2472.000000	99.619369 
2471.000000	99.619847 
2470.000000	99.620492 
2469.000000	99.621084 
2468.000000	99.621207 
2467.000000	99.620583 
2466.000000	99.619485 
2465.000000	99.618667 
2464.000000	99.618652 
2463.000000	99.619240 
2462.000000	99.619738 
2461.000000	99.619674 
2460.000000	99.619215 
2459.000000	99.618871 
2458.000000	99.618962 
2457.000000	99.619363 
2456.000000	99.619648 
2455.000000	99.619462 
2454.000000	99.618764 
2453.000000	99.617801 
2452.000000	99.616865 
2451.000000	99.616101 
2450.000000	99.615528 
2449.000000	99.615134 
2448.000000	99.614888 
2447.000000	99.614744 
2446.000000	99.614775 
2445.000000	99.615235 
2444.000000	99.616299 
2443.000000	99.617734 
2442.000000	99.618945 
2441.000000	99.619471 
2440.000000	99.619291 
2439.000000	99.618646 
2438.000000	99.617776 
2437.000000	99.616913 
2436.000000	99.616261 
2435.000000	99.615728 
2434.000000	99.614861 
2433.000000	99.613382 
2432.000000	99.611774 
2431.000000	99.610986 
2430.000000	99.611452 
2429.000000	99.612709 
2428.000000	99.613984 
2427.000000	99.615026 
2426.000000	99.616044 
2425.000000	99.616963 
2424.000000	99.617189 
2423.000000	99.616265 
2422.000000	99.614519 
2421.000000	99.613001 
2420.000000	99.612537 
2419.000000	99.613074 
2418.000000	99.614012 
2417.000000	99.614927 
2416.000000	99.615838 
2415.000000	99.616787 
2414.000000	99.617544 
2413.000000	99.617897 
2412.000000	99.617979 
2411.000000	99.618118 
2410.000000	99.618476 
2409.000000	99.618957 
2408.000000	99.619428 
2407.000000	99.619876 
2406.000000	99.620349 
2405.000000	99.620869 
2404.000000	99.621431 
2403.000000	99.622002 
2402.000000	99.622537 
2401.000000	99.623013 
2400.000000	99.623456 
2399.000000	99.623918 
2398.000000	99.624436 
2397.000000	99.625031 
2396.000000	99.625707 
2395.000000	99.626439 
2394.000000	99.627176 
2393.000000	99.627887 
2392.000000	99.628576 
2391.000000	99.629259 
2390.000000	99.629940 
2389.000000	99.630621 
2388.000000	99.631308 
2387.000000	99.632000 
2386.000000	99.632690 
2385.000000	99.633373 
2384.000000	99.634046 
2383.000000	99.634713 
2382.000000	99.635378 
2381.000000	99.636044 
2380.000000	99.636707 
2379.000000	99.637359 
2378.000000	99.637988 
2377.000000	99.638591 
2376.000000	99.639171 
2375.000000	99.639740 
2374.000000	99.640306 
2373.000000	99.640867 
2372.000000	99.641418 
2371.000000	99.641953 
2370.000000	99.642467 
2369.000000	99.642949 
2368.000000	99.643389 
2367.000000	99.643785 
2366.000000	99.644145 
2365.000000	99.644482 
2364.000000	99.644810 
2363.000000	99.645133 
2362.000000	99.645451 
2361.000000	99.645757 
2360.000000	99.646047 
2359.000000	99.646321 
2358.000000	99.646579 
2357.000000	99.646821 
2356.000000	99.647042 
2355.000000	99.647234 
2354.000000	99.647387 
2353.000000	99.647496 
2352.000000	99.647566 
2351.000000	99.647616 
2350.000000	99.647676 
2349.000000	99.647766 
2348.000000	99.647886 
2347.000000	99.648013 
2346.000000	99.648118 
2345.000000	99.648177 
2344.000000	99.648190 
2343.000000	99.648167 
2342.000000	99.648123 
2341.000000	99.648066 
2340.000000	99.647999 
2339.000000	99.647917 
2338.000000	99.647819 
2337.000000	99.647703 
2336.000000	99.647572 
2335.000000	99.647428 
2334.000000	99.647268 
2333.000000	99.647084 
2332.000000	99.646870 
2331.000000	99.646621 
2330.000000	99.646341 
2329.000000	99.646040 
2328.000000	99.645731 
2327.000000	99.645424 
2326.000000	99.645124 
2325.000000	99.644831 
2324.000000	99.644538 
2323.000000	99.644234 
2322.000000	99.643906 
2321.000000	99.643555 
2320.000000	99.643207 
2319.000000	99.642872 
2318.000000	99.642505 
2317.000000	99.642030 
2316.000000	99.641470 
2315.000000	99.640904 
2314.000000	99.640390 
2313.000000	99.639880 
2312.000000	99.639335 
2311.000000	99.638842 
2310.000000	99.638659 
2309.000000	99.638991 
2308.000000	99.639512 
2307.000000	99.639450 
2306.000000	99.638256 
2305.000000	99.636306 
2304.000000	99.634336 
2303.000000	99.632685 
2302.000000	99.631285 
2301.000000	99.630183 
2300.000000	99.629580 
2299.000000	99.629352 
2298.000000	99.628988 
2297.000000	99.628210 
2296.000000	99.627358 
2295.000000	99.626845 
2294.000000	99.626432 
2293.000000	99.625541 
2292.000000	99.624045 
2291.000000	99.622517 
2290.000000	99.621491 
2289.000000	99.620977 
2288.000000	99.620639 
2287.000000	99.620336 
2286.000000	99.620102 
2285.000000	99.619839 
2284.000000	99.619232 
2283.000000	99.618065 
2282.000000	99.616397 
2281.000000	99.614412 
2280.000000	99.612260 
2279.000000	99.610222 
2278.000000	99.608917 
2277.000000	99.608953 
2276.000000	99.610316 
2275.000000	99.612174 
2274.000000	99.613478 
2273.000000	99.613613 
2272.000000	99.612415 
2271.000000	99.609914 
2270.000000	99.606587 
2269.000000	99.603806 
2268.000000	99.603153 
2267.000000	99.605023 
2266.000000	99.608098 
2265.000000	99.610414 
2264.000000	99.611095 
2263.000000	99.610673 
2262.000000	99.610297 
2261.000000	99.610953 
2260.000000	99.612842 
2259.000000	99.614899 
2258.000000	99.615265 
2257.000000	99.613058 
2256.000000	99.609471 
2255.000000	99.606600 
2254.000000	99.605166 
2253.000000	99.604331 
2252.000000	99.603683 
2251.000000	99.604073 
2250.000000	99.606100 
2249.000000	99.608713 
2248.000000	99.610043 
2247.000000	99.609253 
2246.000000	99.606930 
2245.000000	99.604128 
2244.000000	99.601557 
2243.000000	99.599556 
2242.000000	99.598271 
2241.000000	99.597626 
2240.000000	99.597260 
2239.000000	99.596702 
2238.000000	99.595757 
2237.000000	99.594698 
2236.000000	99.593848 
2235.000000	99.592953 
2234.000000	99.591379 
2233.000000	99.589264 
2232.000000	99.588047 
2231.000000	99.589219 
2230.000000	99.592802 
2229.000000	99.597272 
2228.000000	99.600908 
2227.000000	99.602846 
2226.000000	99.602986 
2225.000000	99.601792 
2224.000000	99.600263 
2223.000000	99.599377 
2222.000000	99.599306 
2221.000000	99.599471 
2220.000000	99.599387 
2219.000000	99.599203 
2218.000000	99.599400 
2217.000000	99.600308 
2216.000000	99.601982 
2215.000000	99.604125 
2214.000000	99.605934 
2213.000000	99.606441 
2212.000000	99.605346 
2211.000000	99.603504 
2210.000000	99.602435 
2209.000000	99.603083 
2208.000000	99.605122 
2207.000000	99.607179 
2206.000000	99.607906 
2205.000000	99.606944 
2204.000000	99.604888 
2203.000000	99.602624 
2202.000000	99.600772 
2201.000000	99.599674 
2200.000000	99.599426 
2199.000000	99.599677 
2198.000000	99.599723 
2197.000000	99.599221 
2196.000000	99.598676 
2195.000000	99.598921 
2194.000000	99.600205 
2193.000000	99.602021 
2192.000000	99.603552 
2191.000000	99.604168 
2190.000000	99.603697 
2189.000000	99.602514 
2188.000000	99.601459 
2187.000000	99.601219 
2186.000000	99.601779 
2185.000000	99.602646 
2184.000000	99.603448 
2183.000000	99.604125 
2182.000000	99.604575 
2181.000000	99.604658 
2180.000000	99.604610 
2179.000000	99.604905 
2178.000000	99.605546 
2177.000000	99.605894 
2176.000000	99.605452 
2175.000000	99.604408 
2174.000000	99.603313 
2173.000000	99.602549 
2172.000000	99.602247 
2171.000000	99.602409 
2170.000000	99.602876 
2169.000000	99.603395 
2168.000000	99.603873 
2167.000000	99.604391 
2166.000000	99.604917 
2165.000000	99.605305 
2164.000000	99.605578 
2163.000000	99.605906 
2162.000000	99.606354 
2161.000000	99.606843 
2160.000000	99.607312 
2159.000000	99.607757 
2158.000000	99.608167 
2157.000000	99.608523 
2156.000000	99.608843 
2155.000000	99.609146 
2154.000000	99.609424 
2153.000000	99.609669 
2152.000000	99.609869 
2151.000000	99.610033 
2150.000000	99.610183 
2149.000000	99.610345 
2148.000000	99.610532 
2147.000000	99.610730 
2146.000000	99.610903 
2145.000000	99.611014 
2144.000000	99.611048 
2143.000000	99.611017 
2142.000000	99.610946 
2141.000000	99.610847 
2140.000000	99.610724 
2139.000000	99.610578 
2138.000000	99.610410 
2137.000000	99.610218 
2136.000000	99.609999 
2135.000000	99.609760 
2134.000000	99.609510 
2133.000000	99.609248 
2132.000000	99.608959 
2131.000000	99.608621 
2130.000000	99.608217 
2129.000000	99.607744 
2128.000000	99.607203 
2127.000000	99.606578 
2126.000000	99.605897 
2125.000000	99.605213 
2124.000000	99.604555 
2123.000000	99.603989 
2122.000000	99.603674 
2121.000000	99.603614 
2120.000000	99.603450 
2119.000000	99.602786 
2118.000000	99.601684 
2117.000000	99.600617 
2116.000000	99.599852 
2115.000000	99.599261 
2114.000000	99.598726 
2113.000000	99.598410 
2112.000000	99.598493 
2111.000000	99.598835 
2110.000000	99.598999 
2109.000000	99.598574 
2108.000000	99.597521 
2107.000000	99.596176 
2106.000000	99.594685 
2105.000000	99.592526 
2104.000000	99.589108 
2103.000000	99.584999 
2102.000000	99.581990 
2101.000000	99.581317 
2100.000000	99.582409 
2099.000000	99.583631 
2098.000000	99.583939 
2097.000000	99.583678 
2096.000000	99.583920 
2095.000000	99.585094 
2094.000000	99.585890 
2093.000000	99.583926 
2092.000000	99.578433 
2091.000000	99.572167 
2090.000000	99.569253 
2089.000000	99.570657 
2088.000000	99.573150 
2087.000000	99.573314 
2086.000000	99.571719 
2085.000000	99.571649 
2084.000000	99.574725 
2083.000000	99.579366 
2082.000000	99.583135 
2081.000000	99.585334 
2080.000000	99.586797 
2079.000000	99.588217 
2078.000000	99.589533 
2077.000000	99.590800 
2076.000000	99.592853 
2075.000000	99.596468 
2074.000000	99.600888 
2073.000000	99.603915 
2072.000000	99.603949 
2071.000000	99.601442 
2070.000000	99.597996 
2069.000000	99.594540 
2068.000000	99.591061 
2067.000000	99.587746 
2066.000000	99.585275 
2065.000000	99.583917 
2064.000000	99.583333 
2063.000000	99.583400 
2062.000000	99.584507 
2061.000000	99.586724 
2060.000000	99.589218 
2059.000000	99.591045 
2058.000000	99.591817 
2057.000000	99.591551 
2056.000000	99.590428 
2055.000000	99.588775 
2054.000000	99.587046 
2053.000000	99.585650 
2052.000000	99.584899 
2051.000000	99.585050 
2050.000000	99.586066 
2049.000000	99.587375 
2048.000000	99.588191 
2047.000000	99.588179 
2046.000000	99.587608 
2045.000000	99.586929 
2044.000000	99.586397 
2043.000000	99.585993 
2042.000000	99.585558 
2041.000000	99.584980 
2040.000000	99.584309 
2039.000000	99.583708 
2038.000000	99.583271 
2037.000000	99.582910 
2036.000000	99.582457 
2035.000000	99.581854 
2034.000000	99.581187 
2033.000000	99.580566 
2032.000000	99.580017 
2031.000000	99.579511 
2030.000000	99.579032 
2029.000000	99.578584 
2028.000000	99.578175 
2027.000000	99.577813 
2026.000000	99.577508 
2025.000000	99.577271 
2024.000000	99.577093 
2023.000000	99.576949 
2022.000000	99.576810 
2021.000000	99.576663 
2020.000000	99.576519 
2019.000000	99.576406 
2018.000000	99.576345 
2017.000000	99.576333 
2016.000000	99.576341 
2015.000000	99.576348 
2014.000000	99.576353 
2013.000000	99.576377 
2012.000000	99.576449 
2011.000000	99.576584 
2010.000000	99.576771 
2009.000000	99.576983 
2008.000000	99.577194 
2007.000000	99.577385 
2006.000000	99.577535 
2005.000000	99.577619 
2004.000000	99.577639 
2003.000000	99.577630 
2002.000000	99.577625 
2001.000000	99.577626 
2000.000000	99.577625 
1999.000000	99.577619 
1998.000000	99.577621 
1997.000000	99.577651 
1996.000000	99.577723 
1995.000000	99.577840 
1994.000000	99.577993 
1993.000000	99.578160 
1992.000000	99.578313 
1991.000000	99.578433 
1990.000000	99.578517 
1989.000000	99.578572 
1988.000000	99.578615 
1987.000000	99.578652 
1986.000000	99.578677 
1985.000000	99.578675 
1984.000000	99.578629 
1983.000000	99.578529 
1982.000000	99.578376 
1981.000000	99.578173 
1980.000000	99.577924 
1979.000000	99.577638 
1978.000000	99.577352 
1977.000000	99.577101 
1976.000000	99.576887 
1975.000000	99.576677 
1974.000000	99.576449 
1973.000000	99.576245 
1972.000000	99.576150 
1971.000000	99.576204 
1970.000000	99.576319 
1969.000000	99.576290 
1968.000000	99.575977 
1967.000000	99.575446 
1966.000000	99.574989 
1965.000000	99.574790 
1964.000000	99.574755 
1963.000000	99.574635 
1962.000000	99.574311 
1961.000000	99.573876 
1960.000000	99.573476 
1959.000000	99.573235 
1958.000000	99.573358 
1957.000000	99.574032 
1956.000000	99.575117 
1955.000000	99.576126 
1954.000000	99.576645 
1953.000000	99.576567 
1952.000000	99.575861 
1951.000000	99.574447 
1950.000000	99.572553 
1949.000000	99.571006 
1948.000000	99.570704 
1947.000000	99.571706 
1946.000000	99.572953 
1945.000000	99.573005 
1944.000000	99.571262 
1943.000000	99.568652 
1942.000000	99.567035 
1941.000000	99.567493 
1940.000000	99.569453 
1939.000000	99.571643 
1938.000000	99.573651 
1937.000000	99.576143 
1936.000000	99.579595 
1935.000000	99.583199 
1934.000000	99.585504 
1933.000000	99.586110 
1932.000000	99.586148 
1931.000000	99.586892 
1930.000000	99.588185 
1929.000000	99.588827 
1928.000000	99.588419 
1927.000000	99.587908 
1926.000000	99.588208 
1925.000000	99.589004 
1924.000000	99.589428 
1923.000000	99.589516 
1922.000000	99.590206 
1921.000000	99.591771 
1920.000000	99.592974 
1919.000000	99.592084 
1918.000000	99.588556 
1917.000000	99.583863 
1916.000000	99.580316 
1915.000000	99.578911 
1914.000000	99.579111 
1913.000000	99.580137 
1912.000000	99.581762 
1911.000000	99.583805 
1910.000000	99.585277 
1909.000000	99.585194 
1908.000000	99.584293 
1907.000000	99.584626 
1906.000000	99.587204 
1905.000000	99.590727 
1904.000000	99.592999 
1903.000000	99.593203 
1902.000000	99.592060 
1901.000000	99.590730 
1900.000000	99.589994 
1899.000000	99.590088 
1898.000000	99.590775 
1897.000000	99.591503 
1896.000000	99.591838 
1895.000000	99.591730 
1894.000000	99.591176 
1893.000000	99.590126 
1892.000000	99.588956 
1891.000000	99.588419 
1890.000000	99.588626 
1889.000000	99.588638 
1888.000000	99.587814 
1887.000000	99.586817 
1886.000000	99.586652 
1885.000000	99.587532 
1884.000000	99.589154 
1883.000000	99.591380 
1882.000000	99.593813 
1881.000000	99.595394 
1880.000000	99.595578 
1879.000000	99.595433 
1878.000000	99.596701 
1877.000000	99.599780 
1876.000000	99.603267 
1875.000000	99.605462 
1874.000000	99.605588 
1873.000000	99.603691 
1872.000000	99.600576 
1871.000000	99.597650 
1870.000000	99.595900 
1869.000000	99.594762 
1868.000000	99.593085 
1867.000000	99.591186 
1866.000000	99.590255 
1865.000000	99.590375 
1864.000000	99.590422 
1863.000000	99.589469 
1862.000000	99.587765 
1861.000000	99.586441 
1860.000000	99.586722 
1859.000000	99.589238 
1858.000000	99.593310 
1857.000000	99.596980 
1856.000000	99.598793 
1855.000000	99.599281 
1854.000000	99.599840 
1853.000000	99.600617 
1852.000000	99.600636 
1851.000000	99.599624 
1850.000000	99.598731 
1849.000000	99.599236 
1848.000000	99.601046 
1847.000000	99.602874 
1846.000000	99.603530 
1845.000000	99.602904 
1844.000000	99.602100 
1843.000000	99.602424 
1842.000000	99.603815 
1841.000000	99.604966 
1840.000000	99.604821 
1839.000000	99.603450 
1838.000000	99.601894 
1837.000000	99.601089 
1836.000000	99.601064 
1835.000000	99.601389 
1834.000000	99.601820 
1833.000000	99.602306 
1832.000000	99.602645 
1831.000000	99.602466 
1830.000000	99.601760 
1829.000000	99.601168 
1828.000000	99.601168 
1827.000000	99.601433 
1826.000000	99.601410 
1825.000000	99.601085 
1824.000000	99.600896 
1823.000000	99.600997 
1822.000000	99.600922 
1821.000000	99.600266 
1820.000000	99.599481 
1819.000000	99.599618 
1818.000000	99.601179 
1817.000000	99.603339 
1816.000000	99.604712 
1815.000000	99.605049 
1814.000000	99.605225 
1813.000000	99.605886 
1812.000000	99.606735 
1811.000000	99.607423 
1810.000000	99.608266 
1809.000000	99.609292 
1808.000000	99.609721 
1807.000000	99.608992 
1806.000000	99.607418 
1805.000000	99.605695 
1804.000000	99.604277 
1803.000000	99.603356 
1802.000000	99.602800 
1801.000000	99.602092 
1800.000000	99.600920 
1799.000000	99.599967 
1798.000000	99.600222 
1797.000000	99.601623 
1796.000000	99.603160 
1795.000000	99.604107 
1794.000000	99.604538 
1793.000000	99.604777 
1792.000000	99.604818 
1791.000000	99.604745 
1790.000000	99.604805 
1789.000000	99.604863 
1788.000000	99.604726 
1787.000000	99.604621 
1786.000000	99.604937 
1785.000000	99.605492 
1784.000000	99.605671 
1783.000000	99.605245 
1782.000000	99.604383 
1781.000000	99.603317 
1780.000000	99.602172 
1779.000000	99.601167 
1778.000000	99.600658 
1777.000000	99.600780 
1776.000000	99.601331 
1775.000000	99.601807 
1774.000000	99.601775 
1773.000000	99.601236 
1772.000000	99.600539 
1771.000000	99.600038 
1770.000000	99.599833 
1769.000000	99.599732 
1768.000000	99.599490 
1767.000000	99.599052 
1766.000000	99.598607 
1765.000000	99.598354 
1764.000000	99.598256 
1763.000000	99.598132 
1762.000000	99.597891 
1761.000000	99.597626 
1760.000000	99.597354 
1759.000000	99.597047 
1758.000000	99.596932 
1757.000000	99.597384 
1756.000000	99.598324 
1755.000000	99.599012 
1754.000000	99.598936 
1753.000000	99.598328 
1752.000000	99.597725 
1751.000000	99.597111 
1750.000000	99.596064 
1749.000000	99.594681 
1748.000000	99.593626 
1747.000000	99.593280 
1746.000000	99.593389 
1745.000000	99.593543 
1744.000000	99.593506 
1743.000000	99.593247 
1742.000000	99.592899 
1741.000000	99.592658 
1740.000000	99.592616 
1739.000000	99.592743 
1738.000000	99.592927 
1737.000000	99.593032 
1736.000000	99.593005 
1735.000000	99.593030 
1734.000000	99.593194 
1733.000000	99.593379 
1732.000000	99.593520 
1731.000000	99.593587 
1730.000000	99.593598 
1729.000000	99.593597 
1728.000000	99.593623 
1727.000000	99.593694 
1726.000000	99.593797 
1725.000000	99.593902 
1724.000000	99.593972 
1723.000000	99.594013 
1722.000000	99.594052 
1721.000000	99.594100 
1720.000000	99.594150 
1719.000000	99.594198 
1718.000000	99.594240 
1717.000000	99.594271 
1716.000000	99.594291 
1715.000000	99.594306 
1714.000000	99.594324 
1713.000000	99.594348 
1712.000000	99.594381 
1711.000000	99.594425 
1710.000000	99.594479 
1709.000000	99.594541 
1708.000000	99.594609 
1707.000000	99.594676 
1706.000000	99.594737 
1705.000000	99.594786 
1704.000000	99.594821 
1703.000000	99.594845 
1702.000000	99.594860 
1701.000000	99.594865 
1700.000000	99.594858 
1699.000000	99.594837 
1698.000000	99.594807 
1697.000000	99.594769 
1696.000000	99.594720 
1695.000000	99.594658 
1694.000000	99.594584 
1693.000000	99.594503 
1692.000000	99.594417 
1691.000000	99.594326 
1690.000000	99.594233 
1689.000000	99.594138 
1688.000000	99.594043 
1687.000000	99.593948 
1686.000000	99.593852 
1685.000000	99.593756 
1684.000000	99.593658 
1683.000000	99.593559 
1682.000000	99.593457 
1681.000000	99.593355 
1680.000000	99.593260 
1679.000000	99.593171 
1678.000000	99.593062 
1677.000000	99.592925 
1676.000000	99.592803 
1675.000000	99.592734 
1674.000000	99.592684 
1673.000000	99.592667 
1672.000000	99.592748 
1671.000000	99.592961 
1670.000000	99.593176 
1669.000000	99.593178 
1668.000000	99.592960 
1667.000000	99.592644 
1666.000000	99.592261 
1665.000000	99.591831 
1664.000000	99.591465 
1663.000000	99.591324 
1662.000000	99.591352 
1661.000000	99.591385 
1660.000000	99.591516 
1659.000000	99.591885 
1658.000000	99.592407 
1657.000000	99.592855 
1656.000000	99.593166 
1655.000000	99.593295 
1654.000000	99.593308 
1653.000000	99.592952 
1652.000000	99.592508 
1651.000000	99.592512 
1650.000000	99.592596 
1649.000000	99.592637 
1648.000000	99.592794 
1647.000000	99.592913 
1646.000000	99.592897 
1645.000000	99.592980 
1644.000000	99.593321 
1643.000000	99.593892 
1642.000000	99.594536 
1641.000000	99.594986 
1640.000000	99.595073 
1639.000000	99.594866 
1638.000000	99.594634 
1637.000000	99.594787 
1636.000000	99.595585 
1635.000000	99.596665 
1634.000000	99.597466 
1633.000000	99.597711 
1632.000000	99.597276 
1631.000000	99.596312 
1630.000000	99.595184 
1629.000000	99.594379 
1628.000000	99.594337 
1627.000000	99.595063 
1626.000000	99.596011 
1625.000000	99.596656 
1624.000000	99.597019 
1623.000000	99.597417 
1622.000000	99.598009 
1621.000000	99.598820 
1620.000000	99.599806 
1619.000000	99.600674 
1618.000000	99.601086 
1617.000000	99.601113 
1616.000000	99.601679 
1615.000000	99.603209 
1614.000000	99.604787 
1613.000000	99.605762 
1612.000000	99.606584 
1611.000000	99.607697 
1610.000000	99.608517 
1609.000000	99.608419 
1608.000000	99.608012 
1607.000000	99.608218 
1606.000000	99.608776 
1605.000000	99.609029 
1604.000000	99.609185 
1603.000000	99.609781 
1602.000000	99.610864 
1601.000000	99.612203 
1600.000000	99.613738 
1599.000000	99.615310 
1598.000000	99.616527 
1597.000000	99.617178 
1596.000000	99.617286 
1595.000000	99.616753 
1594.000000	99.615562 
1593.000000	99.614502 
1592.000000	99.614802 
1591.000000	99.616664 
1590.000000	99.618769 
1589.000000	99.619801 
1588.000000	99.619856 
1587.000000	99.619764 
1586.000000	99.619734 
1585.000000	99.619476 
1584.000000	99.619220 
1583.000000	99.619164 
1582.000000	99.618739 
1581.000000	99.617637 
1580.000000	99.616466 
1579.000000	99.615716 
1578.000000	99.615102 
1577.000000	99.614245 
1576.000000	99.613337 
1575.000000	99.612873 
1574.000000	99.612749 
1573.000000	99.612667 
1572.000000	99.612708 
1571.000000	99.613106 
1570.000000	99.613663 
1569.000000	99.613949 
1568.000000	99.613959 
1567.000000	99.613693 
1566.000000	99.613108 
1565.000000	99.612396 
1564.000000	99.611877 
1563.000000	99.611492 
1562.000000	99.611099 
1561.000000	99.610629 
1560.000000	99.610603 
1559.000000	99.610813 
1558.000000	99.610784 
1557.000000	99.610855 
1556.000000	99.611052 
1555.000000	99.611166 
1554.000000	99.611077 
1553.000000	99.610826 
1552.000000	99.610574 
1551.000000	99.610407 
1550.000000	99.610348 
1549.000000	99.610385 
1548.000000	99.610482 
1547.000000	99.610571 
1546.000000	99.610578 
1545.000000	99.610475 
1544.000000	99.610325 
1543.000000	99.610270 
1542.000000	99.610408 
1541.000000	99.610727 
1540.000000	99.611070 
1539.000000	99.611322 
1538.000000	99.611519 
1537.000000	99.611717 
1536.000000	99.611947 
1535.000000	99.612221 
1534.000000	99.612481 
1533.000000	99.612656 
1532.000000	99.612786 
1531.000000	99.612965 
1530.000000	99.613218 
1529.000000	99.613483 
1528.000000	99.613695 
1527.000000	99.613872 
1526.000000	99.614093 
1525.000000	99.614395 
1524.000000	99.614762 
1523.000000	99.615185 
1522.000000	99.615624 
1521.000000	99.615908 
1520.000000	99.615938 
1519.000000	99.615791 
1518.000000	99.615594 
1517.000000	99.615456 
1516.000000	99.615436 
1515.000000	99.615521 
1514.000000	99.615674 
1513.000000	99.615879 
1512.000000	99.616092 
1511.000000	99.616226 
1510.000000	99.616265 
1509.000000	99.616277 
1508.000000	99.616405 
1507.000000	99.616696 
1506.000000	99.616960 
1505.000000	99.616977 
1504.000000	99.616807 
1503.000000	99.616645 
1502.000000	99.616600 
1501.000000	99.616615 
1500.000000	99.616519 
1499.000000	99.616202 
1498.000000	99.615738 
1497.000000	99.615280 
1496.000000	99.614890 
1495.000000	99.614639 
1494.000000	99.614647 
1493.000000	99.614919 
1492.000000	99.615257 
1491.000000	99.615333 
1490.000000	99.614935 
1489.000000	99.614156 
1488.000000	99.613301 
1487.000000	99.612668 
1486.000000	99.612288 
1485.000000	99.611900 
1484.000000	99.611385 
1483.000000	99.610910 
1482.000000	99.610680 
1481.000000	99.610605 
1480.000000	99.610359 
1479.000000	99.609796 
1478.000000	99.609033 
1477.000000	99.608191 
1476.000000	99.607322 
1475.000000	99.606677 
1474.000000	99.606582 
1473.000000	99.606901 
1472.000000	99.606962 
1471.000000	99.606505 
1470.000000	99.605917 
1469.000000	99.605448 
1468.000000	99.605045 
1467.000000	99.604712 
1466.000000	99.604583 
1465.000000	99.604596 
1464.000000	99.604503 
1463.000000	99.604219 
1462.000000	99.603911 
1461.000000	99.603571 
1460.000000	99.602919 
1459.000000	99.601635 
1458.000000	99.599985 
1457.000000	99.598850 
1456.000000	99.598574 
1455.000000	99.598613 
1454.000000	99.598727 
1453.000000	99.599417 
1452.000000	99.600981 
1451.000000	99.602945 
1450.000000	99.604501 
1449.000000	99.605036 
1448.000000	99.604282 
1447.000000	99.602822 
1446.000000	99.601733 
1445.000000	99.601635 
1444.000000	99.602313 
1443.000000	99.603046 
1442.000000	99.603462 
1441.000000	99.603833 
1440.000000	99.604567 
1439.000000	99.605715 
1438.000000	99.607230 
1437.000000	99.608581 
1436.000000	99.608618 
1435.000000	99.607152 
1434.000000	99.605393 
1433.000000	99.604242 
1432.000000	99.603564 
1431.000000	99.602690 
1430.000000	99.601519 
1429.000000	99.600773 
1428.000000	99.600817 
1427.000000	99.601371 
1426.000000	99.602104 
1425.000000	99.603104 
1424.000000	99.604252 
1423.000000	99.604760 
1422.000000	99.604199 
1421.000000	99.603031 
1420.000000	99.602058 
1419.000000	99.601580 
1418.000000	99.601546 
1417.000000	99.601814 
1416.000000	99.601941 
1415.000000	99.601597 
1414.000000	99.600975 
1413.000000	99.600604 
1412.000000	99.600715 
1411.000000	99.600886 
1410.000000	99.600677 
1409.000000	99.600204 
1408.000000	99.599835 
1407.000000	99.599851 
1406.000000	99.600278 
1405.000000	99.600941 
1404.000000	99.601612 
1403.000000	99.602224 
1402.000000	99.603030 
1401.000000	99.604214 
1400.000000	99.605439 
1399.000000	99.606018 
1398.000000	99.605781 
1397.000000	99.605165 
1396.000000	99.604540 
1395.000000	99.604004 
1394.000000	99.603717 
1393.000000	99.603937 
1392.000000	99.604629 
1391.000000	99.605449 
1390.000000	99.606079 
1389.000000	99.606433 
1388.000000	99.606575 
1387.000000	99.606612 
1386.000000	99.606695 
1385.000000	99.606954 
1384.000000	99.607352 
1383.000000	99.607675 
1382.000000	99.607770 
1381.000000	99.607721 
1380.000000	99.607781 
1379.000000	99.608102 
1378.000000	99.608615 
1377.000000	99.609164 
1376.000000	99.609658 
1375.000000	99.610093 
1374.000000	99.610494 
1373.000000	99.610899 
1372.000000	99.611330 
1371.000000	99.611767 
1370.000000	99.612170 
1369.000000	99.612528 
1368.000000	99.612868 
1367.000000	99.613219 
1366.000000	99.613589 
1365.000000	99.613977 
1364.000000	99.614379 
1363.000000	99.614776 
1362.000000	99.615132 
1361.000000	99.615427 
1360.000000	99.615677 
1359.000000	99.615947 
1358.000000	99.616305 
1357.000000	99.616781 
1356.000000	99.617350 
1355.000000	99.617926 
1354.000000	99.618439 
1353.000000	99.618891 
1352.000000	99.619306 
1351.000000	99.619672 
1350.000000	99.619930 
1349.000000	99.620109 
1348.000000	99.620337 
1347.000000	99.620647 
1346.000000	99.620960 
1345.000000	99.621264 
1344.000000	99.621629 
1343.000000	99.622007 
1342.000000	99.622209 
1341.000000	99.622210 
1340.000000	99.622271 
1339.000000	99.622556 
1338.000000	99.622882 
1337.000000	99.623117 
1336.000000	99.623517 
1335.000000	99.624344 
1334.000000	99.625370 
1333.000000	99.626077 
1332.000000	99.626279 
1331.000000	99.626183 
1330.000000	99.625905 
1329.000000	99.625344 
1328.000000	99.624544 
1327.000000	99.623805 
1326.000000	99.623321 
1325.000000	99.623106 
1324.000000	99.623222 
1323.000000	99.623727 
1322.000000	99.624451 
1321.000000	99.625111 
1320.000000	99.625722 
1319.000000	99.626569 
1318.000000	99.627652 
1317.000000	99.628421 
1316.000000	99.628340 
1315.000000	99.627503 
1314.000000	99.626508 
1313.000000	99.625739 
1312.000000	99.625101 
1311.000000	99.624515 
1310.000000	99.624277 
1309.000000	99.624646 
1308.000000	99.625257 
1307.000000	99.625357 
1306.000000	99.624668 
1305.000000	99.623770 
1304.000000	99.623458 
1303.000000	99.623914 
1302.000000	99.624705 
1301.000000	99.625366 
1300.000000	99.625796 
1299.000000	99.626163 
1298.000000	99.626687 
1297.000000	99.627457 
1296.000000	99.628250 
1295.000000	99.628593 
1294.000000	99.628184 
1293.000000	99.627225 
1292.000000	99.626212 
1291.000000	99.625494 
1290.000000	99.625209 
1289.000000	99.625485 
1288.000000	99.626335 
1287.000000	99.627332 
1286.000000	99.627769 
1285.000000	99.627335 
1284.000000	99.626417 
1283.000000	99.625633 
1282.000000	99.625174 
1281.000000	99.624837 
1280.000000	99.624535 
1279.000000	99.624414 
1278.000000	99.624537 
1277.000000	99.624765 
1276.000000	99.625001 
1275.000000	99.625287 
1274.000000	99.625539 
1273.000000	99.625385 
1272.000000	99.624553 
1271.000000	99.623430 
1270.000000	99.622933 
1269.000000	99.623575 
1268.000000	99.624846 
1267.000000	99.625600 
1266.000000	99.625140 
1265.000000	99.623783 
1264.000000	99.622421 
1263.000000	99.621655 
1262.000000	99.621440 
1261.000000	99.621421 
1260.000000	99.621361 
1259.000000	99.621167 
1258.000000	99.620705 
1257.000000	99.619855 
1256.000000	99.618845 
1255.000000	99.618433 
1254.000000	99.619445 
1253.000000	99.621873 
1252.000000	99.624549 
1251.000000	99.626034 
1250.000000	99.625900 
1249.000000	99.624914 
1248.000000	99.624060 
1247.000000	99.623656 
1246.000000	99.623317 
1245.000000	99.622227 
1244.000000	99.619479 
1243.000000	99.614942 
1242.000000	99.610119 
1241.000000	99.607332 
1240.000000	99.607442 
1239.000000	99.608915 
1238.000000	99.609658 
1237.000000	99.609333 
1236.000000	99.609081 
1235.000000	99.609460 
1234.000000	99.609687 
1233.000000	99.608740 
1232.000000	99.606126 
1231.000000	99.601666 
1230.000000	99.595786 
1229.000000	99.590318 
1228.000000	99.587714 
1227.000000	99.588525 
1226.000000	99.590295 
1225.000000	99.589891 
1224.000000	99.586629 
1223.000000	99.582363 
1222.000000	99.578899 
1221.000000	99.576166 
1220.000000	99.573078 
1219.000000	99.569229 
1218.000000	99.565158 
1217.000000	99.561396 
1216.000000	99.557828 
1215.000000	99.553890 
1214.000000	99.548972 
1213.000000	99.542597 
1212.000000	99.534642 
1211.000000	99.525768 
1210.000000	99.517497 
1209.000000	99.511417 
1208.000000	99.507964 
1207.000000	99.505903 
1206.000000	99.503116 
1205.000000	99.498138 
1204.000000	99.491052 
1203.000000	99.483119 
1202.000000	99.475698 
1201.000000	99.469329 
1200.000000	99.463658 
1199.000000	99.458099 
1198.000000	99.452509 
1197.000000	99.447101 
1196.000000	99.441681 
1195.000000	99.435361 
1194.000000	99.427421 
1193.000000	99.418333 
1192.000000	99.409440 
1191.000000	99.401441 
1190.000000	99.393636 
1189.000000	99.385131 
1188.000000	99.376453 
1187.000000	99.369283 
1186.000000	99.364465 
1185.000000	99.360813 
1184.000000	99.356198 
1183.000000	99.349611 
1182.000000	99.341915 
1181.000000	99.334724 
1180.000000	99.328733 
1179.000000	99.323076 
1178.000000	99.316248 
1177.000000	99.307697 
1176.000000	99.298382 
1175.000000	99.289529 
1174.000000	99.280937 
1173.000000	99.271164 
1172.000000	99.259671 
1171.000000	99.248116 
1170.000000	99.238704 
1169.000000	99.231442 
1168.000000	99.223779 
1167.000000	99.213367 
1166.000000	99.200927 
1165.000000	99.190041 
1164.000000	99.184184 
1163.000000	99.184216 
1162.000000	99.188315 
1161.000000	99.193866 
1160.000000	99.199261 
1159.000000	99.203796 
1158.000000	99.206293 
1157.000000	99.204652 
1156.000000	99.197307 
1155.000000	99.185218 
1154.000000	99.172051 
1153.000000	99.161708 
1152.000000	99.155258 
1151.000000	99.150352 
1150.000000	99.143636 
1149.000000	99.133744 
1148.000000	99.122069 
1147.000000	99.110940 
1146.000000	99.101232 
1145.000000	99.091795 
1144.000000	99.080930 
1143.000000	99.068152 
1142.000000	99.054697 
1141.000000	99.042641 
1140.000000	99.033467 
1139.000000	99.026952 
1138.000000	99.021111 
1137.000000	99.013521 
1136.000000	99.003117 
1135.000000	98.990732 
1134.000000	98.977725 
1133.000000	98.964257 
1132.000000	98.949478 
1131.000000	98.933527 
1130.000000	98.918674 
1129.000000	98.907558 
1128.000000	98.900032 
1127.000000	98.892327 
1126.000000	98.880159 
1125.000000	98.862871 
1124.000000	98.844180 
1123.000000	98.828622 
1122.000000	98.817397 
1121.000000	98.807971 
1120.000000	98.797223 
1119.000000	98.784507 
1118.000000	98.771657 
1117.000000	98.760668 
1116.000000	98.751817 
1115.000000	98.743722 
1114.000000	98.734850 
1113.000000	98.725014 
1112.000000	98.715401 
1111.000000	98.706870 
1110.000000	98.698288 
1109.000000	98.687272 
1108.000000	98.673087 
1107.000000	98.658275 
1106.000000	98.646393 
1105.000000	98.638092 
1104.000000	98.630354 
1103.000000	98.620031 
1102.000000	98.607428 
1101.000000	98.595611 
1100.000000	98.586524 
1099.000000	98.579237 
1098.000000	98.571841 
1097.000000	98.563815 
1096.000000	98.555786 
1095.000000	98.548039 
1094.000000	98.540644 
1093.000000	98.534254 
1092.000000	98.528995 
1091.000000	98.522684 
1090.000000	98.512161 
1089.000000	98.497129 
1088.000000	98.481256 
1087.000000	98.468648 
1086.000000	98.460442 
1085.000000	98.455647 
1084.000000	98.453606 
1083.000000	98.453797 
1082.000000	98.454160 
1081.000000	98.451748 
1080.000000	98.445029 
1079.000000	98.434445 
1078.000000	98.421176 
1077.000000	98.406672 
1076.000000	98.393183 
1075.000000	98.382961 
1074.000000	98.376162 
1073.000000	98.370276 
1072.000000	98.361824 
1071.000000	98.348210 
1070.000000	98.328635 
1069.000000	98.304562 
1068.000000	98.279227 
1067.000000	98.255543 
1066.000000	98.234161 
1065.000000	98.214281 
1064.000000	98.195829 
1063.000000	98.179244 
1062.000000	98.163277 
1061.000000	98.145067 
1060.000000	98.123372 
1059.000000	98.100416 
1058.000000	98.079383 
1057.000000	98.060890 
1056.000000	98.043016 
1055.000000	98.024198 
1054.000000	98.004756 
1053.000000	97.985491 
1052.000000	97.965913 
1051.000000	97.944797 
1050.000000	97.921968 
1049.000000	97.898130 
1048.000000	97.872730 
1047.000000	97.843860 
1046.000000	97.811446 
1045.000000	97.778874 
1044.000000	97.749370 
1043.000000	97.721703 
1042.000000	97.692286 
1041.000000	97.661698 
1040.000000	97.635578 
1039.000000	97.617283 
1038.000000	97.602811 
1037.000000	97.585762 
1036.000000	97.565352 
1035.000000	97.546140 
1034.000000	97.531430 
1033.000000	97.520757 
1032.000000	97.513143 
1031.000000	97.509089 
1030.000000	97.508908 
1029.000000	97.511838 
1028.000000	97.517204 
1027.000000	97.524217 
1026.000000	97.530569 
1025.000000	97.533529 
1024.000000	97.532791 
1023.000000	97.530612 
1022.000000	97.529250 
1021.000000	97.529844 
1020.000000	97.533174 
1019.000000	97.539186 
1018.000000	97.545733 
1017.000000	97.549934 
1016.000000	97.551123 
1015.000000	97.551041 
1014.000000	97.551288 
1013.000000	97.552043 
1012.000000	97.552827 
1011.000000	97.552915 
1010.000000	97.551624 
1009.000000	97.550046 
1008.000000	97.551790 
1007.000000	97.559782 
1006.000000	97.572567 
1005.000000	97.585736 
1004.000000	97.596766 
1003.000000	97.606635 
1002.000000	97.617312 
1001.000000	97.629890 
1000.000000	97.644731 
999.000000	 97.660944 
998.000000	 97.675838 
997.000000	 97.687390 
996.000000	 97.697551 
995.000000	 97.711001 
994.000000	 97.730209 
993.000000	 97.753239 
992.000000	 97.776294 
991.000000	 97.796691 
990.000000	 97.813569 
989.000000	 97.827973 
988.000000	 97.842787 
987.000000	 97.861030 
986.000000	 97.883627 
985.000000	 97.909518 
984.000000	 97.937419 
983.000000	 97.966217 
982.000000	 97.994424 
981.000000	 98.021107 
980.000000	 98.047203 
979.000000	 98.074549 
978.000000	 98.103981 
977.000000	 98.135488 
976.000000	 98.169113 
975.000000	 98.203955 
974.000000	 98.237410 
973.000000	 98.267767 
972.000000	 98.296908 
971.000000	 98.328185 
970.000000	 98.362129 
969.000000	 98.396488 
968.000000	 98.429983 
967.000000	 98.463348 
966.000000	 98.496639 
965.000000	 98.528080 
964.000000	 98.556187 
963.000000	 98.581238 
962.000000	 98.604267 
961.000000	 98.626148 
960.000000	 98.647648 
959.000000	 98.668644 
958.000000	 98.687404 
957.000000	 98.702727 
956.000000	 98.716921 
955.000000	 98.734327 
954.000000	 98.756066 
953.000000	 98.778229 
952.000000	 98.796227 
951.000000	 98.809058 
950.000000	 98.818439 
949.000000	 98.825661 
948.000000	 98.830921 
947.000000	 98.834599 
946.000000	 98.837442 
945.000000	 98.839860 
944.000000	 98.842370 
943.000000	 98.846590 
942.000000	 98.854660 
941.000000	 98.867128 
940.000000	 98.881440 
939.000000	 98.892808 
938.000000	 98.897568 
937.000000	 98.896701 
936.000000	 98.895730 
935.000000	 98.899929 
934.000000	 98.909509 
933.000000	 98.920497 
932.000000	 98.929907 
931.000000	 98.938287 
930.000000	 98.946992 
929.000000	 98.954873 
928.000000	 98.959020 
927.000000	 98.958140 
926.000000	 98.954405 
925.000000	 98.952229 
924.000000	 98.955322 
923.000000	 98.964057 
922.000000	 98.975090 
921.000000	 98.984009 
920.000000	 98.988694 
919.000000	 98.989953 
918.000000	 98.989539 
917.000000	 98.988663 
916.000000	 98.988192 
915.000000	 98.988807 
914.000000	 98.990518 
913.000000	 98.993127 
912.000000	 98.997559 
911.000000	 99.005641 
910.000000	 99.018287 
909.000000	 99.034921 
908.000000	 99.054727 
907.000000	 99.077029 
906.000000	 99.100018 
905.000000	 99.120763 
904.000000	 99.137633 
903.000000	 99.152024 
902.000000	 99.167138 
901.000000	 99.185485 
900.000000	 99.207416 
899.000000	 99.230596 
898.000000	 99.250424 
897.000000	 99.262808 
896.000000	 99.267866 
895.000000	 99.270386 
894.000000	 99.275601 
893.000000	 99.284866 
892.000000	 99.296357 
891.000000	 99.308816 
890.000000	 99.322866 
889.000000	 99.338939 
888.000000	 99.355571 
887.000000	 99.370457 
886.000000	 99.382606 
885.000000	 99.393119 
884.000000	 99.403947 
883.000000	 99.415657 
882.000000	 99.426261 
881.000000	 99.432976 
880.000000	 99.435652 
879.000000	 99.437855 
878.000000	 99.443680 
877.000000	 99.453869 
876.000000	 99.465801 
875.000000	 99.476438 
874.000000	 99.484148 
873.000000	 99.488676 
872.000000	 99.491129 
871.000000	 99.493901 
870.000000	 99.499098 
869.000000	 99.506973 
868.000000	 99.516842 
867.000000	 99.528557 
866.000000	 99.541271 
865.000000	 99.551819 
864.000000	 99.557423 
863.000000	 99.560214 
862.000000	 99.565916 
861.000000	 99.576313 
860.000000	 99.586143 
859.000000	 99.589857 
858.000000	 99.588609 
857.000000	 99.587746 
856.000000	 99.589627 
855.000000	 99.592900 
854.000000	 99.597269 
853.000000	 99.603806 
852.000000	 99.610599 
851.000000	 99.613426 
850.000000	 99.612329 
849.000000	 99.612947 
848.000000	 99.618942 
847.000000	 99.626959 
846.000000	 99.631837 
845.000000	 99.633145 
844.000000	 99.633193 
843.000000	 99.631875 
842.000000	 99.627851 
841.000000	 99.622750 
840.000000	 99.619562 
839.000000	 99.617744 
838.000000	 99.614241 
837.000000	 99.609001 
836.000000	 99.605107 
835.000000	 99.603032 
834.000000	 99.599220 
833.000000	 99.592169 
832.000000	 99.586286 
831.000000	 99.586798 
830.000000	 99.592790 
829.000000	 99.598278 
828.000000	 99.599687 
827.000000	 99.599887 
826.000000	 99.604070 
825.000000	 99.612500 
824.000000	 99.618667 
823.000000	 99.615896 
822.000000	 99.605579 
821.000000	 99.596599 
820.000000	 99.595698 
819.000000	 99.601067 
818.000000	 99.607000 
817.000000	 99.611718 
816.000000	 99.616871 
815.000000	 99.620998 
814.000000	 99.618697 
813.000000	 99.607406 
812.000000	 99.590653 
811.000000	 99.572298 
810.000000	 99.550664 
809.000000	 99.521395 
808.000000	 99.484058 
807.000000	 99.443020 
806.000000	 99.402728 
805.000000	 99.364755 
804.000000	 99.329416 
803.000000	 99.298044 
802.000000	 99.272877 
801.000000	 99.255539 
800.000000	 99.245773 
799.000000	 99.241571 
798.000000	 99.241477 
797.000000	 99.246551 
796.000000	 99.258019 
795.000000	 99.273155 
794.000000	 99.286406 
793.000000	 99.295580 
792.000000	 99.303934 
791.000000	 99.314500 
790.000000	 99.325420 
789.000000	 99.333123 
788.000000	 99.336907 
787.000000	 99.337177 
786.000000	 99.331704 
785.000000	 99.317605 
784.000000	 99.296271 
783.000000	 99.273403 
782.000000	 99.254480 
781.000000	 99.242071 
780.000000	 99.236374 
779.000000	 99.235728 
778.000000	 99.237447 
777.000000	 99.240699 
776.000000	 99.247882 
775.000000	 99.261114 
774.000000	 99.278519 
773.000000	 99.296430 
772.000000	 99.314039 
771.000000	 99.332839 
770.000000	 99.352286 
769.000000	 99.369004 
768.000000	 99.380107 
767.000000	 99.385326 
766.000000	 99.386562 
765.000000	 99.387395 
764.000000	 99.391966 
763.000000	 99.401432 
762.000000	 99.411479 
761.000000	 99.415889 
760.000000	 99.413156 
759.000000	 99.408261 
758.000000	 99.407927 
757.000000	 99.414798 
756.000000	 99.425552 
755.000000	 99.433290 
754.000000	 99.432988 
753.000000	 99.426589 
752.000000	 99.422333 
751.000000	 99.427160 
750.000000	 99.440079 
749.000000	 99.453874 
748.000000	 99.462829 
747.000000	 99.467271 
746.000000	 99.471001 
745.000000	 99.476884 
744.000000	 99.485344 
743.000000	 99.495097 
742.000000	 99.504313 
741.000000	 99.512194 
740.000000	 99.519898 
739.000000	 99.529035 
738.000000	 99.539179 
737.000000	 99.547772 
736.000000	 99.552462 
735.000000	 99.552880 
734.000000	 99.550744 
733.000000	 99.549262 
732.000000	 99.551802 
731.000000	 99.559456 
730.000000	 99.569630 
729.000000	 99.578536 
728.000000	 99.585204 
727.000000	 99.591198 
726.000000	 99.596631 
725.000000	 99.599061 
724.000000	 99.597085 
723.000000	 99.592675 
722.000000	 99.589086 
721.000000	 99.588352 
720.000000	 99.591518 
719.000000	 99.598860 
718.000000	 99.608371 
717.000000	 99.615939 
716.000000	 99.618545 
715.000000	 99.616153 
714.000000	 99.610753 
713.000000	 99.605261 
712.000000	 99.603549 
711.000000	 99.608833 
710.000000	 99.619903 
709.000000	 99.630617 
708.000000	 99.634784 
707.000000	 99.630664 
706.000000	 99.620348 
705.000000	 99.607158 
704.000000	 99.594675 
703.000000	 99.586340 
702.000000	 99.583650 
701.000000	 99.584608 
700.000000	 99.584982 
699.000000	 99.581037 
698.000000	 99.571981 
697.000000	 99.561172 
696.000000	 99.554152 
695.000000	 99.553671 
694.000000	 99.557078 
693.000000	 99.560029 
692.000000	 99.562170 
691.000000	 99.566411 
690.000000	 99.573714 
689.000000	 99.582309 
688.000000	 99.591430 
687.000000	 99.601728 
686.000000	 99.611400 
685.000000	 99.616458 
684.000000	 99.616151 
683.000000	 99.614325 
682.000000	 99.614443 
681.000000	 99.616208 
680.000000	 99.617934 
679.000000	 99.618875 
678.000000	 99.618069 
677.000000	 99.614701 
676.000000	 99.610896 
675.000000	 99.611020 
674.000000	 99.615872 
673.000000	 99.620539 
672.000000	 99.620221 
671.000000	 99.615767 
670.000000	 99.612101 
669.000000	 99.613068 
668.000000	 99.617301 
667.000000	 99.620226 
666.000000	 99.620832 
665.000000	 99.620701 
664.000000	 99.621571 
663.000000	 99.625196 
662.000000	 99.631269 
661.000000	 99.635938 
660.000000	 99.635502 
659.000000	 99.630110 
658.000000	 99.623013 
657.000000	 99.617183 
656.000000	 99.613391 
655.000000	 99.612345 
654.000000	 99.614807 
653.000000	 99.619760 
652.000000	 99.624210 
651.000000	 99.626224 
650.000000	 99.626763 

