4000.000000	99.546150 
3999.000000	99.545978 
3998.000000	99.545425 
3997.000000	99.544555 
3996.000000	99.543455 
3995.000000	99.542323 
3994.000000	99.541532 
3993.000000	99.541420 
3992.000000	99.541986 
3991.000000	99.542774 
3990.000000	99.543197 
3989.000000	99.543061 
3988.000000	99.542702 
3987.000000	99.542661 
3986.000000	99.543198 
3985.000000	99.544096 
3984.000000	99.544813 
3983.000000	99.544864 
3982.000000	99.544117 
3981.000000	99.542801 
3980.000000	99.541263 
3979.000000	99.539735 
3978.000000	99.538375 
3977.000000	99.537427 
3976.000000	99.537201 
3975.000000	99.537830 
3974.000000	99.539095 
3973.000000	99.540420 
3972.000000	99.541171 
3971.000000	99.541056 
3970.000000	99.540260 
3969.000000	99.539276 
3968.000000	99.538523 
3967.000000	99.538068 
3966.000000	99.537695 
3965.000000	99.537210 
3964.000000	99.536571 
3963.000000	99.535792 
3962.000000	99.534857 
3961.000000	99.533804 
3960.000000	99.532821 
3959.000000	99.532204 
3958.000000	99.532132 
3957.000000	99.532473 
3956.000000	99.532873 
3955.000000	99.533017 
3954.000000	99.532828 
3953.000000	99.532401 
3952.000000	99.531846 
3951.000000	99.531255 
3950.000000	99.530750 
3949.000000	99.530471 
3948.000000	99.530460 
3947.000000	99.530565 
3946.000000	99.530582 
3945.000000	99.530511 
3944.000000	99.530568 
3943.000000	99.530847 
3942.000000	99.531131 
3941.000000	99.531133 
3940.000000	99.530764 
3939.000000	99.530149 
3938.000000	99.529466 
3937.000000	99.528858 
3936.000000	99.528499 
3935.000000	99.528599 
3934.000000	99.529294 
3933.000000	99.530461 
3932.000000	99.531632 
3931.000000	99.532235 
3930.000000	99.532004 
3929.000000	99.531158 
3928.000000	99.530239 
3927.000000	99.529706 
3926.000000	99.529732 
3925.000000	99.530180 
3924.000000	99.530637 
3923.000000	99.530718 
3922.000000	99.530397 
3921.000000	99.530035 
3920.000000	99.530038 
3919.000000	99.530546 
3918.000000	99.531451 
3917.000000	99.532521 
3916.000000	99.533454 
3915.000000	99.533975 
3914.000000	99.534097 
3913.000000	99.534152 
3912.000000	99.534426 
3911.000000	99.534920 
3910.000000	99.535435 
3909.000000	99.535835 
3908.000000	99.536082 
3907.000000	99.536038 
3906.000000	99.535436 
3905.000000	99.534155 
3904.000000	99.532415 
3903.000000	99.530809 
3902.000000	99.529991 
3901.000000	99.530211 
3900.000000	99.531209 
3899.000000	99.532298 
3898.000000	99.532857 
3897.000000	99.532805 
3896.000000	99.532448 
3895.000000	99.532095 
3894.000000	99.531819 
3893.000000	99.531538 
3892.000000	99.531237 
3891.000000	99.531049 
3890.000000	99.531059 
3889.000000	99.531173 
3888.000000	99.531270 
3887.000000	99.531372 
3886.000000	99.531549 
3885.000000	99.531735 
3884.000000	99.531802 
3883.000000	99.531787 
3882.000000	99.531870 
3881.000000	99.532129 
3880.000000	99.532456 
3879.000000	99.532697 
3878.000000	99.532841 
3877.000000	99.532975 
3876.000000	99.533158 
3875.000000	99.533373 
3874.000000	99.533575 
3873.000000	99.533762 
3872.000000	99.533964 
3871.000000	99.534193 
3870.000000	99.534445 
3869.000000	99.534716 
3868.000000	99.534998 
3867.000000	99.535284 
3866.000000	99.535573 
3865.000000	99.535867 
3864.000000	99.536165 
3863.000000	99.536469 
3862.000000	99.536783 
3861.000000	99.537113 
3860.000000	99.537459 
3859.000000	99.537815 
3858.000000	99.538175 
3857.000000	99.538534 
3856.000000	99.538890 
3855.000000	99.539243 
3854.000000	99.539590 
3853.000000	99.539927 
3852.000000	99.540252 
3851.000000	99.540564 
3850.000000	99.540866 
3849.000000	99.541162 
3848.000000	99.541456 
3847.000000	99.541747 
3846.000000	99.542035 
3845.000000	99.542318 
3844.000000	99.542596 
3843.000000	99.542874 
3842.000000	99.543164 
3841.000000	99.543474 
3840.000000	99.543793 
3839.000000	99.544100 
3838.000000	99.544372 
3837.000000	99.544589 
3836.000000	99.544749 
3835.000000	99.544878 
3834.000000	99.545025 
3833.000000	99.545249 
3832.000000	99.545576 
3831.000000	99.545917 
3830.000000	99.546090 
3829.000000	99.545957 
3828.000000	99.545557 
3827.000000	99.545132 
3826.000000	99.544931 
3825.000000	99.544932 
3824.000000	99.544898 
3823.000000	99.544769 
3822.000000	99.544824 
3821.000000	99.545309 
3820.000000	99.545969 
3819.000000	99.546273 
3818.000000	99.546010 
3817.000000	99.545493 
3816.000000	99.545128 
3815.000000	99.544700 
3814.000000	99.543668 
3813.000000	99.542142 
3812.000000	99.541010 
3811.000000	99.540976 
3810.000000	99.541898 
3809.000000	99.542995 
3808.000000	99.543758 
3807.000000	99.544354 
3806.000000	99.544896 
3805.000000	99.544892 
3804.000000	99.543953 
3803.000000	99.542650 
3802.000000	99.542159 
3801.000000	99.542754 
3800.000000	99.543226 
3799.000000	99.542420 
3798.000000	99.540432 
3797.000000	99.538238 
3796.000000	99.536545 
3795.000000	99.535169 
3794.000000	99.533641 
3793.000000	99.531977 
3792.000000	99.530653 
3791.000000	99.530001 
3790.000000	99.529997 
3789.000000	99.530454 
3788.000000	99.531144 
3787.000000	99.531701 
3786.000000	99.531874 
3785.000000	99.531896 
3784.000000	99.532260 
3783.000000	99.532953 
3782.000000	99.533410 
3781.000000	99.533309 
3780.000000	99.532920 
3779.000000	99.532536 
3778.000000	99.531821 
3777.000000	99.530206 
3776.000000	99.527823 
3775.000000	99.525739 
3774.000000	99.524822 
3773.000000	99.524836 
3772.000000	99.525086 
3771.000000	99.525501 
3770.000000	99.526192 
3769.000000	99.526659 
3768.000000	99.526415 
3767.000000	99.525957 
3766.000000	99.526388 
3765.000000	99.528000 
3764.000000	99.529455 
3763.000000	99.529040 
3762.000000	99.526762 
3761.000000	99.524470 
3760.000000	99.523680 
3759.000000	99.524345 
3758.000000	99.525953 
3757.000000	99.528457 
3756.000000	99.531387 
3755.000000	99.533760 
3754.000000	99.535398 
3753.000000	99.537418 
3752.000000	99.540385 
3751.000000	99.542698 
3750.000000	99.543235 
3749.000000	99.543471 
3748.000000	99.544380 
3747.000000	99.544747 
3746.000000	99.543561 
3745.000000	99.541730 
3744.000000	99.540463 
3743.000000	99.538844 
3742.000000	99.535411 
3741.000000	99.530515 
3740.000000	99.525366 
3739.000000	99.520594 
3738.000000	99.516819 
3737.000000	99.515514 
3736.000000	99.517259 
3735.000000	99.519712 
3734.000000	99.519618 
3733.000000	99.516925 
3732.000000	99.514409 
3731.000000	99.513849 
3730.000000	99.514574 
3729.000000	99.515191 
3728.000000	99.515471 
3727.000000	99.515954 
3726.000000	99.516336 
3725.000000	99.515434 
3724.000000	99.512986 
3723.000000	99.510334 
3722.000000	99.508999 
3721.000000	99.509286 
3720.000000	99.510084 
3719.000000	99.509943 
3718.000000	99.508452 
3717.000000	99.506265 
3716.000000	99.503959 
3715.000000	99.501674 
3714.000000	99.499781 
3713.000000	99.499202 
3712.000000	99.500286 
3711.000000	99.501876 
3710.000000	99.502210 
3709.000000	99.500408 
3708.000000	99.496865 
3707.000000	99.492712 
3706.000000	99.488968 
3705.000000	99.486077 
3704.000000	99.483954 
3703.000000	99.482182 
3702.000000	99.480230 
3701.000000	99.477788 
3700.000000	99.474916 
3699.000000	99.471809 
3698.000000	99.468825 
3697.000000	99.466510 
3696.000000	99.465123 
3695.000000	99.464420 
3694.000000	99.464095 
3693.000000	99.463956 
3692.000000	99.463368 
3691.000000	99.461199 
3690.000000	99.456954 
3689.000000	99.452037 
3688.000000	99.448654 
3687.000000	99.447191 
3686.000000	99.446218 
3685.000000	99.444909 
3684.000000	99.443878 
3683.000000	99.443911 
3682.000000	99.444821 
3681.000000	99.445727 
3680.000000	99.445909 
3679.000000	99.444666 
3678.000000	99.441471 
3677.000000	99.437384 
3676.000000	99.435211 
3675.000000	99.436063 
3674.000000	99.437580 
3673.000000	99.436934 
3672.000000	99.434018 
3671.000000	99.431577 
3670.000000	99.431912 
3669.000000	99.434172 
3668.000000	99.436263 
3667.000000	99.437624 
3666.000000	99.438785 
3665.000000	99.439942 
3664.000000	99.440619 
3663.000000	99.440515 
3662.000000	99.440133 
3661.000000	99.440166 
3660.000000	99.440590 
3659.000000	99.440872 
3658.000000	99.441125 
3657.000000	99.442351 
3656.000000	99.445067 
3655.000000	99.448183 
3654.000000	99.450125 
3653.000000	99.450519 
3652.000000	99.450234 
3651.000000	99.450031 
3650.000000	99.449455 
3649.000000	99.448060 
3648.000000	99.447253 
3647.000000	99.448632 
3646.000000	99.451858 
3645.000000	99.455519 
3644.000000	99.458742 
3643.000000	99.461651 
3642.000000	99.464861 
3641.000000	99.468598 
3640.000000	99.472414 
3639.000000	99.475534 
3638.000000	99.477326 
3637.000000	99.477654 
3636.000000	99.477056 
3635.000000	99.476523 
3634.000000	99.476662 
3633.000000	99.477196 
3632.000000	99.477702 
3631.000000	99.478508 
3630.000000	99.480354 
3629.000000	99.482711 
3628.000000	99.483764 
3627.000000	99.483089 
3626.000000	99.482086 
3625.000000	99.482105 
3624.000000	99.483264 
3623.000000	99.484737 
3622.000000	99.485764 
3621.000000	99.486488 
3620.000000	99.487530 
3619.000000	99.488961 
3618.000000	99.490257 
3617.000000	99.491128 
3616.000000	99.491777 
3615.000000	99.492533 
3614.000000	99.493384 
3613.000000	99.494000 
3612.000000	99.494242 
3611.000000	99.494413 
3610.000000	99.494907 
3609.000000	99.495723 
3608.000000	99.496500 
3607.000000	99.496999 
3606.000000	99.497345 
3605.000000	99.497761 
3604.000000	99.498313 
3603.000000	99.498931 
3602.000000	99.499539 
3601.000000	99.500112 
3600.000000	99.500634 
3599.000000	99.501078 
3598.000000	99.501447 
3597.000000	99.501790 
3596.000000	99.502150 
3595.000000	99.502547 
3594.000000	99.502971 
3593.000000	99.503411 
3592.000000	99.503850 
3591.000000	99.504264 
3590.000000	99.504636 
3589.000000	99.504975 
3588.000000	99.505329 
3587.000000	99.505730 
3586.000000	99.506141 
3585.000000	99.506503 
3584.000000	99.506838 
3583.000000	99.507224 
3582.000000	99.507718 
3581.000000	99.508287 
3580.000000	99.508839 
3579.000000	99.509308 
3578.000000	99.509694 
3577.000000	99.510044 
3576.000000	99.510424 
3575.000000	99.510881 
3574.000000	99.511409 
3573.000000	99.511915 
3572.000000	99.512278 
3571.000000	99.512444 
3570.000000	99.512447 
3569.000000	99.512425 
3568.000000	99.512557 
3567.000000	99.512886 
3566.000000	99.513235 
3565.000000	99.513448 
3564.000000	99.513628 
3563.000000	99.514063 
3562.000000	99.514940 
3561.000000	99.516136 
3560.000000	99.517239 
3559.000000	99.517885 
3558.000000	99.518033 
3557.000000	99.517957 
3556.000000	99.518013 
3555.000000	99.518341 
3554.000000	99.518822 
3553.000000	99.519194 
3552.000000	99.519238 
3551.000000	99.518980 
3550.000000	99.518646 
3549.000000	99.518464 
3548.000000	99.518553 
3547.000000	99.518902 
3546.000000	99.519419 
3545.000000	99.519896 
3544.000000	99.520092 
3543.000000	99.520007 
3542.000000	99.520024 
3541.000000	99.520557 
3540.000000	99.521636 
3539.000000	99.522821 
3538.000000	99.523648 
3537.000000	99.524067 
3536.000000	99.524348 
3535.000000	99.524682 
3534.000000	99.524967 
3533.000000	99.525087 
3532.000000	99.525180 
3531.000000	99.525532 
3530.000000	99.526171 
3529.000000	99.526708 
3528.000000	99.526720 
3527.000000	99.526209 
3526.000000	99.525576 
3525.000000	99.525178 
3524.000000	99.525041 
3523.000000	99.525011 
3522.000000	99.525068 
3521.000000	99.525344 
3520.000000	99.525951 
3519.000000	99.526879 
3518.000000	99.528046 
3517.000000	99.529294 
3516.000000	99.530314 
3515.000000	99.530776 
3514.000000	99.530549 
3513.000000	99.529796 
3512.000000	99.528889 
3511.000000	99.528191 
3510.000000	99.527889 
3509.000000	99.527985 
3508.000000	99.528385 
3507.000000	99.528992 
3506.000000	99.529733 
3505.000000	99.530470 
3504.000000	99.530968 
3503.000000	99.531084 
3502.000000	99.531003 
3501.000000	99.531164 
3500.000000	99.531842 
3499.000000	99.532887 
3498.000000	99.533843 
3497.000000	99.534369 
3496.000000	99.534471 
3495.000000	99.534348 
3494.000000	99.534148 
3493.000000	99.533904 
3492.000000	99.533682 
3491.000000	99.533636 
3490.000000	99.533924 
3489.000000	99.534601 
3488.000000	99.535589 
3487.000000	99.536671 
3486.000000	99.537550 
3485.000000	99.538036 
3484.000000	99.538177 
3483.000000	99.538196 
3482.000000	99.538284 
3481.000000	99.538476 
3480.000000	99.538750 
3479.000000	99.539105 
3478.000000	99.539489 
3477.000000	99.539758 
3476.000000	99.539850 
3475.000000	99.539959 
3474.000000	99.540402 
3473.000000	99.541242 
3472.000000	99.542153 
3471.000000	99.542731 
3470.000000	99.542922 
3469.000000	99.543004 
3468.000000	99.543214 
3467.000000	99.543458 
3466.000000	99.543525 
3465.000000	99.543432 
3464.000000	99.543456 
3463.000000	99.543812 
3462.000000	99.544428 
3461.000000	99.545047 
3460.000000	99.545517 
3459.000000	99.545889 
3458.000000	99.546231 
3457.000000	99.546424 
3456.000000	99.546264 
3455.000000	99.545708 
3454.000000	99.545002 
3453.000000	99.544551 
3452.000000	99.544575 
3451.000000	99.544963 
3450.000000	99.545410 
3449.000000	99.545664 
3448.000000	99.545630 
3447.000000	99.545289 
3446.000000	99.544663 
3445.000000	99.543946 
3444.000000	99.543543 
3443.000000	99.543792 
3442.000000	99.544562 
3441.000000	99.545201 
3440.000000	99.545085 
3439.000000	99.544160 
3438.000000	99.542911 
3437.000000	99.541868 
3436.000000	99.541239 
3435.000000	99.541059 
3434.000000	99.541422 
3433.000000	99.542396 
3432.000000	99.543766 
3431.000000	99.545051 
3430.000000	99.545853 
3429.000000	99.546152 
3428.000000	99.546212 
3427.000000	99.546241 
3426.000000	99.546139 
3425.000000	99.545622 
3424.000000	99.544601 
3423.000000	99.543365 
3422.000000	99.542328 
3421.000000	99.541651 
3420.000000	99.541285 
3419.000000	99.541323 
3418.000000	99.542030 
3417.000000	99.543372 
3416.000000	99.544718 
3415.000000	99.545290 
3414.000000	99.544887 
3413.000000	99.544001 
3412.000000	99.543295 
3411.000000	99.543053 
3410.000000	99.543156 
3409.000000	99.543317 
3408.000000	99.543175 
3407.000000	99.542407 
3406.000000	99.541020 
3405.000000	99.539550 
3404.000000	99.538722 
3403.000000	99.538801 
3402.000000	99.539380 
3401.000000	99.539869 
3400.000000	99.540151 
3399.000000	99.540612 
3398.000000	99.541582 
3397.000000	99.542862 
3396.000000	99.543848 
3395.000000	99.544024 
3394.000000	99.543234 
3393.000000	99.541661 
3392.000000	99.539755 
3391.000000	99.538154 
3390.000000	99.537457 
3389.000000	99.537928 
3388.000000	99.539398 
3387.000000	99.541436 
3386.000000	99.543626 
3385.000000	99.545676 
3384.000000	99.547322 
3383.000000	99.548229 
3382.000000	99.548075 
3381.000000	99.546796 
3380.000000	99.544740 
3379.000000	99.542591 
3378.000000	99.541013 
3377.000000	99.540241 
3376.000000	99.540012 
3375.000000	99.539875 
3374.000000	99.539586 
3373.000000	99.539266 
3372.000000	99.539191 
3371.000000	99.539436 
3370.000000	99.539728 
3369.000000	99.539663 
3368.000000	99.539114 
3367.000000	99.538395 
3366.000000	99.537966 
3365.000000	99.537961 
3364.000000	99.538073 
3363.000000	99.537912 
3362.000000	99.537407 
3361.000000	99.536781 
3360.000000	99.536209 
3359.000000	99.535628 
3358.000000	99.534937 
3357.000000	99.534280 
3356.000000	99.533972 
3355.000000	99.534119 
3354.000000	99.534399 
3353.000000	99.534335 
3352.000000	99.533777 
3351.000000	99.533003 
3350.000000	99.532406 
3349.000000	99.532145 
3348.000000	99.532145 
3347.000000	99.532249 
3346.000000	99.532296 
3345.000000	99.532150 
3344.000000	99.531777 
3343.000000	99.531304 
3342.000000	99.530903 
3341.000000	99.530587 
3340.000000	99.530190 
3339.000000	99.529574 
3338.000000	99.528795 
3337.000000	99.528105 
3336.000000	99.527722 
3335.000000	99.527647 
3334.000000	99.527690 
3333.000000	99.527678 
3332.000000	99.527600 
3331.000000	99.527509 
3330.000000	99.527371 
3329.000000	99.527076 
3328.000000	99.526573 
3327.000000	99.525955 
3326.000000	99.525361 
3325.000000	99.524814 
3324.000000	99.524217 
3323.000000	99.523505 
3322.000000	99.522761 
3321.000000	99.522143 
3320.000000	99.521722 
3319.000000	99.521433 
3318.000000	99.521182 
3317.000000	99.520918 
3316.000000	99.520575 
3315.000000	99.520050 
3314.000000	99.519332 
3313.000000	99.518639 
3312.000000	99.518283 
3311.000000	99.518368 
3310.000000	99.518654 
3309.000000	99.518715 
3308.000000	99.518342 
3307.000000	99.517647 
3306.000000	99.516884 
3305.000000	99.516215 
3304.000000	99.515653 
3303.000000	99.515133 
3302.000000	99.514564 
3301.000000	99.513868 
3300.000000	99.513010 
3299.000000	99.512051 
3298.000000	99.511150 
3297.000000	99.510507 
3296.000000	99.510225 
3295.000000	99.510187 
3294.000000	99.510096 
3293.000000	99.509734 
3292.000000	99.509175 
3291.000000	99.508647 
3290.000000	99.508179 
3289.000000	99.507538 
3288.000000	99.506559 
3287.000000	99.505390 
3286.000000	99.504376 
3285.000000	99.503707 
3284.000000	99.503294 
3283.000000	99.502918 
3282.000000	99.502456 
3281.000000	99.501957 
3280.000000	99.501558 
3279.000000	99.501350 
3278.000000	99.501286 
3277.000000	99.501190 
3276.000000	99.500896 
3275.000000	99.500341 
3274.000000	99.499543 
3273.000000	99.498530 
3272.000000	99.497419 
3271.000000	99.496514 
3270.000000	99.496153 
3269.000000	99.496400 
3268.000000	99.496906 
3267.000000	99.497165 
3266.000000	99.496906 
3265.000000	99.496239 
3264.000000	99.495591 
3263.000000	99.495439 
3262.000000	99.495974 
3261.000000	99.496886 
3260.000000	99.497543 
3259.000000	99.497483 
3258.000000	99.496685 
3257.000000	99.495438 
3256.000000	99.494047 
3255.000000	99.492745 
3254.000000	99.491808 
3253.000000	99.491530 
3252.000000	99.492056 
3251.000000	99.493293 
3250.000000	99.494884 
3249.000000	99.496309 
3248.000000	99.497114 
3247.000000	99.497102 
3246.000000	99.496406 
3245.000000	99.495398 
3244.000000	99.494497 
3243.000000	99.493953 
3242.000000	99.493758 
3241.000000	99.493758 
3240.000000	99.493924 
3239.000000	99.494464 
3238.000000	99.495594 
3237.000000	99.497205 
3236.000000	99.498803 
3235.000000	99.499801 
3234.000000	99.499825 
3233.000000	99.498854 
3232.000000	99.497246 
3231.000000	99.495619 
3230.000000	99.494504 
3229.000000	99.494025 
3228.000000	99.493891 
3227.000000	99.493673 
3226.000000	99.493087 
3225.000000	99.492120 
3224.000000	99.491025 
3223.000000	99.490151 
3222.000000	99.489662 
3221.000000	99.489405 
3220.000000	99.489089 
3219.000000	99.488584 
3218.000000	99.488007 
3217.000000	99.487652 
3216.000000	99.487868 
3215.000000	99.488853 
3214.000000	99.490383 
3213.000000	99.491728 
3212.000000	99.492102 
3211.000000	99.491249 
3210.000000	99.489532 
3209.000000	99.487662 
3208.000000	99.486252 
3207.000000	99.485554 
3206.000000	99.485467 
3205.000000	99.485680 
3204.000000	99.485932 
3203.000000	99.486150 
3202.000000	99.486315 
3201.000000	99.486285 
3200.000000	99.485941 
3199.000000	99.485445 
3198.000000	99.485156 
3197.000000	99.485232 
3196.000000	99.485480 
3195.000000	99.485606 
3194.000000	99.485520 
3193.000000	99.485302 
3192.000000	99.485021 
3191.000000	99.484676 
3190.000000	99.484245 
3189.000000	99.483719 
3188.000000	99.483136 
3187.000000	99.482609 
3186.000000	99.482274 
3185.000000	99.482114 
3184.000000	99.481924 
3183.000000	99.481552 
3182.000000	99.481116 
3181.000000	99.480900 
3180.000000	99.481084 
3179.000000	99.481633 
3178.000000	99.482295 
3177.000000	99.482622 
3176.000000	99.482235 
3175.000000	99.481280 
3174.000000	99.480480 
3173.000000	99.480357 
3172.000000	99.480466 
3171.000000	99.479863 
3170.000000	99.478347 
3169.000000	99.476831 
3168.000000	99.476268 
3167.000000	99.476563 
3166.000000	99.476885 
3165.000000	99.476715 
3164.000000	99.476282 
3163.000000	99.476021 
3162.000000	99.475972 
3161.000000	99.475853 
3160.000000	99.475560 
3159.000000	99.475346 
3158.000000	99.475437 
3157.000000	99.475576 
3156.000000	99.475139 
3155.000000	99.473692 
3154.000000	99.471328 
3153.000000	99.468506 
3152.000000	99.465771 
3151.000000	99.463653 
3150.000000	99.462583 
3149.000000	99.462635 
3148.000000	99.463449 
3147.000000	99.464575 
3146.000000	99.465846 
3145.000000	99.467225 
3144.000000	99.468420 
3143.000000	99.468973 
3142.000000	99.468757 
3141.000000	99.468167 
3140.000000	99.467712 
3139.000000	99.467506 
3138.000000	99.467286 
3137.000000	99.466849 
3136.000000	99.466364 
3135.000000	99.466197 
3134.000000	99.466497 
3133.000000	99.466975 
3132.000000	99.467109 
3131.000000	99.466587 
3130.000000	99.465569 
3129.000000	99.464570 
3128.000000	99.464117 
3127.000000	99.464431 
3126.000000	99.465358 
3125.000000	99.466437 
3124.000000	99.467126 
3123.000000	99.467112 
3122.000000	99.466462 
3121.000000	99.465558 
3120.000000	99.464851 
3119.000000	99.464591 
3118.000000	99.464773 
3117.000000	99.465224 
3116.000000	99.465703 
3115.000000	99.465999 
3114.000000	99.465997 
3113.000000	99.465703 
3112.000000	99.465238 
3111.000000	99.464780 
3110.000000	99.464460 
3109.000000	99.464265 
3108.000000	99.464061 
3107.000000	99.463714 
3106.000000	99.463219 
3105.000000	99.462718 
3104.000000	99.462420 
3103.000000	99.462470 
3102.000000	99.462891 
3101.000000	99.463566 
3100.000000	99.464248 
3099.000000	99.464744 
3098.000000	99.465118 
3097.000000	99.465619 
3096.000000	99.466341 
3095.000000	99.467014 
3094.000000	99.467219 
3093.000000	99.466797 
3092.000000	99.465962 
3091.000000	99.465089 
3090.000000	99.464451 
3089.000000	99.464143 
3088.000000	99.464107 
3087.000000	99.464116 
3086.000000	99.463857 
3085.000000	99.463181 
3084.000000	99.462263 
3083.000000	99.461366 
3082.000000	99.460534 
3081.000000	99.459695 
3080.000000	99.459006 
3079.000000	99.458885 
3078.000000	99.459667 
3077.000000	99.461320 
3076.000000	99.463465 
3075.000000	99.465486 
3074.000000	99.466632 
3073.000000	99.466352 
3072.000000	99.464800 
3071.000000	99.462823 
3070.000000	99.461127 
3069.000000	99.459577 
3068.000000	99.457668 
3067.000000	99.455608 
3066.000000	99.454593 
3065.000000	99.455817 
3064.000000	99.459228 
3063.000000	99.463134 
3062.000000	99.465122 
3061.000000	99.463702 
3060.000000	99.459433 
3059.000000	99.454594 
3058.000000	99.451482 
3057.000000	99.451003 
3056.000000	99.452748 
3055.000000	99.455754 
3054.000000	99.458724 
3053.000000	99.460032 
3052.000000	99.458438 
3051.000000	99.454150 
3050.000000	99.448977 
3049.000000	99.445268 
3048.000000	99.444404 
3047.000000	99.445843 
3046.000000	99.447191 
3045.000000	99.445770 
3044.000000	99.441014 
3043.000000	99.435388 
3042.000000	99.432274 
3041.000000	99.432685 
3040.000000	99.434552 
3039.000000	99.435180 
3038.000000	99.433605 
3037.000000	99.430385 
3036.000000	99.426072 
3035.000000	99.420753 
3034.000000	99.414783 
3033.000000	99.409070 
3032.000000	99.404277 
3031.000000	99.400017 
3030.000000	99.395153 
3029.000000	99.389068 
3028.000000	99.382615 
3027.000000	99.377585 
3026.000000	99.374869 
3025.000000	99.373131 
3024.000000	99.369715 
3023.000000	99.362974 
3022.000000	99.353438 
3021.000000	99.342701 
3020.000000	99.331634 
3019.000000	99.320122 
3018.000000	99.308380 
3017.000000	99.297733 
3016.000000	99.289505 
3015.000000	99.283224 
3014.000000	99.276633 
3013.000000	99.268133 
3012.000000	99.258976 
3011.000000	99.252160 
3010.000000	99.248910 
3009.000000	99.246973 
3008.000000	99.242858 
3007.000000	99.235151 
3006.000000	99.225080 
3005.000000	99.214498 
3004.000000	99.204364 
3003.000000	99.194987 
3002.000000	99.186598 
3001.000000	99.179148 
3000.000000	99.172108 
2999.000000	99.164915 
2998.000000	99.157475 
2997.000000	99.150169 
2996.000000	99.143538 
2995.000000	99.137697 
2994.000000	99.131554 
2993.000000	99.122804 
2992.000000	99.109575 
2991.000000	99.092596 
2990.000000	99.075525 
2989.000000	99.062814 
2988.000000	99.057132 
2987.000000	99.058325 
2986.000000	99.063861 
2985.000000	99.070164 
2984.000000	99.074341 
2983.000000	99.075401 
2982.000000	99.074110 
2981.000000	99.071970 
2980.000000	99.070292 
2979.000000	99.069671 
2978.000000	99.069526 
2977.000000	99.068156 
2976.000000	99.063919 
2975.000000	99.056692 
2974.000000	99.048019 
2973.000000	99.039996 
2972.000000	99.034297 
2971.000000	99.031799 
2970.000000	99.032109 
2969.000000	99.033344 
2968.000000	99.033387 
2967.000000	99.031988 
2966.000000	99.031185 
2965.000000	99.033294 
2964.000000	99.038772 
2963.000000	99.046236 
2962.000000	99.054024 
2961.000000	99.061329 
2960.000000	99.068113 
2959.000000	99.074504 
2958.000000	99.080407 
2957.000000	99.085631 
2956.000000	99.090385 
2955.000000	99.095496 
2954.000000	99.101956 
2953.000000	99.110200 
2952.000000	99.119753 
2951.000000	99.129234 
2950.000000	99.136638 
2949.000000	99.140393 
2948.000000	99.140796 
2947.000000	99.140121 
2946.000000	99.140639 
2945.000000	99.142664 
2944.000000	99.144905 
2943.000000	99.146094 
2942.000000	99.145454 
2941.000000	99.142280 
2940.000000	99.136561 
2939.000000	99.130156 
2938.000000	99.125950 
2937.000000	99.125127 
2936.000000	99.126044 
2935.000000	99.126156 
2934.000000	99.124206 
2933.000000	99.120237 
2932.000000	99.114526 
2931.000000	99.107381 
2930.000000	99.099625 
2929.000000	99.092592 
2928.000000	99.087428 
2927.000000	99.084228 
2926.000000	99.081623 
2925.000000	99.077639 
2924.000000	99.071859 
2923.000000	99.066619 
2922.000000	99.065062 
2921.000000	99.067744 
2920.000000	99.071998 
2919.000000	99.074755 
2918.000000	99.075329 
2917.000000	99.075116 
2916.000000	99.075657 
2915.000000	99.077687 
2914.000000	99.081297 
2913.000000	99.086034 
2912.000000	99.090996 
2911.000000	99.095404 
2910.000000	99.099043 
2909.000000	99.101980 
2908.000000	99.104073 
2907.000000	99.105092 
2906.000000	99.104948 
2905.000000	99.103529 
2904.000000	99.100604 
2903.000000	99.096476 
2902.000000	99.092729 
2901.000000	99.092187 
2900.000000	99.096938 
2899.000000	99.106812 
2898.000000	99.118810 
2897.000000	99.128756 
2896.000000	99.134340 
2895.000000	99.136626 
2894.000000	99.138560 
2893.000000	99.142178 
2892.000000	99.147488 
2891.000000	99.153395 
2890.000000	99.158767 
2889.000000	99.162679 
2888.000000	99.164734 
2887.000000	99.165723 
2886.000000	99.167340 
2885.000000	99.170691 
2884.000000	99.175478 
2883.000000	99.180939 
2882.000000	99.187001 
2881.000000	99.193955 
2880.000000	99.201445 
2879.000000	99.208477 
2878.000000	99.214397 
2877.000000	99.219416 
2876.000000	99.224143 
2875.000000	99.228963 
2874.000000	99.233841 
2873.000000	99.238439 
2872.000000	99.242316 
2871.000000	99.245136 
2870.000000	99.246841 
2869.000000	99.247904 
2868.000000	99.249531 
2867.000000	99.253240 
2866.000000	99.259480 
2865.000000	99.266626 
2864.000000	99.272021 
2863.000000	99.274417 
2862.000000	99.274953 
2861.000000	99.275583 
2860.000000	99.277129 
2859.000000	99.279229 
2858.000000	99.281313 
2857.000000	99.282812 
2856.000000	99.283009 
2855.000000	99.281752 
2854.000000	99.280316 
2853.000000	99.280764 
2852.000000	99.284364 
2851.000000	99.291041 
2850.000000	99.300071 
2849.000000	99.310678 
2848.000000	99.322087 
2847.000000	99.333570 
2846.000000	99.344606 
2845.000000	99.354718 
2844.000000	99.363261 
2843.000000	99.369763 
2842.000000	99.374538 
2841.000000	99.378677 
2840.000000	99.383258 
2839.000000	99.388665 
2838.000000	99.394593 
2837.000000	99.400446 
2836.000000	99.405723 
2835.000000	99.410243 
2834.000000	99.414064 
2833.000000	99.417138 
2832.000000	99.419113 
2831.000000	99.419628 
2830.000000	99.418770 
2829.000000	99.417231 
2828.000000	99.416094 
2827.000000	99.416434 
2826.000000	99.418827 
2825.000000	99.422858 
2824.000000	99.427145 
2823.000000	99.430224 
2822.000000	99.431692 
2821.000000	99.432518 
2820.000000	99.434115 
2819.000000	99.436963 
2818.000000	99.440090 
2817.000000	99.442049 
2816.000000	99.442396 
2815.000000	99.442023 
2814.000000	99.441975 
2813.000000	99.442308 
2812.000000	99.442522 
2811.000000	99.442810 
2810.000000	99.444192 
2809.000000	99.447186 
2808.000000	99.450821 
2807.000000	99.453343 
2806.000000	99.453765 
2805.000000	99.452559 
2804.000000	99.451055 
2803.000000	99.450325 
2802.000000	99.450576 
2801.000000	99.451414 
2800.000000	99.452479 
2799.000000	99.453706 
2798.000000	99.454967 
2797.000000	99.455785 
2796.000000	99.455740 
2795.000000	99.455112 
2794.000000	99.454799 
2793.000000	99.455441 
2792.000000	99.456782 
2791.000000	99.457970 
2790.000000	99.458401 
2789.000000	99.458212 
2788.000000	99.458057 
2787.000000	99.458476 
2786.000000	99.459442 
2785.000000	99.460429 
2784.000000	99.460913 
2783.000000	99.460820 
2782.000000	99.460512 
2781.000000	99.460449 
2780.000000	99.460853 
2779.000000	99.461644 
2778.000000	99.462572 
2777.000000	99.463402 
2776.000000	99.464067 
2775.000000	99.464634 
2774.000000	99.465142 
2773.000000	99.465531 
2772.000000	99.465769 
2771.000000	99.465989 
2770.000000	99.466372 
2769.000000	99.466910 
2768.000000	99.467396 
2767.000000	99.467704 
2766.000000	99.467963 
2765.000000	99.468346 
2764.000000	99.468759 
2763.000000	99.468898 
2762.000000	99.468589 
2761.000000	99.467984 
2760.000000	99.467467 
2759.000000	99.467345 
2758.000000	99.467660 
2757.000000	99.468265 
2756.000000	99.468965 
2755.000000	99.469591 
2754.000000	99.469990 
2753.000000	99.470074 
2752.000000	99.469952 
2751.000000	99.469927 
2750.000000	99.470262 
2749.000000	99.470945 
2748.000000	99.471735 
2747.000000	99.472396 
2746.000000	99.472863 
2745.000000	99.473183 
2744.000000	99.473398 
2743.000000	99.473513 
2742.000000	99.473538 
2741.000000	99.473543 
2740.000000	99.473658 
2739.000000	99.473980 
2738.000000	99.474498 
2737.000000	99.475123 
2736.000000	99.475782 
2735.000000	99.476438 
2734.000000	99.477004 
2733.000000	99.477342 
2732.000000	99.477404 
2731.000000	99.477314 
2730.000000	99.477267 
2729.000000	99.477366 
2728.000000	99.477624 
2727.000000	99.478025 
2726.000000	99.478528 
2725.000000	99.479032 
2724.000000	99.479462 
2723.000000	99.479878 
2722.000000	99.480414 
2721.000000	99.481116 
2720.000000	99.481871 
2719.000000	99.482484 
2718.000000	99.482829 
2717.000000	99.482906 
2716.000000	99.482837 
2715.000000	99.482815 
2714.000000	99.482975 
2713.000000	99.483318 
2712.000000	99.483759 
2711.000000	99.484235 
2710.000000	99.484739 
2709.000000	99.485261 
2708.000000	99.485743 
2707.000000	99.486101 
2706.000000	99.486278 
2705.000000	99.486299 
2704.000000	99.486306 
2703.000000	99.486500 
2702.000000	99.486963 
2701.000000	99.487563 
2700.000000	99.488069 
2699.000000	99.488409 
2698.000000	99.488717 
2697.000000	99.489119 
2696.000000	99.489550 
2695.000000	99.489834 
2694.000000	99.489898 
2693.000000	99.489849 
2692.000000	99.489880 
2691.000000	99.490077 
2690.000000	99.490332 
2689.000000	99.490462 
2688.000000	99.490435 
2687.000000	99.490434 
2686.000000	99.490655 
2685.000000	99.491095 
2684.000000	99.491629 
2683.000000	99.492153 
2682.000000	99.492619 
2681.000000	99.492978 
2680.000000	99.493200 
2679.000000	99.493331 
2678.000000	99.493492 
2677.000000	99.493783 
2676.000000	99.494206 
2675.000000	99.494708 
2674.000000	99.495219 
2673.000000	99.495698 
2672.000000	99.496137 
2671.000000	99.496555 
2670.000000	99.496972 
2669.000000	99.497388 
2668.000000	99.497801 
2667.000000	99.498217 
2666.000000	99.498643 
2665.000000	99.499076 
2664.000000	99.499512 
2663.000000	99.499949 
2662.000000	99.500389 
2661.000000	99.500829 
2660.000000	99.501271 
2659.000000	99.501715 
2658.000000	99.502161 
2657.000000	99.502609 
2656.000000	99.503060 
2655.000000	99.503514 
2654.000000	99.503971 
2653.000000	99.504433 
2652.000000	99.504899 
2651.000000	99.505371 
2650.000000	99.505849 
2649.000000	99.506330 
2648.000000	99.506805 
2647.000000	99.507268 
2646.000000	99.507722 
2645.000000	99.508173 
2644.000000	99.508627 
2643.000000	99.509081 
2642.000000	99.509530 
2641.000000	99.509974 
2640.000000	99.510418 
2639.000000	99.510858 
2638.000000	99.511306 
2637.000000	99.511777 
2636.000000	99.512227 
2635.000000	99.512580 
2634.000000	99.512824 
2633.000000	99.513056 
2632.000000	99.513394 
2631.000000	99.513870 
2630.000000	99.514413 
2629.000000	99.514886 
2628.000000	99.515150 
2627.000000	99.515168 
2626.000000	99.515102 
2625.000000	99.515177 
2624.000000	99.515426 
2623.000000	99.515689 
2622.000000	99.515883 
2621.000000	99.516137 
2620.000000	99.516611 
2619.000000	99.517336 
2618.000000	99.518230 
2617.000000	99.519158 
2616.000000	99.519942 
2615.000000	99.520477 
2614.000000	99.520894 
2613.000000	99.521434 
2612.000000	99.522081 
2611.000000	99.522466 
2610.000000	99.522294 
2609.000000	99.521751 
2608.000000	99.521332 
2607.000000	99.521318 
2606.000000	99.521589 
2605.000000	99.522013 
2604.000000	99.522788 
2603.000000	99.524162 
2602.000000	99.525875 
2601.000000	99.527194 
2600.000000	99.527698 
2599.000000	99.527639 
2598.000000	99.527363 
2597.000000	99.526713 
2596.000000	99.525367 
2595.000000	99.523533 
2594.000000	99.521977 
2593.000000	99.521343 
2592.000000	99.521681 
2591.000000	99.522603 
2590.000000	99.523594 
2589.000000	99.524215 
2588.000000	99.524225 
2587.000000	99.523637 
2586.000000	99.522669 
2585.000000	99.521658 
2584.000000	99.520952 
2583.000000	99.520721 
2582.000000	99.520800 
2581.000000	99.520817 
2580.000000	99.520589 
2579.000000	99.520280 
2578.000000	99.520067 
2577.000000	99.519832 
2576.000000	99.519339 
2575.000000	99.518622 
2574.000000	99.517991 
2573.000000	99.517682 
2572.000000	99.517670 
2571.000000	99.517806 
2570.000000	99.517951 
2569.000000	99.517961 
2568.000000	99.517726 
2567.000000	99.517272 
2566.000000	99.516734 
2565.000000	99.516203 
2564.000000	99.515679 
2563.000000	99.515166 
2562.000000	99.514710 
2561.000000	99.514326 
2560.000000	99.513960 
2559.000000	99.513550 
2558.000000	99.513087 
2557.000000	99.512603 
2556.000000	99.512145 
2555.000000	99.511746 
2554.000000	99.511414 
2553.000000	99.511143 
2552.000000	99.510879 
2551.000000	99.510565 
2550.000000	99.510173 
2549.000000	99.509701 
2548.000000	99.509160 
2547.000000	99.508596 
2546.000000	99.508083 
2545.000000	99.507656 
2544.000000	99.507278 
2543.000000	99.506895 
2542.000000	99.506482 
2541.000000	99.506018 
2540.000000	99.505478 
2539.000000	99.504897 
2538.000000	99.504389 
2537.000000	99.504010 
2536.000000	99.503670 
2535.000000	99.503261 
2534.000000	99.502828 
2533.000000	99.502499 
2532.000000	99.502279 
2531.000000	99.502026 
2530.000000	99.501648 
2529.000000	99.501221 
2528.000000	99.500885 
2527.000000	99.500674 
2526.000000	99.500479 
2525.000000	99.500168 
2524.000000	99.499765 
2523.000000	99.499491 
2522.000000	99.499553 
2521.000000	99.499926 
2520.000000	99.500311 
2519.000000	99.500370 
2518.000000	99.499987 
2517.000000	99.499269 
2516.000000	99.498429 
2515.000000	99.497689 
2514.000000	99.497223 
2513.000000	99.497070 
2512.000000	99.497119 
2511.000000	99.497258 
2510.000000	99.497501 
2509.000000	99.497929 
2508.000000	99.498573 
2507.000000	99.499391 
2506.000000	99.500228 
2505.000000	99.500776 
2504.000000	99.500755 
2503.000000	99.500206 
2502.000000	99.499493 
2501.000000	99.498974 
2500.000000	99.498792 
2499.000000	99.499027 
2498.000000	99.499749 
2497.000000	99.500769 
2496.000000	99.501576 
2495.000000	99.501808 
2494.000000	99.501626 
2493.000000	99.501455 
2492.000000	99.501473 
2491.000000	99.501581 
2490.000000	99.501826 
2489.000000	99.502491 
2488.000000	99.503721 
2487.000000	99.505197 
2486.000000	99.506257 
2485.000000	99.506371 
2484.000000	99.505511 
2483.000000	99.504172 
2482.000000	99.503033 
2481.000000	99.502443 
2480.000000	99.502300 
2479.000000	99.502358 
2478.000000	99.502487 
2477.000000	99.502659 
2476.000000	99.502847 
2475.000000	99.503063 
2474.000000	99.503369 
2473.000000	99.503700 
2472.000000	99.503821 
2471.000000	99.503596 
2470.000000	99.503188 
2469.000000	99.502878 
2468.000000	99.502743 
2467.000000	99.502633 
2466.000000	99.502408 
2465.000000	99.502074 
2464.000000	99.501717 
2463.000000	99.501401 
2462.000000	99.501160 
2461.000000	99.500995 
2460.000000	99.500852 
2459.000000	99.500653 
2458.000000	99.500355 
2457.000000	99.499989 
2456.000000	99.499631 
2455.000000	99.499351 
2454.000000	99.499167 
2453.000000	99.499044 
2452.000000	99.498905 
2451.000000	99.498690 
2450.000000	99.498382 
2449.000000	99.498005 
2448.000000	99.497613 
2447.000000	99.497279 
2446.000000	99.497050 
2445.000000	99.496900 
2444.000000	99.496762 
2443.000000	99.496590 
2442.000000	99.496387 
2441.000000	99.496163 
2440.000000	99.495930 
2439.000000	99.495707 
2438.000000	99.495513 
2437.000000	99.495340 
2436.000000	99.495158 
2435.000000	99.494941 
2434.000000	99.494689 
2433.000000	99.494418 
2432.000000	99.494148 
2431.000000	99.493909 
2430.000000	99.493733 
2429.000000	99.493606 
2428.000000	99.493415 
2427.000000	99.493051 
2426.000000	99.492517 
2425.000000	99.491959 
2424.000000	99.491521 
2423.000000	99.491270 
2422.000000	99.491246 
2421.000000	99.491453 
2420.000000	99.491739 
2419.000000	99.491781 
2418.000000	99.491339 
2417.000000	99.490472 
2416.000000	99.489488 
2415.000000	99.488674 
2414.000000	99.488089 
2413.000000	99.487638 
2412.000000	99.487233 
2411.000000	99.486859 
2410.000000	99.486503 
2409.000000	99.486083 
2408.000000	99.485499 
2407.000000	99.484775 
2406.000000	99.484074 
2405.000000	99.483551 
2404.000000	99.483244 
2403.000000	99.483058 
2402.000000	99.482818 
2401.000000	99.482399 
2400.000000	99.481857 
2399.000000	99.481348 
2398.000000	99.480839 
2397.000000	99.480088 
2396.000000	99.479088 
2395.000000	99.478312 
2394.000000	99.478138 
2393.000000	99.478301 
2392.000000	99.478307 
2391.000000	99.478096 
2390.000000	99.477951 
2389.000000	99.477959 
2388.000000	99.478002 
2387.000000	99.478173 
2386.000000	99.478692 
2385.000000	99.479398 
2384.000000	99.479791 
2383.000000	99.479674 
2382.000000	99.479367 
2381.000000	99.479202 
2380.000000	99.479095 
2379.000000	99.478845 
2378.000000	99.478589 
2377.000000	99.478664 
2376.000000	99.479176 
2375.000000	99.479922 
2374.000000	99.480616 
2373.000000	99.481103 
2372.000000	99.481389 
2371.000000	99.481620 
2370.000000	99.482004 
2369.000000	99.482613 
2368.000000	99.483326 
2367.000000	99.484050 
2366.000000	99.484830 
2365.000000	99.485732 
2364.000000	99.486746 
2363.000000	99.487809 
2362.000000	99.488826 
2361.000000	99.489692 
2360.000000	99.490389 
2359.000000	99.491010 
2358.000000	99.491711 
2357.000000	99.492570 
2356.000000	99.493596 
2355.000000	99.494896 
2354.000000	99.496374 
2353.000000	99.497748 
2352.000000	99.498688 
2351.000000	99.499203 
2350.000000	99.499807 
2349.000000	99.500913 
2348.000000	99.502591 
2347.000000	99.504373 
2346.000000	99.505829 
2345.000000	99.507101 
2344.000000	99.508466 
2343.000000	99.510170 
2342.000000	99.511748 
2341.000000	99.512904 
2340.000000	99.513759 
2339.000000	99.514828 
2338.000000	99.516403 
2337.000000	99.518037 
2336.000000	99.519172 
2335.000000	99.519609 
2334.000000	99.519931 
2333.000000	99.520719 
2332.000000	99.522264 
2331.000000	99.523711 
2330.000000	99.524604 
2329.000000	99.524630 
2328.000000	99.525308 
2327.000000	99.527618 
2326.000000	99.531907 
2325.000000	99.536731 
2324.000000	99.540080 
2323.000000	99.541375 
2322.000000	99.541700 
2321.000000	99.542712 
2320.000000	99.544065 
2319.000000	99.544009 
2318.000000	99.542206 
2317.000000	99.539937 
2316.000000	99.538954 
2315.000000	99.538868 
2314.000000	99.539108 
2313.000000	99.539145 
2312.000000	99.539729 
2311.000000	99.540523 
2310.000000	99.541161 
2309.000000	99.540954 
2308.000000	99.540414 
2307.000000	99.539836 
2306.000000	99.539641 
2305.000000	99.539647 
2304.000000	99.539914 
2303.000000	99.540236 
2302.000000	99.540659 
2301.000000	99.540899 
2300.000000	99.541057 
2299.000000	99.541203 
2298.000000	99.541749 
2297.000000	99.542332 
2296.000000	99.542270 
2295.000000	99.540976 
2294.000000	99.539168 
2293.000000	99.538092 
2292.000000	99.538414 
2291.000000	99.539515 
2290.000000	99.540309 
2289.000000	99.540240 
2288.000000	99.539514 
2287.000000	99.538620 
2286.000000	99.537786 
2285.000000	99.536848 
2284.000000	99.535534 
2283.000000	99.534069 
2282.000000	99.532973 
2281.000000	99.532411 
2280.000000	99.531982 
2279.000000	99.531331 
2278.000000	99.530494 
2277.000000	99.529711 
2276.000000	99.529131 
2275.000000	99.528733 
2274.000000	99.528397 
2273.000000	99.528025 
2272.000000	99.527565 
2271.000000	99.527018 
2270.000000	99.526488 
2269.000000	99.526097 
2268.000000	99.525848 
2267.000000	99.525631 
2266.000000	99.525386 
2265.000000	99.525126 
2264.000000	99.524813 
2263.000000	99.524328 
2262.000000	99.523670 
2261.000000	99.523055 
2260.000000	99.522661 
2259.000000	99.522432 
2258.000000	99.522166 
2257.000000	99.521793 
2256.000000	99.521409 
2255.000000	99.521105 
2254.000000	99.520857 
2253.000000	99.520586 
2252.000000	99.520279 
2251.000000	99.519998 
2250.000000	99.519794 
2249.000000	99.519634 
2248.000000	99.519439 
2247.000000	99.519186 
2246.000000	99.518912 
2245.000000	99.518673 
2244.000000	99.518493 
2243.000000	99.518371 
2242.000000	99.518283 
2241.000000	99.518196 
2240.000000	99.518105 
2239.000000	99.518037 
2238.000000	99.518012 
2237.000000	99.517982 
2236.000000	99.517844 
2235.000000	99.517576 
2234.000000	99.517251 
2233.000000	99.516977 
2232.000000	99.516783 
2231.000000	99.516639 
2230.000000	99.516504 
2229.000000	99.516366 
2228.000000	99.516237 
2227.000000	99.516141 
2226.000000	99.516088 
2225.000000	99.516068 
2224.000000	99.516063 
2223.000000	99.516061 
2222.000000	99.516058 
2221.000000	99.516039 
2220.000000	99.515986 
2219.000000	99.515891 
2218.000000	99.515772 
2217.000000	99.515669 
2216.000000	99.515608 
2215.000000	99.515584 
2214.000000	99.515564 
2213.000000	99.515536 
2212.000000	99.515528 
2211.000000	99.515568 
2210.000000	99.515663 
2209.000000	99.515807 
2208.000000	99.515964 
2207.000000	99.516030 
2206.000000	99.515831 
2205.000000	99.515269 
2204.000000	99.514566 
2203.000000	99.514281 
2202.000000	99.514968 
2201.000000	99.516499 
2200.000000	99.517999 
2199.000000	99.518716 
2198.000000	99.518720 
2197.000000	99.518741 
2196.000000	99.519339 
2195.000000	99.520455 
2194.000000	99.521812 
2193.000000	99.523261 
2192.000000	99.524345 
2191.000000	99.524241 
2190.000000	99.523061 
2189.000000	99.522709 
2188.000000	99.524924 
2187.000000	99.528331 
2186.000000	99.528977 
2185.000000	99.524582 
2184.000000	99.517301 
2183.000000	99.511658 
2182.000000	99.509958 
2181.000000	99.511045 
2180.000000	99.512792 
2179.000000	99.514297 
2178.000000	99.515345 
2177.000000	99.515421 
2176.000000	99.514503 
2175.000000	99.513902 
2174.000000	99.514989 
2173.000000	99.517602 
2172.000000	99.520901 
2171.000000	99.525223 
2170.000000	99.531398 
2169.000000	99.538281 
2168.000000	99.542770 
2167.000000	99.542934 
2166.000000	99.539975 
2165.000000	99.536852 
2164.000000	99.536106 
2163.000000	99.539062 
2162.000000	99.544829 
2161.000000	99.548605 
2160.000000	99.543575 
2159.000000	99.527219 
2158.000000	99.505160 
2157.000000	99.486481 
2156.000000	99.474996 
2155.000000	99.468777 
2154.000000	99.466139 
2153.000000	99.468170 
2152.000000	99.475383 
2151.000000	99.484836 
2150.000000	99.492320 
2149.000000	99.496697 
2148.000000	99.500616 
2147.000000	99.506668 
2146.000000	99.513450 
2145.000000	99.516239 
2144.000000	99.511985 
2143.000000	99.502869 
2142.000000	99.494505 
2141.000000	99.490437 
2140.000000	99.489494 
2139.000000	99.488773 
2138.000000	99.487698 
2137.000000	99.487982 
2136.000000	99.490371 
2135.000000	99.493163 
2134.000000	99.494288 
2133.000000	99.493638 
2132.000000	99.492503 
2131.000000	99.491278 
2130.000000	99.488839 
2129.000000	99.484494 
2128.000000	99.479819 
2127.000000	99.477591 
2126.000000	99.478900 
2125.000000	99.482134 
2124.000000	99.485106 
2123.000000	99.487467 
2122.000000	99.490090 
2121.000000	99.492977 
2120.000000	99.495280 
2119.000000	99.497058 
2118.000000	99.499416 
2117.000000	99.502611 
2116.000000	99.505299 
2115.000000	99.506420 
2114.000000	99.506472 
2113.000000	99.506412 
2112.000000	99.506313 
2111.000000	99.505807 
2110.000000	99.505181 
2109.000000	99.505186 
2108.000000	99.505961 
2107.000000	99.506696 
2106.000000	99.506522 
2105.000000	99.505509 
2104.000000	99.504681 
2103.000000	99.505050 
2102.000000	99.506701 
2101.000000	99.508659 
2100.000000	99.509780 
2099.000000	99.509805 
2098.000000	99.509384 
2097.000000	99.509305 
2096.000000	99.509830 
2095.000000	99.510829 
2094.000000	99.512146 
2093.000000	99.513617 
2092.000000	99.514963 
2091.000000	99.515979 
2090.000000	99.516813 
2089.000000	99.517797 
2088.000000	99.518904 
2087.000000	99.519573 
2086.000000	99.519236 
2085.000000	99.518025 
2084.000000	99.516979 
2083.000000	99.517352 
2082.000000	99.519571 
2081.000000	99.522755 
2080.000000	99.525323 
2079.000000	99.526537 
2078.000000	99.527115 
2077.000000	99.528299 
2076.000000	99.530336 
2075.000000	99.532078 
2074.000000	99.531995 
2073.000000	99.529496 
2072.000000	99.525620 
2071.000000	99.522452 
2070.000000	99.521530 
2069.000000	99.522626 
2068.000000	99.524075 
2067.000000	99.524355 
2066.000000	99.522990 
2065.000000	99.520446 
2064.000000	99.517968 
2063.000000	99.517271 
2062.000000	99.519190 
2061.000000	99.522427 
2060.000000	99.524694 
2059.000000	99.525442 
2058.000000	99.526277 
2057.000000	99.528442 
2056.000000	99.531091 
2055.000000	99.532686 
2054.000000	99.533138 
2053.000000	99.533571 
2052.000000	99.534516 
2051.000000	99.535259 
2050.000000	99.534905 
2049.000000	99.533368 
2048.000000	99.531354 
2047.000000	99.529803 
2046.000000	99.529317 
2045.000000	99.529796 
2044.000000	99.530492 
2043.000000	99.530675 
2042.000000	99.530271 
2041.000000	99.529666 
2040.000000	99.529091 
2039.000000	99.528469 
2038.000000	99.527707 
2037.000000	99.526820 
2036.000000	99.525775 
2035.000000	99.524420 
2034.000000	99.522644 
2033.000000	99.520623 
2032.000000	99.518867 
2031.000000	99.517935 
2030.000000	99.517990 
2029.000000	99.518544 
2028.000000	99.518671 
2027.000000	99.517819 
2026.000000	99.516131 
2025.000000	99.514222 
2024.000000	99.512799 
2023.000000	99.512289 
2022.000000	99.512717 
2021.000000	99.513535 
2020.000000	99.513811 
2019.000000	99.512989 
2018.000000	99.511359 
2017.000000	99.509759 
2016.000000	99.508695 
2015.000000	99.508105 
2014.000000	99.507811 
2013.000000	99.507623 
2012.000000	99.507192 
2011.000000	99.506381 
2010.000000	99.505680 
2009.000000	99.505682 
2008.000000	99.506327 
2007.000000	99.507271 
2006.000000	99.508616 
2005.000000	99.510306 
2004.000000	99.511190 
2003.000000	99.509837 
2002.000000	99.506086 
2001.000000	99.500929 
2000.000000	99.495199 
1999.000000	99.489406 
1998.000000	99.484578 
1997.000000	99.481979 
1996.000000	99.481967 
1995.000000	99.484095 
1994.000000	99.488031 
1993.000000	99.493191 
1992.000000	99.497683 
1991.000000	99.499225 
1990.000000	99.497405 
1989.000000	99.494002 
1988.000000	99.491410 
1987.000000	99.491492 
1986.000000	99.495372 
1985.000000	99.502847 
1984.000000	99.511556 
1983.000000	99.518092 
1982.000000	99.520234 
1981.000000	99.517646 
1980.000000	99.511622 
1979.000000	99.504933 
1978.000000	99.500564 
1977.000000	99.498960 
1976.000000	99.497270 
1975.000000	99.492997 
1974.000000	99.487574 
1973.000000	99.484587 
1972.000000	99.485163 
1971.000000	99.487203 
1970.000000	99.488853 
1969.000000	99.490652 
1968.000000	99.493561 
1967.000000	99.496449 
1966.000000	99.497063 
1965.000000	99.494890 
1964.000000	99.491725 
1963.000000	99.489644 
1962.000000	99.489182 
1961.000000	99.489468 
1960.000000	99.489481 
1959.000000	99.488830 
1958.000000	99.487467 
1957.000000	99.485328 
1956.000000	99.482516 
1955.000000	99.479418 
1954.000000	99.476227 
1953.000000	99.472703 
1952.000000	99.468894 
1951.000000	99.465941 
1950.000000	99.465353 
1949.000000	99.467330 
1948.000000	99.470205 
1947.000000	99.471862 
1946.000000	99.471496 
1945.000000	99.469541 
1944.000000	99.466924 
1943.000000	99.464759 
1942.000000	99.463878 
1941.000000	99.464045 
1940.000000	99.464181 
1939.000000	99.463620 
1938.000000	99.462729 
1937.000000	99.462270 
1936.000000	99.462506 
1935.000000	99.463022 
1934.000000	99.463229 
1933.000000	99.462888 
1932.000000	99.462176 
1931.000000	99.461510 
1930.000000	99.461274 
1929.000000	99.461476 
1928.000000	99.461718 
1927.000000	99.461600 
1926.000000	99.461112 
1925.000000	99.460525 
1924.000000	99.460078 
1923.000000	99.459830 
1922.000000	99.459756 
1921.000000	99.459799 
1920.000000	99.459858 
1919.000000	99.459830 
1918.000000	99.459700 
1917.000000	99.459547 
1916.000000	99.459457 
1915.000000	99.459470 
1914.000000	99.459586 
1913.000000	99.459773 
1912.000000	99.459962 
1911.000000	99.460084 
1910.000000	99.460110 
1909.000000	99.460056 
1908.000000	99.459943 
1907.000000	99.459790 
1906.000000	99.459635 
1905.000000	99.459524 
1904.000000	99.459410 
1903.000000	99.459112 
1902.000000	99.458498 
1901.000000	99.457637 
1900.000000	99.456810 
1899.000000	99.456325 
1898.000000	99.456342 
1897.000000	99.456721 
1896.000000	99.457037 
1895.000000	99.456957 
1894.000000	99.456565 
1893.000000	99.456272 
1892.000000	99.456331 
1891.000000	99.456600 
1890.000000	99.456783 
1889.000000	99.456748 
1888.000000	99.456543 
1887.000000	99.456323 
1886.000000	99.456263 
1885.000000	99.456354 
1884.000000	99.456343 
1883.000000	99.456051 
1882.000000	99.455632 
1881.000000	99.455220 
1880.000000	99.454585 
1879.000000	99.453461 
1878.000000	99.452027 
1877.000000	99.450776 
1876.000000	99.450109 
1875.000000	99.450357 
1874.000000	99.451838 
1873.000000	99.454270 
1872.000000	99.456335 
1871.000000	99.456581 
1870.000000	99.454803 
1869.000000	99.452252 
1868.000000	99.449967 
1867.000000	99.447680 
1866.000000	99.445128 
1865.000000	99.443029 
1864.000000	99.442561 
1863.000000	99.444464 
1862.000000	99.448530 
1861.000000	99.453439 
1860.000000	99.457263 
1859.000000	99.458922 
1858.000000	99.459070 
1857.000000	99.459184 
1856.000000	99.460073 
1855.000000	99.461695 
1854.000000	99.463778 
1853.000000	99.465762 
1852.000000	99.466598 
1851.000000	99.465462 
1850.000000	99.462699 
1849.000000	99.459792 
1848.000000	99.458139 
1847.000000	99.458088 
1846.000000	99.459193 
1845.000000	99.460531 
1844.000000	99.461006 
1843.000000	99.460528 
1842.000000	99.460371 
1841.000000	99.461536 
1840.000000	99.463826 
1839.000000	99.466299 
1838.000000	99.468103 
1837.000000	99.468942 
1836.000000	99.469004 
1835.000000	99.468793 
1834.000000	99.468856 
1833.000000	99.469396 
1832.000000	99.470221 
1831.000000	99.470916 
1830.000000	99.471238 
1829.000000	99.471477 
1828.000000	99.472227 
1827.000000	99.473524 
1826.000000	99.474779 
1825.000000	99.475526 
1824.000000	99.475827 
1823.000000	99.476024 
1822.000000	99.476259 
1821.000000	99.476213 
1820.000000	99.475442 
1819.000000	99.473977 
1818.000000	99.472588 
1817.000000	99.472148 
1816.000000	99.472598 
1815.000000	99.473149 
1814.000000	99.473544 
1813.000000	99.474398 
1812.000000	99.476323 
1811.000000	99.479034 
1810.000000	99.481725 
1809.000000	99.483925 
1808.000000	99.485322 
1807.000000	99.485547 
1806.000000	99.484657 
1805.000000	99.483410 
1804.000000	99.482677 
1803.000000	99.482731 
1802.000000	99.483439 
1801.000000	99.484643 
1800.000000	99.485848 
1799.000000	99.486371 
1798.000000	99.486193 
1797.000000	99.485948 
1796.000000	99.486110 
1795.000000	99.486631 
1794.000000	99.487253 
1793.000000	99.487810 
1792.000000	99.488282 
1791.000000	99.488615 
1790.000000	99.488796 
1789.000000	99.488980 
1788.000000	99.489335 
1787.000000	99.489853 
1786.000000	99.490355 
1785.000000	99.490632 
1784.000000	99.490590 
1783.000000	99.490409 
1782.000000	99.490397 
1781.000000	99.490654 
1780.000000	99.490945 
1779.000000	99.491016 
1778.000000	99.490953 
1777.000000	99.491011 
1776.000000	99.491257 
1775.000000	99.491592 
1774.000000	99.491921 
1773.000000	99.492193 
1772.000000	99.492353 
1771.000000	99.492382 
1770.000000	99.492351 
1769.000000	99.492321 
1768.000000	99.492302 
1767.000000	99.492262 
1766.000000	99.492189 
1765.000000	99.492141 
1764.000000	99.492161 
1763.000000	99.492214 
1762.000000	99.492206 
1761.000000	99.492113 
1760.000000	99.492038 
1759.000000	99.492058 
1758.000000	99.492117 
1757.000000	99.492099 
1756.000000	99.491943 
1755.000000	99.491705 
1754.000000	99.491425 
1753.000000	99.491071 
1752.000000	99.490726 
1751.000000	99.490675 
1750.000000	99.491033 
1749.000000	99.491487 
1748.000000	99.491652 
1747.000000	99.491459 
1746.000000	99.491087 
1745.000000	99.490755 
1744.000000	99.490583 
1743.000000	99.490574 
1742.000000	99.490627 
1741.000000	99.490667 
1740.000000	99.490722 
1739.000000	99.490844 
1738.000000	99.491029 
1737.000000	99.491182 
1736.000000	99.491154 
1735.000000	99.490848 
1734.000000	99.490412 
1733.000000	99.490241 
1732.000000	99.490570 
1731.000000	99.491252 
1730.000000	99.491995 
1729.000000	99.492553 
1728.000000	99.492857 
1727.000000	99.493020 
1726.000000	99.493176 
1725.000000	99.493359 
1724.000000	99.493528 
1723.000000	99.493695 
1722.000000	99.493958 
1721.000000	99.494403 
1720.000000	99.494996 
1719.000000	99.495547 
1718.000000	99.495780 
1717.000000	99.495636 
1716.000000	99.495349 
1715.000000	99.495124 
1714.000000	99.495042 
1713.000000	99.495112 
1712.000000	99.495260 
1711.000000	99.495405 
1710.000000	99.495537 
1709.000000	99.495680 
1708.000000	99.495818 
1707.000000	99.495911 
1706.000000	99.495987 
1705.000000	99.496113 
1704.000000	99.496244 
1703.000000	99.496255 
1702.000000	99.496109 
1701.000000	99.495962 
1700.000000	99.496028 
1699.000000	99.496291 
1698.000000	99.496601 
1697.000000	99.496857 
1696.000000	99.497030 
1695.000000	99.497099 
1694.000000	99.497110 
1693.000000	99.497091 
1692.000000	99.496981 
1691.000000	99.496758 
1690.000000	99.496487 
1689.000000	99.496245 
1688.000000	99.496013 
1687.000000	99.495679 
1686.000000	99.495166 
1685.000000	99.494603 
1684.000000	99.494190 
1683.000000	99.493894 
1682.000000	99.493701 
1681.000000	99.493503 
1680.000000	99.493231 
1679.000000	99.492905 
1678.000000	99.492563 
1677.000000	99.492231 
1676.000000	99.491946 
1675.000000	99.491726 
1674.000000	99.491470 
1673.000000	99.491138 
1672.000000	99.490761 
1671.000000	99.490521 
1670.000000	99.490555 
1669.000000	99.490544 
1668.000000	99.490236 
1667.000000	99.489723 
1666.000000	99.488822 
1665.000000	99.487332 
1664.000000	99.485691 
1663.000000	99.484923 
1662.000000	99.485519 
1661.000000	99.486874 
1660.000000	99.488020 
1659.000000	99.488626 
1658.000000	99.488892 
1657.000000	99.488563 
1656.000000	99.486600 
1655.000000	99.482619 
1654.000000	99.479074 
1653.000000	99.478124 
1652.000000	99.478090 
1651.000000	99.479252 
1650.000000	99.479766 
1649.000000	99.478380 
1648.000000	99.475819 
1647.000000	99.473499 
1646.000000	99.471891 
1645.000000	99.471674 
1644.000000	99.473154 
1643.000000	99.475427 
1642.000000	99.477415 
1641.000000	99.478675 
1640.000000	99.479257 
1639.000000	99.479367 
1638.000000	99.479380 
1637.000000	99.479805 
1636.000000	99.480121 
1635.000000	99.479102 
1634.000000	99.478717 
1633.000000	99.480529 
1632.000000	99.483243 
1631.000000	99.485411 
1630.000000	99.486476 
1629.000000	99.486577 
1628.000000	99.486285 
1627.000000	99.486452 
1626.000000	99.487666 
1625.000000	99.489981 
1624.000000	99.493021 
1623.000000	99.495973 
1622.000000	99.498165 
1621.000000	99.499657 
1620.000000	99.500346 
1619.000000	99.500356 
1618.000000	99.500773 
1617.000000	99.501990 
1616.000000	99.502526 
1615.000000	99.502203 
1614.000000	99.501530 
1613.000000	99.499984 
1612.000000	99.497606 
1611.000000	99.495028 
1610.000000	99.492643 
1609.000000	99.490648 
1608.000000	99.489442 
1607.000000	99.489184 
1606.000000	99.489018 
1605.000000	99.488151 
1604.000000	99.487252 
1603.000000	99.487767 
1602.000000	99.489940 
1601.000000	99.492416 
1600.000000	99.494194 
1599.000000	99.495737 
1598.000000	99.497567 
1597.000000	99.499303 
1596.000000	99.500504 
1595.000000	99.501469 
1594.000000	99.502480 
1593.000000	99.502936 
1592.000000	99.502326 
1591.000000	99.501402 
1590.000000	99.501412 
1589.000000	99.502417 
1588.000000	99.503483 
1587.000000	99.504148 
1586.000000	99.504539 
1585.000000	99.504500 
1584.000000	99.503668 
1583.000000	99.502186 
1582.000000	99.500835 
1581.000000	99.500196 
1580.000000	99.500106 
1579.000000	99.500169 
1578.000000	99.500275 
1577.000000	99.500358 
1576.000000	99.500109 
1575.000000	99.499693 
1574.000000	99.499551 
1573.000000	99.499446 
1572.000000	99.499108 
1571.000000	99.498712 
1570.000000	99.498571 
1569.000000	99.498651 
1568.000000	99.498693 
1567.000000	99.498548 
1566.000000	99.498240 
1565.000000	99.497889 
1564.000000	99.497605 
1563.000000	99.497383 
1562.000000	99.497147 
1561.000000	99.496859 
1560.000000	99.496580 
1559.000000	99.496334 
1558.000000	99.496008 
1557.000000	99.495737 
1556.000000	99.495544 
1555.000000	99.495348 
1554.000000	99.495112 
1553.000000	99.494847 
1552.000000	99.494589 
1551.000000	99.494371 
1550.000000	99.494210 
1549.000000	99.494089 
1548.000000	99.493977 
1547.000000	99.493862 
1546.000000	99.493755 
1545.000000	99.493677 
1544.000000	99.493646 
1543.000000	99.493666 
1542.000000	99.493744 
1541.000000	99.493880 
1540.000000	99.494049 
1539.000000	99.494225 
1538.000000	99.494419 
1537.000000	99.494654 
1536.000000	99.494924 
1535.000000	99.495211 
1534.000000	99.495589 
1533.000000	99.496152 
1532.000000	99.496764 
1531.000000	99.497206 
1530.000000	99.497460 
1529.000000	99.497724 
1528.000000	99.498139 
1527.000000	99.498659 
1526.000000	99.499172 
1525.000000	99.499663 
1524.000000	99.500153 
1523.000000	99.500744 
1522.000000	99.501807 
1521.000000	99.503386 
1520.000000	99.504566 
1519.000000	99.504680 
1518.000000	99.503992 
1517.000000	99.503429 
1516.000000	99.503581 
1515.000000	99.504203 
1514.000000	99.504886 
1513.000000	99.505461 
1512.000000	99.505842 
1511.000000	99.505887 
1510.000000	99.505432 
1509.000000	99.504821 
1508.000000	99.505635 
1507.000000	99.508939 
1506.000000	99.511080 
1505.000000	99.510626 
1504.000000	99.510010 
1503.000000	99.509840 
1502.000000	99.510057 
1501.000000	99.510931 
1500.000000	99.512662 
1499.000000	99.514995 
1498.000000	99.517272 
1497.000000	99.519322 
1496.000000	99.521099 
1495.000000	99.521678 
1494.000000	99.520085 
1493.000000	99.516370 
1492.000000	99.511495 
1491.000000	99.507295 
1490.000000	99.505276 
1489.000000	99.504920 
1488.000000	99.504184 
1487.000000	99.502234 
1486.000000	99.500504 
1485.000000	99.500160 
1484.000000	99.500779 
1483.000000	99.501386 
1482.000000	99.501176 
1481.000000	99.499777 
1480.000000	99.497294 
1479.000000	99.494340 
1478.000000	99.491852 
1477.000000	99.490515 
1476.000000	99.490009 
1475.000000	99.488875 
1474.000000	99.486923 
1473.000000	99.486176 
1472.000000	99.487285 
1471.000000	99.487843 
1470.000000	99.486636 
1469.000000	99.484850 
1468.000000	99.483912 
1467.000000	99.484082 
1466.000000	99.484914 
1465.000000	99.486029 
1464.000000	99.486941 
1463.000000	99.487371 
1462.000000	99.487494 
1461.000000	99.487735 
1460.000000	99.488150 
1459.000000	99.488201 
1458.000000	99.486802 
1457.000000	99.483454 
1456.000000	99.479583 
1455.000000	99.477239 
1454.000000	99.476622 
1453.000000	99.477014 
1452.000000	99.477254 
1451.000000	99.476279 
1450.000000	99.474764 
1449.000000	99.475205 
1448.000000	99.478747 
1447.000000	99.482713 
1446.000000	99.484057 
1445.000000	99.483043 
1444.000000	99.481275 
1443.000000	99.479365 
1442.000000	99.477699 
1441.000000	99.477346 
1440.000000	99.479128 
1439.000000	99.482348 
1438.000000	99.484563 
1437.000000	99.483812 
1436.000000	99.480444 
1435.000000	99.476049 
1434.000000	99.472305 
1433.000000	99.470770 
1432.000000	99.471972 
1431.000000	99.475212 
1430.000000	99.478227 
1429.000000	99.478905 
1428.000000	99.477170 
1427.000000	99.474148 
1426.000000	99.470649 
1425.000000	99.466801 
1424.000000	99.463336 
1423.000000	99.460845 
1422.000000	99.457897 
1421.000000	99.452815 
1420.000000	99.446296 
1419.000000	99.441121 
1418.000000	99.436610 
1417.000000	99.430125 
1416.000000	99.422335 
1415.000000	99.414824 
1414.000000	99.407442 
1413.000000	99.399145 
1412.000000	99.390536 
1411.000000	99.383681 
1410.000000	99.378876 
1409.000000	99.374952 
1408.000000	99.372002 
1407.000000	99.370913 
1406.000000	99.371593 
1405.000000	99.373611 
1404.000000	99.377583 
1403.000000	99.383199 
1402.000000	99.387890 
1401.000000	99.389994 
1400.000000	99.390876 
1399.000000	99.392855 
1398.000000	99.394375 
1397.000000	99.391134 
1396.000000	99.382134 
1395.000000	99.372439 
1394.000000	99.368950 
1393.000000	99.373879 
1392.000000	99.385321 
1391.000000	99.399559 
1390.000000	99.412350 
1389.000000	99.420474 
1388.000000	99.423145 
1387.000000	99.422023 
1386.000000	99.419204 
1385.000000	99.416310 
1384.000000	99.414596 
1383.000000	99.414579 
1382.000000	99.415816 
1381.000000	99.418034 
1380.000000	99.421532 
1379.000000	99.426363 
1378.000000	99.431530 
1377.000000	99.435605 
1376.000000	99.438439 
1375.000000	99.441668 
1374.000000	99.446755 
1373.000000	99.452622 
1372.000000	99.457249 
1371.000000	99.460881 
1370.000000	99.465847 
1369.000000	99.473000 
1368.000000	99.480884 
1367.000000	99.487633 
1366.000000	99.492568 
1365.000000	99.496018 
1364.000000	99.498374 
1363.000000	99.500349 
1362.000000	99.503021 
1361.000000	99.506401 
1360.000000	99.509271 
1359.000000	99.511075 
1358.000000	99.512862 
1357.000000	99.515819 
1356.000000	99.519659 
1355.000000	99.523099 
1354.000000	99.525534 
1353.000000	99.527241 
1352.000000	99.527758 
1351.000000	99.525956 
1350.000000	99.522918 
1349.000000	99.520799 
1348.000000	99.520672 
1347.000000	99.522262 
1346.000000	99.525306 
1345.000000	99.529330 
1344.000000	99.533014 
1343.000000	99.535231 
1342.000000	99.536476 
1341.000000	99.537937 
1340.000000	99.539549 
1339.000000	99.540168 
1338.000000	99.539421 
1337.000000	99.538362 
1336.000000	99.538129 
1335.000000	99.538836 
1334.000000	99.540142 
1333.000000	99.541839 
1332.000000	99.543500 
1331.000000	99.544529 
1330.000000	99.544831 
1329.000000	99.544575 
1328.000000	99.543728 
1327.000000	99.542420 
1326.000000	99.541537 
1325.000000	99.541543 
1324.000000	99.542296 
1323.000000	99.543635 
1322.000000	99.545392 
1321.000000	99.546713 
1320.000000	99.546473 
1319.000000	99.544737 
1318.000000	99.542951 
1317.000000	99.542214 
1316.000000	99.541993 
1315.000000	99.541219 
1314.000000	99.539898 
1313.000000	99.539037 
1312.000000	99.539184 
1311.000000	99.539928 
1310.000000	99.540856 
1309.000000	99.542062 
1308.000000	99.543486 
1307.000000	99.544279 
1306.000000	99.543729 
1305.000000	99.542117 
1304.000000	99.541089 
1303.000000	99.542300 
1302.000000	99.545813 
1301.000000	99.549716 
1300.000000	99.551570 
1299.000000	99.550194 
1298.000000	99.546255 
1297.000000	99.541543 
1296.000000	99.537772 
1295.000000	99.536192 
1294.000000	99.537419 
1293.000000	99.540979 
1292.000000	99.544951 
1291.000000	99.546710 
1290.000000	99.544982 
1289.000000	99.541326 
1288.000000	99.538795 
1287.000000	99.538573 
1286.000000	99.538384 
1285.000000	99.535143 
1284.000000	99.528924 
1283.000000	99.523251 
1282.000000	99.521244 
1281.000000	99.522390 
1280.000000	99.523513 
1279.000000	99.522066 
1278.000000	99.517600 
1277.000000	99.510979 
1276.000000	99.503257 
1275.000000	99.495544 
1274.000000	99.488723 
1273.000000	99.482706 
1272.000000	99.476259 
1271.000000	99.467663 
1270.000000	99.455365 
1269.000000	99.438458 
1268.000000	99.417402 
1267.000000	99.394162 
1266.000000	99.370746 
1265.000000	99.347972 
1264.000000	99.326318 
1263.000000	99.307422 
1262.000000	99.293765 
1261.000000	99.287219 
1260.000000	99.288579 
1259.000000	99.297925 
1258.000000	99.314008 
1257.000000	99.333838 
1256.000000	99.353935 
1255.000000	99.372290 
1254.000000	99.388598 
1253.000000	99.402824 
1252.000000	99.414322 
1251.000000	99.422714 
1250.000000	99.428865 
1249.000000	99.434565 
1248.000000	99.441494 
1247.000000	99.450115 
1246.000000	99.458460 
1245.000000	99.462468 
1244.000000	99.459322 
1243.000000	99.451350 
1242.000000	99.445526 
1241.000000	99.447701 
1240.000000	99.457507 
1239.000000	99.469273 
1238.000000	99.477320 
1237.000000	99.479851 
1236.000000	99.478464 
1235.000000	99.475519 
1234.000000	99.472330 
1233.000000	99.469092 
1232.000000	99.465797 
1231.000000	99.462857 
1230.000000	99.460680 
1229.000000	99.458972 
1228.000000	99.457185 
1227.000000	99.455867 
1226.000000	99.456739 
1225.000000	99.460612 
1224.000000	99.465712 
1223.000000	99.469089 
1222.000000	99.469703 
1221.000000	99.469350 
1220.000000	99.470432 
1219.000000	99.473601 
1218.000000	99.477622 
1217.000000	99.480829 
1216.000000	99.482254 
1215.000000	99.481941 
1214.000000	99.480925 
1213.000000	99.480768 
1212.000000	99.482370 
1211.000000	99.484843 
1210.000000	99.486085 
1209.000000	99.484886 
1208.000000	99.482116 
1207.000000	99.479559 
1206.000000	99.477912 
1205.000000	99.476529 
1204.000000	99.474886 
1203.000000	99.473308 
1202.000000	99.471892 
1201.000000	99.469608 
1200.000000	99.465420 
1199.000000	99.459927 
1198.000000	99.455027 
1197.000000	99.451847 
1196.000000	99.449724 
1195.000000	99.447412 
1194.000000	99.444487 
1193.000000	99.441148 
1192.000000	99.437416 
1191.000000	99.433223 
1190.000000	99.429050 
1189.000000	99.425888 
1188.000000	99.424498 
1187.000000	99.424752 
1186.000000	99.425492 
1185.000000	99.424937 
1184.000000	99.421646 
1183.000000	99.415556 
1182.000000	99.408267 
1181.000000	99.402035 
1180.000000	99.398201 
1179.000000	99.396479 
1178.000000	99.395381 
1177.000000	99.393282 
1176.000000	99.389496 
1175.000000	99.384673 
1174.000000	99.380135 
1173.000000	99.376632 
1172.000000	99.373883 
1171.000000	99.371268 
1170.000000	99.368495 
1169.000000	99.365484 
1168.000000	99.362148 
1167.000000	99.358573 
1166.000000	99.354964 
1165.000000	99.351185 
1164.000000	99.346933 
1163.000000	99.342725 
1162.000000	99.339999 
1161.000000	99.339577 
1160.000000	99.340559 
1159.000000	99.341502 
1158.000000	99.342170 
1157.000000	99.343119 
1156.000000	99.343900 
1155.000000	99.342823 
1154.000000	99.338636 
1153.000000	99.331681 
1152.000000	99.323435 
1151.000000	99.315623 
1150.000000	99.309541 
1149.000000	99.305311 
1148.000000	99.301537 
1147.000000	99.296250 
1146.000000	99.288504 
1145.000000	99.278943 
1144.000000	99.269140 
1143.000000	99.260820 
1142.000000	99.255112 
1141.000000	99.251546 
1140.000000	99.247864 
1139.000000	99.241775 
1138.000000	99.233143 
1137.000000	99.224049 
1136.000000	99.216700 
1135.000000	99.211758 
1134.000000	99.208486 
1133.000000	99.205602 
1132.000000	99.201782 
1131.000000	99.196126 
1130.000000	99.188670 
1129.000000	99.180142 
1128.000000	99.171081 
1127.000000	99.161542 
1126.000000	99.151663 
1125.000000	99.141913 
1124.000000	99.132485 
1123.000000	99.122764 
1122.000000	99.111648 
1121.000000	99.098337 
1120.000000	99.082947 
1119.000000	99.066545 
1118.000000	99.050403 
1117.000000	99.034948 
1116.000000	99.019658 
1115.000000	99.004093 
1114.000000	98.988426 
1113.000000	98.972634 
1112.000000	98.956124 
1111.000000	98.939120 
1110.000000	98.923658 
1109.000000	98.911696 
1108.000000	98.902320 
1107.000000	98.892158 
1106.000000	98.879133 
1105.000000	98.864313 
1104.000000	98.849737 
1103.000000	98.836006 
1102.000000	98.823050 
1101.000000	98.811769 
1100.000000	98.803507 
1099.000000	98.797348 
1098.000000	98.790905 
1097.000000	98.783069 
1096.000000	98.774873 
1095.000000	98.767263 
1094.000000	98.759334 
1093.000000	98.749527 
1092.000000	98.737577 
1091.000000	98.724276 
1090.000000	98.709942 
1089.000000	98.694183 
1088.000000	98.677136 
1087.000000	98.660083 
1086.000000	98.644515 
1085.000000	98.631015 
1084.000000	98.619186 
1083.000000	98.608158 
1082.000000	98.597010 
1081.000000	98.585234 
1080.000000	98.573112 
1079.000000	98.561364 
1078.000000	98.550281 
1077.000000	98.539612 
1076.000000	98.529495 
1075.000000	98.520963 
1074.000000	98.515040 
1073.000000	98.511521 
1072.000000	98.508652 
1071.000000	98.503497 
1070.000000	98.492812 
1069.000000	98.475107 
1068.000000	98.453182 
1067.000000	98.434000 
1066.000000	98.424083 
1065.000000	98.424619 
1064.000000	98.431012 
1063.000000	98.436566 
1062.000000	98.436348 
1061.000000	98.428199 
1060.000000	98.412590 
1059.000000	98.393183 
1058.000000	98.376038 
1057.000000	98.365713 
1056.000000	98.361482 
1055.000000	98.357962 
1054.000000	98.350093 
1053.000000	98.337672 
1052.000000	98.324913 
1051.000000	98.315832 
1050.000000	98.310556 
1049.000000	98.306378 
1048.000000	98.301662 
1047.000000	98.297353 
1046.000000	98.294557 
1045.000000	98.292176 
1044.000000	98.288150 
1043.000000	98.282548 
1042.000000	98.277925 
1041.000000	98.276088 
1040.000000	98.275731 
1039.000000	98.274430 
1038.000000	98.272316 
1037.000000	98.272355 
1036.000000	98.277175 
1035.000000	98.286997 
1034.000000	98.300433 
1033.000000	98.315186 
1032.000000	98.327048 
1031.000000	98.330548 
1030.000000	98.323535 
1029.000000	98.311155 
1028.000000	98.303157 
1027.000000	98.306229 
1026.000000	98.319483 
1025.000000	98.336893 
1024.000000	98.352648 
1023.000000	98.363841 
1022.000000	98.370021 
1021.000000	98.372276 
1020.000000	98.372713 
1019.000000	98.373687 
1018.000000	98.376932 
1017.000000	98.383343 
1016.000000	98.393320 
1015.000000	98.407076 
1014.000000	98.424529 
1013.000000	98.444680 
1012.000000	98.465044 
1011.000000	98.482493 
1010.000000	98.496032 
1009.000000	98.508650 
1008.000000	98.524966 
1007.000000	98.546555 
1006.000000	98.570381 
1005.000000	98.592044 
1004.000000	98.609771 
1003.000000	98.625016 
1002.000000	98.640408 
1001.000000	98.657717 
1000.000000	98.676820 
999.000000	 98.695613 
998.000000	 98.711361 
997.000000	 98.723020 
996.000000	 98.732417 
995.000000	 98.743048 
994.000000	 98.757538 
993.000000	 98.775696 
992.000000	 98.794388 
991.000000	 98.809596 
990.000000	 98.819625 
989.000000	 98.826442 
988.000000	 98.833222 
987.000000	 98.840781 
986.000000	 98.847657 
985.000000	 98.853610 
984.000000	 98.861136 
983.000000	 98.872553 
982.000000	 98.887164 
981.000000	 98.902574 
980.000000	 98.917533 
979.000000	 98.932048 
978.000000	 98.945691 
977.000000	 98.957805 
976.000000	 98.969247 
975.000000	 98.982139 
974.000000	 98.997334 
973.000000	 99.013199 
972.000000	 99.027407 
971.000000	 99.039119 
970.000000	 99.049137 
969.000000	 99.058922 
968.000000	 99.070154 
967.000000	 99.084253 
966.000000	 99.100968 
965.000000	 99.117538 
964.000000	 99.130440 
963.000000	 99.138434 
962.000000	 99.143463 
961.000000	 99.148512 
960.000000	 99.155023 
959.000000	 99.162598 
958.000000	 99.170367 
957.000000	 99.177769 
956.000000	 99.184565 
955.000000	 99.191196 
954.000000	 99.198972 
953.000000	 99.208655 
952.000000	 99.218680 
951.000000	 99.225983 
950.000000	 99.229234 
949.000000	 99.230358 
948.000000	 99.232402 
947.000000	 99.236800 
946.000000	 99.243364 
945.000000	 99.251773 
944.000000	 99.261504 
943.000000	 99.270656 
942.000000	 99.276523 
941.000000	 99.277882 
940.000000	 99.276065 
939.000000	 99.273662 
938.000000	 99.272679 
937.000000	 99.273814 
936.000000	 99.276568 
935.000000	 99.279546 
934.000000	 99.281156 
933.000000	 99.280644 
932.000000	 99.278702 
931.000000	 99.277250 
930.000000	 99.278508 
929.000000	 99.283629 
928.000000	 99.291673 
927.000000	 99.300100 
926.000000	 99.306793 
925.000000	 99.311347 
924.000000	 99.314056 
923.000000	 99.314364 
922.000000	 99.311329 
921.000000	 99.305449 
920.000000	 99.299020 
919.000000	 99.294348 
918.000000	 99.292140 
917.000000	 99.291768 
916.000000	 99.292381 
915.000000	 99.293541 
914.000000	 99.295305 
913.000000	 99.297953 
912.000000	 99.301384 
911.000000	 99.304581 
910.000000	 99.306133 
909.000000	 99.305580 
908.000000	 99.303844 
907.000000	 99.302071 
906.000000	 99.300568 
905.000000	 99.299351 
904.000000	 99.299359 
903.000000	 99.302311 
902.000000	 99.309025 
901.000000	 99.318164 
900.000000	 99.327018 
899.000000	 99.333681 
898.000000	 99.338195 
897.000000	 99.341503 
896.000000	 99.343766 
895.000000	 99.344495 
894.000000	 99.344327 
893.000000	 99.345625 
892.000000	 99.350542 
891.000000	 99.358895 
890.000000	 99.368523 
889.000000	 99.377542 
888.000000	 99.385587 
887.000000	 99.392769 
886.000000	 99.398405 
885.000000	 99.401476 
884.000000	 99.402079 
883.000000	 99.401898 
882.000000	 99.402978 
881.000000	 99.406002 
880.000000	 99.410083 
879.000000	 99.414320 
878.000000	 99.419107 
877.000000	 99.425032 
876.000000	 99.430532 
875.000000	 99.432112 
874.000000	 99.428120 
873.000000	 99.421790 
872.000000	 99.419104 
871.000000	 99.423198 
870.000000	 99.431775 
869.000000	 99.439537 
868.000000	 99.443018 
867.000000	 99.442976 
866.000000	 99.443152 
865.000000	 99.447013 
864.000000	 99.455016 
863.000000	 99.464679 
862.000000	 99.473299 
861.000000	 99.479983 
860.000000	 99.484710 
859.000000	 99.487101 
858.000000	 99.488059 
857.000000	 99.491472 
856.000000	 99.501217 
855.000000	 99.515812 
854.000000	 99.528459 
853.000000	 99.533749 
852.000000	 99.532566 
851.000000	 99.529601 
850.000000	 99.527904 
849.000000	 99.527449 
848.000000	 99.527633 
847.000000	 99.528841 
846.000000	 99.531669 
845.000000	 99.536098 
844.000000	 99.541652 
843.000000	 99.547463 
842.000000	 99.552041 
841.000000	 99.553645 
840.000000	 99.551485 
839.000000	 99.546899 
838.000000	 99.543016 
837.000000	 99.542045 
836.000000	 99.542373 
835.000000	 99.539902 
834.000000	 99.533536 
833.000000	 99.527360 
832.000000	 99.524469 
831.000000	 99.520295 
830.000000	 99.507301 
829.000000	 99.487204 
828.000000	 99.472966 
827.000000	 99.474283 
826.000000	 99.484958 
825.000000	 99.490293 
824.000000	 99.484533 
823.000000	 99.474293 
822.000000	 99.466362 
821.000000	 99.459629 
820.000000	 99.450129 
819.000000	 99.437789 
818.000000	 99.426071 
817.000000	 99.418294 
816.000000	 99.415255 
815.000000	 99.413809 
814.000000	 99.407324 
813.000000	 99.390705 
812.000000	 99.366352 
811.000000	 99.343055 
810.000000	 99.327458 
809.000000	 99.317969 
808.000000	 99.307697 
807.000000	 99.290974 
806.000000	 99.265939 
805.000000	 99.233351 
804.000000	 99.196030 
803.000000	 99.159462 
802.000000	 99.130508 
801.000000	 99.114005 
800.000000	 99.110063 
799.000000	 99.114166 
798.000000	 99.120545 
797.000000	 99.126709 
796.000000	 99.134528 
795.000000	 99.146731 
794.000000	 99.164166 
793.000000	 99.187107 
792.000000	 99.215683 
791.000000	 99.245829 
790.000000	 99.267951 
789.000000	 99.275295 
788.000000	 99.272968 
787.000000	 99.273584 
786.000000	 99.283359 
785.000000	 99.297052 
784.000000	 99.307550 
783.000000	 99.315007 
782.000000	 99.323448 
781.000000	 99.333096 
780.000000	 99.340581 
779.000000	 99.344158 
778.000000	 99.344931 
777.000000	 99.344925 
776.000000	 99.347286 
775.000000	 99.356235 
774.000000	 99.372729 
773.000000	 99.391412 
772.000000	 99.405702 
771.000000	 99.414940 
770.000000	 99.422799 
769.000000	 99.429764 
768.000000	 99.432294 
767.000000	 99.430121 
766.000000	 99.429404 
765.000000	 99.435772 
764.000000	 99.447225 
763.000000	 99.456660 
762.000000	 99.459738 
761.000000	 99.458029 
760.000000	 99.455764 
759.000000	 99.455757 
758.000000	 99.458032 
757.000000	 99.460796 
756.000000	 99.462569 
755.000000	 99.464009 
754.000000	 99.467458 
753.000000	 99.474496 
752.000000	 99.484392 
751.000000	 99.494761 
750.000000	 99.503160 
749.000000	 99.508038 
748.000000	 99.509049 
747.000000	 99.507621 
746.000000	 99.507026 
745.000000	 99.510039 
744.000000	 99.515892 
743.000000	 99.520511 
742.000000	 99.520819 
741.000000	 99.518272 
740.000000	 99.517227 
739.000000	 99.519893 
738.000000	 99.524348 
737.000000	 99.527674 
736.000000	 99.529419 
735.000000	 99.531086 
734.000000	 99.533650 
733.000000	 99.537117 
732.000000	 99.541552 
731.000000	 99.546341 
730.000000	 99.549038 
729.000000	 99.547544 
728.000000	 99.543407 
727.000000	 99.540973 
726.000000	 99.542563 
725.000000	 99.546010 
724.000000	 99.547950 
723.000000	 99.548038 
722.000000	 99.548467 
721.000000	 99.550297 
720.000000	 99.551747 
719.000000	 99.550329 
718.000000	 99.545633 
717.000000	 99.539662 
716.000000	 99.535449 
715.000000	 99.534869 
714.000000	 99.537086 
713.000000	 99.539321 
712.000000	 99.539769 
711.000000	 99.539426 
710.000000	 99.540510 
709.000000	 99.543557 
708.000000	 99.546748 
707.000000	 99.547727 
706.000000	 99.545894 
705.000000	 99.542942 
704.000000	 99.540924 
703.000000	 99.540335 
702.000000	 99.540039 
701.000000	 99.538884 
700.000000	 99.537083 
699.000000	 99.535227 
698.000000	 99.532773 
697.000000	 99.528359 
696.000000	 99.521603 
695.000000	 99.514242 
694.000000	 99.509048 
693.000000	 99.508384 
692.000000	 99.513567 
691.000000	 99.523412 
690.000000	 99.533752 
689.000000	 99.540183 
688.000000	 99.542036 
687.000000	 99.542423 
686.000000	 99.543371 
685.000000	 99.543557 
684.000000	 99.541867 
683.000000	 99.539959 
682.000000	 99.540004 
681.000000	 99.542236 
680.000000	 99.546051 
679.000000	 99.550861 
678.000000	 99.554140 
677.000000	 99.552337 
676.000000	 99.545402 
675.000000	 99.537707 
674.000000	 99.533383 
673.000000	 99.532006 
672.000000	 99.529327 
671.000000	 99.521481 
670.000000	 99.507519 
669.000000	 99.491633 
668.000000	 99.483888 
667.000000	 99.489365 
666.000000	 99.504064 
665.000000	 99.522675 
664.000000	 99.538897 
663.000000	 99.547565 
662.000000	 99.548195 
661.000000	 99.546300 
660.000000	 99.547856 
659.000000	 99.552569 
658.000000	 99.555155 
657.000000	 99.552543 
656.000000	 99.546596 
655.000000	 99.541501 
654.000000	 99.540912 
653.000000	 99.544715 
652.000000	 99.547402 
651.000000	 99.543962 
650.000000	 99.536960 

