4000.000000	99.584479 
3999.000000	99.583798 
3998.000000	99.583144 
3997.000000	99.582590 
3996.000000	99.582101 
3995.000000	99.581584 
3994.000000	99.581006 
3993.000000	99.580427 
3992.000000	99.579936 
3991.000000	99.579555 
3990.000000	99.579204 
3989.000000	99.578757 
3988.000000	99.578161 
3987.000000	99.577459 
3986.000000	99.576753 
3985.000000	99.576130 
3984.000000	99.575602 
3983.000000	99.575121 
3982.000000	99.574641 
3981.000000	99.574147 
3980.000000	99.573626 
3979.000000	99.573064 
3978.000000	99.572499 
3977.000000	99.572057 
3976.000000	99.571839 
3975.000000	99.571799 
3974.000000	99.571720 
3973.000000	99.571379 
3972.000000	99.570697 
3971.000000	99.569771 
3970.000000	99.568848 
3969.000000	99.568200 
3968.000000	99.567975 
3967.000000	99.568128 
3966.000000	99.568456 
3965.000000	99.568716 
3964.000000	99.568726 
3963.000000	99.568364 
3962.000000	99.567595 
3961.000000	99.566497 
3960.000000	99.565273 
3959.000000	99.564212 
3958.000000	99.563561 
3957.000000	99.563401 
3956.000000	99.563600 
3955.000000	99.563962 
3954.000000	99.564444 
3953.000000	99.565127 
3952.000000	99.565915 
3951.000000	99.566398 
3950.000000	99.566204 
3949.000000	99.565498 
3948.000000	99.564955 
3947.000000	99.565057 
3946.000000	99.565640 
3945.000000	99.566185 
3944.000000	99.566384 
3943.000000	99.566265 
3942.000000	99.565931 
3941.000000	99.565336 
3940.000000	99.564408 
3939.000000	99.563355 
3938.000000	99.562662 
3937.000000	99.562689 
3936.000000	99.563290 
3935.000000	99.563898 
3934.000000	99.564076 
3933.000000	99.563898 
3932.000000	99.563791 
3931.000000	99.564053 
3930.000000	99.564731 
3929.000000	99.565768 
3928.000000	99.566873 
3927.000000	99.567483 
3926.000000	99.567142 
3925.000000	99.565965 
3924.000000	99.564472 
3923.000000	99.563084 
3922.000000	99.561899 
3921.000000	99.560897 
3920.000000	99.560142 
3919.000000	99.559739 
3918.000000	99.559950 
3917.000000	99.560917 
3916.000000	99.562317 
3915.000000	99.563586 
3914.000000	99.564297 
3913.000000	99.564478 
3912.000000	99.564389 
3911.000000	99.564260 
3910.000000	99.564187 
3909.000000	99.564181 
3908.000000	99.564217 
3907.000000	99.564272 
3906.000000	99.564347 
3905.000000	99.564453 
3904.000000	99.564580 
3903.000000	99.564706 
3902.000000	99.564824 
3901.000000	99.564947 
3900.000000	99.565090 
3899.000000	99.565259 
3898.000000	99.565457 
3897.000000	99.565680 
3896.000000	99.565923 
3895.000000	99.566181 
3894.000000	99.566454 
3893.000000	99.566738 
3892.000000	99.567028 
3891.000000	99.567325 
3890.000000	99.567628 
3889.000000	99.567918 
3888.000000	99.568164 
3887.000000	99.568358 
3886.000000	99.568558 
3885.000000	99.568807 
3884.000000	99.569050 
3883.000000	99.569188 
3882.000000	99.569238 
3881.000000	99.569397 
3880.000000	99.569833 
3879.000000	99.570440 
3878.000000	99.570902 
3877.000000	99.571086 
3876.000000	99.571243 
3875.000000	99.571777 
3874.000000	99.572805 
3873.000000	99.573897 
3872.000000	99.574419 
3871.000000	99.574192 
3870.000000	99.573801 
3869.000000	99.573925 
3868.000000	99.574414 
3867.000000	99.574662 
3866.000000	99.574582 
3865.000000	99.574666 
3864.000000	99.575210 
3863.000000	99.575815 
3862.000000	99.575936 
3861.000000	99.575762 
3860.000000	99.576199 
3859.000000	99.578110 
3858.000000	99.581573 
3857.000000	99.585445 
3856.000000	99.587764 
3855.000000	99.587527 
3854.000000	99.586091 
3853.000000	99.585232 
3852.000000	99.584174 
3851.000000	99.581606 
3850.000000	99.578035 
3849.000000	99.574968 
3848.000000	99.573270 
3847.000000	99.572940 
3846.000000	99.573628 
3845.000000	99.575169 
3844.000000	99.577747 
3843.000000	99.581155 
3842.000000	99.584160 
3841.000000	99.585372 
3840.000000	99.584450 
3839.000000	99.582505 
3838.000000	99.581070 
3837.000000	99.580349 
3836.000000	99.579217 
3835.000000	99.576816 
3834.000000	99.573535 
3833.000000	99.570767 
3832.000000	99.569718 
3831.000000	99.570186 
3830.000000	99.570794 
3829.000000	99.570499 
3828.000000	99.569946 
3827.000000	99.570926 
3826.000000	99.574169 
3825.000000	99.578217 
3824.000000	99.580683 
3823.000000	99.580548 
3822.000000	99.579093 
3821.000000	99.578343 
3820.000000	99.578476 
3819.000000	99.578080 
3818.000000	99.576371 
3817.000000	99.574264 
3816.000000	99.573208 
3815.000000	99.572943 
3814.000000	99.572061 
3813.000000	99.570443 
3812.000000	99.569321 
3811.000000	99.569532 
3810.000000	99.570590 
3809.000000	99.571331 
3808.000000	99.571472 
3807.000000	99.571874 
3806.000000	99.572907 
3805.000000	99.573671 
3804.000000	99.573219 
3803.000000	99.571788 
3802.000000	99.570604 
3801.000000	99.570057 
3800.000000	99.568944 
3799.000000	99.566511 
3798.000000	99.563749 
3797.000000	99.562303 
3796.000000	99.562636 
3795.000000	99.563616 
3794.000000	99.563704 
3793.000000	99.562499 
3792.000000	99.560802 
3791.000000	99.559636 
3790.000000	99.559354 
3789.000000	99.559591 
3788.000000	99.559789 
3787.000000	99.559609 
3786.000000	99.559044 
3785.000000	99.558453 
3784.000000	99.558261 
3783.000000	99.558436 
3782.000000	99.558548 
3781.000000	99.558359 
3780.000000	99.558103 
3779.000000	99.557965 
3778.000000	99.557521 
3777.000000	99.556257 
3776.000000	99.554675 
3775.000000	99.554252 
3774.000000	99.555883 
3773.000000	99.558786 
3772.000000	99.561378 
3771.000000	99.562916 
3770.000000	99.563746 
3769.000000	99.564300 
3768.000000	99.564477 
3767.000000	99.564208 
3766.000000	99.564036 
3765.000000	99.564287 
3764.000000	99.564137 
3763.000000	99.562290 
3762.000000	99.558974 
3761.000000	99.556454 
3760.000000	99.556868 
3759.000000	99.560339 
3758.000000	99.565300 
3757.000000	99.570353 
3756.000000	99.575232 
3755.000000	99.580163 
3754.000000	99.584999 
3753.000000	99.588758 
3752.000000	99.589936 
3751.000000	99.588155 
3750.000000	99.585479 
3749.000000	99.583912 
3748.000000	99.582406 
3747.000000	99.578275 
3746.000000	99.571122 
3745.000000	99.565517 
3744.000000	99.565712 
3743.000000	99.568135 
3742.000000	99.567718 
3741.000000	99.565469 
3740.000000	99.564753 
3739.000000	99.566338 
3738.000000	99.568194 
3737.000000	99.568528 
3736.000000	99.567671 
3735.000000	99.566571 
3734.000000	99.565377 
3733.000000	99.564036 
3732.000000	99.562862 
3731.000000	99.561771 
3730.000000	99.559868 
3729.000000	99.556731 
3728.000000	99.553524 
3727.000000	99.551943 
3726.000000	99.551882 
3725.000000	99.551240 
3724.000000	99.548839 
3723.000000	99.546059 
3722.000000	99.545084 
3721.000000	99.546447 
3720.000000	99.548656 
3719.000000	99.550167 
3718.000000	99.550886 
3717.000000	99.551470 
3716.000000	99.552168 
3715.000000	99.552590 
3714.000000	99.552296 
3713.000000	99.551246 
3712.000000	99.549629 
3711.000000	99.547682 
3710.000000	99.545716 
3709.000000	99.544021 
3708.000000	99.542742 
3707.000000	99.541790 
3706.000000	99.540970 
3705.000000	99.540225 
3704.000000	99.539860 
3703.000000	99.540402 
3702.000000	99.541939 
3701.000000	99.543628 
3700.000000	99.544227 
3699.000000	99.543328 
3698.000000	99.541828 
3697.000000	99.541145 
3696.000000	99.541836 
3695.000000	99.543293 
3694.000000	99.544602 
3693.000000	99.545388 
3692.000000	99.545752 
3691.000000	99.545649 
3690.000000	99.544917 
3689.000000	99.543893 
3688.000000	99.543212 
3687.000000	99.542946 
3686.000000	99.542746 
3685.000000	99.542452 
3684.000000	99.542126 
3683.000000	99.541872 
3682.000000	99.541743 
3681.000000	99.541777 
3680.000000	99.541954 
3679.000000	99.542111 
3678.000000	99.542031 
3677.000000	99.541686 
3676.000000	99.541280 
3675.000000	99.541009 
3674.000000	99.540837 
3673.000000	99.540645 
3672.000000	99.540408 
3671.000000	99.540180 
3670.000000	99.539970 
3669.000000	99.539727 
3668.000000	99.539444 
3667.000000	99.539151 
3666.000000	99.538861 
3665.000000	99.538566 
3664.000000	99.538257 
3663.000000	99.537933 
3662.000000	99.537598 
3661.000000	99.537251 
3660.000000	99.536898 
3659.000000	99.536542 
3658.000000	99.536189 
3657.000000	99.535837 
3656.000000	99.535473 
3655.000000	99.535077 
3654.000000	99.534634 
3653.000000	99.534147 
3652.000000	99.533635 
3651.000000	99.533122 
3650.000000	99.532618 
3649.000000	99.532117 
3648.000000	99.531612 
3647.000000	99.531105 
3646.000000	99.530604 
3645.000000	99.530114 
3644.000000	99.529637 
3643.000000	99.529172 
3642.000000	99.528719 
3641.000000	99.528278 
3640.000000	99.527853 
3639.000000	99.527446 
3638.000000	99.527057 
3637.000000	99.526682 
3636.000000	99.526325 
3635.000000	99.525993 
3634.000000	99.525689 
3633.000000	99.525402 
3632.000000	99.525116 
3631.000000	99.524822 
3630.000000	99.524527 
3629.000000	99.524239 
3628.000000	99.523960 
3627.000000	99.523684 
3626.000000	99.523408 
3625.000000	99.523134 
3624.000000	99.522892 
3623.000000	99.522719 
3622.000000	99.522618 
3621.000000	99.522536 
3620.000000	99.522429 
3619.000000	99.522294 
3618.000000	99.522159 
3617.000000	99.522028 
3616.000000	99.521868 
3615.000000	99.521672 
3614.000000	99.521501 
3613.000000	99.521432 
3612.000000	99.521494 
3611.000000	99.521684 
3610.000000	99.522026 
3609.000000	99.522539 
3608.000000	99.523041 
3607.000000	99.523252 
3606.000000	99.523127 
3605.000000	99.522905 
3604.000000	99.522848 
3603.000000	99.522938 
3602.000000	99.522972 
3601.000000	99.522887 
3600.000000	99.522846 
3599.000000	99.523021 
3598.000000	99.523386 
3597.000000	99.523782 
3596.000000	99.524211 
3595.000000	99.524887 
3594.000000	99.525824 
3593.000000	99.526525 
3592.000000	99.526302 
3591.000000	99.524885 
3590.000000	99.522835 
3589.000000	99.521219 
3588.000000	99.520564 
3587.000000	99.520463 
3586.000000	99.520542 
3585.000000	99.521001 
3584.000000	99.522049 
3583.000000	99.523320 
3582.000000	99.524129 
3581.000000	99.524064 
3580.000000	99.523267 
3579.000000	99.522185 
3578.000000	99.521170 
3577.000000	99.520245 
3576.000000	99.519137 
3575.000000	99.517753 
3574.000000	99.516558 
3573.000000	99.516391 
3572.000000	99.517700 
3571.000000	99.520029 
3570.000000	99.522378 
3569.000000	99.524116 
3568.000000	99.525195 
3567.000000	99.525679 
3566.000000	99.525643 
3565.000000	99.525394 
3564.000000	99.525387 
3563.000000	99.525950 
3562.000000	99.526927 
3561.000000	99.527690 
3560.000000	99.527653 
3559.000000	99.526793 
3558.000000	99.525669 
3557.000000	99.524990 
3556.000000	99.525091 
3555.000000	99.525780 
3554.000000	99.526535 
3553.000000	99.526891 
3552.000000	99.526763 
3551.000000	99.526350 
3550.000000	99.525744 
3549.000000	99.524824 
3548.000000	99.523565 
3547.000000	99.522356 
3546.000000	99.521905 
3545.000000	99.522622 
3544.000000	99.524140 
3543.000000	99.525641 
3542.000000	99.526669 
3541.000000	99.527544 
3540.000000	99.528884 
3539.000000	99.530779 
3538.000000	99.532501 
3537.000000	99.533086 
3536.000000	99.532213 
3535.000000	99.530434 
3534.000000	99.528733 
3533.000000	99.527837 
3532.000000	99.527790 
3531.000000	99.528000 
3530.000000	99.527675 
3529.000000	99.526455 
3528.000000	99.524673 
3527.000000	99.523004 
3526.000000	99.521979 
3525.000000	99.521931 
3524.000000	99.523094 
3523.000000	99.525367 
3522.000000	99.527980 
3521.000000	99.529847 
3520.000000	99.530539 
3519.000000	99.530623 
3518.000000	99.530918 
3517.000000	99.531474 
3516.000000	99.531628 
3515.000000	99.531001 
3514.000000	99.530002 
3513.000000	99.529245 
3512.000000	99.528737 
3511.000000	99.527947 
3510.000000	99.526558 
3509.000000	99.524939 
3508.000000	99.523830 
3507.000000	99.523660 
3506.000000	99.524281 
3505.000000	99.525154 
3504.000000	99.525781 
3503.000000	99.526085 
3502.000000	99.526373 
3501.000000	99.526863 
3500.000000	99.527293 
3499.000000	99.527150 
3498.000000	99.526246 
3497.000000	99.524951 
3496.000000	99.523897 
3495.000000	99.523429 
3494.000000	99.523467 
3493.000000	99.523742 
3492.000000	99.524013 
3491.000000	99.524108 
3490.000000	99.523951 
3489.000000	99.523654 
3488.000000	99.523491 
3487.000000	99.523647 
3486.000000	99.524045 
3485.000000	99.524434 
3484.000000	99.524607 
3483.000000	99.524523 
3482.000000	99.524245 
3481.000000	99.523886 
3480.000000	99.523567 
3479.000000	99.523359 
3478.000000	99.523259 
3477.000000	99.523224 
3476.000000	99.523226 
3475.000000	99.523256 
3474.000000	99.523277 
3473.000000	99.523223 
3472.000000	99.523059 
3471.000000	99.522824 
3470.000000	99.522603 
3469.000000	99.522456 
3468.000000	99.522387 
3467.000000	99.522382 
3466.000000	99.522411 
3465.000000	99.522429 
3464.000000	99.522395 
3463.000000	99.522311 
3462.000000	99.522217 
3461.000000	99.522133 
3460.000000	99.522027 
3459.000000	99.521871 
3458.000000	99.521728 
3457.000000	99.521729 
3456.000000	99.521938 
3455.000000	99.522229 
3454.000000	99.522384 
3453.000000	99.522326 
3452.000000	99.522205 
3451.000000	99.522242 
3450.000000	99.522503 
3449.000000	99.522849 
3448.000000	99.523117 
3447.000000	99.523253 
3446.000000	99.523211 
3445.000000	99.522850 
3444.000000	99.522125 
3443.000000	99.521350 
3442.000000	99.520998 
3441.000000	99.521192 
3440.000000	99.521546 
3439.000000	99.521618 
3438.000000	99.521398 
3437.000000	99.521253 
3436.000000	99.521541 
3435.000000	99.522359 
3434.000000	99.523505 
3433.000000	99.524556 
3432.000000	99.525096 
3431.000000	99.525053 
3430.000000	99.524788 
3429.000000	99.524834 
3428.000000	99.525462 
3427.000000	99.526480 
3426.000000	99.527337 
3425.000000	99.527487 
3424.000000	99.526823 
3423.000000	99.525885 
3422.000000	99.525465 
3421.000000	99.525896 
3420.000000	99.526844 
3419.000000	99.527776 
3418.000000	99.528481 
3417.000000	99.528978 
3416.000000	99.529064 
3415.000000	99.528373 
3414.000000	99.526879 
3413.000000	99.525100 
3412.000000	99.523747 
3411.000000	99.523191 
3410.000000	99.523313 
3409.000000	99.523757 
3408.000000	99.524259 
3407.000000	99.524755 
3406.000000	99.525262 
3405.000000	99.525738 
3404.000000	99.526082 
3403.000000	99.526250 
3402.000000	99.526309 
3401.000000	99.526382 
3400.000000	99.526538 
3399.000000	99.526741 
3398.000000	99.526889 
3397.000000	99.526902 
3396.000000	99.526802 
3395.000000	99.526709 
3394.000000	99.526737 
3393.000000	99.526904 
3392.000000	99.527123 
3391.000000	99.527284 
3390.000000	99.527338 
3389.000000	99.527312 
3388.000000	99.527282 
3387.000000	99.527324 
3386.000000	99.527466 
3385.000000	99.527680 
3384.000000	99.527907 
3383.000000	99.528089 
3382.000000	99.528204 
3381.000000	99.528271 
3380.000000	99.528328 
3379.000000	99.528396 
3378.000000	99.528465 
3377.000000	99.528522 
3376.000000	99.528562 
3375.000000	99.528590 
3374.000000	99.528617 
3373.000000	99.528659 
3372.000000	99.528722 
3371.000000	99.528798 
3370.000000	99.528877 
3369.000000	99.528948 
3368.000000	99.529004 
3367.000000	99.529042 
3366.000000	99.529060 
3365.000000	99.529058 
3364.000000	99.529038 
3363.000000	99.529005 
3362.000000	99.528962 
3361.000000	99.528909 
3360.000000	99.528848 
3359.000000	99.528786 
3358.000000	99.528727 
3357.000000	99.528676 
3356.000000	99.528633 
3355.000000	99.528597 
3354.000000	99.528564 
3353.000000	99.528532 
3352.000000	99.528501 
3351.000000	99.528470 
3350.000000	99.528445 
3349.000000	99.528430 
3348.000000	99.528428 
3347.000000	99.528436 
3346.000000	99.528454 
3345.000000	99.528478 
3344.000000	99.528505 
3343.000000	99.528537 
3342.000000	99.528577 
3341.000000	99.528625 
3340.000000	99.528674 
3339.000000	99.528715 
3338.000000	99.528741 
3337.000000	99.528745 
3336.000000	99.528723 
3335.000000	99.528689 
3334.000000	99.528680 
3333.000000	99.528746 
3332.000000	99.528919 
3331.000000	99.529179 
3330.000000	99.529438 
3329.000000	99.529587 
3328.000000	99.529574 
3327.000000	99.529459 
3326.000000	99.529383 
3325.000000	99.529418 
3324.000000	99.529533 
3323.000000	99.529679 
3322.000000	99.529884 
3321.000000	99.530232 
3320.000000	99.530763 
3319.000000	99.531411 
3318.000000	99.532015 
3317.000000	99.532382 
3316.000000	99.532428 
3315.000000	99.532322 
3314.000000	99.532402 
3313.000000	99.532843 
3312.000000	99.533460 
3311.000000	99.533933 
3310.000000	99.534141 
3309.000000	99.534166 
3308.000000	99.534092 
3307.000000	99.533999 
3306.000000	99.534085 
3305.000000	99.534517 
3304.000000	99.535174 
3303.000000	99.535771 
3302.000000	99.536248 
3301.000000	99.536723 
3300.000000	99.536955 
3299.000000	99.536254 
3298.000000	99.534236 
3297.000000	99.531561 
3296.000000	99.529663 
3295.000000	99.529510 
3294.000000	99.531019 
3293.000000	99.533383 
3292.000000	99.535733 
3291.000000	99.537613 
3290.000000	99.538938 
3289.000000	99.539734 
3288.000000	99.539963 
3287.000000	99.539618 
3286.000000	99.539048 
3285.000000	99.538966 
3284.000000	99.539887 
3283.000000	99.541580 
3282.000000	99.543196 
3281.000000	99.543991 
3280.000000	99.543809 
3279.000000	99.542958 
3278.000000	99.541859 
3277.000000	99.540849 
3276.000000	99.540095 
3275.000000	99.539522 
3274.000000	99.538922 
3273.000000	99.538280 
3272.000000	99.537880 
3271.000000	99.537955 
3270.000000	99.538273 
3269.000000	99.538259 
3268.000000	99.537582 
3267.000000	99.536502 
3266.000000	99.535557 
3265.000000	99.534980 
3264.000000	99.534608 
3263.000000	99.534363 
3262.000000	99.534570 
3261.000000	99.535586 
3260.000000	99.537222 
3259.000000	99.538739 
3258.000000	99.539474 
3257.000000	99.539333 
3256.000000	99.538703 
3255.000000	99.538161 
3254.000000	99.538288 
3253.000000	99.539421 
3252.000000	99.541192 
3251.000000	99.542482 
3250.000000	99.542412 
3249.000000	99.541317 
3248.000000	99.540517 
3247.000000	99.540776 
3246.000000	99.541306 
3245.000000	99.540775 
3244.000000	99.538892 
3243.000000	99.536599 
3242.000000	99.534947 
3241.000000	99.534142 
3240.000000	99.533792 
3239.000000	99.533630 
3238.000000	99.533762 
3237.000000	99.534321 
3236.000000	99.535116 
3235.000000	99.535625 
3234.000000	99.535376 
3233.000000	99.534351 
3232.000000	99.533049 
3231.000000	99.532076 
3230.000000	99.531626 
3229.000000	99.531471 
3228.000000	99.531351 
3227.000000	99.531206 
3226.000000	99.531074 
3225.000000	99.531011 
3224.000000	99.531131 
3223.000000	99.531515 
3222.000000	99.531993 
3221.000000	99.532226 
3220.000000	99.532099 
3219.000000	99.531858 
3218.000000	99.531755 
3217.000000	99.531711 
3216.000000	99.531501 
3215.000000	99.531121 
3214.000000	99.530787 
3213.000000	99.530615 
3212.000000	99.530505 
3211.000000	99.530328 
3210.000000	99.530069 
3209.000000	99.529777 
3208.000000	99.529495 
3207.000000	99.529274 
3206.000000	99.529171 
3205.000000	99.529191 
3204.000000	99.529268 
3203.000000	99.529325 
3202.000000	99.529340 
3201.000000	99.529332 
3200.000000	99.529327 
3199.000000	99.529341 
3198.000000	99.529374 
3197.000000	99.529410 
3196.000000	99.529432 
3195.000000	99.529427 
3194.000000	99.529396 
3193.000000	99.529346 
3192.000000	99.529291 
3191.000000	99.529241 
3190.000000	99.529196 
3189.000000	99.529147 
3188.000000	99.529093 
3187.000000	99.529037 
3186.000000	99.528987 
3185.000000	99.528944 
3184.000000	99.528903 
3183.000000	99.528850 
3182.000000	99.528771 
3181.000000	99.528655 
3180.000000	99.528506 
3179.000000	99.528343 
3178.000000	99.528192 
3177.000000	99.528066 
3176.000000	99.527966 
3175.000000	99.527875 
3174.000000	99.527779 
3173.000000	99.527673 
3172.000000	99.527562 
3171.000000	99.527456 
3170.000000	99.527366 
3169.000000	99.527282 
3168.000000	99.527171 
3167.000000	99.526998 
3166.000000	99.526770 
3165.000000	99.526536 
3164.000000	99.526342 
3163.000000	99.526196 
3162.000000	99.526089 
3161.000000	99.526022 
3160.000000	99.525979 
3159.000000	99.525890 
3158.000000	99.525669 
3157.000000	99.525316 
3156.000000	99.524940 
3155.000000	99.524634 
3154.000000	99.524333 
3153.000000	99.523876 
3152.000000	99.523250 
3151.000000	99.522703 
3150.000000	99.522497 
3149.000000	99.522613 
3148.000000	99.522749 
3147.000000	99.522679 
3146.000000	99.522488 
3145.000000	99.522425 
3144.000000	99.522592 
3143.000000	99.522837 
3142.000000	99.522918 
3141.000000	99.522776 
3140.000000	99.522596 
3139.000000	99.522627 
3138.000000	99.522888 
3137.000000	99.523090 
3136.000000	99.522921 
3135.000000	99.522379 
3134.000000	99.521800 
3133.000000	99.521498 
3132.000000	99.521421 
3131.000000	99.521252 
3130.000000	99.520796 
3129.000000	99.520282 
3128.000000	99.520188 
3127.000000	99.520768 
3126.000000	99.521812 
3125.000000	99.522787 
3124.000000	99.523309 
3123.000000	99.523373 
3122.000000	99.523153 
3121.000000	99.522734 
3120.000000	99.522129 
3119.000000	99.521492 
3118.000000	99.521096 
3117.000000	99.521055 
3116.000000	99.521217 
3115.000000	99.521376 
3114.000000	99.521512 
3113.000000	99.521742 
3112.000000	99.522121 
3111.000000	99.522598 
3110.000000	99.523142 
3109.000000	99.523769 
3108.000000	99.524398 
3107.000000	99.524781 
3106.000000	99.524726 
3105.000000	99.524407 
3104.000000	99.524336 
3103.000000	99.524870 
3102.000000	99.525816 
3101.000000	99.526621 
3100.000000	99.527006 
3099.000000	99.527180 
3098.000000	99.527393 
3097.000000	99.527567 
3096.000000	99.527573 
3095.000000	99.527612 
3094.000000	99.527984 
3093.000000	99.528579 
3092.000000	99.528934 
3091.000000	99.528783 
3090.000000	99.528302 
3089.000000	99.527853 
3088.000000	99.527653 
3087.000000	99.527679 
3086.000000	99.527717 
3085.000000	99.527528 
3084.000000	99.527123 
3083.000000	99.526842 
3082.000000	99.526952 
3081.000000	99.527272 
3080.000000	99.527416 
3079.000000	99.527378 
3078.000000	99.527572 
3077.000000	99.528257 
3076.000000	99.529221 
3075.000000	99.530032 
3074.000000	99.530420 
3073.000000	99.530290 
3072.000000	99.529634 
3071.000000	99.528654 
3070.000000	99.527783 
3069.000000	99.527383 
3068.000000	99.527488 
3067.000000	99.527878 
3066.000000	99.528277 
3065.000000	99.528442 
3064.000000	99.528211 
3063.000000	99.527601 
3062.000000	99.526832 
3061.000000	99.526152 
3060.000000	99.525704 
3059.000000	99.525565 
3058.000000	99.525772 
3057.000000	99.526231 
3056.000000	99.526712 
3055.000000	99.527029 
3054.000000	99.527097 
3053.000000	99.526804 
3052.000000	99.526044 
3051.000000	99.524986 
3050.000000	99.524087 
3049.000000	99.523642 
3048.000000	99.523544 
3047.000000	99.523585 
3046.000000	99.523778 
3045.000000	99.524145 
3044.000000	99.524438 
3043.000000	99.524475 
3042.000000	99.524520 
3041.000000	99.524978 
3040.000000	99.525807 
3039.000000	99.526519 
3038.000000	99.526738 
3037.000000	99.526508 
3036.000000	99.526067 
3035.000000	99.525578 
3034.000000	99.525098 
3033.000000	99.524661 
3032.000000	99.524290 
3031.000000	99.524046 
3030.000000	99.524056 
3029.000000	99.524402 
3028.000000	99.524938 
3027.000000	99.525288 
3026.000000	99.525165 
3025.000000	99.524641 
3024.000000	99.524078 
3023.000000	99.523758 
3022.000000	99.523634 
3021.000000	99.523452 
3020.000000	99.523038 
3019.000000	99.522464 
3018.000000	99.521934 
3017.000000	99.521544 
3016.000000	99.521237 
3015.000000	99.520980 
3014.000000	99.520877 
3013.000000	99.521043 
3012.000000	99.521424 
3011.000000	99.521806 
3010.000000	99.521981 
3009.000000	99.521853 
3008.000000	99.521446 
3007.000000	99.520909 
3006.000000	99.520509 
3005.000000	99.520487 
3004.000000	99.520878 
3003.000000	99.521393 
3002.000000	99.521569 
3001.000000	99.521175 
3000.000000	99.520419 
2999.000000	99.519806 
2998.000000	99.519605 
2997.000000	99.519585 
2996.000000	99.519312 
2995.000000	99.518682 
2994.000000	99.518029 
2993.000000	99.517714 
2992.000000	99.517768 
2991.000000	99.518014 
2990.000000	99.518316 
2989.000000	99.518559 
2988.000000	99.518573 
2987.000000	99.518328 
2986.000000	99.518121 
2985.000000	99.518290 
2984.000000	99.518801 
2983.000000	99.519306 
2982.000000	99.519590 
2981.000000	99.519814 
2980.000000	99.520261 
2979.000000	99.521039 
2978.000000	99.522034 
2977.000000	99.522979 
2976.000000	99.523584 
2975.000000	99.523758 
2974.000000	99.523758 
2973.000000	99.524045 
2972.000000	99.524871 
2971.000000	99.526086 
2970.000000	99.527265 
2969.000000	99.528112 
2968.000000	99.528698 
2967.000000	99.529340 
2966.000000	99.530284 
2965.000000	99.531555 
2964.000000	99.533036 
2963.000000	99.534543 
2962.000000	99.535803 
2961.000000	99.536500 
2960.000000	99.536488 
2959.000000	99.536012 
2958.000000	99.535684 
2957.000000	99.536107 
2956.000000	99.537533 
2955.000000	99.539677 
2954.000000	99.541694 
2953.000000	99.542663 
2952.000000	99.542452 
2951.000000	99.542109 
2950.000000	99.542887 
2949.000000	99.544798 
2948.000000	99.546617 
2947.000000	99.547419 
2946.000000	99.547580 
2945.000000	99.547929 
2944.000000	99.548625 
2943.000000	99.549376 
2942.000000	99.550182 
2941.000000	99.551247 
2940.000000	99.552511 
2939.000000	99.553825 
2938.000000	99.555293 
2937.000000	99.556934 
2936.000000	99.558360 
2935.000000	99.559385 
2934.000000	99.560596 
2933.000000	99.562643 
2932.000000	99.565188 
2931.000000	99.567207 
2930.000000	99.568135 
2929.000000	99.568061 
2928.000000	99.567086 
2927.000000	99.565307 
2926.000000	99.563498 
2925.000000	99.562861 
2924.000000	99.563732 
2923.000000	99.565032 
2922.000000	99.565316 
2921.000000	99.564130 
2920.000000	99.562191 
2919.000000	99.560556 
2918.000000	99.559670 
2917.000000	99.559049 
2916.000000	99.557790 
2915.000000	99.555511 
2914.000000	99.552770 
2913.000000	99.550500 
2912.000000	99.549131 
2911.000000	99.548499 
2910.000000	99.548481 
2909.000000	99.549264 
2908.000000	99.550878 
2907.000000	99.552677 
2906.000000	99.553569 
2905.000000	99.552858 
2904.000000	99.550725 
2903.000000	99.548043 
2902.000000	99.545846 
2901.000000	99.544760 
2900.000000	99.544848 
2899.000000	99.545707 
2898.000000	99.546621 
2897.000000	99.546909 
2896.000000	99.546334 
2895.000000	99.545217 
2894.000000	99.544159 
2893.000000	99.543580 
2892.000000	99.543526 
2891.000000	99.543828 
2890.000000	99.544243 
2889.000000	99.544503 
2888.000000	99.544426 
2887.000000	99.544074 
2886.000000	99.543695 
2885.000000	99.543444 
2884.000000	99.543259 
2883.000000	99.543078 
2882.000000	99.543019 
2881.000000	99.543189 
2880.000000	99.543431 
2879.000000	99.543477 
2878.000000	99.543338 
2877.000000	99.543353 
2876.000000	99.543783 
2875.000000	99.544476 
2874.000000	99.545005 
2873.000000	99.545130 
2872.000000	99.545035 
2871.000000	99.545148 
2870.000000	99.545707 
2869.000000	99.546468 
2868.000000	99.546859 
2867.000000	99.546504 
2866.000000	99.545647 
2865.000000	99.545044 
2864.000000	99.545279 
2863.000000	99.546249 
2862.000000	99.547286 
2861.000000	99.547837 
2860.000000	99.548004 
2859.000000	99.548366 
2858.000000	99.549353 
2857.000000	99.550782 
2856.000000	99.552051 
2855.000000	99.552713 
2854.000000	99.552724 
2853.000000	99.552192 
2852.000000	99.551147 
2851.000000	99.549654 
2850.000000	99.547996 
2849.000000	99.546573 
2848.000000	99.545691 
2847.000000	99.545505 
2846.000000	99.545975 
2845.000000	99.546723 
2844.000000	99.547123 
2843.000000	99.546775 
2842.000000	99.545833 
2841.000000	99.544804 
2840.000000	99.544108 
2839.000000	99.543869 
2838.000000	99.543971 
2837.000000	99.544135 
2836.000000	99.544063 
2835.000000	99.543720 
2834.000000	99.543387 
2833.000000	99.543280 
2832.000000	99.543197 
2831.000000	99.542784 
2830.000000	99.542077 
2829.000000	99.541553 
2828.000000	99.541579 
2827.000000	99.542033 
2826.000000	99.542482 
2825.000000	99.542602 
2824.000000	99.542365 
2823.000000	99.541922 
2822.000000	99.541449 
2821.000000	99.541047 
2820.000000	99.540731 
2819.000000	99.540502 
2818.000000	99.540382 
2817.000000	99.540363 
2816.000000	99.540364 
2815.000000	99.540293 
2814.000000	99.540141 
2813.000000	99.539961 
2812.000000	99.539801 
2811.000000	99.539677 
2810.000000	99.539593 
2809.000000	99.539549 
2808.000000	99.539545 
2807.000000	99.539573 
2806.000000	99.539631 
2805.000000	99.539725 
2804.000000	99.539851 
2803.000000	99.539986 
2802.000000	99.540109 
2801.000000	99.540215 
2800.000000	99.540309 
2799.000000	99.540403 
2798.000000	99.540506 
2797.000000	99.540620 
2796.000000	99.540741 
2795.000000	99.540863 
2794.000000	99.540979 
2793.000000	99.541089 
2792.000000	99.541192 
2791.000000	99.541286 
2790.000000	99.541368 
2789.000000	99.541433 
2788.000000	99.541477 
2787.000000	99.541501 
2786.000000	99.541511 
2785.000000	99.541513 
2784.000000	99.541509 
2783.000000	99.541506 
2782.000000	99.541506 
2781.000000	99.541508 
2780.000000	99.541504 
2779.000000	99.541483 
2778.000000	99.541442 
2777.000000	99.541390 
2776.000000	99.541339 
2775.000000	99.541300 
2774.000000	99.541266 
2773.000000	99.541223 
2772.000000	99.541154 
2771.000000	99.541055 
2770.000000	99.540934 
2769.000000	99.540799 
2768.000000	99.540666 
2767.000000	99.540559 
2766.000000	99.540503 
2765.000000	99.540483 
2764.000000	99.540446 
2763.000000	99.540373 
2762.000000	99.540330 
2761.000000	99.540359 
2760.000000	99.540337 
2759.000000	99.540068 
2758.000000	99.539536 
2757.000000	99.538979 
2756.000000	99.538644 
2755.000000	99.538571 
2754.000000	99.538633 
2753.000000	99.538665 
2752.000000	99.538530 
2751.000000	99.538134 
2750.000000	99.537504 
2749.000000	99.536821 
2748.000000	99.536292 
2747.000000	99.535988 
2746.000000	99.535847 
2745.000000	99.535756 
2744.000000	99.535601 
2743.000000	99.535375 
2742.000000	99.535296 
2741.000000	99.535665 
2740.000000	99.536493 
2739.000000	99.537338 
2738.000000	99.537660 
2737.000000	99.537373 
2736.000000	99.536905 
2735.000000	99.536698 
2734.000000	99.536690 
2733.000000	99.536496 
2732.000000	99.536052 
2731.000000	99.535807 
2730.000000	99.536147 
2729.000000	99.536902 
2728.000000	99.537588 
2727.000000	99.538044 
2726.000000	99.538536 
2725.000000	99.539211 
2724.000000	99.539760 
2723.000000	99.539821 
2722.000000	99.539471 
2721.000000	99.539151 
2720.000000	99.539143 
2719.000000	99.539311 
2718.000000	99.539347 
2717.000000	99.539117 
2716.000000	99.538771 
2715.000000	99.538638 
2714.000000	99.538974 
2713.000000	99.539758 
2712.000000	99.540664 
2711.000000	99.541347 
2710.000000	99.541749 
2709.000000	99.542029 
2708.000000	99.542241 
2707.000000	99.542232 
2706.000000	99.541912 
2705.000000	99.541452 
2704.000000	99.541145 
2703.000000	99.541130 
2702.000000	99.541376 
2701.000000	99.541789 
2700.000000	99.542287 
2699.000000	99.542778 
2698.000000	99.543155 
2697.000000	99.543375 
2696.000000	99.543487 
2695.000000	99.543558 
2694.000000	99.543625 
2693.000000	99.543704 
2692.000000	99.543821 
2691.000000	99.543994 
2690.000000	99.544172 
2689.000000	99.544253 
2688.000000	99.544159 
2687.000000	99.543905 
2686.000000	99.543596 
2685.000000	99.543374 
2684.000000	99.543329 
2683.000000	99.543433 
2682.000000	99.543573 
2681.000000	99.543670 
2680.000000	99.543755 
2679.000000	99.543880 
2678.000000	99.544008 
2677.000000	99.544058 
2676.000000	99.544050 
2675.000000	99.544108 
2674.000000	99.544267 
2673.000000	99.544358 
2672.000000	99.544187 
2671.000000	99.543746 
2670.000000	99.543246 
2669.000000	99.542908 
2668.000000	99.542816 
2667.000000	99.542995 
2666.000000	99.543483 
2665.000000	99.544226 
2664.000000	99.544940 
2663.000000	99.545243 
2662.000000	99.544985 
2661.000000	99.544395 
2660.000000	99.543925 
2659.000000	99.543886 
2658.000000	99.544199 
2657.000000	99.544446 
2656.000000	99.544222 
2655.000000	99.543486 
2654.000000	99.542561 
2653.000000	99.541835 
2652.000000	99.541536 
2651.000000	99.541735 
2650.000000	99.542335 
2649.000000	99.542957 
2648.000000	99.543040 
2647.000000	99.542250 
2646.000000	99.540787 
2645.000000	99.539278 
2644.000000	99.538399 
2643.000000	99.538534 
2642.000000	99.539570 
2641.000000	99.540893 
2640.000000	99.541859 
2639.000000	99.542425 
2638.000000	99.543087 
2637.000000	99.544109 
2636.000000	99.545052 
2635.000000	99.545325 
2634.000000	99.545012 
2633.000000	99.544924 
2632.000000	99.545895 
2631.000000	99.548099 
2630.000000	99.550750 
2629.000000	99.552331 
2628.000000	99.551653 
2627.000000	99.548909 
2626.000000	99.545816 
2625.000000	99.544118 
2624.000000	99.543937 
2623.000000	99.544108 
2622.000000	99.543721 
2621.000000	99.542888 
2620.000000	99.542052 
2619.000000	99.541253 
2618.000000	99.540354 
2617.000000	99.539545 
2616.000000	99.539206 
2615.000000	99.539411 
2614.000000	99.539852 
2613.000000	99.540213 
2612.000000	99.540466 
2611.000000	99.540817 
2610.000000	99.541365 
2609.000000	99.541803 
2608.000000	99.541663 
2607.000000	99.540992 
2606.000000	99.540528 
2605.000000	99.540955 
2604.000000	99.542170 
2603.000000	99.543533 
2602.000000	99.544574 
2601.000000	99.545105 
2600.000000	99.544965 
2599.000000	99.544212 
2598.000000	99.543419 
2597.000000	99.543209 
2596.000000	99.543538 
2595.000000	99.543917 
2594.000000	99.544184 
2593.000000	99.544422 
2592.000000	99.544223 
2591.000000	99.542917 
2590.000000	99.540666 
2589.000000	99.538589 
2588.000000	99.537448 
2587.000000	99.536889 
2586.000000	99.536368 
2585.000000	99.536143 
2584.000000	99.536787 
2583.000000	99.538197 
2582.000000	99.539597 
2581.000000	99.540397 
2580.000000	99.540647 
2579.000000	99.540652 
2578.000000	99.540483 
2577.000000	99.539879 
2576.000000	99.538564 
2575.000000	99.536719 
2574.000000	99.535181 
2573.000000	99.534857 
2572.000000	99.535808 
2571.000000	99.537072 
2570.000000	99.537495 
2569.000000	99.536772 
2568.000000	99.535550 
2567.000000	99.534758 
2566.000000	99.534882 
2565.000000	99.535709 
2564.000000	99.536681 
2563.000000	99.537459 
2562.000000	99.538148 
2561.000000	99.538997 
2560.000000	99.539991 
2559.000000	99.540859 
2558.000000	99.541397 
2557.000000	99.541622 
2556.000000	99.541611 
2555.000000	99.541390 
2554.000000	99.541049 
2553.000000	99.540799 
2552.000000	99.540817 
2551.000000	99.541094 
2550.000000	99.541455 
2549.000000	99.541669 
2548.000000	99.541570 
2547.000000	99.541185 
2546.000000	99.540762 
2545.000000	99.540594 
2544.000000	99.540764 
2543.000000	99.541142 
2542.000000	99.541611 
2541.000000	99.542180 
2540.000000	99.542848 
2539.000000	99.543449 
2538.000000	99.543730 
2537.000000	99.543618 
2536.000000	99.543299 
2535.000000	99.543093 
2534.000000	99.543186 
2533.000000	99.543502 
2532.000000	99.543803 
2531.000000	99.543917 
2530.000000	99.543865 
2529.000000	99.543804 
2528.000000	99.543883 
2527.000000	99.544169 
2526.000000	99.544612 
2525.000000	99.545006 
2524.000000	99.545093 
2523.000000	99.544780 
2522.000000	99.544234 
2521.000000	99.543797 
2520.000000	99.543645 
2519.000000	99.543701 
2518.000000	99.543862 
2517.000000	99.544161 
2516.000000	99.544606 
2515.000000	99.545061 
2514.000000	99.545418 
2513.000000	99.545734 
2512.000000	99.546080 
2511.000000	99.546402 
2510.000000	99.546615 
2509.000000	99.546753 
2508.000000	99.546913 
2507.000000	99.547123 
2506.000000	99.547346 
2505.000000	99.547578 
2504.000000	99.547835 
2503.000000	99.548096 
2502.000000	99.548323 
2501.000000	99.548503 
2500.000000	99.548613 
2499.000000	99.548593 
2498.000000	99.548433 
2497.000000	99.548269 
2496.000000	99.548291 
2495.000000	99.548553 
2494.000000	99.548958 
2493.000000	99.549383 
2492.000000	99.549764 
2491.000000	99.550054 
2490.000000	99.550208 
2489.000000	99.550237 
2488.000000	99.550208 
2487.000000	99.550188 
2486.000000	99.550208 
2485.000000	99.550292 
2484.000000	99.550437 
2483.000000	99.550588 
2482.000000	99.550664 
2481.000000	99.550648 
2480.000000	99.550586 
2479.000000	99.550538 
2478.000000	99.550510 
2477.000000	99.550481 
2476.000000	99.550445 
2475.000000	99.550407 
2474.000000	99.550355 
2473.000000	99.550258 
2472.000000	99.550096 
2471.000000	99.549889 
2470.000000	99.549701 
2469.000000	99.549577 
2468.000000	99.549526 
2467.000000	99.549535 
2466.000000	99.549575 
2465.000000	99.549593 
2464.000000	99.549541 
2463.000000	99.549439 
2462.000000	99.549365 
2461.000000	99.549350 
2460.000000	99.549344 
2459.000000	99.549296 
2458.000000	99.549242 
2457.000000	99.549258 
2456.000000	99.549370 
2455.000000	99.549530 
2454.000000	99.549651 
2453.000000	99.549643 
2452.000000	99.549483 
2451.000000	99.549300 
2450.000000	99.549337 
2449.000000	99.549725 
2448.000000	99.550280 
2447.000000	99.550601 
2446.000000	99.550407 
2445.000000	99.549779 
2444.000000	99.549151 
2443.000000	99.549000 
2442.000000	99.549435 
2441.000000	99.550010 
2440.000000	99.550095 
2439.000000	99.549634 
2438.000000	99.549384 
2437.000000	99.550162 
2436.000000	99.552047 
2435.000000	99.554358 
2434.000000	99.556333 
2433.000000	99.557582 
2432.000000	99.557914 
2431.000000	99.557308 
2430.000000	99.556234 
2429.000000	99.555494 
2428.000000	99.555328 
2427.000000	99.555081 
2426.000000	99.554122 
2425.000000	99.552819 
2424.000000	99.552182 
2423.000000	99.552598 
2422.000000	99.553342 
2421.000000	99.553429 
2420.000000	99.552777 
2419.000000	99.552304 
2418.000000	99.552980 
2417.000000	99.554896 
2416.000000	99.557156 
2415.000000	99.558624 
2414.000000	99.558910 
2413.000000	99.558443 
2412.000000	99.557679 
2411.000000	99.556531 
2410.000000	99.554737 
2409.000000	99.552581 
2408.000000	99.550825 
2407.000000	99.549957 
2406.000000	99.549797 
2405.000000	99.549941 
2404.000000	99.550229 
2403.000000	99.550609 
2402.000000	99.550901 
2401.000000	99.550877 
2400.000000	99.550481 
2399.000000	99.549837 
2398.000000	99.549068 
2397.000000	99.548282 
2396.000000	99.547638 
2395.000000	99.547253 
2394.000000	99.547042 
2393.000000	99.546750 
2392.000000	99.546200 
2391.000000	99.545456 
2390.000000	99.544712 
2389.000000	99.544084 
2388.000000	99.543540 
2387.000000	99.542997 
2386.000000	99.542433 
2385.000000	99.541905 
2384.000000	99.541469 
2383.000000	99.541120 
2382.000000	99.540805 
2381.000000	99.540472 
2380.000000	99.540111 
2379.000000	99.539746 
2378.000000	99.539404 
2377.000000	99.539068 
2376.000000	99.538683 
2375.000000	99.538221 
2374.000000	99.537730 
2373.000000	99.537303 
2372.000000	99.536990 
2371.000000	99.536742 
2370.000000	99.536441 
2369.000000	99.536020 
2368.000000	99.535533 
2367.000000	99.535081 
2366.000000	99.534641 
2365.000000	99.534091 
2364.000000	99.533347 
2363.000000	99.532486 
2362.000000	99.531766 
2361.000000	99.531402 
2360.000000	99.531405 
2359.000000	99.531504 
2358.000000	99.531370 
2357.000000	99.530924 
2356.000000	99.530369 
2355.000000	99.529957 
2354.000000	99.529731 
2353.000000	99.529512 
2352.000000	99.529238 
2351.000000	99.528951 
2350.000000	99.528598 
2349.000000	99.528080 
2348.000000	99.527313 
2347.000000	99.526549 
2346.000000	99.526182 
2345.000000	99.526540 
2344.000000	99.527556 
2343.000000	99.528745 
2342.000000	99.529778 
2341.000000	99.530277 
2340.000000	99.530055 
2339.000000	99.529176 
2338.000000	99.528003 
2337.000000	99.526769 
2336.000000	99.525594 
2335.000000	99.524627 
2334.000000	99.524158 
2333.000000	99.523910 
2332.000000	99.523376 
2331.000000	99.522522 
2330.000000	99.522170 
2329.000000	99.523030 
2328.000000	99.524180 
2327.000000	99.524271 
2326.000000	99.522792 
2325.000000	99.520777 
2324.000000	99.519313 
2323.000000	99.518195 
2322.000000	99.516773 
2321.000000	99.515141 
2320.000000	99.514671 
2319.000000	99.516164 
2318.000000	99.519126 
2317.000000	99.522043 
2316.000000	99.523844 
2315.000000	99.524318 
2314.000000	99.523960 
2313.000000	99.523522 
2312.000000	99.523403 
2311.000000	99.523505 
2310.000000	99.523566 
2309.000000	99.523836 
2308.000000	99.524756 
2307.000000	99.526116 
2306.000000	99.526852 
2305.000000	99.526248 
2304.000000	99.524924 
2303.000000	99.524070 
2302.000000	99.524042 
2301.000000	99.524249 
2300.000000	99.524394 
2299.000000	99.525070 
2298.000000	99.526787 
2297.000000	99.528960 
2296.000000	99.530192 
2295.000000	99.529618 
2294.000000	99.527433 
2293.000000	99.524711 
2292.000000	99.522679 
2291.000000	99.522064 
2290.000000	99.522725 
2289.000000	99.523757 
2288.000000	99.524257 
2287.000000	99.524086 
2286.000000	99.523659 
2285.000000	99.523219 
2284.000000	99.522741 
2283.000000	99.522410 
2282.000000	99.522659 
2281.000000	99.523510 
2280.000000	99.524366 
2279.000000	99.524697 
2278.000000	99.524661 
2277.000000	99.524711 
2276.000000	99.524914 
2275.000000	99.525065 
2274.000000	99.525352 
2273.000000	99.526383 
2272.000000	99.528363 
2271.000000	99.530590 
2270.000000	99.532043 
2269.000000	99.532345 
2268.000000	99.531835 
2267.000000	99.530782 
2266.000000	99.528962 
2265.000000	99.526420 
2264.000000	99.524286 
2263.000000	99.524057 
2262.000000	99.525989 
2261.000000	99.528648 
2260.000000	99.530362 
2259.000000	99.531110 
2258.000000	99.532193 
2257.000000	99.534292 
2256.000000	99.536513 
2255.000000	99.537545 
2254.000000	99.537271 
2253.000000	99.536575 
2252.000000	99.535983 
2251.000000	99.535147 
2250.000000	99.533654 
2249.000000	99.531908 
2248.000000	99.530950 
2247.000000	99.531336 
2246.000000	99.532463 
2245.000000	99.533104 
2244.000000	99.532700 
2243.000000	99.531822 
2242.000000	99.531295 
2241.000000	99.531134 
2240.000000	99.530742 
2239.000000	99.529924 
2238.000000	99.529244 
2237.000000	99.529325 
2236.000000	99.530170 
2235.000000	99.531256 
2234.000000	99.532003 
2233.000000	99.532093 
2232.000000	99.531550 
2231.000000	99.530717 
2230.000000	99.530006 
2229.000000	99.529552 
2228.000000	99.529225 
2227.000000	99.528951 
2226.000000	99.528894 
2225.000000	99.529188 
2224.000000	99.529622 
2223.000000	99.529863 
2222.000000	99.529813 
2221.000000	99.529473 
2220.000000	99.528708 
2219.000000	99.527565 
2218.000000	99.526522 
2217.000000	99.525813 
2216.000000	99.524746 
2215.000000	99.522489 
2214.000000	99.519574 
2213.000000	99.517758 
2212.000000	99.518072 
2211.000000	99.519808 
2210.000000	99.521339 
2209.000000	99.521699 
2208.000000	99.520906 
2207.000000	99.519466 
2206.000000	99.518203 
2205.000000	99.517865 
2204.000000	99.518172 
2203.000000	99.517743 
2202.000000	99.515818 
2201.000000	99.513647 
2200.000000	99.513213 
2199.000000	99.514604 
2198.000000	99.515671 
2197.000000	99.514534 
2196.000000	99.511558 
2195.000000	99.508540 
2194.000000	99.506621 
2193.000000	99.505631 
2192.000000	99.504926 
2191.000000	99.503838 
2190.000000	99.501407 
2189.000000	99.496782 
2188.000000	99.490649 
2187.000000	99.485676 
2186.000000	99.484426 
2185.000000	99.486996 
2184.000000	99.491017 
2183.000000	99.493904 
2182.000000	99.494835 
2181.000000	99.494440 
2180.000000	99.493611 
2179.000000	99.492938 
2178.000000	99.492743 
2177.000000	99.493252 
2176.000000	99.494842 
2175.000000	99.497945 
2174.000000	99.502276 
2173.000000	99.506255 
2172.000000	99.507993 
2171.000000	99.507156 
2170.000000	99.505210 
2169.000000	99.503706 
2168.000000	99.502654 
2167.000000	99.501371 
2166.000000	99.500393 
2165.000000	99.501296 
2164.000000	99.504598 
2163.000000	99.508788 
2162.000000	99.511586 
2161.000000	99.512095 
2160.000000	99.511217 
2159.000000	99.510526 
2158.000000	99.510862 
2157.000000	99.511991 
2156.000000	99.513321 
2155.000000	99.514588 
2154.000000	99.515923 
2153.000000	99.517480 
2152.000000	99.519150 
2151.000000	99.520613 
2150.000000	99.521609 
2149.000000	99.522056 
2148.000000	99.521986 
2147.000000	99.521533 
2146.000000	99.521036 
2145.000000	99.520886 
2144.000000	99.521162 
2143.000000	99.521590 
2142.000000	99.521914 
2141.000000	99.522283 
2140.000000	99.523103 
2139.000000	99.524485 
2138.000000	99.526053 
2137.000000	99.527220 
2136.000000	99.527763 
2135.000000	99.527866 
2134.000000	99.527882 
2133.000000	99.528042 
2132.000000	99.528310 
2131.000000	99.528552 
2130.000000	99.528703 
2129.000000	99.528809 
2128.000000	99.528973 
2127.000000	99.529249 
2126.000000	99.529602 
2125.000000	99.529954 
2124.000000	99.530238 
2123.000000	99.530444 
2122.000000	99.530589 
2121.000000	99.530710 
2120.000000	99.530848 
2119.000000	99.531033 
2118.000000	99.531273 
2117.000000	99.531552 
2116.000000	99.531842 
2115.000000	99.532115 
2114.000000	99.532360 
2113.000000	99.532584 
2112.000000	99.532791 
2111.000000	99.532981 
2110.000000	99.533155 
2109.000000	99.533309 
2108.000000	99.533446 
2107.000000	99.533568 
2106.000000	99.533690 
2105.000000	99.533826 
2104.000000	99.533981 
2103.000000	99.534141 
2102.000000	99.534283 
2101.000000	99.534393 
2100.000000	99.534462 
2099.000000	99.534485 
2098.000000	99.534456 
2097.000000	99.534377 
2096.000000	99.534262 
2095.000000	99.534132 
2094.000000	99.533998 
2093.000000	99.533852 
2092.000000	99.533672 
2091.000000	99.533449 
2090.000000	99.533181 
2089.000000	99.532883 
2088.000000	99.532582 
2087.000000	99.532294 
2086.000000	99.532014 
2085.000000	99.531738 
2084.000000	99.531476 
2083.000000	99.531243 
2082.000000	99.531026 
2081.000000	99.530796 
2080.000000	99.530547 
2079.000000	99.530319 
2078.000000	99.530150 
2077.000000	99.530021 
2076.000000	99.529829 
2075.000000	99.529476 
2074.000000	99.528957 
2073.000000	99.528358 
2072.000000	99.527778 
2071.000000	99.527262 
2070.000000	99.526820 
2069.000000	99.526443 
2068.000000	99.526106 
2067.000000	99.525801 
2066.000000	99.525551 
2065.000000	99.525378 
2064.000000	99.525269 
2063.000000	99.525183 
2062.000000	99.525120 
2061.000000	99.525120 
2060.000000	99.525198 
2059.000000	99.525306 
2058.000000	99.525361 
2057.000000	99.525328 
2056.000000	99.525216 
2055.000000	99.525112 
2054.000000	99.525103 
2053.000000	99.525205 
2052.000000	99.525357 
2051.000000	99.525502 
2050.000000	99.525659 
2049.000000	99.525861 
2048.000000	99.526119 
2047.000000	99.526405 
2046.000000	99.526660 
2045.000000	99.526822 
2044.000000	99.526932 
2043.000000	99.527065 
2042.000000	99.527186 
2041.000000	99.527241 
2040.000000	99.527227 
2039.000000	99.527161 
2038.000000	99.527064 
2037.000000	99.526948 
2036.000000	99.526817 
2035.000000	99.526680 
2034.000000	99.526561 
2033.000000	99.526487 
2032.000000	99.526474 
2031.000000	99.526513 
2030.000000	99.526578 
2029.000000	99.526637 
2028.000000	99.526664 
2027.000000	99.526643 
2026.000000	99.526574 
2025.000000	99.526467 
2024.000000	99.526329 
2023.000000	99.526164 
2022.000000	99.525969 
2021.000000	99.525742 
2020.000000	99.525488 
2019.000000	99.525210 
2018.000000	99.524905 
2017.000000	99.524562 
2016.000000	99.524171 
2015.000000	99.523732 
2014.000000	99.523250 
2013.000000	99.522729 
2012.000000	99.522177 
2011.000000	99.521618 
2010.000000	99.521084 
2009.000000	99.520592 
2008.000000	99.520136 
2007.000000	99.519709 
2006.000000	99.519314 
2005.000000	99.518950 
2004.000000	99.518594 
2003.000000	99.518203 
2002.000000	99.517758 
2001.000000	99.517292 
2000.000000	99.516875 
1999.000000	99.516561 
1998.000000	99.516353 
1997.000000	99.516215 
1996.000000	99.516106 
1995.000000	99.516015 
1994.000000	99.515948 
1993.000000	99.515916 
1992.000000	99.515914 
1991.000000	99.515930 
1990.000000	99.515947 
1989.000000	99.515948 
1988.000000	99.515916 
1987.000000	99.515846 
1986.000000	99.515746 
1985.000000	99.515634 
1984.000000	99.515525 
1983.000000	99.515431 
1982.000000	99.515363 
1981.000000	99.515319 
1980.000000	99.515288 
1979.000000	99.515255 
1978.000000	99.515210 
1977.000000	99.515156 
1976.000000	99.515106 
1975.000000	99.515077 
1974.000000	99.515089 
1973.000000	99.515165 
1972.000000	99.515313 
1971.000000	99.515532 
1970.000000	99.515805 
1969.000000	99.516112 
1968.000000	99.516430 
1967.000000	99.516738 
1966.000000	99.517015 
1965.000000	99.517253 
1964.000000	99.517455 
1963.000000	99.517646 
1962.000000	99.517859 
1961.000000	99.518126 
1960.000000	99.518455 
1959.000000	99.518821 
1958.000000	99.519170 
1957.000000	99.519458 
1956.000000	99.519681 
1955.000000	99.519872 
1954.000000	99.520073 
1953.000000	99.520302 
1952.000000	99.520544 
1951.000000	99.520772 
1950.000000	99.520965 
1949.000000	99.521108 
1948.000000	99.521207 
1947.000000	99.521281 
1946.000000	99.521359 
1945.000000	99.521461 
1944.000000	99.521595 
1943.000000	99.521761 
1942.000000	99.521957 
1941.000000	99.522177 
1940.000000	99.522405 
1939.000000	99.522628 
1938.000000	99.522844 
1937.000000	99.523064 
1936.000000	99.523305 
1935.000000	99.523568 
1934.000000	99.523841 
1933.000000	99.524104 
1932.000000	99.524341 
1931.000000	99.524551 
1930.000000	99.524736 
1929.000000	99.524899 
1928.000000	99.525044 
1927.000000	99.525174 
1926.000000	99.525295 
1925.000000	99.525406 
1924.000000	99.525509 
1923.000000	99.525615 
1922.000000	99.525733 
1921.000000	99.525859 
1920.000000	99.525967 
1919.000000	99.526038 
1918.000000	99.526073 
1917.000000	99.526097 
1916.000000	99.526136 
1915.000000	99.526206 
1914.000000	99.526303 
1913.000000	99.526411 
1912.000000	99.526512 
1911.000000	99.526596 
1910.000000	99.526666 
1909.000000	99.526730 
1908.000000	99.526802 
1907.000000	99.526895 
1906.000000	99.527022 
1905.000000	99.527184 
1904.000000	99.527367 
1903.000000	99.527559 
1902.000000	99.527756 
1901.000000	99.527962 
1900.000000	99.528172 
1899.000000	99.528376 
1898.000000	99.528566 
1897.000000	99.528741 
1896.000000	99.528904 
1895.000000	99.529057 
1894.000000	99.529206 
1893.000000	99.529355 
1892.000000	99.529505 
1891.000000	99.529656 
1890.000000	99.529808 
1889.000000	99.529961 
1888.000000	99.530111 
1887.000000	99.530250 
1886.000000	99.530369 
1885.000000	99.530461 
1884.000000	99.530528 
1883.000000	99.530576 
1882.000000	99.530617 
1881.000000	99.530657 
1880.000000	99.530695 
1879.000000	99.530729 
1878.000000	99.530764 
1877.000000	99.530809 
1876.000000	99.530866 
1875.000000	99.530926 
1874.000000	99.530978 
1873.000000	99.531018 
1872.000000	99.531054 
1871.000000	99.531098 
1870.000000	99.531156 
1869.000000	99.531224 
1868.000000	99.531289 
1867.000000	99.531341 
1866.000000	99.531380 
1865.000000	99.531413 
1864.000000	99.531441 
1863.000000	99.531458 
1862.000000	99.531456 
1861.000000	99.531437 
1860.000000	99.531400 
1859.000000	99.531340 
1858.000000	99.531255 
1857.000000	99.531149 
1856.000000	99.531039 
1855.000000	99.530937 
1854.000000	99.530850 
1853.000000	99.530775 
1852.000000	99.530700 
1851.000000	99.530615 
1850.000000	99.530519 
1849.000000	99.530423 
1848.000000	99.530336 
1847.000000	99.530262 
1846.000000	99.530197 
1845.000000	99.530137 
1844.000000	99.530089 
1843.000000	99.530060 
1842.000000	99.530055 
1841.000000	99.530074 
1840.000000	99.530110 
1839.000000	99.530154 
1838.000000	99.530197 
1837.000000	99.530235 
1836.000000	99.530267 
1835.000000	99.530294 
1834.000000	99.530314 
1833.000000	99.530330 
1832.000000	99.530349 
1831.000000	99.530376 
1830.000000	99.530412 
1829.000000	99.530448 
1828.000000	99.530480 
1827.000000	99.530507 
1826.000000	99.530527 
1825.000000	99.530545 
1824.000000	99.530559 
1823.000000	99.530569 
1822.000000	99.530568 
1821.000000	99.530555 
1820.000000	99.530537 
1819.000000	99.530525 
1818.000000	99.530530 
1817.000000	99.530558 
1816.000000	99.530607 
1815.000000	99.530674 
1814.000000	99.530747 
1813.000000	99.530817 
1812.000000	99.530875 
1811.000000	99.530923 
1810.000000	99.530966 
1809.000000	99.531013 
1808.000000	99.531066 
1807.000000	99.531123 
1806.000000	99.531178 
1805.000000	99.531224 
1804.000000	99.531256 
1803.000000	99.531278 
1802.000000	99.531295 
1801.000000	99.531311 
1800.000000	99.531325 
1799.000000	99.531334 
1798.000000	99.531338 
1797.000000	99.531342 
1796.000000	99.531353 
1795.000000	99.531376 
1794.000000	99.531409 
1793.000000	99.531446 
1792.000000	99.531481 
1791.000000	99.531515 
1790.000000	99.531544 
1789.000000	99.531562 
1788.000000	99.531562 
1787.000000	99.531541 
1786.000000	99.531502 
1785.000000	99.531452 
1784.000000	99.531395 
1783.000000	99.531335 
1782.000000	99.531279 
1781.000000	99.531236 
1780.000000	99.531213 
1779.000000	99.531217 
1778.000000	99.531248 
1777.000000	99.531296 
1776.000000	99.531344 
1775.000000	99.531379 
1774.000000	99.531394 
1773.000000	99.531388 
1772.000000	99.531366 
1771.000000	99.531342 
1770.000000	99.531326 
1769.000000	99.531326 
1768.000000	99.531340 
1767.000000	99.531363 
1766.000000	99.531391 
1765.000000	99.531420 
1764.000000	99.531447 
1763.000000	99.531469 
1762.000000	99.531487 
1761.000000	99.531510 
1760.000000	99.531538 
1759.000000	99.531571 
1758.000000	99.531605 
1757.000000	99.531638 
1756.000000	99.531665 
1755.000000	99.531690 
1754.000000	99.531717 
1753.000000	99.531742 
1752.000000	99.531743 
1751.000000	99.531703 
1750.000000	99.531663 
1749.000000	99.531681 
1748.000000	99.531749 
1747.000000	99.531806 
1746.000000	99.531814 
1745.000000	99.531827 
1744.000000	99.531928 
1743.000000	99.532098 
1742.000000	99.532303 
1741.000000	99.532660 
1740.000000	99.533280 
1739.000000	99.533971 
1738.000000	99.534420 
1737.000000	99.534610 
1736.000000	99.534694 
1735.000000	99.534520 
1734.000000	99.533997 
1733.000000	99.533559 
1732.000000	99.533495 
1731.000000	99.533683 
1730.000000	99.533926 
1729.000000	99.534056 
1728.000000	99.534210 
1727.000000	99.534577 
1726.000000	99.535091 
1725.000000	99.535579 
1724.000000	99.535944 
1723.000000	99.536088 
1722.000000	99.535965 
1721.000000	99.535674 
1720.000000	99.535537 
1719.000000	99.535813 
1718.000000	99.536556 
1717.000000	99.537610 
1716.000000	99.538505 
1715.000000	99.539035 
1714.000000	99.539460 
1713.000000	99.539953 
1712.000000	99.540461 
1711.000000	99.540964 
1710.000000	99.541529 
1709.000000	99.542179 
1708.000000	99.542904 
1707.000000	99.543675 
1706.000000	99.544436 
1705.000000	99.545148 
1704.000000	99.545812 
1703.000000	99.546512 
1702.000000	99.547296 
1701.000000	99.548047 
1700.000000	99.548634 
1699.000000	99.549098 
1698.000000	99.549616 
1697.000000	99.550274 
1696.000000	99.551030 
1695.000000	99.551825 
1694.000000	99.552635 
1693.000000	99.553478 
1692.000000	99.554423 
1691.000000	99.555488 
1690.000000	99.556597 
1689.000000	99.557600 
1688.000000	99.558436 
1687.000000	99.559248 
1686.000000	99.560236 
1685.000000	99.561422 
1684.000000	99.562546 
1683.000000	99.563490 
1682.000000	99.564296 
1681.000000	99.564973 
1680.000000	99.565626 
1679.000000	99.566365 
1678.000000	99.567369 
1677.000000	99.568680 
1676.000000	99.570119 
1675.000000	99.571318 
1674.000000	99.572018 
1673.000000	99.572345 
1672.000000	99.572753 
1671.000000	99.573514 
1670.000000	99.574503 
1669.000000	99.575355 
1668.000000	99.576015 
1667.000000	99.576702 
1666.000000	99.577463 
1665.000000	99.578155 
1664.000000	99.578496 
1663.000000	99.578480 
1662.000000	99.578503 
1661.000000	99.578648 
1660.000000	99.578846 
1659.000000	99.579158 
1658.000000	99.579720 
1657.000000	99.580556 
1656.000000	99.582060 
1655.000000	99.584542 
1654.000000	99.586833 
1653.000000	99.587288 
1652.000000	99.586014 
1651.000000	99.583856 
1650.000000	99.581779 
1649.000000	99.580695 
1648.000000	99.580094 
1647.000000	99.579766 
1646.000000	99.580036 
1645.000000	99.580817 
1644.000000	99.581126 
1643.000000	99.580796 
1642.000000	99.580141 
1641.000000	99.579280 
1640.000000	99.578221 
1639.000000	99.577149 
1638.000000	99.576482 
1637.000000	99.576227 
1636.000000	99.575901 
1635.000000	99.575534 
1634.000000	99.575401 
1633.000000	99.575420 
1632.000000	99.575436 
1631.000000	99.575445 
1630.000000	99.575558 
1629.000000	99.575671 
1628.000000	99.575329 
1627.000000	99.574293 
1626.000000	99.572858 
1625.000000	99.571575 
1624.000000	99.570770 
1623.000000	99.570405 
1622.000000	99.570204 
1621.000000	99.569894 
1620.000000	99.569491 
1619.000000	99.569107 
1618.000000	99.568670 
1617.000000	99.568022 
1616.000000	99.567251 
1615.000000	99.566602 
1614.000000	99.566132 
1613.000000	99.565763 
1612.000000	99.565401 
1611.000000	99.565029 
1610.000000	99.564673 
1609.000000	99.564346 
1608.000000	99.564042 
1607.000000	99.563760 
1606.000000	99.563497 
1605.000000	99.563253 
1604.000000	99.563059 
1603.000000	99.562928 
1602.000000	99.562812 
1601.000000	99.562664 
1600.000000	99.562512 
1599.000000	99.562430 
1598.000000	99.562439 
1597.000000	99.562479 
1596.000000	99.562477 
1595.000000	99.562406 
1594.000000	99.562290 
1593.000000	99.562197 
1592.000000	99.562212 
1591.000000	99.562390 
1590.000000	99.562707 
1589.000000	99.563051 
1588.000000	99.563334 
1587.000000	99.563561 
1586.000000	99.563765 
1585.000000	99.563921 
1584.000000	99.564011 
1583.000000	99.564146 
1582.000000	99.564447 
1581.000000	99.564895 
1580.000000	99.565411 
1579.000000	99.566009 
1578.000000	99.566691 
1577.000000	99.567298 
1576.000000	99.567683 
1575.000000	99.567950 
1574.000000	99.568179 
1573.000000	99.568335 
1572.000000	99.568462 
1571.000000	99.568622 
1570.000000	99.569001 
1569.000000	99.569770 
1568.000000	99.570918 
1567.000000	99.572220 
1566.000000	99.573358 
1565.000000	99.574055 
1564.000000	99.574290 
1563.000000	99.574319 
1562.000000	99.574456 
1561.000000	99.574808 
1560.000000	99.575263 
1559.000000	99.575645 
1558.000000	99.576198 
1557.000000	99.576884 
1556.000000	99.577429 
1555.000000	99.578136 
1554.000000	99.578733 
1553.000000	99.579072 
1552.000000	99.579216 
1551.000000	99.579413 
1550.000000	99.579702 
1549.000000	99.580048 
1548.000000	99.580440 
1547.000000	99.580951 
1546.000000	99.581534 
1545.000000	99.581938 
1544.000000	99.581990 
1543.000000	99.581771 
1542.000000	99.581520 
1541.000000	99.581355 
1540.000000	99.581249 
1539.000000	99.581331 
1538.000000	99.581485 
1537.000000	99.581533 
1536.000000	99.581623 
1535.000000	99.581843 
1534.000000	99.582061 
1533.000000	99.582071 
1532.000000	99.581881 
1531.000000	99.581632 
1530.000000	99.581472 
1529.000000	99.581405 
1528.000000	99.581280 
1527.000000	99.580977 
1526.000000	99.580530 
1525.000000	99.580111 
1524.000000	99.579841 
1523.000000	99.579695 
1522.000000	99.579561 
1521.000000	99.579388 
1520.000000	99.579199 
1519.000000	99.578997 
1518.000000	99.578776 
1517.000000	99.578532 
1516.000000	99.578263 
1515.000000	99.577975 
1514.000000	99.577669 
1513.000000	99.577368 
1512.000000	99.577092 
1511.000000	99.576833 
1510.000000	99.576604 
1509.000000	99.576450 
1508.000000	99.576331 
1507.000000	99.576034 
1506.000000	99.575540 
1505.000000	99.575014 
1504.000000	99.574537 
1503.000000	99.574160 
1502.000000	99.573839 
1501.000000	99.573479 
1500.000000	99.573019 
1499.000000	99.572532 
1498.000000	99.572160 
1497.000000	99.571981 
1496.000000	99.571884 
1495.000000	99.571663 
1494.000000	99.571314 
1493.000000	99.570982 
1492.000000	99.570759 
1491.000000	99.570587 
1490.000000	99.570379 
1489.000000	99.570193 
1488.000000	99.570039 
1487.000000	99.569791 
1486.000000	99.569537 
1485.000000	99.569452 
1484.000000	99.569615 
1483.000000	99.569925 
1482.000000	99.570079 
1481.000000	99.569901 
1480.000000	99.569523 
1479.000000	99.569227 
1478.000000	99.569051 
1477.000000	99.568778 
1476.000000	99.568255 
1475.000000	99.567780 
1474.000000	99.567704 
1473.000000	99.567738 
1472.000000	99.567475 
1471.000000	99.567120 
1470.000000	99.567201 
1469.000000	99.567990 
1468.000000	99.569354 
1467.000000	99.570867 
1466.000000	99.572015 
1465.000000	99.572315 
1464.000000	99.572014 
1463.000000	99.571740 
1462.000000	99.571598 
1461.000000	99.571192 
1460.000000	99.570297 
1459.000000	99.569400 
1458.000000	99.569042 
1457.000000	99.569383 
1456.000000	99.569942 
1455.000000	99.570013 
1454.000000	99.570104 
1453.000000	99.571410 
1452.000000	99.573584 
1451.000000	99.575404 
1450.000000	99.576076 
1449.000000	99.575701 
1448.000000	99.574333 
1447.000000	99.572457 
1446.000000	99.571157 
1445.000000	99.571018 
1444.000000	99.571775 
1443.000000	99.572127 
1442.000000	99.571116 
1441.000000	99.569014 
1440.000000	99.566890 
1439.000000	99.565288 
1438.000000	99.563886 
1437.000000	99.562771 
1436.000000	99.563015 
1435.000000	99.564637 
1434.000000	99.566276 
1433.000000	99.567498 
1432.000000	99.568509 
1431.000000	99.569626 
1430.000000	99.570927 
1429.000000	99.572189 
1428.000000	99.572773 
1427.000000	99.572569 
1426.000000	99.572292 
1425.000000	99.572471 
1424.000000	99.573517 
1423.000000	99.575100 
1422.000000	99.576395 
1421.000000	99.576951 
1420.000000	99.576883 
1419.000000	99.576303 
1418.000000	99.575080 
1417.000000	99.573267 
1416.000000	99.571040 
1415.000000	99.568866 
1414.000000	99.567080 
1413.000000	99.565784 
1412.000000	99.564885 
1411.000000	99.564207 
1410.000000	99.563758 
1409.000000	99.564050 
1408.000000	99.565281 
1407.000000	99.567014 
1406.000000	99.568533 
1405.000000	99.569176 
1404.000000	99.569077 
1403.000000	99.568646 
1402.000000	99.568195 
1401.000000	99.567989 
1400.000000	99.568160 
1399.000000	99.568866 
1398.000000	99.570125 
1397.000000	99.571466 
1396.000000	99.571933 
1395.000000	99.571060 
1394.000000	99.569532 
1393.000000	99.568591 
1392.000000	99.568890 
1391.000000	99.570168 
1390.000000	99.571825 
1389.000000	99.573378 
1388.000000	99.574578 
1387.000000	99.575391 
1386.000000	99.575910 
1385.000000	99.576141 
1384.000000	99.576094 
1383.000000	99.575880 
1382.000000	99.575708 
1381.000000	99.575739 
1380.000000	99.575934 
1379.000000	99.576212 
1378.000000	99.576525 
1377.000000	99.576819 
1376.000000	99.577036 
1375.000000	99.577202 
1374.000000	99.577408 
1373.000000	99.577685 
1372.000000	99.577981 
1371.000000	99.578261 
1370.000000	99.578532 
1369.000000	99.578800 
1368.000000	99.579059 
1367.000000	99.579309 
1366.000000	99.579552 
1365.000000	99.579786 
1364.000000	99.580009 
1363.000000	99.580223 
1362.000000	99.580433 
1361.000000	99.580641 
1360.000000	99.580851 
1359.000000	99.581061 
1358.000000	99.581262 
1357.000000	99.581446 
1356.000000	99.581610 
1355.000000	99.581759 
1354.000000	99.581906 
1353.000000	99.582064 
1352.000000	99.582231 
1351.000000	99.582399 
1350.000000	99.582551 
1349.000000	99.582678 
1348.000000	99.582777 
1347.000000	99.582856 
1346.000000	99.582924 
1345.000000	99.582987 
1344.000000	99.583046 
1343.000000	99.583102 
1342.000000	99.583154 
1341.000000	99.583204 
1340.000000	99.583254 
1339.000000	99.583304 
1338.000000	99.583353 
1337.000000	99.583400 
1336.000000	99.583448 
1335.000000	99.583497 
1334.000000	99.583546 
1333.000000	99.583589 
1332.000000	99.583620 
1331.000000	99.583645 
1330.000000	99.583669 
1329.000000	99.583701 
1328.000000	99.583742 
1327.000000	99.583790 
1326.000000	99.583839 
1325.000000	99.583885 
1324.000000	99.583920 
1323.000000	99.583943 
1322.000000	99.583956 
1321.000000	99.583966 
1320.000000	99.583976 
1319.000000	99.583985 
1318.000000	99.583989 
1317.000000	99.583985 
1316.000000	99.583976 
1315.000000	99.583972 
1314.000000	99.583979 
1313.000000	99.583999 
1312.000000	99.584023 
1311.000000	99.584040 
1310.000000	99.584043 
1309.000000	99.584034 
1308.000000	99.584018 
1307.000000	99.584005 
1306.000000	99.584003 
1305.000000	99.584010 
1304.000000	99.584024 
1303.000000	99.584035 
1302.000000	99.584034 
1301.000000	99.584019 
1300.000000	99.583999 
1299.000000	99.583989 
1298.000000	99.584003 
1297.000000	99.584038 
1296.000000	99.584069 
1295.000000	99.584079 
1294.000000	99.584069 
1293.000000	99.584046 
1292.000000	99.583993 
1291.000000	99.583916 
1290.000000	99.583887 
1289.000000	99.583993 
1288.000000	99.584211 
1287.000000	99.584394 
1286.000000	99.584436 
1285.000000	99.584365 
1284.000000	99.584229 
1283.000000	99.584014 
1282.000000	99.583757 
1281.000000	99.583614 
1280.000000	99.583740 
1279.000000	99.584119 
1278.000000	99.584502 
1277.000000	99.584506 
1276.000000	99.583836 
1275.000000	99.582643 
1274.000000	99.581700 
1273.000000	99.581884 
1272.000000	99.583239 
1271.000000	99.584656 
1270.000000	99.584948 
1269.000000	99.584136 
1268.000000	99.583395 
1267.000000	99.583672 
1266.000000	99.584696 
1265.000000	99.585641 
1264.000000	99.586259 
1263.000000	99.586700 
1262.000000	99.586507 
1261.000000	99.584772 
1260.000000	99.581676 
1259.000000	99.578961 
1258.000000	99.578031 
1257.000000	99.578313 
1256.000000	99.578384 
1255.000000	99.578142 
1254.000000	99.578711 
1253.000000	99.580464 
1252.000000	99.582446 
1251.000000	99.583960 
1250.000000	99.585427 
1249.000000	99.587090 
1248.000000	99.587873 
1247.000000	99.586331 
1246.000000	99.582269 
1245.000000	99.577027 
1244.000000	99.572522 
1243.000000	99.570301 
1242.000000	99.570970 
1241.000000	99.573983 
1240.000000	99.578034 
1239.000000	99.581813 
1238.000000	99.584302 
1237.000000	99.584705 
1236.000000	99.582743 
1235.000000	99.579142 
1234.000000	99.575168 
1233.000000	99.571460 
1232.000000	99.567875 
1231.000000	99.564540 
1230.000000	99.562308 
1229.000000	99.561781 
1228.000000	99.562238 
1227.000000	99.561838 
1226.000000	99.558799 
1225.000000	99.552585 
1224.000000	99.544456 
1223.000000	99.536643 
1222.000000	99.530336 
1221.000000	99.524812 
1220.000000	99.519168 
1219.000000	99.514104 
1218.000000	99.510620 
1217.000000	99.507349 
1216.000000	99.501144 
1215.000000	99.490923 
1214.000000	99.479563 
1213.000000	99.471058 
1212.000000	99.466295 
1211.000000	99.462374 
1210.000000	99.455811 
1209.000000	99.445993 
1208.000000	99.435599 
1207.000000	99.427652 
1206.000000	99.422129 
1205.000000	99.416156 
1204.000000	99.407899 
1203.000000	99.398994 
1202.000000	99.391934 
1201.000000	99.386210 
1200.000000	99.379151 
1199.000000	99.369972 
1198.000000	99.360513 
1197.000000	99.351929 
1196.000000	99.343047 
1195.000000	99.332784 
1194.000000	99.322076 
1193.000000	99.312305 
1192.000000	99.303414 
1191.000000	99.294663 
1190.000000	99.285958 
1189.000000	99.277338 
1188.000000	99.268130 
1187.000000	99.257473 
1186.000000	99.245032 
1185.000000	99.230836 
1184.000000	99.215366 
1183.000000	99.200140 
1182.000000	99.186900 
1181.000000	99.175640 
1180.000000	99.164538 
1179.000000	99.152286 
1178.000000	99.139330 
1177.000000	99.126478 
1176.000000	99.113745 
1175.000000	99.101283 
1174.000000	99.090008 
1173.000000	99.080165 
1172.000000	99.070112 
1171.000000	99.057498 
1170.000000	99.041537 
1169.000000	99.023996 
1168.000000	99.008432 
1167.000000	98.998156 
1166.000000	98.993814 
1165.000000	98.993053 
1164.000000	98.993445 
1163.000000	98.995103 
1162.000000	98.998960 
1161.000000	99.003363 
1160.000000	99.004801 
1159.000000	99.002065 
1158.000000	98.997255 
1157.000000	98.992313 
1156.000000	98.986788 
1155.000000	98.979605 
1154.000000	98.970708 
1153.000000	98.960064 
1152.000000	98.947425 
1151.000000	98.934227 
1150.000000	98.923391 
1149.000000	98.915624 
1148.000000	98.907964 
1147.000000	98.897637 
1146.000000	98.885377 
1145.000000	98.873181 
1144.000000	98.860876 
1143.000000	98.847642 
1142.000000	98.835468 
1141.000000	98.827707 
1140.000000	98.824076 
1139.000000	98.819709 
1138.000000	98.810151 
1137.000000	98.795667 
1136.000000	98.779982 
1135.000000	98.766071 
1134.000000	98.754000 
1133.000000	98.742202 
1132.000000	98.729558 
1131.000000	98.715986 
1130.000000	98.701885 
1129.000000	98.688000 
1128.000000	98.675788 
1127.000000	98.666741 
1126.000000	98.660397 
1125.000000	98.653633 
1124.000000	98.643129 
1123.000000	98.628411 
1122.000000	98.611626 
1121.000000	98.594889 
1120.000000	98.579381 
1119.000000	98.566787 
1118.000000	98.559092 
1117.000000	98.555620 
1116.000000	98.551919 
1115.000000	98.543780 
1114.000000	98.531536 
1113.000000	98.518566 
1112.000000	98.506540 
1111.000000	98.494347 
1110.000000	98.481270 
1109.000000	98.468631 
1108.000000	98.457788 
1107.000000	98.448346 
1106.000000	98.439078 
1105.000000	98.429228 
1104.000000	98.418527 
1103.000000	98.407399 
1102.000000	98.397439 
1101.000000	98.390494 
1100.000000	98.386546 
1099.000000	98.383191 
1098.000000	98.378133 
1097.000000	98.371238 
1096.000000	98.364077 
1095.000000	98.358027 
1094.000000	98.353210 
1093.000000	98.348620 
1092.000000	98.342727 
1091.000000	98.334306 
1090.000000	98.323297 
1089.000000	98.310979 
1088.000000	98.299203 
1087.000000	98.289199 
1086.000000	98.280849 
1085.000000	98.273100 
1084.000000	98.265289 
1083.000000	98.258064 
1082.000000	98.252815 
1081.000000	98.250154 
1080.000000	98.248886 
1079.000000	98.246257 
1078.000000	98.239408 
1077.000000	98.227448 
1076.000000	98.212584 
1075.000000	98.198548 
1074.000000	98.187135 
1073.000000	98.176680 
1072.000000	98.164315 
1071.000000	98.148453 
1070.000000	98.128220 
1069.000000	98.102467 
1068.000000	98.071859 
1067.000000	98.041143 
1066.000000	98.016142 
1065.000000	97.997511 
1064.000000	97.979432 
1063.000000	97.955201 
1062.000000	97.922993 
1061.000000	97.886549 
1060.000000	97.852096 
1059.000000	97.824464 
1058.000000	97.803946 
1057.000000	97.786433 
1056.000000	97.768127 
1055.000000	97.749732 
1054.000000	97.733614 
1053.000000	97.717139 
1052.000000	97.693050 
1051.000000	97.658824 
1050.000000	97.622258 
1049.000000	97.593662 
1048.000000	97.574306 
1047.000000	97.555886 
1046.000000	97.529894 
1045.000000	97.495285 
1044.000000	97.458447 
1043.000000	97.427933 
1042.000000	97.407982 
1041.000000	97.395011 
1040.000000	97.380747 
1039.000000	97.360242 
1038.000000	97.336296 
1037.000000	97.315106 
1036.000000	97.299406 
1035.000000	97.287826 
1034.000000	97.279258 
1033.000000	97.274556 
1032.000000	97.273625 
1031.000000	97.273592 
1030.000000	97.271491 
1029.000000	97.267473 
1028.000000	97.263933 
1027.000000	97.262233 
1026.000000	97.261581 
1025.000000	97.260889 
1024.000000	97.260641 
1023.000000	97.262445 
1022.000000	97.266983 
1021.000000	97.272711 
1020.000000	97.276724 
1019.000000	97.277056 
1018.000000	97.274122 
1017.000000	97.269785 
1016.000000	97.265345 
1015.000000	97.261005 
1014.000000	97.257071 
1013.000000	97.254718 
1012.000000	97.255079 
1011.000000	97.258066 
1010.000000	97.262400 
1009.000000	97.266227 
1008.000000	97.267420 
1007.000000	97.264441 
1006.000000	97.258499 
1005.000000	97.254538 
1004.000000	97.258201 
1003.000000	97.270687 
1002.000000	97.287259 
1001.000000	97.302033 
1000.000000	97.313810 
999.000000	 97.325827 
998.000000	 97.340314 
997.000000	 97.355376 
996.000000	 97.367825 
995.000000	 97.377391 
994.000000	 97.386492 
993.000000	 97.396587 
992.000000	 97.406919 
991.000000	 97.417274 
990.000000	 97.430072 
989.000000	 97.447985 
988.000000	 97.469932 
987.000000	 97.490952 
986.000000	 97.506805 
985.000000	 97.518393 
984.000000	 97.531151 
983.000000	 97.550119 
982.000000	 97.575598 
981.000000	 97.603036 
980.000000	 97.627151 
979.000000	 97.646946 
978.000000	 97.666860 
977.000000	 97.692579 
976.000000	 97.725597 
975.000000	 97.762153 
974.000000	 97.797325 
973.000000	 97.829213 
972.000000	 97.858614 
971.000000	 97.886134 
970.000000	 97.911523 
969.000000	 97.935456 
968.000000	 97.960041 
967.000000	 97.986847 
966.000000	 98.015434 
965.000000	 98.044425 
964.000000	 98.073156 
963.000000	 98.101598 
962.000000	 98.129389 
961.000000	 98.155899 
960.000000	 98.181080 
959.000000	 98.205537 
958.000000	 98.229645 
957.000000	 98.253074 
956.000000	 98.275218 
955.000000	 98.295784 
954.000000	 98.314879 
953.000000	 98.332649 
952.000000	 98.348894 
951.000000	 98.362990 
950.000000	 98.374401 
949.000000	 98.383743 
948.000000	 98.393169 
947.000000	 98.404646 
946.000000	 98.417272 
945.000000	 98.427463 
944.000000	 98.433339 
943.000000	 98.438505 
942.000000	 98.449388 
941.000000	 98.467878 
940.000000	 98.488171 
939.000000	 98.502218 
938.000000	 98.507621 
937.000000	 98.509289 
936.000000	 98.513973 
935.000000	 98.524302 
934.000000	 98.537840 
933.000000	 98.550469 
932.000000	 98.560107 
931.000000	 98.567599 
930.000000	 98.574563 
929.000000	 98.581009 
928.000000	 98.585834 
927.000000	 98.589467 
926.000000	 98.594639 
925.000000	 98.603902 
924.000000	 98.617236 
923.000000	 98.632425 
922.000000	 98.646542 
921.000000	 98.656658 
920.000000	 98.661074 
919.000000	 98.661479 
918.000000	 98.662491 
917.000000	 98.667044 
916.000000	 98.673196 
915.000000	 98.677368 
914.000000	 98.680048 
913.000000	 98.685941 
912.000000	 98.698348 
911.000000	 98.715780 
910.000000	 98.734532 
909.000000	 98.752521 
908.000000	 98.769827 
907.000000	 98.786978 
906.000000	 98.804197 
905.000000	 98.821676 
904.000000	 98.839253 
903.000000	 98.855910 
902.000000	 98.870500 
901.000000	 98.883551 
900.000000	 98.898207 
899.000000	 98.918554 
898.000000	 98.945772 
897.000000	 98.975473 
896.000000	 99.000124 
895.000000	 99.015694 
894.000000	 99.025404 
893.000000	 99.036320 
892.000000	 99.052245 
891.000000	 99.070585 
890.000000	 99.085894 
889.000000	 99.095506 
888.000000	 99.101913 
887.000000	 99.110565 
886.000000	 99.124983 
885.000000	 99.143547 
884.000000	 99.161515 
883.000000	 99.176317 
882.000000	 99.189538 
881.000000	 99.203078 
880.000000	 99.215482 
879.000000	 99.224472 
878.000000	 99.231886 
877.000000	 99.243129 
876.000000	 99.261268 
875.000000	 99.283390 
874.000000	 99.302970 
873.000000	 99.315232 
872.000000	 99.320727 
871.000000	 99.325271 
870.000000	 99.335244 
869.000000	 99.351008 
868.000000	 99.366242 
867.000000	 99.375482 
866.000000	 99.380736 
865.000000	 99.388003 
864.000000	 99.398648 
863.000000	 99.408519 
862.000000	 99.415564 
861.000000	 99.423406 
860.000000	 99.435398 
859.000000	 99.448915 
858.000000	 99.458310 
857.000000	 99.461282 
856.000000	 99.460702 
855.000000	 99.462546 
854.000000	 99.472783 
853.000000	 99.492616 
852.000000	 99.515009 
851.000000	 99.529817 
850.000000	 99.534516 
849.000000	 99.536125 
848.000000	 99.540899 
847.000000	 99.547016 
846.000000	 99.550381 
845.000000	 99.551918 
844.000000	 99.554597 
843.000000	 99.557832 
842.000000	 99.559906 
841.000000	 99.562396 
840.000000	 99.567129 
839.000000	 99.571461 
838.000000	 99.571528 
837.000000	 99.568063 
836.000000	 99.564425 
835.000000	 99.560783 
834.000000	 99.554829 
833.000000	 99.547079 
832.000000	 99.541381 
831.000000	 99.540865 
830.000000	 99.546166 
829.000000	 99.555648 
828.000000	 99.564330 
827.000000	 99.565866 
826.000000	 99.560595 
825.000000	 99.558303 
824.000000	 99.566168 
823.000000	 99.577148 
822.000000	 99.579296 
821.000000	 99.574058 
820.000000	 99.575037 
819.000000	 99.588368 
818.000000	 99.603331 
817.000000	 99.605757 
816.000000	 99.594403 
815.000000	 99.579593 
814.000000	 99.568526 
813.000000	 99.556972 
812.000000	 99.536458 
811.000000	 99.504961 
810.000000	 99.466955 
809.000000	 99.424977 
808.000000	 99.376211 
807.000000	 99.318812 
806.000000	 99.257361 
805.000000	 99.198685 
804.000000	 99.145027 
803.000000	 99.095316 
802.000000	 99.051134 
801.000000	 99.016597 
800.000000	 98.992835 
799.000000	 98.977112 
798.000000	 98.967814 
797.000000	 98.966368 
796.000000	 98.973369 
795.000000	 98.986533 
794.000000	 99.003612 
793.000000	 99.023339 
792.000000	 99.041861 
791.000000	 99.053116 
790.000000	 99.055652 
789.000000	 99.054503 
788.000000	 99.053244 
787.000000	 99.048661 
786.000000	 99.036834 
785.000000	 99.019922 
784.000000	 99.002159 
783.000000	 98.983004 
782.000000	 98.960103 
781.000000	 98.936845 
780.000000	 98.921046 
779.000000	 98.916585 
778.000000	 98.920678 
777.000000	 98.929019 
776.000000	 98.939671 
775.000000	 98.952392 
774.000000	 98.968163 
773.000000	 98.989011 
772.000000	 99.014548 
771.000000	 99.038979 
770.000000	 99.055665 
769.000000	 99.064594 
768.000000	 99.071277 
767.000000	 99.078871 
766.000000	 99.086096 
765.000000	 99.092810 
764.000000	 99.101890 
763.000000	 99.113610 
762.000000	 99.122987 
761.000000	 99.125768 
760.000000	 99.123885 
759.000000	 99.122666 
758.000000	 99.125752 
757.000000	 99.135028 
756.000000	 99.151887 
755.000000	 99.174235 
754.000000	 99.193894 
753.000000	 99.201835 
752.000000	 99.196835 
751.000000	 99.187223 
750.000000	 99.183966 
749.000000	 99.192311 
748.000000	 99.209978 
747.000000	 99.230312 
746.000000	 99.246693 
745.000000	 99.256792 
744.000000	 99.264479 
743.000000	 99.276641 
742.000000	 99.296165 
741.000000	 99.318339 
740.000000	 99.335513 
739.000000	 99.344841 
738.000000	 99.349864 
737.000000	 99.355500 
736.000000	 99.363653 
735.000000	 99.373854 
734.000000	 99.385334 
733.000000	 99.396468 
732.000000	 99.404040 
731.000000	 99.405857 
730.000000	 99.403710 
729.000000	 99.401873 
728.000000	 99.403000 
727.000000	 99.407447 
726.000000	 99.416068 
725.000000	 99.430722 
724.000000	 99.451061 
723.000000	 99.472608 
722.000000	 99.489297 
721.000000	 99.497325 
720.000000	 99.496777 
719.000000	 99.491286 
718.000000	 99.486215 
717.000000	 99.485235 
716.000000	 99.487630 
715.000000	 99.489689 
714.000000	 99.489426 
713.000000	 99.489593 
712.000000	 99.495546 
711.000000	 99.509992 
710.000000	 99.529419 
709.000000	 99.545550 
708.000000	 99.551309 
707.000000	 99.546471 
706.000000	 99.537482 
705.000000	 99.530945 
704.000000	 99.528371 
703.000000	 99.527502 
702.000000	 99.525708 
701.000000	 99.520044 
700.000000	 99.506751 
699.000000	 99.484510 
698.000000	 99.457146 
697.000000	 99.430918 
696.000000	 99.410473 
695.000000	 99.399206 
694.000000	 99.401312 
693.000000	 99.418652 
692.000000	 99.445033 
691.000000	 99.467975 
690.000000	 99.478155 
689.000000	 99.475848 
688.000000	 99.469183 
687.000000	 99.468050 
686.000000	 99.477527 
685.000000	 99.493318 
684.000000	 99.504157 
683.000000	 99.502707 
682.000000	 99.494147 
681.000000	 99.490504 
680.000000	 99.496605 
679.000000	 99.506447 
678.000000	 99.513712 
677.000000	 99.519543 
676.000000	 99.527904 
675.000000	 99.539108 
674.000000	 99.550374 
673.000000	 99.560344 
672.000000	 99.570713 
671.000000	 99.583877 
670.000000	 99.599028 
669.000000	 99.608719 
668.000000	 99.604445 
667.000000	 99.587637 
666.000000	 99.569076 
665.000000	 99.560401 
664.000000	 99.565178 
663.000000	 99.578069 
662.000000	 99.589587 
661.000000	 99.592365 
660.000000	 99.584890 
659.000000	 99.571893 
658.000000	 99.562929 
657.000000	 99.565560 
656.000000	 99.579055 
655.000000	 99.594955 
654.000000	 99.603298 
653.000000	 99.600204 
652.000000	 99.588747 
651.000000	 99.576796 
650.000000	 99.573496 

