4000.000000	99.354224 
3999.000000	99.353545 
3998.000000	99.353370 
3997.000000	99.353869 
3996.000000	99.354668 
3995.000000	99.355145 
3994.000000	99.355088 
3993.000000	99.354788 
3992.000000	99.354602 
3991.000000	99.354479 
3990.000000	99.354057 
3989.000000	99.353130 
3988.000000	99.351919 
3987.000000	99.350891 
3986.000000	99.350419 
3985.000000	99.350590 
3984.000000	99.351228 
3983.000000	99.352078 
3982.000000	99.353022 
3981.000000	99.354065 
3980.000000	99.355134 
3979.000000	99.355961 
3978.000000	99.356266 
3977.000000	99.356005 
3976.000000	99.355348 
3975.000000	99.354437 
3974.000000	99.353289 
3973.000000	99.351978 
3972.000000	99.350798 
3971.000000	99.350155 
3970.000000	99.350310 
3969.000000	99.351208 
3968.000000	99.352468 
3967.000000	99.353526 
3966.000000	99.353950 
3965.000000	99.353655 
3964.000000	99.352878 
3963.000000	99.352051 
3962.000000	99.351531 
3961.000000	99.351384 
3960.000000	99.351366 
3959.000000	99.351137 
3958.000000	99.350591 
3957.000000	99.349944 
3956.000000	99.349505 
3955.000000	99.349355 
3954.000000	99.349316 
3953.000000	99.349190 
3952.000000	99.348922 
3951.000000	99.348576 
3950.000000	99.348211 
3949.000000	99.347837 
3948.000000	99.347467 
3947.000000	99.347159 
3946.000000	99.346950 
3945.000000	99.346791 
3944.000000	99.346576 
3943.000000	99.346244 
3942.000000	99.345832 
3941.000000	99.345433 
3940.000000	99.345094 
3939.000000	99.344788 
3938.000000	99.344471 
3937.000000	99.344128 
3936.000000	99.343776 
3935.000000	99.343433 
3934.000000	99.343114 
3933.000000	99.342827 
3932.000000	99.342567 
3931.000000	99.342317 
3930.000000	99.342051 
3929.000000	99.341748 
3928.000000	99.341409 
3927.000000	99.341037 
3926.000000	99.340642 
3925.000000	99.340254 
3924.000000	99.339919 
3923.000000	99.339650 
3922.000000	99.339384 
3921.000000	99.339040 
3920.000000	99.338633 
3919.000000	99.338265 
3918.000000	99.337986 
3917.000000	99.337740 
3916.000000	99.337481 
3915.000000	99.337258 
3914.000000	99.337119 
3913.000000	99.337030 
3912.000000	99.336912 
3911.000000	99.336713 
3910.000000	99.336436 
3909.000000	99.336134 
3908.000000	99.335863 
3907.000000	99.335644 
3906.000000	99.335455 
3905.000000	99.335248 
3904.000000	99.334998 
3903.000000	99.334725 
3902.000000	99.334460 
3901.000000	99.334195 
3900.000000	99.333912 
3899.000000	99.333605 
3898.000000	99.333278 
3897.000000	99.332929 
3896.000000	99.332568 
3895.000000	99.332214 
3894.000000	99.331898 
3893.000000	99.331632 
3892.000000	99.331386 
3891.000000	99.331107 
3890.000000	99.330801 
3889.000000	99.330509 
3888.000000	99.330236 
3887.000000	99.329955 
3886.000000	99.329645 
3885.000000	99.329315 
3884.000000	99.329008 
3883.000000	99.328746 
3882.000000	99.328492 
3881.000000	99.328215 
3880.000000	99.327923 
3879.000000	99.327661 
3878.000000	99.327467 
3877.000000	99.327313 
3876.000000	99.327126 
3875.000000	99.326860 
3874.000000	99.326526 
3873.000000	99.326197 
3872.000000	99.325918 
3871.000000	99.325618 
3870.000000	99.325218 
3869.000000	99.324819 
3868.000000	99.324642 
3867.000000	99.324679 
3866.000000	99.324666 
3865.000000	99.324504 
3864.000000	99.324338 
3863.000000	99.324289 
3862.000000	99.324301 
3861.000000	99.324247 
3860.000000	99.324080 
3859.000000	99.323761 
3858.000000	99.323224 
3857.000000	99.322546 
3856.000000	99.322138 
3855.000000	99.322442 
3854.000000	99.323209 
3853.000000	99.323413 
3852.000000	99.323243 
3851.000000	99.323605 
3850.000000	99.324330 
3849.000000	99.324901 
3848.000000	99.325285 
3847.000000	99.325614 
3846.000000	99.325907 
3845.000000	99.326120 
3844.000000	99.326269 
3843.000000	99.326400 
3842.000000	99.326548 
3841.000000	99.326676 
3840.000000	99.326724 
3839.000000	99.326668 
3838.000000	99.326525 
3837.000000	99.326344 
3836.000000	99.326229 
3835.000000	99.326252 
3834.000000	99.326390 
3833.000000	99.326585 
3832.000000	99.326811 
3831.000000	99.327084 
3830.000000	99.327436 
3829.000000	99.327814 
3828.000000	99.328054 
3827.000000	99.328008 
3826.000000	99.327752 
3825.000000	99.327601 
3824.000000	99.327822 
3823.000000	99.328389 
3822.000000	99.328906 
3821.000000	99.328812 
3820.000000	99.328179 
3819.000000	99.327786 
3818.000000	99.327724 
3817.000000	99.327521 
3816.000000	99.327051 
3815.000000	99.326743 
3814.000000	99.327096 
3813.000000	99.327801 
3812.000000	99.327993 
3811.000000	99.327591 
3810.000000	99.327372 
3809.000000	99.327942 
3808.000000	99.328985 
3807.000000	99.329511 
3806.000000	99.329275 
3805.000000	99.329111 
3804.000000	99.329203 
3803.000000	99.328828 
3802.000000	99.327553 
3801.000000	99.325431 
3800.000000	99.323940 
3799.000000	99.324275 
3798.000000	99.325117 
3797.000000	99.325141 
3796.000000	99.324823 
3795.000000	99.325231 
3794.000000	99.326582 
3793.000000	99.328193 
3792.000000	99.329560 
3791.000000	99.330773 
3790.000000	99.331739 
3789.000000	99.332217 
3788.000000	99.332574 
3787.000000	99.333702 
3786.000000	99.335843 
3785.000000	99.338111 
3784.000000	99.339708 
3783.000000	99.340790 
3782.000000	99.341664 
3781.000000	99.341896 
3780.000000	99.340772 
3779.000000	99.338158 
3778.000000	99.335172 
3777.000000	99.333069 
3776.000000	99.331885 
3775.000000	99.331211 
3774.000000	99.331385 
3773.000000	99.332837 
3772.000000	99.334886 
3771.000000	99.335872 
3770.000000	99.334844 
3769.000000	99.332835 
3768.000000	99.331775 
3767.000000	99.331941 
3766.000000	99.332085 
3765.000000	99.331640 
3764.000000	99.331506 
3763.000000	99.332553 
3762.000000	99.334210 
3761.000000	99.335479 
3760.000000	99.336199 
3759.000000	99.336118 
3758.000000	99.334603 
3757.000000	99.331613 
3756.000000	99.328174 
3755.000000	99.325397 
3754.000000	99.323819 
3753.000000	99.323884 
3752.000000	99.325183 
3751.000000	99.324700 
3750.000000	99.319603 
3749.000000	99.312488 
3748.000000	99.308261 
3747.000000	99.307564 
3746.000000	99.307918 
3745.000000	99.307108 
3744.000000	99.304244 
3743.000000	99.303952 
3742.000000	99.309705 
3741.000000	99.315478 
3740.000000	99.316497 
3739.000000	99.315456 
3738.000000	99.316155 
3737.000000	99.318431 
3736.000000	99.319708 
3735.000000	99.319366 
3734.000000	99.318689 
3733.000000	99.317736 
3732.000000	99.315991 
3731.000000	99.315059 
3730.000000	99.316424 
3729.000000	99.318340 
3728.000000	99.318278 
3727.000000	99.316938 
3726.000000	99.317217 
3725.000000	99.320259 
3724.000000	99.323511 
3723.000000	99.323805 
3722.000000	99.321044 
3721.000000	99.317672 
3720.000000	99.315781 
3719.000000	99.314961 
3718.000000	99.313311 
3717.000000	99.309550 
3716.000000	99.303890 
3715.000000	99.297079 
3714.000000	99.289945 
3713.000000	99.283863 
3712.000000	99.279348 
3711.000000	99.275573 
3710.000000	99.272940 
3709.000000	99.272328 
3708.000000	99.272628 
3707.000000	99.271715 
3706.000000	99.268500 
3705.000000	99.263249 
3704.000000	99.256944 
3703.000000	99.250799 
3702.000000	99.245540 
3701.000000	99.241536 
3700.000000	99.239398 
3699.000000	99.238287 
3698.000000	99.235087 
3697.000000	99.227624 
3696.000000	99.217444 
3695.000000	99.208239 
3694.000000	99.202040 
3693.000000	99.198283 
3692.000000	99.195673 
3691.000000	99.192889 
3690.000000	99.188114 
3689.000000	99.180086 
3688.000000	99.171462 
3687.000000	99.167369 
3686.000000	99.168635 
3685.000000	99.171048 
3684.000000	99.171576 
3683.000000	99.171079 
3682.000000	99.170861 
3681.000000	99.169414 
3680.000000	99.163900 
3679.000000	99.154527 
3678.000000	99.144432 
3677.000000	99.136558 
3676.000000	99.130772 
3675.000000	99.126056 
3674.000000	99.126782 
3673.000000	99.134547 
3672.000000	99.142093 
3671.000000	99.144877 
3670.000000	99.143867 
3669.000000	99.140995 
3668.000000	99.139241 
3667.000000	99.138942 
3666.000000	99.138305 
3665.000000	99.137708 
3664.000000	99.138820 
3663.000000	99.141911 
3662.000000	99.145488 
3661.000000	99.147947 
3660.000000	99.149127 
3659.000000	99.150230 
3658.000000	99.151977 
3657.000000	99.153620 
3656.000000	99.153997 
3655.000000	99.154713 
3654.000000	99.157924 
3653.000000	99.162473 
3652.000000	99.166869 
3651.000000	99.171879 
3650.000000	99.176644 
3649.000000	99.177328 
3648.000000	99.173696 
3647.000000	99.170507 
3646.000000	99.171364 
3645.000000	99.175972 
3644.000000	99.182260 
3643.000000	99.188509 
3642.000000	99.194050 
3641.000000	99.198832 
3640.000000	99.203117 
3639.000000	99.207428 
3638.000000	99.212411 
3637.000000	99.218260 
3636.000000	99.223699 
3635.000000	99.226566 
3634.000000	99.226029 
3633.000000	99.223762 
3632.000000	99.222281 
3631.000000	99.222958 
3630.000000	99.225503 
3629.000000	99.227249 
3628.000000	99.226739 
3627.000000	99.227365 
3626.000000	99.230629 
3625.000000	99.234293 
3624.000000	99.237196 
3623.000000	99.239630 
3622.000000	99.241803 
3621.000000	99.243622 
3620.000000	99.245069 
3619.000000	99.246225 
3618.000000	99.247636 
3617.000000	99.250044 
3616.000000	99.253075 
3615.000000	99.255392 
3614.000000	99.255985 
3613.000000	99.254907 
3612.000000	99.253267 
3611.000000	99.252393 
3610.000000	99.252947 
3609.000000	99.254930 
3608.000000	99.257830 
3607.000000	99.260907 
3606.000000	99.263611 
3605.000000	99.265661 
3604.000000	99.267154 
3603.000000	99.268455 
3602.000000	99.269736 
3601.000000	99.270978 
3600.000000	99.272353 
3599.000000	99.274136 
3598.000000	99.276124 
3597.000000	99.277771 
3596.000000	99.278591 
3595.000000	99.278470 
3594.000000	99.277793 
3593.000000	99.277461 
3592.000000	99.278283 
3591.000000	99.280384 
3590.000000	99.283121 
3589.000000	99.285263 
3588.000000	99.285545 
3587.000000	99.283796 
3586.000000	99.281501 
3585.000000	99.280221 
3584.000000	99.280006 
3583.000000	99.280221 
3582.000000	99.280460 
3581.000000	99.280611 
3580.000000	99.280651 
3579.000000	99.280623 
3578.000000	99.280581 
3577.000000	99.280613 
3576.000000	99.280834 
3575.000000	99.281305 
3574.000000	99.281932 
3573.000000	99.282474 
3572.000000	99.282710 
3571.000000	99.282556 
3570.000000	99.282077 
3569.000000	99.281410 
3568.000000	99.280686 
3567.000000	99.280094 
3566.000000	99.280019 
3565.000000	99.280702 
3564.000000	99.281707 
3563.000000	99.282315 
3562.000000	99.282270 
3561.000000	99.281822 
3560.000000	99.281355 
3559.000000	99.281081 
3558.000000	99.280992 
3557.000000	99.280991 
3556.000000	99.281057 
3555.000000	99.281219 
3554.000000	99.281423 
3553.000000	99.281514 
3552.000000	99.281394 
3551.000000	99.281116 
3550.000000	99.280785 
3549.000000	99.280442 
3548.000000	99.280152 
3547.000000	99.280046 
3546.000000	99.280193 
3545.000000	99.280536 
3544.000000	99.280937 
3543.000000	99.281255 
3542.000000	99.281431 
3541.000000	99.281516 
3540.000000	99.281656 
3539.000000	99.281963 
3538.000000	99.282381 
3537.000000	99.282691 
3536.000000	99.282701 
3535.000000	99.282427 
3534.000000	99.282035 
3533.000000	99.281709 
3532.000000	99.281539 
3531.000000	99.281521 
3530.000000	99.281598 
3529.000000	99.281691 
3528.000000	99.281740 
3527.000000	99.281731 
3526.000000	99.281668 
3525.000000	99.281556 
3524.000000	99.281411 
3523.000000	99.281262 
3522.000000	99.281128 
3521.000000	99.281006 
3520.000000	99.280888 
3519.000000	99.280772 
3518.000000	99.280661 
3517.000000	99.280552 
3516.000000	99.280443 
3515.000000	99.280332 
3514.000000	99.280218 
3513.000000	99.280098 
3512.000000	99.279973 
3511.000000	99.279847 
3510.000000	99.279723 
3509.000000	99.279605 
3508.000000	99.279494 
3507.000000	99.279383 
3506.000000	99.279266 
3505.000000	99.279135 
3504.000000	99.278987 
3503.000000	99.278829 
3502.000000	99.278667 
3501.000000	99.278510 
3500.000000	99.278357 
3499.000000	99.278202 
3498.000000	99.278034 
3497.000000	99.277850 
3496.000000	99.277654 
3495.000000	99.277457 
3494.000000	99.277267 
3493.000000	99.277087 
3492.000000	99.276915 
3491.000000	99.276749 
3490.000000	99.276582 
3489.000000	99.276418 
3488.000000	99.276274 
3487.000000	99.276158 
3486.000000	99.276049 
3485.000000	99.275922 
3484.000000	99.275776 
3483.000000	99.275654 
3482.000000	99.275601 
3481.000000	99.275611 
3480.000000	99.275602 
3479.000000	99.275484 
3478.000000	99.275241 
3477.000000	99.274933 
3476.000000	99.274600 
3475.000000	99.274218 
3474.000000	99.273789 
3473.000000	99.273436 
3472.000000	99.273337 
3471.000000	99.273546 
3470.000000	99.273935 
3469.000000	99.274339 
3468.000000	99.274664 
3467.000000	99.274836 
3466.000000	99.274726 
3465.000000	99.274194 
3464.000000	99.273208 
3463.000000	99.271883 
3462.000000	99.270449 
3461.000000	99.269156 
3460.000000	99.268191 
3459.000000	99.267683 
3458.000000	99.267694 
3457.000000	99.268116 
3456.000000	99.268633 
3455.000000	99.268883 
3454.000000	99.268720 
3453.000000	99.268354 
3452.000000	99.268125 
3451.000000	99.268198 
3450.000000	99.268470 
3449.000000	99.268703 
3448.000000	99.268676 
3447.000000	99.268310 
3446.000000	99.267737 
3445.000000	99.267242 
3444.000000	99.267007 
3443.000000	99.266954 
3442.000000	99.266852 
3441.000000	99.266595 
3440.000000	99.266310 
3439.000000	99.266180 
3438.000000	99.266219 
3437.000000	99.266278 
3436.000000	99.266204 
3435.000000	99.265982 
3434.000000	99.265719 
3433.000000	99.265552 
3432.000000	99.265540 
3431.000000	99.265625 
3430.000000	99.265678 
3429.000000	99.265597 
3428.000000	99.265377 
3427.000000	99.265090 
3426.000000	99.264822 
3425.000000	99.264632 
3424.000000	99.264550 
3423.000000	99.264586 
3422.000000	99.264697 
3421.000000	99.264779 
3420.000000	99.264717 
3419.000000	99.264477 
3418.000000	99.264171 
3417.000000	99.263974 
3416.000000	99.263952 
3415.000000	99.263992 
3414.000000	99.263914 
3413.000000	99.263667 
3412.000000	99.263388 
3411.000000	99.263279 
3410.000000	99.263478 
3409.000000	99.264020 
3408.000000	99.264796 
3407.000000	99.265485 
3406.000000	99.265673 
3405.000000	99.265206 
3404.000000	99.264425 
3403.000000	99.263976 
3402.000000	99.264274 
3401.000000	99.265210 
3400.000000	99.266281 
3399.000000	99.267032 
3398.000000	99.267435 
3397.000000	99.267876 
3396.000000	99.268661 
3395.000000	99.269513 
3394.000000	99.269770 
3393.000000	99.269137 
3392.000000	99.268043 
3391.000000	99.267105 
3390.000000	99.266413 
3389.000000	99.265644 
3388.000000	99.264680 
3387.000000	99.263794 
3386.000000	99.263282 
3385.000000	99.263197 
3384.000000	99.263447 
3383.000000	99.263900 
3382.000000	99.264302 
3381.000000	99.264289 
3380.000000	99.263617 
3379.000000	99.262416 
3378.000000	99.261239 
3377.000000	99.260860 
3376.000000	99.261857 
3375.000000	99.264215 
3374.000000	99.267224 
3373.000000	99.269860 
3372.000000	99.271404 
3371.000000	99.271743 
3370.000000	99.271302 
3369.000000	99.270813 
3368.000000	99.270852 
3367.000000	99.271360 
3366.000000	99.271653 
3365.000000	99.271115 
3364.000000	99.269875 
3363.000000	99.268683 
3362.000000	99.268120 
3361.000000	99.268098 
3360.000000	99.268133 
3359.000000	99.267930 
3358.000000	99.267650 
3357.000000	99.267713 
3356.000000	99.268399 
3355.000000	99.269529 
3354.000000	99.270520 
3353.000000	99.270892 
3352.000000	99.270753 
3351.000000	99.270710 
3350.000000	99.271300 
3349.000000	99.272568 
3348.000000	99.274123 
3347.000000	99.275462 
3346.000000	99.276250 
3345.000000	99.276433 
3344.000000	99.276184 
3343.000000	99.275717 
3342.000000	99.275142 
3341.000000	99.274517 
3340.000000	99.274023 
3339.000000	99.273904 
3338.000000	99.274172 
3337.000000	99.274520 
3336.000000	99.274619 
3335.000000	99.274466 
3334.000000	99.274355 
3333.000000	99.274532 
3332.000000	99.274954 
3331.000000	99.275353 
3330.000000	99.275520 
3329.000000	99.275516 
3328.000000	99.275621 
3327.000000	99.276037 
3326.000000	99.276650 
3325.000000	99.277116 
3324.000000	99.277238 
3323.000000	99.277199 
3322.000000	99.277359 
3321.000000	99.277798 
3320.000000	99.278183 
3319.000000	99.278121 
3318.000000	99.277582 
3317.000000	99.276944 
3316.000000	99.276661 
3315.000000	99.276917 
3314.000000	99.277604 
3313.000000	99.278472 
3312.000000	99.279297 
3311.000000	99.279953 
3310.000000	99.280383 
3309.000000	99.280585 
3308.000000	99.280630 
3307.000000	99.280640 
3306.000000	99.280673 
3305.000000	99.280585 
3304.000000	99.280080 
3303.000000	99.279047 
3302.000000	99.277901 
3301.000000	99.277435 
3300.000000	99.278188 
3299.000000	99.279925 
3298.000000	99.281734 
3297.000000	99.282814 
3296.000000	99.283130 
3295.000000	99.283284 
3294.000000	99.283867 
3293.000000	99.284956 
3292.000000	99.286203 
3291.000000	99.287267 
3290.000000	99.288059 
3289.000000	99.288588 
3288.000000	99.288727 
3287.000000	99.288318 
3286.000000	99.287496 
3285.000000	99.286722 
3284.000000	99.286384 
3283.000000	99.286452 
3282.000000	99.286599 
3281.000000	99.286546 
3280.000000	99.286151 
3279.000000	99.285312 
3278.000000	99.284030 
3277.000000	99.282571 
3276.000000	99.281335 
3275.000000	99.280550 
3274.000000	99.280227 
3273.000000	99.280309 
3272.000000	99.280607 
3271.000000	99.280673 
3270.000000	99.280106 
3269.000000	99.279104 
3268.000000	99.278524 
3267.000000	99.279189 
3266.000000	99.281211 
3265.000000	99.283951 
3264.000000	99.286483 
3263.000000	99.288144 
3262.000000	99.288871 
3261.000000	99.289129 
3260.000000	99.289435 
3259.000000	99.289798 
3258.000000	99.289749 
3257.000000	99.288937 
3256.000000	99.287540 
3255.000000	99.286075 
3254.000000	99.285014 
3253.000000	99.284602 
3252.000000	99.284843 
3251.000000	99.285487 
3250.000000	99.286114 
3249.000000	99.286409 
3248.000000	99.286356 
3247.000000	99.286110 
3246.000000	99.285776 
3245.000000	99.285379 
3244.000000	99.285002 
3243.000000	99.284838 
3242.000000	99.285076 
3241.000000	99.285732 
3240.000000	99.286581 
3239.000000	99.287212 
3238.000000	99.287328 
3237.000000	99.286977 
3236.000000	99.286528 
3235.000000	99.286375 
3234.000000	99.286577 
3233.000000	99.286911 
3232.000000	99.287149 
3231.000000	99.287263 
3230.000000	99.287357 
3229.000000	99.287482 
3228.000000	99.287591 
3227.000000	99.287612 
3226.000000	99.287525 
3225.000000	99.287375 
3224.000000	99.287257 
3223.000000	99.287264 
3222.000000	99.287408 
3221.000000	99.287626 
3220.000000	99.287862 
3219.000000	99.288124 
3218.000000	99.288401 
3217.000000	99.288598 
3216.000000	99.288601 
3215.000000	99.288442 
3214.000000	99.288330 
3213.000000	99.288472 
3212.000000	99.288886 
3211.000000	99.289433 
3210.000000	99.289996 
3209.000000	99.290550 
3208.000000	99.291072 
3207.000000	99.291504 
3206.000000	99.291802 
3205.000000	99.292009 
3204.000000	99.292256 
3203.000000	99.292685 
3202.000000	99.293342 
3201.000000	99.294138 
3200.000000	99.294898 
3199.000000	99.295430 
3198.000000	99.295616 
3197.000000	99.295520 
3196.000000	99.295380 
3195.000000	99.295453 
3194.000000	99.295752 
3193.000000	99.296027 
3192.000000	99.296080 
3191.000000	99.296030 
3190.000000	99.296166 
3189.000000	99.296622 
3188.000000	99.297291 
3187.000000	99.297962 
3186.000000	99.298483 
3185.000000	99.298788 
3184.000000	99.298881 
3183.000000	99.298858 
3182.000000	99.298883 
3181.000000	99.299081 
3180.000000	99.299449 
3179.000000	99.299890 
3178.000000	99.300306 
3177.000000	99.300663 
3176.000000	99.300992 
3175.000000	99.301344 
3174.000000	99.301773 
3173.000000	99.302305 
3172.000000	99.302904 
3171.000000	99.303486 
3170.000000	99.303976 
3169.000000	99.304360 
3168.000000	99.304685 
3167.000000	99.305027 
3166.000000	99.305431 
3165.000000	99.305892 
3164.000000	99.306349 
3163.000000	99.306731 
3162.000000	99.307017 
3161.000000	99.307246 
3160.000000	99.307498 
3159.000000	99.307825 
3158.000000	99.308217 
3157.000000	99.308604 
3156.000000	99.308912 
3155.000000	99.309120 
3154.000000	99.309290 
3153.000000	99.309531 
3152.000000	99.309935 
3151.000000	99.310503 
3150.000000	99.311085 
3149.000000	99.311451 
3148.000000	99.311489 
3147.000000	99.311343 
3146.000000	99.311303 
3145.000000	99.311517 
3144.000000	99.311881 
3143.000000	99.312240 
3142.000000	99.312630 
3141.000000	99.313194 
3140.000000	99.313881 
3139.000000	99.314389 
3138.000000	99.314480 
3137.000000	99.314257 
3136.000000	99.314034 
3135.000000	99.313963 
3134.000000	99.313905 
3133.000000	99.313643 
3132.000000	99.313139 
3131.000000	99.312576 
3130.000000	99.312181 
3129.000000	99.312008 
3128.000000	99.311914 
3127.000000	99.311762 
3126.000000	99.311585 
3125.000000	99.311555 
3124.000000	99.311819 
3123.000000	99.312372 
3122.000000	99.313048 
3121.000000	99.313661 
3120.000000	99.314142 
3119.000000	99.314535 
3118.000000	99.314864 
3117.000000	99.315027 
3116.000000	99.314922 
3115.000000	99.314622 
3114.000000	99.314312 
3113.000000	99.314086 
3112.000000	99.313911 
3111.000000	99.313809 
3110.000000	99.313931 
3109.000000	99.314347 
3108.000000	99.314877 
3107.000000	99.315238 
3106.000000	99.315318 
3105.000000	99.315235 
3104.000000	99.315193 
3103.000000	99.315317 
3102.000000	99.315599 
3101.000000	99.315944 
3100.000000	99.316242 
3099.000000	99.316433 
3098.000000	99.316524 
3097.000000	99.316561 
3096.000000	99.316610 
3095.000000	99.316747 
3094.000000	99.317032 
3093.000000	99.317475 
3092.000000	99.317982 
3091.000000	99.318381 
3090.000000	99.318511 
3089.000000	99.318358 
3088.000000	99.318193 
3087.000000	99.318505 
3086.000000	99.319541 
3085.000000	99.320805 
3084.000000	99.321338 
3083.000000	99.320751 
3082.000000	99.319804 
3081.000000	99.319647 
3080.000000	99.320496 
3079.000000	99.321395 
3078.000000	99.321196 
3077.000000	99.319429 
3076.000000	99.316446 
3075.000000	99.313321 
3074.000000	99.311532 
3073.000000	99.312002 
3072.000000	99.314235 
3071.000000	99.316910 
3070.000000	99.319329 
3069.000000	99.321503 
3068.000000	99.322756 
3067.000000	99.321514 
3066.000000	99.317343 
3065.000000	99.312345 
3064.000000	99.309305 
3063.000000	99.308687 
3062.000000	99.308593 
3061.000000	99.307688 
3060.000000	99.307047 
3059.000000	99.308613 
3058.000000	99.312486 
3057.000000	99.316506 
3056.000000	99.318448 
3055.000000	99.318185 
3054.000000	99.317412 
3053.000000	99.317485 
3052.000000	99.317945 
3051.000000	99.317310 
3050.000000	99.314893 
3049.000000	99.311273 
3048.000000	99.307074 
3047.000000	99.302131 
3046.000000	99.296340 
3045.000000	99.290690 
3044.000000	99.286599 
3043.000000	99.284365 
3042.000000	99.282940 
3041.000000	99.281167 
3040.000000	99.278706 
3039.000000	99.275766 
3038.000000	99.272565 
3037.000000	99.269179 
3036.000000	99.265404 
3035.000000	99.260651 
3034.000000	99.254489 
3033.000000	99.247341 
3032.000000	99.240047 
3031.000000	99.232718 
3030.000000	99.224303 
3029.000000	99.213517 
3028.000000	99.200195 
3027.000000	99.185754 
3026.000000	99.172435 
3025.000000	99.161886 
3024.000000	99.153894 
3023.000000	99.146176 
3022.000000	99.135824 
3021.000000	99.121552 
3020.000000	99.104839 
3019.000000	99.088836 
3018.000000	99.076052 
3017.000000	99.066764 
3016.000000	99.059040 
3015.000000	99.049981 
3014.000000	99.037341 
3013.000000	99.020645 
3012.000000	99.001041 
3011.000000	98.980098 
3010.000000	98.958900 
3009.000000	98.938328 
3008.000000	98.919634 
3007.000000	98.903994 
3006.000000	98.891382 
3005.000000	98.880216 
3004.000000	98.868137 
3003.000000	98.853046 
3002.000000	98.833939 
3001.000000	98.811838 
3000.000000	98.790044 
2999.000000	98.772263 
2998.000000	98.759640 
2997.000000	98.750183 
2996.000000	98.741524 
2995.000000	98.733015 
2994.000000	98.723626 
2993.000000	98.709071 
2992.000000	98.684407 
2991.000000	98.650880 
2990.000000	98.618033 
2989.000000	98.596420 
2988.000000	98.588914 
2987.000000	98.590454 
2986.000000	98.594967 
2985.000000	98.600495 
2984.000000	98.607427 
2983.000000	98.614669 
2982.000000	98.619701 
2981.000000	98.621362 
2980.000000	98.620824 
2979.000000	98.619880 
2978.000000	98.619294 
2977.000000	98.618701 
2976.000000	98.617250 
2975.000000	98.614290 
2974.000000	98.610051 
2973.000000	98.605843 
2972.000000	98.603314 
2971.000000	98.603531 
2970.000000	98.606827 
2969.000000	98.613176 
2968.000000	98.622327 
2967.000000	98.633811 
2966.000000	98.647064 
2965.000000	98.661340 
2964.000000	98.675410 
2963.000000	98.687972 
2962.000000	98.698732 
2961.000000	98.708495 
2960.000000	98.717774 
2959.000000	98.726125 
2958.000000	98.733591 
2957.000000	98.741856 
2956.000000	98.752360 
2955.000000	98.763492 
2954.000000	98.771486 
2953.000000	98.775026 
2952.000000	98.777787 
2951.000000	98.785158 
2950.000000	98.798507 
2949.000000	98.813510 
2948.000000	98.824289 
2947.000000	98.828494 
2946.000000	98.828306 
2945.000000	98.827521 
2944.000000	98.828212 
2943.000000	98.830080 
2942.000000	98.832050 
2941.000000	98.833398 
2940.000000	98.833549 
2939.000000	98.832114 
2938.000000	98.829740 
2937.000000	98.828345 
2936.000000	98.829764 
2935.000000	98.834089 
2934.000000	98.839526 
2933.000000	98.843691 
2932.000000	98.844968 
2931.000000	98.843132 
2930.000000	98.839292 
2929.000000	98.835151 
2928.000000	98.831783 
2927.000000	98.829075 
2926.000000	98.826461 
2925.000000	98.823909 
2924.000000	98.821923 
2923.000000	98.820963 
2922.000000	98.821259 
2921.000000	98.822691 
2920.000000	98.824218 
2919.000000	98.823868 
2918.000000	98.820286 
2917.000000	98.814300 
2916.000000	98.808216 
2915.000000	98.803453 
2914.000000	98.799574 
2913.000000	98.795751 
2912.000000	98.792232 
2911.000000	98.789825 
2910.000000	98.788508 
2909.000000	98.787347 
2908.000000	98.785580 
2907.000000	98.783086 
2906.000000	98.779584 
2905.000000	98.773861 
2904.000000	98.764521 
2903.000000	98.752154 
2902.000000	98.740889 
2901.000000	98.736746 
2900.000000	98.743441 
2899.000000	98.759240 
2898.000000	98.777605 
2897.000000	98.791800 
2896.000000	98.799424 
2895.000000	98.802889 
2894.000000	98.806255 
2893.000000	98.811691 
2892.000000	98.818326 
2891.000000	98.823763 
2890.000000	98.826542 
2889.000000	98.827345 
2888.000000	98.828133 
2887.000000	98.830523 
2886.000000	98.835130 
2885.000000	98.841895 
2884.000000	98.850359 
2883.000000	98.859669 
2882.000000	98.868998 
2881.000000	98.878241 
2880.000000	98.887967 
2879.000000	98.898583 
2878.000000	98.909899 
2877.000000	98.921443 
2876.000000	98.932517 
2875.000000	98.941832 
2874.000000	98.947990 
2873.000000	98.951076 
2872.000000	98.953399 
2871.000000	98.957883 
2870.000000	98.965699 
2869.000000	98.975787 
2868.000000	98.986529 
2867.000000	98.997454 
2866.000000	99.009358 
2865.000000	99.023121 
2864.000000	99.038441 
2863.000000	99.053474 
2862.000000	99.065875 
2861.000000	99.074644 
2860.000000	99.081125 
2859.000000	99.087949 
2858.000000	99.096766 
2857.000000	99.107076 
2856.000000	99.117235 
2855.000000	99.126330 
2854.000000	99.134856 
2853.000000	99.143722 
2852.000000	99.152824 
2851.000000	99.160954 
2850.000000	99.167269 
2849.000000	99.172536 
2848.000000	99.178583 
2847.000000	99.186569 
2846.000000	99.195969 
2845.000000	99.205001 
2844.000000	99.211750 
2843.000000	99.215255 
2842.000000	99.216365 
2841.000000	99.217615 
2840.000000	99.221315 
2839.000000	99.227193 
2838.000000	99.232421 
2837.000000	99.234411 
2836.000000	99.233275 
2835.000000	99.231437 
2834.000000	99.231397 
2833.000000	99.234199 
2832.000000	99.239423 
2831.000000	99.245711 
2830.000000	99.251429 
2829.000000	99.255644 
2828.000000	99.258724 
2827.000000	99.261690 
2826.000000	99.264940 
2825.000000	99.267937 
2824.000000	99.270181 
2823.000000	99.272098 
2822.000000	99.274740 
2821.000000	99.278664 
2820.000000	99.283149 
2819.000000	99.286574 
2818.000000	99.287844 
2817.000000	99.287555 
2816.000000	99.287502 
2815.000000	99.288870 
2814.000000	99.291134 
2813.000000	99.292920 
2812.000000	99.293500 
2811.000000	99.293108 
2810.000000	99.292253 
2809.000000	99.291377 
2808.000000	99.290978 
2807.000000	99.291379 
2806.000000	99.292301 
2805.000000	99.293142 
2804.000000	99.293815 
2803.000000	99.294891 
2802.000000	99.296770 
2801.000000	99.298987 
2800.000000	99.300541 
2799.000000	99.300797 
2798.000000	99.300023 
2797.000000	99.299205 
2796.000000	99.299290 
2795.000000	99.300422 
2794.000000	99.301864 
2793.000000	99.302693 
2792.000000	99.302581 
2791.000000	99.301958 
2790.000000	99.301635 
2789.000000	99.302320 
2788.000000	99.304224 
2787.000000	99.306824 
2786.000000	99.309131 
2785.000000	99.310522 
2784.000000	99.311219 
2783.000000	99.311788 
2782.000000	99.312352 
2781.000000	99.312606 
2780.000000	99.312481 
2779.000000	99.312405 
2778.000000	99.312816 
2777.000000	99.313700 
2776.000000	99.314716 
2775.000000	99.315564 
2774.000000	99.316142 
2773.000000	99.316495 
2772.000000	99.316774 
2771.000000	99.317171 
2770.000000	99.317817 
2769.000000	99.318720 
2768.000000	99.319826 
2767.000000	99.321048 
2766.000000	99.322188 
2765.000000	99.322950 
2764.000000	99.323202 
2763.000000	99.323208 
2762.000000	99.323461 
2761.000000	99.324253 
2760.000000	99.325511 
2759.000000	99.326970 
2758.000000	99.328318 
2757.000000	99.329256 
2756.000000	99.329675 
2755.000000	99.329840 
2754.000000	99.330149 
2753.000000	99.330595 
2752.000000	99.330722 
2751.000000	99.330263 
2750.000000	99.329599 
2749.000000	99.329388 
2748.000000	99.329833 
2747.000000	99.330533 
2746.000000	99.330966 
2745.000000	99.330976 
2744.000000	99.330810 
2743.000000	99.330844 
2742.000000	99.331323 
2741.000000	99.332226 
2740.000000	99.333348 
2739.000000	99.334508 
2738.000000	99.335650 
2737.000000	99.336714 
2736.000000	99.337538 
2735.000000	99.337966 
2734.000000	99.338030 
2733.000000	99.337941 
2732.000000	99.337897 
2731.000000	99.337981 
2730.000000	99.338223 
2729.000000	99.338607 
2728.000000	99.339073 
2727.000000	99.339576 
2726.000000	99.340103 
2725.000000	99.340640 
2724.000000	99.341155 
2723.000000	99.341644 
2722.000000	99.342144 
2721.000000	99.342659 
2720.000000	99.343103 
2719.000000	99.343403 
2718.000000	99.343597 
2717.000000	99.343795 
2716.000000	99.344068 
2715.000000	99.344410 
2714.000000	99.344782 
2713.000000	99.345149 
2712.000000	99.345488 
2711.000000	99.345793 
2710.000000	99.346077 
2709.000000	99.346350 
2708.000000	99.346611 
2707.000000	99.346851 
2706.000000	99.347070 
2705.000000	99.347268 
2704.000000	99.347447 
2703.000000	99.347615 
2702.000000	99.347776 
2701.000000	99.347929 
2700.000000	99.348073 
2699.000000	99.348207 
2698.000000	99.348334 
2697.000000	99.348459 
2696.000000	99.348586 
2695.000000	99.348717 
2694.000000	99.348851 
2693.000000	99.348985 
2692.000000	99.349110 
2691.000000	99.349219 
2690.000000	99.349309 
2689.000000	99.349385 
2688.000000	99.349453 
2687.000000	99.349520 
2686.000000	99.349585 
2685.000000	99.349642 
2684.000000	99.349686 
2683.000000	99.349717 
2682.000000	99.349739 
2681.000000	99.349755 
2680.000000	99.349770 
2679.000000	99.349782 
2678.000000	99.349793 
2677.000000	99.349803 
2676.000000	99.349813 
2675.000000	99.349825 
2674.000000	99.349836 
2673.000000	99.349841 
2672.000000	99.349835 
2671.000000	99.349814 
2670.000000	99.349778 
2669.000000	99.349732 
2668.000000	99.349686 
2667.000000	99.349650 
2666.000000	99.349633 
2665.000000	99.349639 
2664.000000	99.349663 
2663.000000	99.349697 
2662.000000	99.349731 
2661.000000	99.349758 
2660.000000	99.349775 
2659.000000	99.349782 
2658.000000	99.349783 
2657.000000	99.349781 
2656.000000	99.349777 
2655.000000	99.349774 
2654.000000	99.349769 
2653.000000	99.349762 
2652.000000	99.349754 
2651.000000	99.349747 
2650.000000	99.349745 
2649.000000	99.349755 
2648.000000	99.349780 
2647.000000	99.349823 
2646.000000	99.349884 
2645.000000	99.349959 
2644.000000	99.350042 
2643.000000	99.350130 
2642.000000	99.350218 
2641.000000	99.350308 
2640.000000	99.350402 
2639.000000	99.350507 
2638.000000	99.350624 
2637.000000	99.350752 
2636.000000	99.350884 
2635.000000	99.351011 
2634.000000	99.351125 
2633.000000	99.351227 
2632.000000	99.351324 
2631.000000	99.351429 
2630.000000	99.351549 
2629.000000	99.351686 
2628.000000	99.351841 
2627.000000	99.352011 
2626.000000	99.352191 
2625.000000	99.352373 
2624.000000	99.352547 
2623.000000	99.352706 
2622.000000	99.352847 
2621.000000	99.352973 
2620.000000	99.353089 
2619.000000	99.353203 
2618.000000	99.353323 
2617.000000	99.353452 
2616.000000	99.353593 
2615.000000	99.353742 
2614.000000	99.353891 
2613.000000	99.354031 
2612.000000	99.354153 
2611.000000	99.354255 
2610.000000	99.354338 
2609.000000	99.354403 
2608.000000	99.354452 
2607.000000	99.354486 
2606.000000	99.354507 
2605.000000	99.354518 
2604.000000	99.354524 
2603.000000	99.354523 
2602.000000	99.354516 
2601.000000	99.354504 
2600.000000	99.354490 
2599.000000	99.354477 
2598.000000	99.354468 
2597.000000	99.354454 
2596.000000	99.354427 
2595.000000	99.354379 
2594.000000	99.354307 
2593.000000	99.354219 
2592.000000	99.354126 
2591.000000	99.354040 
2590.000000	99.353965 
2589.000000	99.353896 
2588.000000	99.353818 
2587.000000	99.353719 
2586.000000	99.353590 
2585.000000	99.353430 
2584.000000	99.353250 
2583.000000	99.353066 
2582.000000	99.352895 
2581.000000	99.352747 
2580.000000	99.352620 
2579.000000	99.352504 
2578.000000	99.352389 
2577.000000	99.352269 
2576.000000	99.352142 
2575.000000	99.352010 
2574.000000	99.351874 
2573.000000	99.351732 
2572.000000	99.351582 
2571.000000	99.351427 
2570.000000	99.351272 
2569.000000	99.351130 
2568.000000	99.351010 
2567.000000	99.350916 
2566.000000	99.350851 
2565.000000	99.350813 
2564.000000	99.350800 
2563.000000	99.350805 
2562.000000	99.350825 
2561.000000	99.350857 
2560.000000	99.350899 
2559.000000	99.350950 
2558.000000	99.351009 
2557.000000	99.351072 
2556.000000	99.351138 
2555.000000	99.351208 
2554.000000	99.351287 
2553.000000	99.351382 
2552.000000	99.351495 
2551.000000	99.351620 
2550.000000	99.351749 
2549.000000	99.351875 
2548.000000	99.351995 
2547.000000	99.352109 
2546.000000	99.352217 
2545.000000	99.352322 
2544.000000	99.352429 
2543.000000	99.352542 
2542.000000	99.352660 
2541.000000	99.352778 
2540.000000	99.352886 
2539.000000	99.352977 
2538.000000	99.353050 
2537.000000	99.353114 
2536.000000	99.353184 
2535.000000	99.353274 
2534.000000	99.353390 
2533.000000	99.353528 
2532.000000	99.353675 
2531.000000	99.353815 
2530.000000	99.353942 
2529.000000	99.354055 
2528.000000	99.354160 
2527.000000	99.354262 
2526.000000	99.354357 
2525.000000	99.354439 
2524.000000	99.354504 
2523.000000	99.354546 
2522.000000	99.354562 
2521.000000	99.354549 
2520.000000	99.354509 
2519.000000	99.354444 
2518.000000	99.354358 
2517.000000	99.354252 
2516.000000	99.354130 
2515.000000	99.353997 
2514.000000	99.353858 
2513.000000	99.353717 
2512.000000	99.353574 
2511.000000	99.353428 
2510.000000	99.353274 
2509.000000	99.353116 
2508.000000	99.352958 
2507.000000	99.352808 
2506.000000	99.352663 
2505.000000	99.352511 
2504.000000	99.352342 
2503.000000	99.352151 
2502.000000	99.351948 
2501.000000	99.351753 
2500.000000	99.351589 
2499.000000	99.351472 
2498.000000	99.351399 
2497.000000	99.351345 
2496.000000	99.351265 
2495.000000	99.351116 
2494.000000	99.350890 
2493.000000	99.350617 
2492.000000	99.350329 
2491.000000	99.350036 
2490.000000	99.349740 
2489.000000	99.349445 
2488.000000	99.349158 
2487.000000	99.348898 
2486.000000	99.348677 
2485.000000	99.348494 
2484.000000	99.348331 
2483.000000	99.348177 
2482.000000	99.348031 
2481.000000	99.347891 
2480.000000	99.347757 
2479.000000	99.347638 
2478.000000	99.347541 
2477.000000	99.347470 
2476.000000	99.347420 
2475.000000	99.347381 
2474.000000	99.347345 
2473.000000	99.347307 
2472.000000	99.347263 
2471.000000	99.347212 
2470.000000	99.347151 
2469.000000	99.347079 
2468.000000	99.346993 
2467.000000	99.346896 
2466.000000	99.346791 
2465.000000	99.346686 
2464.000000	99.346588 
2463.000000	99.346499 
2462.000000	99.346416 
2461.000000	99.346332 
2460.000000	99.346242 
2459.000000	99.346144 
2458.000000	99.346043 
2457.000000	99.345941 
2456.000000	99.345838 
2455.000000	99.345729 
2454.000000	99.345612 
2453.000000	99.345491 
2452.000000	99.345376 
2451.000000	99.345280 
2450.000000	99.345208 
2449.000000	99.345160 
2448.000000	99.345127 
2447.000000	99.345101 
2446.000000	99.345074 
2445.000000	99.345045 
2444.000000	99.345012 
2443.000000	99.344970 
2442.000000	99.344912 
2441.000000	99.344833 
2440.000000	99.344736 
2439.000000	99.344624 
2438.000000	99.344502 
2437.000000	99.344370 
2436.000000	99.344227 
2435.000000	99.344072 
2434.000000	99.343902 
2433.000000	99.343723 
2432.000000	99.343541 
2431.000000	99.343366 
2430.000000	99.343209 
2429.000000	99.343086 
2428.000000	99.343016 
2427.000000	99.342993 
2426.000000	99.343006 
2425.000000	99.343035 
2424.000000	99.343030 
2423.000000	99.342928 
2422.000000	99.342707 
2421.000000	99.342479 
2420.000000	99.342409 
2419.000000	99.342546 
2418.000000	99.342789 
2417.000000	99.343005 
2416.000000	99.343171 
2415.000000	99.343334 
2414.000000	99.343489 
2413.000000	99.343575 
2412.000000	99.343598 
2411.000000	99.343667 
2410.000000	99.343890 
2409.000000	99.344284 
2408.000000	99.344817 
2407.000000	99.345455 
2406.000000	99.346154 
2405.000000	99.346837 
2404.000000	99.347420 
2403.000000	99.347885 
2402.000000	99.348292 
2401.000000	99.348697 
2400.000000	99.349055 
2399.000000	99.349223 
2398.000000	99.349101 
2397.000000	99.348817 
2396.000000	99.348722 
2395.000000	99.349163 
2394.000000	99.350217 
2393.000000	99.351583 
2392.000000	99.352764 
2391.000000	99.353448 
2390.000000	99.353810 
2389.000000	99.354387 
2388.000000	99.355513 
2387.000000	99.356948 
2386.000000	99.358157 
2385.000000	99.358951 
2384.000000	99.359641 
2383.000000	99.360573 
2382.000000	99.361745 
2381.000000	99.362957 
2380.000000	99.364033 
2379.000000	99.364702 
2378.000000	99.364525 
2377.000000	99.363381 
2376.000000	99.362039 
2375.000000	99.361759 
2374.000000	99.363127 
2373.000000	99.365533 
2372.000000	99.367841 
2371.000000	99.369639 
2370.000000	99.371432 
2369.000000	99.373674 
2368.000000	99.375920 
2367.000000	99.377127 
2366.000000	99.376730 
2365.000000	99.375204 
2364.000000	99.373569 
2363.000000	99.372421 
2362.000000	99.371814 
2361.000000	99.371777 
2360.000000	99.372400 
2359.000000	99.373513 
2358.000000	99.374521 
2357.000000	99.375003 
2356.000000	99.375194 
2355.000000	99.375611 
2354.000000	99.376425 
2353.000000	99.377186 
2352.000000	99.377452 
2351.000000	99.377072 
2350.000000	99.376028 
2349.000000	99.374506 
2348.000000	99.373035 
2347.000000	99.372405 
2346.000000	99.372860 
2345.000000	99.373771 
2344.000000	99.374251 
2343.000000	99.374038 
2342.000000	99.373631 
2341.000000	99.373487 
2340.000000	99.373680 
2339.000000	99.373943 
2338.000000	99.373988 
2337.000000	99.373629 
2336.000000	99.372875 
2335.000000	99.371964 
2334.000000	99.371273 
2333.000000	99.370926 
2332.000000	99.370700 
2331.000000	99.370194 
2330.000000	99.369103 
2329.000000	99.367524 
2328.000000	99.365829 
2327.000000	99.364726 
2326.000000	99.364553 
2325.000000	99.364961 
2324.000000	99.365056 
2323.000000	99.364279 
2322.000000	99.363162 
2321.000000	99.362662 
2320.000000	99.363142 
2319.000000	99.363944 
2318.000000	99.364301 
2317.000000	99.364004 
2316.000000	99.363168 
2315.000000	99.361821 
2314.000000	99.360050 
2313.000000	99.358450 
2312.000000	99.357740 
2311.000000	99.358184 
2310.000000	99.359291 
2309.000000	99.360317 
2308.000000	99.360507 
2307.000000	99.359350 
2306.000000	99.356875 
2305.000000	99.353843 
2304.000000	99.351240 
2303.000000	99.349432 
2302.000000	99.347924 
2301.000000	99.346116 
2300.000000	99.343969 
2299.000000	99.341908 
2298.000000	99.340275 
2297.000000	99.339183 
2296.000000	99.338492 
2295.000000	99.337870 
2294.000000	99.336886 
2293.000000	99.335393 
2292.000000	99.333680 
2291.000000	99.332198 
2290.000000	99.331132 
2289.000000	99.330337 
2288.000000	99.329517 
2287.000000	99.328387 
2286.000000	99.326837 
2285.000000	99.325085 
2284.000000	99.323602 
2283.000000	99.322630 
2282.000000	99.321855 
2281.000000	99.320681 
2280.000000	99.318898 
2279.000000	99.316978 
2278.000000	99.315669 
2277.000000	99.315323 
2276.000000	99.315639 
2275.000000	99.315909 
2274.000000	99.315512 
2273.000000	99.314224 
2272.000000	99.312183 
2271.000000	99.309754 
2270.000000	99.307515 
2269.000000	99.306210 
2268.000000	99.306376 
2267.000000	99.307786 
2266.000000	99.309344 
2265.000000	99.309921 
2264.000000	99.309177 
2263.000000	99.307666 
2262.000000	99.306385 
2261.000000	99.306111 
2260.000000	99.306821 
2259.000000	99.307463 
2258.000000	99.306717 
2257.000000	99.304404 
2256.000000	99.301871 
2255.000000	99.300533 
2254.000000	99.300259 
2253.000000	99.299784 
2252.000000	99.298547 
2251.000000	99.297443 
2250.000000	99.297618 
2249.000000	99.299215 
2248.000000	99.301314 
2247.000000	99.302610 
2246.000000	99.302139 
2245.000000	99.299731 
2244.000000	99.296209 
2243.000000	99.292928 
2242.000000	99.290772 
2241.000000	99.289695 
2240.000000	99.289074 
2239.000000	99.288260 
2238.000000	99.286958 
2237.000000	99.285350 
2236.000000	99.283886 
2235.000000	99.282816 
2234.000000	99.281966 
2233.000000	99.281108 
2232.000000	99.280430 
2231.000000	99.280333 
2230.000000	99.280955 
2229.000000	99.282147 
2228.000000	99.283751 
2227.000000	99.285525 
2226.000000	99.286824 
2225.000000	99.286850 
2224.000000	99.285418 
2223.000000	99.283229 
2222.000000	99.281427 
2221.000000	99.280732 
2220.000000	99.280973 
2219.000000	99.281400 
2218.000000	99.281367 
2217.000000	99.280923 
2216.000000	99.280622 
2215.000000	99.280792 
2214.000000	99.281117 
2213.000000	99.280972 
2212.000000	99.280094 
2211.000000	99.278807 
2210.000000	99.277745 
2209.000000	99.277327 
2208.000000	99.277506 
2207.000000	99.277786 
2206.000000	99.277560 
2205.000000	99.276622 
2204.000000	99.275212 
2203.000000	99.273739 
2202.000000	99.272476 
2201.000000	99.271525 
2200.000000	99.270899 
2199.000000	99.270476 
2198.000000	99.270015 
2197.000000	99.269409 
2196.000000	99.268837 
2195.000000	99.268530 
2194.000000	99.268484 
2193.000000	99.268507 
2192.000000	99.268426 
2191.000000	99.268179 
2190.000000	99.267774 
2189.000000	99.267265 
2188.000000	99.266753 
2187.000000	99.266344 
2186.000000	99.266069 
2185.000000	99.265882 
2184.000000	99.265698 
2183.000000	99.265447 
2182.000000	99.265097 
2181.000000	99.264669 
2180.000000	99.264271 
2179.000000	99.264013 
2178.000000	99.263887 
2177.000000	99.263729 
2176.000000	99.263379 
2175.000000	99.262814 
2174.000000	99.262173 
2173.000000	99.261675 
2172.000000	99.261460 
2171.000000	99.261514 
2170.000000	99.261692 
2169.000000	99.261892 
2168.000000	99.262164 
2167.000000	99.262581 
2166.000000	99.263063 
2165.000000	99.263423 
2164.000000	99.263624 
2163.000000	99.263785 
2162.000000	99.264052 
2161.000000	99.264472 
2160.000000	99.265028 
2159.000000	99.265691 
2158.000000	99.266400 
2157.000000	99.267071 
2156.000000	99.267679 
2155.000000	99.268285 
2154.000000	99.268952 
2153.000000	99.269654 
2152.000000	99.270333 
2151.000000	99.271011 
2150.000000	99.271793 
2149.000000	99.272736 
2148.000000	99.273753 
2147.000000	99.274694 
2146.000000	99.275485 
2145.000000	99.276143 
2144.000000	99.276723 
2143.000000	99.277264 
2142.000000	99.277690 
2141.000000	99.277894 
2140.000000	99.277970 
2139.000000	99.278228 
2138.000000	99.278850 
2137.000000	99.279716 
2136.000000	99.280490 
2135.000000	99.281016 
2134.000000	99.281439 
2133.000000	99.281958 
2132.000000	99.282589 
2131.000000	99.283204 
2130.000000	99.283683 
2129.000000	99.283983 
2128.000000	99.284129 
2127.000000	99.284195 
2126.000000	99.284273 
2125.000000	99.284416 
2124.000000	99.284664 
2123.000000	99.285104 
2122.000000	99.285783 
2121.000000	99.286511 
2120.000000	99.286951 
2119.000000	99.286963 
2118.000000	99.286743 
2117.000000	99.286624 
2116.000000	99.286745 
2115.000000	99.287018 
2114.000000	99.287274 
2113.000000	99.287367 
2112.000000	99.287225 
2111.000000	99.286890 
2110.000000	99.286515 
2109.000000	99.286251 
2108.000000	99.286128 
2107.000000	99.286017 
2106.000000	99.285659 
2105.000000	99.284811 
2104.000000	99.283467 
2103.000000	99.282053 
2102.000000	99.281216 
2101.000000	99.281299 
2100.000000	99.282105 
2099.000000	99.282968 
2098.000000	99.283292 
2097.000000	99.282993 
2096.000000	99.282566 
2095.000000	99.282569 
2094.000000	99.282822 
2093.000000	99.282389 
2092.000000	99.280664 
2091.000000	99.278335 
2090.000000	99.276839 
2089.000000	99.276693 
2088.000000	99.276999 
2087.000000	99.276813 
2086.000000	99.276526 
2085.000000	99.277166 
2084.000000	99.278824 
2083.000000	99.280469 
2082.000000	99.281257 
2081.000000	99.281458 
2080.000000	99.281901 
2079.000000	99.282779 
2078.000000	99.283379 
2077.000000	99.283075 
2076.000000	99.282393 
2075.000000	99.282656 
2074.000000	99.284434 
2073.000000	99.286650 
2072.000000	99.287596 
2071.000000	99.286626 
2070.000000	99.284399 
2069.000000	99.281859 
2068.000000	99.279484 
2067.000000	99.277563 
2066.000000	99.276492 
2065.000000	99.276389 
2064.000000	99.276822 
2063.000000	99.277343 
2062.000000	99.278097 
2061.000000	99.279641 
2060.000000	99.282241 
2059.000000	99.285486 
2058.000000	99.288351 
2057.000000	99.289766 
2056.000000	99.289209 
2055.000000	99.286840 
2054.000000	99.283321 
2053.000000	99.279569 
2052.000000	99.276702 
2051.000000	99.275606 
2050.000000	99.276015 
2049.000000	99.276252 
2048.000000	99.274695 
2047.000000	99.271544 
2046.000000	99.268539 
2045.000000	99.267041 
2044.000000	99.266854 
2043.000000	99.266842 
2042.000000	99.266150 
2041.000000	99.264803 
2040.000000	99.263520 
2039.000000	99.263103 
2038.000000	99.263662 
2037.000000	99.264326 
2036.000000	99.264036 
2035.000000	99.262743 
2034.000000	99.261480 
2033.000000	99.261036 
2032.000000	99.260945 
2031.000000	99.260106 
2030.000000	99.258133 
2029.000000	99.255758 
2028.000000	99.254026 
2027.000000	99.253322 
2026.000000	99.253348 
2025.000000	99.253824 
2024.000000	99.254852 
2023.000000	99.256379 
2022.000000	99.257513 
2021.000000	99.257053 
2020.000000	99.254897 
2019.000000	99.252582 
2018.000000	99.251862 
2017.000000	99.252748 
2016.000000	99.253520 
2015.000000	99.252799 
2014.000000	99.251052 
2013.000000	99.249773 
2012.000000	99.249765 
2011.000000	99.250742 
2010.000000	99.252303 
2009.000000	99.254652 
2008.000000	99.257943 
2007.000000	99.261398 
2006.000000	99.263652 
2005.000000	99.264122 
2004.000000	99.263645 
2003.000000	99.263613 
2002.000000	99.264453 
2001.000000	99.265355 
2000.000000	99.265409 
1999.000000	99.264528 
1998.000000	99.263306 
1997.000000	99.262452 
1996.000000	99.262414 
1995.000000	99.263234 
1994.000000	99.264486 
1993.000000	99.265436 
1992.000000	99.265631 
1991.000000	99.265263 
1990.000000	99.264876 
1989.000000	99.264846 
1988.000000	99.265196 
1987.000000	99.265722 
1986.000000	99.266128 
1985.000000	99.266230 
1984.000000	99.266124 
1983.000000	99.266116 
1982.000000	99.266387 
1981.000000	99.266748 
1980.000000	99.266815 
1979.000000	99.266459 
1978.000000	99.265938 
1977.000000	99.265596 
1976.000000	99.265463 
1975.000000	99.265341 
1974.000000	99.265122 
1973.000000	99.264908 
1972.000000	99.264874 
1971.000000	99.265049 
1970.000000	99.265247 
1969.000000	99.265197 
1968.000000	99.264769 
1967.000000	99.264111 
1966.000000	99.263541 
1965.000000	99.263129 
1964.000000	99.262626 
1963.000000	99.261902 
1962.000000	99.261231 
1961.000000	99.260918 
1960.000000	99.260948 
1959.000000	99.261216 
1958.000000	99.261825 
1957.000000	99.262770 
1956.000000	99.263600 
1955.000000	99.263926 
1954.000000	99.264063 
1953.000000	99.264592 
1952.000000	99.265227 
1951.000000	99.264947 
1950.000000	99.263425 
1949.000000	99.261727 
1948.000000	99.261199 
1947.000000	99.261876 
1946.000000	99.262366 
1945.000000	99.261202 
1944.000000	99.258319 
1943.000000	99.255424 
1942.000000	99.254694 
1941.000000	99.256811 
1940.000000	99.260461 
1939.000000	99.263668 
1938.000000	99.265694 
1937.000000	99.267323 
1936.000000	99.269436 
1935.000000	99.271655 
1934.000000	99.272784 
1933.000000	99.272558 
1932.000000	99.272291 
1931.000000	99.273437 
1930.000000	99.275723 
1929.000000	99.277365 
1928.000000	99.277359 
1927.000000	99.276678 
1926.000000	99.276928 
1925.000000	99.278252 
1924.000000	99.279335 
1923.000000	99.279404 
1922.000000	99.279233 
1921.000000	99.279812 
1920.000000	99.280761 
1919.000000	99.280676 
1918.000000	99.278643 
1917.000000	99.275252 
1916.000000	99.272057 
1915.000000	99.270155 
1914.000000	99.269878 
1913.000000	99.271312 
1912.000000	99.274263 
1911.000000	99.277942 
1910.000000	99.280977 
1909.000000	99.282373 
1908.000000	99.282554 
1907.000000	99.282793 
1906.000000	99.283714 
1905.000000	99.284742 
1904.000000	99.285133 
1903.000000	99.285013 
1902.000000	99.284867 
1901.000000	99.284768 
1900.000000	99.284586 
1899.000000	99.284423 
1898.000000	99.284583 
1897.000000	99.285319 
1896.000000	99.286773 
1895.000000	99.288748 
1894.000000	99.290329 
1893.000000	99.290456 
1892.000000	99.289163 
1891.000000	99.287719 
1890.000000	99.287185 
1889.000000	99.287256 
1888.000000	99.287184 
1887.000000	99.287113 
1886.000000	99.287736 
1885.000000	99.289234 
1884.000000	99.291168 
1883.000000	99.293183 
1882.000000	99.295109 
1881.000000	99.296624 
1880.000000	99.297518 
1879.000000	99.298067 
1878.000000	99.298840 
1877.000000	99.300135 
1876.000000	99.301641 
1875.000000	99.302691 
1874.000000	99.302676 
1873.000000	99.301381 
1872.000000	99.299254 
1871.000000	99.297194 
1870.000000	99.295821 
1869.000000	99.295073 
1868.000000	99.294849 
1867.000000	99.295535 
1866.000000	99.297199 
1865.000000	99.299032 
1864.000000	99.299998 
1863.000000	99.299725 
1862.000000	99.298666 
1861.000000	99.297708 
1860.000000	99.297649 
1859.000000	99.298772 
1858.000000	99.300658 
1857.000000	99.302362 
1856.000000	99.303259 
1855.000000	99.303560 
1854.000000	99.303805 
1853.000000	99.304128 
1852.000000	99.304331 
1851.000000	99.304389 
1850.000000	99.304614 
1849.000000	99.305324 
1848.000000	99.306468 
1847.000000	99.307634 
1846.000000	99.308324 
1845.000000	99.308302 
1844.000000	99.307849 
1843.000000	99.307668 
1842.000000	99.308075 
1841.000000	99.308747 
1840.000000	99.309258 
1839.000000	99.309442 
1838.000000	99.309398 
1837.000000	99.309283 
1836.000000	99.309193 
1835.000000	99.309214 
1834.000000	99.309387 
1833.000000	99.309641 
1832.000000	99.309850 
1831.000000	99.309898 
1830.000000	99.309821 
1829.000000	99.309934 
1828.000000	99.310465 
1827.000000	99.311144 
1826.000000	99.311509 
1825.000000	99.311423 
1824.000000	99.311163 
1823.000000	99.310989 
1822.000000	99.310560 
1821.000000	99.309311 
1820.000000	99.307495 
1819.000000	99.306407 
1818.000000	99.307195 
1817.000000	99.309446 
1816.000000	99.311545 
1815.000000	99.312786 
1814.000000	99.313791 
1813.000000	99.315043 
1812.000000	99.316061 
1811.000000	99.316600 
1810.000000	99.317512 
1809.000000	99.319169 
1808.000000	99.320547 
1807.000000	99.320629 
1806.000000	99.319440 
1805.000000	99.317486 
1804.000000	99.315149 
1803.000000	99.312788 
1802.000000	99.310655 
1801.000000	99.308802 
1800.000000	99.307359 
1799.000000	99.306955 
1798.000000	99.308058 
1797.000000	99.310026 
1796.000000	99.311775 
1795.000000	99.312995 
1794.000000	99.313998 
1793.000000	99.314742 
1792.000000	99.314629 
1791.000000	99.313810 
1790.000000	99.313164 
1789.000000	99.313030 
1788.000000	99.313330 
1787.000000	99.314054 
1786.000000	99.315092 
1785.000000	99.315911 
1784.000000	99.316001 
1783.000000	99.315501 
1782.000000	99.314860 
1781.000000	99.314444 
1780.000000	99.314322 
1779.000000	99.314377 
1778.000000	99.314518 
1777.000000	99.314689 
1776.000000	99.314863 
1775.000000	99.315004 
1774.000000	99.315097 
1773.000000	99.315167 
1772.000000	99.315241 
1771.000000	99.315334 
1770.000000	99.315435 
1769.000000	99.315540 
1768.000000	99.315649 
1767.000000	99.315768 
1766.000000	99.315904 
1765.000000	99.316064 
1764.000000	99.316249 
1763.000000	99.316452 
1762.000000	99.316667 
1761.000000	99.316892 
1760.000000	99.317133 
1759.000000	99.317394 
1758.000000	99.317671 
1757.000000	99.317957 
1756.000000	99.318238 
1755.000000	99.318499 
1754.000000	99.318736 
1753.000000	99.318950 
1752.000000	99.319149 
1751.000000	99.319336 
1750.000000	99.319512 
1749.000000	99.319682 
1748.000000	99.319853 
1747.000000	99.320032 
1746.000000	99.320221 
1745.000000	99.320414 
1744.000000	99.320605 
1743.000000	99.320790 
1742.000000	99.320971 
1741.000000	99.321151 
1740.000000	99.321338 
1739.000000	99.321536 
1738.000000	99.321742 
1737.000000	99.321946 
1736.000000	99.322132 
1735.000000	99.322288 
1734.000000	99.322409 
1733.000000	99.322500 
1732.000000	99.322573 
1731.000000	99.322637 
1730.000000	99.322693 
1729.000000	99.322741 
1728.000000	99.322782 
1727.000000	99.322822 
1726.000000	99.322868 
1725.000000	99.322920 
1724.000000	99.322976 
1723.000000	99.323030 
1722.000000	99.323074 
1721.000000	99.323108 
1720.000000	99.323130 
1719.000000	99.323138 
1718.000000	99.323129 
1717.000000	99.323095 
1716.000000	99.323033 
1715.000000	99.322945 
1714.000000	99.322837 
1713.000000	99.322714 
1712.000000	99.322585 
1711.000000	99.322452 
1710.000000	99.322321 
1709.000000	99.322191 
1708.000000	99.322059 
1707.000000	99.321919 
1706.000000	99.321764 
1705.000000	99.321589 
1704.000000	99.321397 
1703.000000	99.321200 
1702.000000	99.321011 
1701.000000	99.320836 
1700.000000	99.320671 
1699.000000	99.320508 
1698.000000	99.320341 
1697.000000	99.320166 
1696.000000	99.319980 
1695.000000	99.319785 
1694.000000	99.319589 
1693.000000	99.319401 
1692.000000	99.319226 
1691.000000	99.319066 
1690.000000	99.318917 
1689.000000	99.318773 
1688.000000	99.318632 
1687.000000	99.318493 
1686.000000	99.318357 
1685.000000	99.318219 
1684.000000	99.318072 
1683.000000	99.317914 
1682.000000	99.317751 
1681.000000	99.317586 
1680.000000	99.317424 
1679.000000	99.317268 
1678.000000	99.317117 
1677.000000	99.316974 
1676.000000	99.316843 
1675.000000	99.316729 
1674.000000	99.316634 
1673.000000	99.316553 
1672.000000	99.316483 
1671.000000	99.316418 
1670.000000	99.316351 
1669.000000	99.316282 
1668.000000	99.316215 
1667.000000	99.316150 
1666.000000	99.316090 
1665.000000	99.316035 
1664.000000	99.315982 
1663.000000	99.315933 
1662.000000	99.315904 
1661.000000	99.315896 
1660.000000	99.315921 
1659.000000	99.316012 
1658.000000	99.316144 
1657.000000	99.316218 
1656.000000	99.316196 
1655.000000	99.316148 
1654.000000	99.316251 
1653.000000	99.316090 
1652.000000	99.315755 
1651.000000	99.315891 
1650.000000	99.316023 
1649.000000	99.315875 
1648.000000	99.315636 
1647.000000	99.315271 
1646.000000	99.315099 
1645.000000	99.315690 
1644.000000	99.316908 
1643.000000	99.318189 
1642.000000	99.319168 
1641.000000	99.319655 
1640.000000	99.319705 
1639.000000	99.319516 
1638.000000	99.319302 
1637.000000	99.319353 
1636.000000	99.319662 
1635.000000	99.319875 
1634.000000	99.320125 
1633.000000	99.320177 
1632.000000	99.319542 
1631.000000	99.318590 
1630.000000	99.317852 
1629.000000	99.317582 
1628.000000	99.317961 
1627.000000	99.318952 
1626.000000	99.319795 
1625.000000	99.319729 
1624.000000	99.319126 
1623.000000	99.319047 
1622.000000	99.319890 
1621.000000	99.321148 
1620.000000	99.322371 
1619.000000	99.323539 
1618.000000	99.324863 
1617.000000	99.325908 
1616.000000	99.326928 
1615.000000	99.328837 
1614.000000	99.331010 
1613.000000	99.332714 
1612.000000	99.334660 
1611.000000	99.337215 
1610.000000	99.338846 
1609.000000	99.338166 
1608.000000	99.336183 
1607.000000	99.334928 
1606.000000	99.334746 
1605.000000	99.335203 
1604.000000	99.336581 
1603.000000	99.338701 
1602.000000	99.340392 
1601.000000	99.341103 
1600.000000	99.341737 
1599.000000	99.342975 
1598.000000	99.344265 
1597.000000	99.345071 
1596.000000	99.345744 
1595.000000	99.346639 
1594.000000	99.347302 
1593.000000	99.347495 
1592.000000	99.348018 
1591.000000	99.349519 
1590.000000	99.351331 
1589.000000	99.352567 
1588.000000	99.353505 
1587.000000	99.354742 
1586.000000	99.355765 
1585.000000	99.355686 
1584.000000	99.355141 
1583.000000	99.355110 
1582.000000	99.355170 
1581.000000	99.354500 
1580.000000	99.353230 
1579.000000	99.351810 
1578.000000	99.350362 
1577.000000	99.349063 
1576.000000	99.348202 
1575.000000	99.348130 
1574.000000	99.348511 
1573.000000	99.348848 
1572.000000	99.349265 
1571.000000	99.349998 
1570.000000	99.350610 
1569.000000	99.350756 
1568.000000	99.350875 
1567.000000	99.351044 
1566.000000	99.351024 
1565.000000	99.350860 
1564.000000	99.350793 
1563.000000	99.350792 
1562.000000	99.350810 
1561.000000	99.350838 
1560.000000	99.351069 
1559.000000	99.351191 
1558.000000	99.351101 
1557.000000	99.351061 
1556.000000	99.351055 
1555.000000	99.351019 
1554.000000	99.350953 
1553.000000	99.350869 
1552.000000	99.350779 
1551.000000	99.350682 
1550.000000	99.350577 
1549.000000	99.350463 
1548.000000	99.350338 
1547.000000	99.350202 
1546.000000	99.350054 
1545.000000	99.349898 
1544.000000	99.349742 
1543.000000	99.349600 
1542.000000	99.349475 
1541.000000	99.349362 
1540.000000	99.349244 
1539.000000	99.349113 
1538.000000	99.348965 
1537.000000	99.348798 
1536.000000	99.348610 
1535.000000	99.348400 
1534.000000	99.348172 
1533.000000	99.347928 
1532.000000	99.347667 
1531.000000	99.347395 
1530.000000	99.347133 
1529.000000	99.346891 
1528.000000	99.346641 
1527.000000	99.346356 
1526.000000	99.346046 
1525.000000	99.345728 
1524.000000	99.345412 
1523.000000	99.345171 
1522.000000	99.345074 
1521.000000	99.344902 
1520.000000	99.344397 
1519.000000	99.343536 
1518.000000	99.342438 
1517.000000	99.341320 
1516.000000	99.340355 
1515.000000	99.339596 
1514.000000	99.338993 
1513.000000	99.338539 
1512.000000	99.338167 
1511.000000	99.337657 
1510.000000	99.336944 
1509.000000	99.336131 
1508.000000	99.335516 
1507.000000	99.334975 
1506.000000	99.334283 
1505.000000	99.333581 
1504.000000	99.332849 
1503.000000	99.332068 
1502.000000	99.331433 
1501.000000	99.330833 
1500.000000	99.329818 
1499.000000	99.328175 
1498.000000	99.326307 
1497.000000	99.324688 
1496.000000	99.323303 
1495.000000	99.322236 
1494.000000	99.321745 
1493.000000	99.321835 
1492.000000	99.322221 
1491.000000	99.322427 
1490.000000	99.321865 
1489.000000	99.320223 
1488.000000	99.317753 
1487.000000	99.315302 
1486.000000	99.313385 
1485.000000	99.311597 
1484.000000	99.309640 
1483.000000	99.307790 
1482.000000	99.306534 
1481.000000	99.305861 
1480.000000	99.305232 
1479.000000	99.304373 
1478.000000	99.303468 
1477.000000	99.302495 
1476.000000	99.301103 
1475.000000	99.299699 
1474.000000	99.299235 
1473.000000	99.299483 
1472.000000	99.298906 
1471.000000	99.297322 
1470.000000	99.295872 
1469.000000	99.294675 
1468.000000	99.293035 
1467.000000	99.290837 
1466.000000	99.288926 
1465.000000	99.288060 
1464.000000	99.288171 
1463.000000	99.288517 
1462.000000	99.288595 
1461.000000	99.288399 
1460.000000	99.288345 
1459.000000	99.288176 
1458.000000	99.285791 
1457.000000	99.277645 
1456.000000	99.265492 
1455.000000	99.255327 
1454.000000	99.249529 
1453.000000	99.248563 
1452.000000	99.251589 
1451.000000	99.255428 
1450.000000	99.257399 
1449.000000	99.257423 
1448.000000	99.256737 
1447.000000	99.256603 
1446.000000	99.257205 
1445.000000	99.258457 
1444.000000	99.260518 
1443.000000	99.263010 
1442.000000	99.265321 
1441.000000	99.266825 
1440.000000	99.267229 
1439.000000	99.266529 
1438.000000	99.266072 
1437.000000	99.266137 
1436.000000	99.264508 
1435.000000	99.260586 
1434.000000	99.256444 
1433.000000	99.253341 
1432.000000	99.250800 
1431.000000	99.247141 
1430.000000	99.241689 
1429.000000	99.235819 
1428.000000	99.230691 
1427.000000	99.226584 
1426.000000	99.223091 
1425.000000	99.220147 
1424.000000	99.217317 
1423.000000	99.213095 
1422.000000	99.206851 
1421.000000	99.199139 
1420.000000	99.190334 
1419.000000	99.179746 
1418.000000	99.168589 
1417.000000	99.158826 
1416.000000	99.149284 
1415.000000	99.138027 
1414.000000	99.125101 
1413.000000	99.112472 
1412.000000	99.102144 
1411.000000	99.094107 
1410.000000	99.087015 
1409.000000	99.080101 
1408.000000	99.073898 
1407.000000	99.070088 
1406.000000	99.069880 
1405.000000	99.073233 
1404.000000	99.079301 
1403.000000	99.087009 
1402.000000	99.095802 
1401.000000	99.105352 
1400.000000	99.114490 
1399.000000	99.120380 
1398.000000	99.119689 
1397.000000	99.110096 
1396.000000	99.091968 
1395.000000	99.072253 
1394.000000	99.062876 
1393.000000	99.069861 
1392.000000	99.087976 
1391.000000	99.107071 
1390.000000	99.120449 
1389.000000	99.126913 
1388.000000	99.127869 
1387.000000	99.124971 
1386.000000	99.120375 
1385.000000	99.116716 
1384.000000	99.115470 
1383.000000	99.116103 
1382.000000	99.117470 
1381.000000	99.119531 
1380.000000	99.123428 
1379.000000	99.129837 
1378.000000	99.137905 
1377.000000	99.146105 
1376.000000	99.153544 
1375.000000	99.160184 
1374.000000	99.166585 
1373.000000	99.173847 
1372.000000	99.182484 
1371.000000	99.191605 
1370.000000	99.199637 
1369.000000	99.206070 
1368.000000	99.211965 
1367.000000	99.218391 
1366.000000	99.225354 
1365.000000	99.232441 
1364.000000	99.239574 
1363.000000	99.246564 
1362.000000	99.252657 
1361.000000	99.257335 
1360.000000	99.261257 
1359.000000	99.265918 
1358.000000	99.272423 
1357.000000	99.280606 
1356.000000	99.289042 
1355.000000	99.295996 
1354.000000	99.300879 
1353.000000	99.304605 
1352.000000	99.307999 
1351.000000	99.310814 
1350.000000	99.312569 
1349.000000	99.314311 
1348.000000	99.317445 
1347.000000	99.321474 
1346.000000	99.324505 
1345.000000	99.325750 
1344.000000	99.326335 
1343.000000	99.327533 
1342.000000	99.329624 
1341.000000	99.332753 
1340.000000	99.337281 
1339.000000	99.342384 
1338.000000	99.345910 
1337.000000	99.346771 
1336.000000	99.346156 
1335.000000	99.345775 
1334.000000	99.345923 
1333.000000	99.345844 
1332.000000	99.345149 
1331.000000	99.344074 
1330.000000	99.342914 
1329.000000	99.342169 
1328.000000	99.342696 
1327.000000	99.344797 
1326.000000	99.347255 
1325.000000	99.348475 
1324.000000	99.348293 
1323.000000	99.347903 
1322.000000	99.348440 
1321.000000	99.350247 
1320.000000	99.353253 
1319.000000	99.357002 
1318.000000	99.360147 
1317.000000	99.360754 
1316.000000	99.357880 
1315.000000	99.352768 
1314.000000	99.348173 
1313.000000	99.346101 
1312.000000	99.346335 
1311.000000	99.347324 
1310.000000	99.348135 
1309.000000	99.349077 
1308.000000	99.350503 
1307.000000	99.351765 
1306.000000	99.351670 
1305.000000	99.350005 
1304.000000	99.348107 
1303.000000	99.347697 
1302.000000	99.349280 
1301.000000	99.351709 
1300.000000	99.353393 
1299.000000	99.353933 
1298.000000	99.354444 
1297.000000	99.356045 
1296.000000	99.358272 
1295.000000	99.359382 
1294.000000	99.358130 
1293.000000	99.354767 
1292.000000	99.350406 
1291.000000	99.346261 
1290.000000	99.343465 
1289.000000	99.342635 
1288.000000	99.343066 
1287.000000	99.342955 
1286.000000	99.341089 
1285.000000	99.337826 
1284.000000	99.334019 
1283.000000	99.329959 
1282.000000	99.325757 
1281.000000	99.321951 
1280.000000	99.319166 
1279.000000	99.317124 
1278.000000	99.314782 
1277.000000	99.311594 
1276.000000	99.307986 
1275.000000	99.304441 
1274.000000	99.300697 
1273.000000	99.296161 
1272.000000	99.290711 
1271.000000	99.284756 
1270.000000	99.278721 
1269.000000	99.272774 
1268.000000	99.266933 
1267.000000	99.261083 
1266.000000	99.254951 
1265.000000	99.248340 
1264.000000	99.241440 
1263.000000	99.234665 
1262.000000	99.228144 
1261.000000	99.221706 
1260.000000	99.215574 
1259.000000	99.210530 
1258.000000	99.207013 
1257.000000	99.204507 
1256.000000	99.202371 
1255.000000	99.200861 
1254.000000	99.200455 
1253.000000	99.200414 
1252.000000	99.199243 
1251.000000	99.196929 
1250.000000	99.195581 
1249.000000	99.197127 
1248.000000	99.201186 
1247.000000	99.205652 
1246.000000	99.208414 
1245.000000	99.207791 
1244.000000	99.202659 
1243.000000	99.194240 
1242.000000	99.187320 
1241.000000	99.187001 
1240.000000	99.193713 
1239.000000	99.202278 
1238.000000	99.206696 
1237.000000	99.205513 
1236.000000	99.201401 
1235.000000	99.197288 
1234.000000	99.194202 
1233.000000	99.192008 
1232.000000	99.190208 
1231.000000	99.187876 
1230.000000	99.184419 
1229.000000	99.180843 
1228.000000	99.179174 
1227.000000	99.180246 
1226.000000	99.182912 
1225.000000	99.185658 
1224.000000	99.188209 
1223.000000	99.191201 
1222.000000	99.195027 
1221.000000	99.199436 
1220.000000	99.203878 
1219.000000	99.207983 
1218.000000	99.211912 
1217.000000	99.216112 
1216.000000	99.220351 
1215.000000	99.223367 
1214.000000	99.224043 
1213.000000	99.222632 
1212.000000	99.220312 
1211.000000	99.218079 
1210.000000	99.216712 
1209.000000	99.217029 
1208.000000	99.218982 
1207.000000	99.220957 
1206.000000	99.221330 
1205.000000	99.220504 
1204.000000	99.220167 
1203.000000	99.220799 
1202.000000	99.221327 
1201.000000	99.221000 
1200.000000	99.220039 
1199.000000	99.218322 
1198.000000	99.215223 
1197.000000	99.210985 
1196.000000	99.206338 
1195.000000	99.200874 
1194.000000	99.193706 
1193.000000	99.185571 
1192.000000	99.178655 
1191.000000	99.173805 
1190.000000	99.169232 
1189.000000	99.162945 
1188.000000	99.155428 
1187.000000	99.149057 
1186.000000	99.145548 
1185.000000	99.144603 
1184.000000	99.144395 
1183.000000	99.142751 
1182.000000	99.138524 
1181.000000	99.132521 
1180.000000	99.126762 
1179.000000	99.122385 
1178.000000	99.118601 
1177.000000	99.113927 
1176.000000	99.107820 
1175.000000	99.100671 
1174.000000	99.092799 
1173.000000	99.084185 
1172.000000	99.075048 
1171.000000	99.066157 
1170.000000	99.058354 
1169.000000	99.051714 
1168.000000	99.045085 
1167.000000	99.036886 
1166.000000	99.027100 
1165.000000	99.018278 
1164.000000	99.013557 
1163.000000	99.013528 
1162.000000	99.015907 
1161.000000	99.018570 
1160.000000	99.021766 
1159.000000	99.026313 
1158.000000	99.030541 
1157.000000	99.030599 
1156.000000	99.023959 
1155.000000	99.012044 
1154.000000	98.999583 
1153.000000	98.991318 
1152.000000	98.988608 
1151.000000	98.988477 
1150.000000	98.986073 
1149.000000	98.978787 
1148.000000	98.968142 
1147.000000	98.957655 
1146.000000	98.949079 
1145.000000	98.941132 
1144.000000	98.931550 
1143.000000	98.919717 
1142.000000	98.907378 
1141.000000	98.897241 
1140.000000	98.890767 
1139.000000	98.886760 
1138.000000	98.882033 
1137.000000	98.873899 
1136.000000	98.862221 
1135.000000	98.849051 
1134.000000	98.836309 
1133.000000	98.823963 
1132.000000	98.810548 
1131.000000	98.795426 
1130.000000	98.780332 
1129.000000	98.768128 
1128.000000	98.759465 
1127.000000	98.751099 
1126.000000	98.738645 
1125.000000	98.721246 
1124.000000	98.702597 
1123.000000	98.686870 
1122.000000	98.674441 
1121.000000	98.662401 
1120.000000	98.648262 
1119.000000	98.631846 
1118.000000	98.614173 
1117.000000	98.596150 
1116.000000	98.578508 
1115.000000	98.561754 
1114.000000	98.545652 
1113.000000	98.529419 
1112.000000	98.512653 
1111.000000	98.495282 
1110.000000	98.476377 
1109.000000	98.454340 
1108.000000	98.429339 
1107.000000	98.404443 
1106.000000	98.383072 
1105.000000	98.365710 
1104.000000	98.349694 
1103.000000	98.332186 
1102.000000	98.312878 
1101.000000	98.293650 
1100.000000	98.276050 
1099.000000	98.260036 
1098.000000	98.244849 
1097.000000	98.230308 
1096.000000	98.216455 
1095.000000	98.202059 
1094.000000	98.184407 
1093.000000	98.160933 
1092.000000	98.130758 
1091.000000	98.094934 
1090.000000	98.056146 
1089.000000	98.018132 
1088.000000	97.984077 
1087.000000	97.954566 
1086.000000	97.927417 
1085.000000	97.900066 
1084.000000	97.871650 
1083.000000	97.842418 
1082.000000	97.812292 
1081.000000	97.781255 
1080.000000	97.750470 
1079.000000	97.721619 
1078.000000	97.695530 
1077.000000	97.672661 
1076.000000	97.654354 
1075.000000	97.641933 
1074.000000	97.634815 
1073.000000	97.630822 
1072.000000	97.627337 
1071.000000	97.620010 
1070.000000	97.601670 
1069.000000	97.567140 
1068.000000	97.521280 
1067.000000	97.479697 
1066.000000	97.457532 
1065.000000	97.457719 
1064.000000	97.470583 
1063.000000	97.482316 
1062.000000	97.482809 
1061.000000	97.467546 
1060.000000	97.437381 
1059.000000	97.399386 
1058.000000	97.364971 
1057.000000	97.342830 
1056.000000	97.332979 
1055.000000	97.328335 
1054.000000	97.321948 
1053.000000	97.312181 
1052.000000	97.301400 
1051.000000	97.291780 
1050.000000	97.283590 
1049.000000	97.276164 
1048.000000	97.268684 
1047.000000	97.260442 
1046.000000	97.251821 
1045.000000	97.244697 
1044.000000	97.240643 
1043.000000	97.238988 
1042.000000	97.237728 
1041.000000	97.236012 
1040.000000	97.234600 
1039.000000	97.234533 
1038.000000	97.237123 
1037.000000	97.244693 
1036.000000	97.258886 
1035.000000	97.277967 
1034.000000	97.297829 
1033.000000	97.315509 
1032.000000	97.329030 
1031.000000	97.334405 
1030.000000	97.327942 
1029.000000	97.313976 
1028.000000	97.306227 
1027.000000	97.316519 
1026.000000	97.343139 
1025.000000	97.372871 
1024.000000	97.393821 
1023.000000	97.403610 
1022.000000	97.406614 
1021.000000	97.407945 
1020.000000	97.410918 
1019.000000	97.416960 
1018.000000	97.425334 
1017.000000	97.433960 
1016.000000	97.441752 
1015.000000	97.449556 
1014.000000	97.458424 
1013.000000	97.467942 
1012.000000	97.476785 
1011.000000	97.484296 
1010.000000	97.491157 
1009.000000	97.498815 
1008.000000	97.508276 
1007.000000	97.519208 
1006.000000	97.530456 
1005.000000	97.541672 
1004.000000	97.553939 
1003.000000	97.568363 
1002.000000	97.584509 
1001.000000	97.600564 
1000.000000	97.614564 
999.000000	 97.625375 
998.000000	 97.633589 
997.000000	 97.642068 
996.000000	 97.654430 
995.000000	 97.671648 
994.000000	 97.690479 
993.000000	 97.706362 
992.000000	 97.717823 
991.000000	 97.726992 
990.000000	 97.736289 
989.000000	 97.745979 
988.000000	 97.755082 
987.000000	 97.763395 
986.000000	 97.772183 
985.000000	 97.783513 
984.000000	 97.798643 
983.000000	 97.816488 
982.000000	 97.834651 
981.000000	 97.851749 
980.000000	 97.867893 
979.000000	 97.883582 
978.000000	 97.899583 
977.000000	 97.917803 
976.000000	 97.940161 
975.000000	 97.965652 
974.000000	 97.990377 
973.000000	 98.011786 
972.000000	 98.031263 
971.000000	 98.051408 
970.000000	 98.072665 
969.000000	 98.094083 
968.000000	 98.115566 
967.000000	 98.137477 
966.000000	 98.159312 
965.000000	 98.180432 
964.000000	 98.200958 
963.000000	 98.220699 
962.000000	 98.238795 
961.000000	 98.255782 
960.000000	 98.274106 
959.000000	 98.294651 
958.000000	 98.314363 
957.000000	 98.329616 
956.000000	 98.340730 
955.000000	 98.351235 
954.000000	 98.363851 
953.000000	 98.379075 
952.000000	 98.396463 
951.000000	 98.414659 
950.000000	 98.430846 
949.000000	 98.442638 
948.000000	 98.450349 
947.000000	 98.455829 
946.000000	 98.459599 
945.000000	 98.460872 
944.000000	 98.460125 
943.000000	 98.459938 
942.000000	 98.463120 
941.000000	 98.470739 
940.000000	 98.481417 
939.000000	 98.491639 
938.000000	 98.497790 
937.000000	 98.499322 
936.000000	 98.499490 
935.000000	 98.502082 
934.000000	 98.508083 
933.000000	 98.516280 
932.000000	 98.525674 
931.000000	 98.535759 
930.000000	 98.545468 
929.000000	 98.553400 
928.000000	 98.558571 
927.000000	 98.560275 
926.000000	 98.558556 
925.000000	 98.555728 
924.000000	 98.555657 
923.000000	 98.559977 
922.000000	 98.566412 
921.000000	 98.572145 
920.000000	 98.576892 
919.000000	 98.580774 
918.000000	 98.581556 
917.000000	 98.577151 
916.000000	 98.569673 
915.000000	 98.563786 
914.000000	 98.561379 
913.000000	 98.560674 
912.000000	 98.560469 
911.000000	 98.562527 
910.000000	 98.569239 
909.000000	 98.581046 
908.000000	 98.596547 
907.000000	 98.613286 
906.000000	 98.628245 
905.000000	 98.639416 
904.000000	 98.647307 
903.000000	 98.654068 
902.000000	 98.661510 
901.000000	 98.670886 
900.000000	 98.683558 
899.000000	 98.699769 
898.000000	 98.716799 
897.000000	 98.730367 
896.000000	 98.738415 
895.000000	 98.742679 
894.000000	 98.746975 
893.000000	 98.754812 
892.000000	 98.767981 
891.000000	 98.785890 
890.000000	 98.806131 
889.000000	 98.826599 
888.000000	 98.846549 
887.000000	 98.864996 
886.000000	 98.879887 
885.000000	 98.890648 
884.000000	 98.900027 
883.000000	 98.910832 
882.000000	 98.921591 
881.000000	 98.928587 
880.000000	 98.932271 
879.000000	 98.938497 
878.000000	 98.952067 
877.000000	 98.971393 
876.000000	 98.990671 
875.000000	 99.005403 
874.000000	 99.014619 
873.000000	 99.019767 
872.000000	 99.023448 
871.000000	 99.028394 
870.000000	 99.036253 
869.000000	 99.047595 
868.000000	 99.063158 
867.000000	 99.083329 
866.000000	 99.105595 
865.000000	 99.124779 
864.000000	 99.138120 
863.000000	 99.149030 
862.000000	 99.163310 
861.000000	 99.181514 
860.000000	 99.197796 
859.000000	 99.207218 
858.000000	 99.211723 
857.000000	 99.217313 
856.000000	 99.227224 
855.000000	 99.240549 
854.000000	 99.255857 
853.000000	 99.271994 
852.000000	 99.285335 
851.000000	 99.290937 
850.000000	 99.288862 
849.000000	 99.286255 
848.000000	 99.290025 
847.000000	 99.299468 
846.000000	 99.309033 
845.000000	 99.315804 
844.000000	 99.320345 
843.000000	 99.322285 
842.000000	 99.320300 
841.000000	 99.316070 
840.000000	 99.313316 
839.000000	 99.312233 
838.000000	 99.309325 
837.000000	 99.303733 
836.000000	 99.298995 
835.000000	 99.296660 
834.000000	 99.293002 
833.000000	 99.285648 
832.000000	 99.279588 
831.000000	 99.281707 
830.000000	 99.291018 
829.000000	 99.299136 
828.000000	 99.300431 
827.000000	 99.297730 
826.000000	 99.297038 
825.000000	 99.299542 
824.000000	 99.300986 
823.000000	 99.298051 
822.000000	 99.293422 
821.000000	 99.293101 
820.000000	 99.298522 
819.000000	 99.303629 
818.000000	 99.302284 
817.000000	 99.297212 
816.000000	 99.297452 
815.000000	 99.305894 
814.000000	 99.313778 
813.000000	 99.310685 
812.000000	 99.296091 
811.000000	 99.277289 
810.000000	 99.258561 
809.000000	 99.237188 
808.000000	 99.209711 
807.000000	 99.177299 
806.000000	 99.143446 
805.000000	 99.109361 
804.000000	 99.073816 
803.000000	 99.036836 
802.000000	 99.002206 
801.000000	 98.975697 
800.000000	 98.960230 
799.000000	 98.952912 
798.000000	 98.948491 
797.000000	 98.945829 
796.000000	 98.948196 
795.000000	 98.956797 
794.000000	 98.967697 
793.000000	 98.976882 
792.000000	 98.984821 
791.000000	 98.993216 
790.000000	 99.000739 
789.000000	 99.005501 
788.000000	 99.008578 
787.000000	 99.010813 
786.000000	 99.008304 
785.000000	 98.995664 
784.000000	 98.973117 
783.000000	 98.947057 
782.000000	 98.924288 
781.000000	 98.908378 
780.000000	 98.900154 
779.000000	 98.897892 
778.000000	 98.897686 
777.000000	 98.897406 
776.000000	 98.900173 
775.000000	 98.910762 
774.000000	 98.928990 
773.000000	 98.949507 
772.000000	 98.967708 
771.000000	 98.983111 
770.000000	 98.997317 
769.000000	 99.011353 
768.000000	 99.024648 
767.000000	 99.034739 
766.000000	 99.039230 
765.000000	 99.040152 
764.000000	 99.044289 
763.000000	 99.055686 
762.000000	 99.068951 
761.000000	 99.074107 
760.000000	 99.068191 
759.000000	 99.058917 
758.000000	 99.056576 
757.000000	 99.064300 
756.000000	 99.076717 
755.000000	 99.085570 
754.000000	 99.086516 
753.000000	 99.082411 
752.000000	 99.080788 
751.000000	 99.087091 
750.000000	 99.100178 
749.000000	 99.114472 
748.000000	 99.125694 
747.000000	 99.133433 
746.000000	 99.139284 
745.000000	 99.144788 
744.000000	 99.150923 
743.000000	 99.157754 
742.000000	 99.164476 
741.000000	 99.171014 
740.000000	 99.179124 
739.000000	 99.190428 
738.000000	 99.203749 
737.000000	 99.215661 
736.000000	 99.223387 
735.000000	 99.226176 
734.000000	 99.224823 
733.000000	 99.221582 
732.000000	 99.220066 
731.000000	 99.223151 
730.000000	 99.230265 
729.000000	 99.237958 
728.000000	 99.243987 
727.000000	 99.249439 
726.000000	 99.255879 
725.000000	 99.262119 
724.000000	 99.265409 
723.000000	 99.264928 
722.000000	 99.262876 
721.000000	 99.262707 
720.000000	 99.266702 
719.000000	 99.274372 
718.000000	 99.282733 
717.000000	 99.288925 
716.000000	 99.292330 
715.000000	 99.293274 
714.000000	 99.291545 
713.000000	 99.287719 
712.000000	 99.285012 
711.000000	 99.287260 
710.000000	 99.294053 
709.000000	 99.300321 
708.000000	 99.301652 
707.000000	 99.297993 
706.000000	 99.291573 
705.000000	 99.284199 
704.000000	 99.277484 
703.000000	 99.273672 
702.000000	 99.274310 
701.000000	 99.278190 
700.000000	 99.281773 
699.000000	 99.281976 
698.000000	 99.278549 
697.000000	 99.274043 
696.000000	 99.271481 
695.000000	 99.271665 
694.000000	 99.273075 
693.000000	 99.274280 
692.000000	 99.275611 
691.000000	 99.277919 
690.000000	 99.280817 
689.000000	 99.283269 
688.000000	 99.285210 
687.000000	 99.287299 
686.000000	 99.289523 
685.000000	 99.291221 
684.000000	 99.292222 
683.000000	 99.293073 
682.000000	 99.294254 
681.000000	 99.295748 
680.000000	 99.297314 
679.000000	 99.298833 
678.000000	 99.300354 
677.000000	 99.301940 
676.000000	 99.303574 
675.000000	 99.305271 
674.000000	 99.307030 
673.000000	 99.308827 
672.000000	 99.310637 
671.000000	 99.312447 
670.000000	 99.314269 
669.000000	 99.316113 
668.000000	 99.317973 
667.000000	 99.319830 
666.000000	 99.321682 
665.000000	 99.323550 
664.000000	 99.325465 
663.000000	 99.327452 
662.000000	 99.329511 
661.000000	 99.331608 
660.000000	 99.333698 
659.000000	 99.335763 
658.000000	 99.337824 
657.000000	 99.339921 
656.000000	 99.342090 
655.000000	 99.344346 
654.000000	 99.346671 
653.000000	 99.349026 
652.000000	 99.351389 
651.000000	 99.353755 
650.000000	 99.356128 

