4000.000000	99.507155 
3999.000000	99.505497 
3998.000000	99.503191 
3997.000000	99.500199 
3996.000000	99.497044 
3995.000000	99.494494 
3994.000000	99.493272 
3993.000000	99.493737 
3992.000000	99.495410 
3991.000000	99.496914 
3990.000000	99.496950 
3989.000000	99.495740 
3988.000000	99.495213 
3987.000000	99.497276 
3986.000000	99.501792 
3985.000000	99.506384 
3984.000000	99.508192 
3983.000000	99.505825 
3982.000000	99.500064 
3981.000000	99.493180 
3980.000000	99.487389 
3979.000000	99.483638 
3978.000000	99.481812 
3977.000000	99.481847 
3976.000000	99.484262 
3975.000000	99.489441 
3974.000000	99.496542 
3973.000000	99.503324 
3972.000000	99.507228 
3971.000000	99.507102 
3970.000000	99.504038 
3969.000000	99.500347 
3968.000000	99.497713 
3967.000000	99.496252 
3966.000000	99.495235 
3965.000000	99.494537 
3964.000000	99.494701 
3963.000000	99.495577 
3962.000000	99.495654 
3961.000000	99.493327 
3960.000000	99.488612 
3959.000000	99.483444 
3958.000000	99.480080 
3957.000000	99.479121 
3956.000000	99.479476 
3955.000000	99.479741 
3954.000000	99.479297 
3953.000000	99.478247 
3952.000000	99.476892 
3951.000000	99.476016 
3950.000000	99.476791 
3949.000000	99.479871 
3948.000000	99.484568 
3947.000000	99.489134 
3946.000000	99.492226 
3945.000000	99.493865 
3944.000000	99.494875 
3943.000000	99.495198 
3942.000000	99.493902 
3941.000000	99.490938 
3940.000000	99.487346 
3939.000000	99.483488 
3938.000000	99.478326 
3937.000000	99.470835 
3936.000000	99.462210 
3935.000000	99.456001 
3934.000000	99.455888 
3933.000000	99.462757 
3932.000000	99.473363 
3931.000000	99.482177 
3930.000000	99.485298 
3929.000000	99.483212 
3928.000000	99.479866 
3927.000000	99.478970 
3926.000000	99.481534 
3925.000000	99.485640 
3924.000000	99.488077 
3923.000000	99.487514 
3922.000000	99.485489 
3921.000000	99.484580 
3920.000000	99.486017 
3919.000000	99.489103 
3918.000000	99.492664 
3917.000000	99.495939 
3916.000000	99.498174 
3915.000000	99.498679 
3914.000000	99.497890 
3913.000000	99.497249 
3912.000000	99.497268 
3911.000000	99.497023 
3910.000000	99.495826 
3909.000000	99.494585 
3908.000000	99.494822 
3907.000000	99.496232 
3906.000000	99.495803 
3905.000000	99.490034 
3904.000000	99.478209 
3903.000000	99.464669 
3902.000000	99.456734 
3901.000000	99.458938 
3900.000000	99.469821 
3899.000000	99.483080 
3898.000000	99.492499 
3897.000000	99.496384 
3896.000000	99.496814 
3895.000000	99.496299 
3894.000000	99.495650 
3893.000000	99.493594 
3892.000000	99.488238 
3891.000000	99.479581 
3890.000000	99.470139 
3889.000000	99.462409 
3888.000000	99.457307 
3887.000000	99.455424 
3886.000000	99.456524 
3885.000000	99.458572 
3884.000000	99.459770 
3883.000000	99.461143 
3882.000000	99.464961 
3881.000000	99.470672 
3880.000000	99.474580 
3879.000000	99.474600 
3878.000000	99.473160 
3877.000000	99.474303 
3876.000000	99.480196 
3875.000000	99.489011 
3874.000000	99.495306 
3873.000000	99.494266 
3872.000000	99.486478 
3871.000000	99.477344 
3870.000000	99.471628 
3869.000000	99.469935 
3868.000000	99.470585 
3867.000000	99.472720 
3866.000000	99.476909 
3865.000000	99.482148 
3864.000000	99.483651 
3863.000000	99.478679 
3862.000000	99.470981 
3861.000000	99.466462 
3860.000000	99.467558 
3859.000000	99.472922 
3858.000000	99.479126 
3857.000000	99.483014 
3856.000000	99.483262 
3855.000000	99.483154 
3854.000000	99.487219 
3853.000000	99.494257 
3852.000000	99.501071 
3851.000000	99.506535 
3850.000000	99.509101 
3849.000000	99.508070 
3848.000000	99.503867 
3847.000000	99.497669 
3846.000000	99.491144 
3845.000000	99.485352 
3844.000000	99.480515 
3843.000000	99.477658 
3842.000000	99.477798 
3841.000000	99.480314 
3840.000000	99.483511 
3839.000000	99.485612 
3838.000000	99.485176 
3837.000000	99.482270 
3836.000000	99.478361 
3835.000000	99.475779 
3834.000000	99.476726 
3833.000000	99.482324 
3832.000000	99.491694 
3831.000000	99.501678 
3830.000000	99.508840 
3829.000000	99.511566 
3828.000000	99.510188 
3827.000000	99.506502 
3826.000000	99.502741 
3825.000000	99.499948 
3824.000000	99.497861 
3823.000000	99.497037 
3822.000000	99.498100 
3821.000000	99.499310 
3820.000000	99.498904 
3819.000000	99.497980 
3818.000000	99.497443 
3817.000000	99.496771 
3816.000000	99.494853 
3815.000000	99.490736 
3814.000000	99.484900 
3813.000000	99.479688 
3812.000000	99.478155 
3811.000000	99.481362 
3810.000000	99.487372 
3809.000000	99.493372 
3808.000000	99.498106 
3807.000000	99.501740 
3806.000000	99.504403 
3805.000000	99.505810 
3804.000000	99.506314 
3803.000000	99.507506 
3802.000000	99.509811 
3801.000000	99.510877 
3800.000000	99.508830 
3799.000000	99.504509 
3798.000000	99.499705 
3797.000000	99.495550 
3796.000000	99.491838 
3795.000000	99.487783 
3794.000000	99.483384 
3793.000000	99.479510 
3792.000000	99.477013 
3791.000000	99.475820 
3790.000000	99.475417 
3789.000000	99.475849 
3788.000000	99.477638 
3787.000000	99.480669 
3786.000000	99.484060 
3785.000000	99.486945 
3784.000000	99.489208 
3783.000000	99.491145 
3782.000000	99.493082 
3781.000000	99.495267 
3780.000000	99.497186 
3779.000000	99.497497 
3778.000000	99.495516 
3777.000000	99.491786 
3776.000000	99.487021 
3775.000000	99.482020 
3774.000000	99.477458 
3773.000000	99.473573 
3772.000000	99.470576 
3771.000000	99.469030 
3770.000000	99.468799 
3769.000000	99.469054 
3768.000000	99.470138 
3767.000000	99.473113 
3766.000000	99.477683 
3765.000000	99.481825 
3764.000000	99.483048 
3763.000000	99.480308 
3762.000000	99.475421 
3761.000000	99.472144 
3760.000000	99.472752 
3759.000000	99.476427 
3758.000000	99.481848 
3757.000000	99.488821 
3756.000000	99.495971 
3755.000000	99.500737 
3754.000000	99.502012 
3753.000000	99.501289 
3752.000000	99.499547 
3751.000000	99.494261 
3750.000000	99.485265 
3749.000000	99.478383 
3748.000000	99.476941 
3747.000000	99.477852 
3746.000000	99.477351 
3745.000000	99.475264 
3744.000000	99.473297 
3743.000000	99.472154 
3742.000000	99.470785 
3741.000000	99.467862 
3740.000000	99.462800 
3739.000000	99.455547 
3738.000000	99.449057 
3737.000000	99.450037 
3736.000000	99.461095 
3735.000000	99.474417 
3734.000000	99.479208 
3733.000000	99.474131 
3732.000000	99.466448 
3731.000000	99.462044 
3730.000000	99.460836 
3729.000000	99.459651 
3728.000000	99.457005 
3727.000000	99.453915 
3726.000000	99.451442 
3725.000000	99.449835 
3724.000000	99.449714 
3723.000000	99.452047 
3722.000000	99.456451 
3721.000000	99.461627 
3720.000000	99.466094 
3719.000000	99.468164 
3718.000000	99.467387 
3717.000000	99.465198 
3716.000000	99.462656 
3715.000000	99.459398 
3714.000000	99.455299 
3713.000000	99.452337 
3712.000000	99.452328 
3711.000000	99.454273 
3710.000000	99.455655 
3709.000000	99.454106 
3708.000000	99.448586 
3707.000000	99.439940 
3706.000000	99.430370 
3705.000000	99.422526 
3704.000000	99.418239 
3703.000000	99.417088 
3702.000000	99.415644 
3701.000000	99.410398 
3700.000000	99.401302 
3699.000000	99.391001 
3698.000000	99.382250 
3697.000000	99.376954 
3696.000000	99.375107 
3695.000000	99.375013 
3694.000000	99.375485 
3693.000000	99.376897 
3692.000000	99.379390 
3691.000000	99.381028 
3690.000000	99.378652 
3689.000000	99.371415 
3688.000000	99.362944 
3687.000000	99.356763 
3686.000000	99.352230 
3685.000000	99.348188 
3684.000000	99.345702 
3683.000000	99.346088 
3682.000000	99.348178 
3681.000000	99.348688 
3680.000000	99.344722 
3679.000000	99.335114 
3678.000000	99.321544 
3677.000000	99.310626 
3676.000000	99.309628 
3675.000000	99.316180 
3674.000000	99.321909 
3673.000000	99.322293 
3672.000000	99.318322 
3671.000000	99.316017 
3670.000000	99.319816 
3669.000000	99.327325 
3668.000000	99.334552 
3667.000000	99.340171 
3666.000000	99.343922 
3665.000000	99.345619 
3664.000000	99.345236 
3663.000000	99.343275 
3662.000000	99.340956 
3661.000000	99.339171 
3660.000000	99.337436 
3659.000000	99.334731 
3658.000000	99.331572 
3657.000000	99.330203 
3656.000000	99.332139 
3655.000000	99.336353 
3654.000000	99.340433 
3653.000000	99.342458 
3652.000000	99.341733 
3651.000000	99.338733 
3650.000000	99.334786 
3649.000000	99.333035 
3648.000000	99.337024 
3647.000000	99.346019 
3646.000000	99.355717 
3645.000000	99.363565 
3644.000000	99.370362 
3643.000000	99.377665 
3642.000000	99.386001 
3641.000000	99.394343 
3640.000000	99.401230 
3639.000000	99.405730 
3638.000000	99.407477 
3637.000000	99.406769 
3636.000000	99.404524 
3635.000000	99.401865 
3634.000000	99.399102 
3633.000000	99.395598 
3632.000000	99.391520 
3631.000000	99.389320 
3630.000000	99.392224 
3629.000000	99.398234 
3628.000000	99.401070 
3627.000000	99.400467 
3626.000000	99.401004 
3625.000000	99.404708 
3624.000000	99.409781 
3623.000000	99.413090 
3622.000000	99.413210 
3621.000000	99.412527 
3620.000000	99.414192 
3619.000000	99.417113 
3618.000000	99.417629 
3617.000000	99.415288 
3616.000000	99.412658 
3615.000000	99.412267 
3614.000000	99.413640 
3613.000000	99.413467 
3612.000000	99.409987 
3611.000000	99.405878 
3610.000000	99.405155 
3609.000000	99.408366 
3608.000000	99.412020 
3607.000000	99.413741 
3606.000000	99.416092 
3605.000000	99.422577 
3604.000000	99.432689 
3603.000000	99.442462 
3602.000000	99.448332 
3601.000000	99.450413 
3600.000000	99.450707 
3599.000000	99.449778 
3598.000000	99.446809 
3597.000000	99.441596 
3596.000000	99.435358 
3595.000000	99.430650 
3594.000000	99.428985 
3593.000000	99.429269 
3592.000000	99.429056 
3591.000000	99.426483 
3590.000000	99.422624 
3589.000000	99.421352 
3588.000000	99.425225 
3587.000000	99.431119 
3586.000000	99.434712 
3585.000000	99.436354 
3584.000000	99.439442 
3583.000000	99.445361 
3582.000000	99.452184 
3581.000000	99.456851 
3580.000000	99.457842 
3579.000000	99.455654 
3578.000000	99.451331 
3577.000000	99.446049 
3576.000000	99.441666 
3575.000000	99.440361 
3574.000000	99.442731 
3573.000000	99.446304 
3572.000000	99.447480 
3571.000000	99.444439 
3570.000000	99.437841 
3569.000000	99.430207 
3568.000000	99.424710 
3567.000000	99.422692 
3566.000000	99.423307 
3565.000000	99.425962 
3564.000000	99.431215 
3563.000000	99.439735 
3562.000000	99.451058 
3561.000000	99.462763 
3560.000000	99.471663 
3559.000000	99.475904 
3558.000000	99.476171 
3557.000000	99.474671 
3556.000000	99.473363 
3555.000000	99.472768 
3554.000000	99.472144 
3553.000000	99.469923 
3552.000000	99.464773 
3551.000000	99.456981 
3550.000000	99.448315 
3549.000000	99.440729 
3548.000000	99.436019 
3547.000000	99.435350 
3546.000000	99.438246 
3545.000000	99.441758 
3544.000000	99.442654 
3543.000000	99.440920 
3542.000000	99.440324 
3541.000000	99.444592 
3540.000000	99.453869 
3539.000000	99.464774 
3538.000000	99.473594 
3537.000000	99.478697 
3536.000000	99.480343 
3535.000000	99.479567 
3534.000000	99.477329 
3533.000000	99.474717 
3532.000000	99.472965 
3531.000000	99.473066 
3530.000000	99.474663 
3529.000000	99.475507 
3528.000000	99.473083 
3527.000000	99.467428 
3526.000000	99.461688 
3525.000000	99.459198 
3524.000000	99.460215 
3523.000000	99.461998 
3522.000000	99.462228 
3521.000000	99.461238 
3520.000000	99.461063 
3519.000000	99.463155 
3518.000000	99.467482 
3517.000000	99.472994 
3516.000000	99.478166 
3515.000000	99.481495 
3514.000000	99.481829 
3513.000000	99.478858 
3512.000000	99.473508 
3511.000000	99.467697 
3510.000000	99.463058 
3509.000000	99.459896 
3508.000000	99.457681 
3507.000000	99.456523 
3506.000000	99.457652 
3505.000000	99.461736 
3504.000000	99.467118 
3503.000000	99.470845 
3502.000000	99.472190 
3501.000000	99.473834 
3500.000000	99.478404 
3499.000000	99.484700 
3498.000000	99.488392 
3497.000000	99.486638 
3496.000000	99.481216 
3495.000000	99.476583 
3494.000000	99.475442 
3493.000000	99.476845 
3492.000000	99.478470 
3491.000000	99.479549 
3490.000000	99.481207 
3489.000000	99.484498 
3488.000000	99.488726 
3487.000000	99.491624 
3486.000000	99.491156 
3485.000000	99.487373 
3484.000000	99.482645 
3483.000000	99.480034 
3482.000000	99.480751 
3481.000000	99.483180 
3480.000000	99.484623 
3479.000000	99.483696 
3478.000000	99.480814 
3477.000000	99.477155 
3476.000000	99.474259 
3475.000000	99.474314 
3474.000000	99.479150 
3473.000000	99.487847 
3472.000000	99.496242 
3471.000000	99.500301 
3470.000000	99.499988 
3469.000000	99.498767 
3468.000000	99.499337 
3467.000000	99.500786 
3466.000000	99.500476 
3465.000000	99.497656 
3464.000000	99.494215 
3463.000000	99.492352 
3462.000000	99.492477 
3461.000000	99.493645 
3460.000000	99.495070 
3459.000000	99.496589 
3458.000000	99.497995 
3457.000000	99.498555 
3456.000000	99.497622 
3455.000000	99.495650 
3454.000000	99.494050 
3453.000000	99.494088 
3452.000000	99.495768 
3451.000000	99.498100 
3450.000000	99.500240 
3449.000000	99.502071 
3448.000000	99.503567 
3447.000000	99.504135 
3446.000000	99.503196 
3445.000000	99.501356 
3444.000000	99.500315 
3443.000000	99.501246 
3442.000000	99.503463 
3441.000000	99.504967 
3440.000000	99.504404 
3439.000000	99.502182 
3438.000000	99.499523 
3437.000000	99.496894 
3436.000000	99.493955 
3435.000000	99.490943 
3434.000000	99.489222 
3433.000000	99.490214 
3432.000000	99.493732 
3431.000000	99.497925 
3430.000000	99.500971 
3429.000000	99.502789 
3428.000000	99.504934 
3427.000000	99.508456 
3426.000000	99.512071 
3425.000000	99.512942 
3424.000000	99.509601 
3423.000000	99.503669 
3422.000000	99.498226 
3421.000000	99.494914 
3420.000000	99.493463 
3419.000000	99.493507 
3418.000000	99.495366 
3417.000000	99.498779 
3416.000000	99.502121 
3415.000000	99.503611 
3414.000000	99.502835 
3413.000000	99.500695 
3412.000000	99.498477 
3411.000000	99.497323 
3410.000000	99.497771 
3409.000000	99.499040 
3408.000000	99.499172 
3407.000000	99.496688 
3406.000000	99.492233 
3405.000000	99.488172 
3404.000000	99.486649 
3403.000000	99.488142 
3402.000000	99.491384 
3401.000000	99.494445 
3400.000000	99.496154 
3399.000000	99.497061 
3398.000000	99.498926 
3397.000000	99.502927 
3396.000000	99.508295 
3395.000000	99.512632 
3394.000000	99.513366 
3393.000000	99.509176 
3392.000000	99.501044 
3391.000000	99.492379 
3390.000000	99.487422 
3389.000000	99.488446 
3388.000000	99.494161 
3387.000000	99.501037 
3386.000000	99.506334 
3385.000000	99.509925 
3384.000000	99.513306 
3383.000000	99.517178 
3382.000000	99.520040 
3381.000000	99.519339 
3380.000000	99.514110 
3379.000000	99.506592 
3378.000000	99.500738 
3377.000000	99.498801 
3376.000000	99.499654 
3375.000000	99.500629 
3374.000000	99.500509 
3373.000000	99.500261 
3372.000000	99.501344 
3371.000000	99.504068 
3370.000000	99.507564 
3369.000000	99.510541 
3368.000000	99.511961 
3367.000000	99.511583 
3366.000000	99.510208 
3365.000000	99.508925 
3364.000000	99.507917 
3363.000000	99.506454 
3362.000000	99.504236 
3361.000000	99.502018 
3360.000000	99.500404 
3359.000000	99.498702 
3358.000000	99.495979 
3357.000000	99.493113 
3356.000000	99.492600 
3355.000000	99.495673 
3354.000000	99.500254 
3353.000000	99.502667 
3352.000000	99.501288 
3351.000000	99.498083 
3350.000000	99.496563 
3349.000000	99.498587 
3348.000000	99.503174 
3347.000000	99.507728 
3346.000000	99.510024 
3345.000000	99.509472 
3344.000000	99.507145 
3343.000000	99.504838 
3342.000000	99.503597 
3341.000000	99.502875 
3340.000000	99.501158 
3339.000000	99.497676 
3338.000000	99.493561 
3337.000000	99.491115 
3336.000000	99.491705 
3335.000000	99.494413 
3334.000000	99.497078 
3333.000000	99.498648 
3332.000000	99.500071 
3331.000000	99.502535 
3330.000000	99.505320 
3329.000000	99.506267 
3328.000000	99.504432 
3327.000000	99.501281 
3326.000000	99.498718 
3325.000000	99.496726 
3324.000000	99.493779 
3323.000000	99.489361 
3322.000000	99.485085 
3321.000000	99.483146 
3320.000000	99.484298 
3319.000000	99.487508 
3318.000000	99.491103 
3317.000000	99.493929 
3316.000000	99.495699 
3315.000000	99.496735 
3314.000000	99.497623 
3313.000000	99.499072 
3312.000000	99.501754 
3311.000000	99.505721 
3310.000000	99.509778 
3309.000000	99.511998 
3308.000000	99.511424 
3307.000000	99.509055 
3306.000000	99.506739 
3305.000000	99.505329 
3304.000000	99.504526 
3303.000000	99.504103 
3302.000000	99.504217 
3301.000000	99.504316 
3300.000000	99.502832 
3299.000000	99.498922 
3298.000000	99.494121 
3297.000000	99.491505 
3296.000000	99.492891 
3295.000000	99.497168 
3294.000000	99.501445 
3293.000000	99.503581 
3292.000000	99.503517 
3291.000000	99.502392 
3290.000000	99.500847 
3289.000000	99.498642 
3288.000000	99.495764 
3287.000000	99.493148 
3286.000000	99.491785 
3285.000000	99.491423 
3284.000000	99.490788 
3283.000000	99.489123 
3282.000000	99.487115 
3281.000000	99.486218 
3280.000000	99.487425 
3279.000000	99.490593 
3278.000000	99.494416 
3277.000000	99.496885 
3276.000000	99.496267 
3275.000000	99.492257 
3274.000000	99.486428 
3273.000000	99.481444 
3272.000000	99.479477 
3271.000000	99.480862 
3270.000000	99.483959 
3269.000000	99.486552 
3268.000000	99.487535 
3267.000000	99.487119 
3266.000000	99.485642 
3265.000000	99.483119 
3264.000000	99.480356 
3263.000000	99.479527 
3262.000000	99.482489 
3261.000000	99.488577 
3260.000000	99.494903 
3259.000000	99.498694 
3258.000000	99.498803 
3257.000000	99.495393 
3256.000000	99.489310 
3255.000000	99.481999 
3254.000000	99.475316 
3253.000000	99.471054 
3252.000000	99.470615 
3251.000000	99.474590 
3250.000000	99.481791 
3249.000000	99.489141 
3248.000000	99.493668 
3247.000000	99.494707 
3246.000000	99.493465 
3245.000000	99.490787 
3244.000000	99.486573 
3243.000000	99.481356 
3242.000000	99.476838 
3241.000000	99.474284 
3240.000000	99.473645 
3239.000000	99.474932 
3238.000000	99.479255 
3237.000000	99.487310 
3236.000000	99.497350 
3235.000000	99.505686 
3234.000000	99.509224 
3233.000000	99.507293 
3232.000000	99.501604 
3231.000000	99.495142 
3230.000000	99.490612 
3229.000000	99.488993 
3228.000000	99.489284 
3227.000000	99.489695 
3226.000000	99.488997 
3225.000000	99.486930 
3224.000000	99.484023 
3223.000000	99.481430 
3222.000000	99.480300 
3221.000000	99.480666 
3220.000000	99.481160 
3219.000000	99.480303 
3218.000000	99.478127 
3217.000000	99.476383 
3216.000000	99.477282 
3215.000000	99.481742 
3214.000000	99.488181 
3213.000000	99.493004 
3212.000000	99.493041 
3211.000000	99.488007 
3210.000000	99.480531 
3209.000000	99.473926 
3208.000000	99.470369 
3207.000000	99.470583 
3206.000000	99.473773 
3205.000000	99.477441 
3204.000000	99.478626 
3203.000000	99.476406 
3202.000000	99.472762 
3201.000000	99.470454 
3200.000000	99.470606 
3199.000000	99.472560 
3198.000000	99.475044 
3197.000000	99.476852 
3196.000000	99.477420 
3195.000000	99.477609 
3194.000000	99.479086 
3193.000000	99.481977 
3192.000000	99.483875 
3191.000000	99.482307 
3190.000000	99.477672 
3189.000000	99.472703 
3188.000000	99.469561 
3187.000000	99.468622 
3186.000000	99.469622 
3185.000000	99.472286 
3184.000000	99.475667 
3183.000000	99.478133 
3182.000000	99.478751 
3181.000000	99.478185 
3180.000000	99.477999 
3179.000000	99.479355 
3178.000000	99.482195 
3177.000000	99.485191 
3176.000000	99.486747 
3175.000000	99.486592 
3174.000000	99.485994 
3173.000000	99.485746 
3172.000000	99.484590 
3171.000000	99.480962 
3170.000000	99.476023 
3169.000000	99.473245 
3168.000000	99.474453 
3167.000000	99.477584 
3166.000000	99.479166 
3165.000000	99.478059 
3164.000000	99.475912 
3163.000000	99.474671 
3162.000000	99.474759 
3161.000000	99.475501 
3160.000000	99.476312 
3159.000000	99.477126 
3158.000000	99.478051 
3157.000000	99.478948 
3156.000000	99.479343 
3155.000000	99.478642 
3154.000000	99.476324 
3153.000000	99.471983 
3152.000000	99.465718 
3151.000000	99.458866 
3150.000000	99.453901 
3149.000000	99.452723 
3148.000000	99.454965 
3147.000000	99.458557 
3146.000000	99.461948 
3145.000000	99.465116 
3144.000000	99.468359 
3143.000000	99.471116 
3142.000000	99.472646 
3141.000000	99.473217 
3140.000000	99.473768 
3139.000000	99.474586 
3138.000000	99.474969 
3137.000000	99.474264 
3136.000000	99.472772 
3135.000000	99.471487 
3134.000000	99.471149 
3133.000000	99.471603 
3132.000000	99.471908 
3131.000000	99.471121 
3130.000000	99.469134 
3129.000000	99.466861 
3128.000000	99.465662 
3127.000000	99.466537 
3126.000000	99.469524 
3125.000000	99.473510 
3124.000000	99.476710 
3123.000000	99.477841 
3122.000000	99.477089 
3121.000000	99.475708 
3120.000000	99.474647 
3119.000000	99.473959 
3118.000000	99.473482 
3117.000000	99.473411 
3116.000000	99.473897 
3115.000000	99.474597 
3114.000000	99.475111 
3113.000000	99.475551 
3112.000000	99.476185 
3111.000000	99.476785 
3110.000000	99.476772 
3109.000000	99.475891 
3108.000000	99.474276 
3107.000000	99.472016 
3106.000000	99.469096 
3105.000000	99.465907 
3104.000000	99.463498 
3103.000000	99.463042 
3102.000000	99.465017 
3101.000000	99.468692 
3100.000000	99.472443 
3099.000000	99.474929 
3098.000000	99.476210 
3097.000000	99.477458 
3096.000000	99.479334 
3095.000000	99.480965 
3094.000000	99.481042 
3093.000000	99.479596 
3092.000000	99.477937 
3091.000000	99.476992 
3090.000000	99.476599 
3089.000000	99.476619 
3088.000000	99.477648 
3087.000000	99.479948 
3086.000000	99.482375 
3085.000000	99.483282 
3084.000000	99.482211 
3083.000000	99.479931 
3082.000000	99.477192 
3081.000000	99.474346 
3080.000000	99.472127 
3079.000000	99.471794 
3078.000000	99.474166 
3077.000000	99.478909 
3076.000000	99.484698 
3075.000000	99.489491 
3074.000000	99.490960 
3073.000000	99.488004 
3072.000000	99.482256 
3071.000000	99.477002 
3070.000000	99.473928 
3069.000000	99.471677 
3068.000000	99.468279 
3067.000000	99.464248 
3066.000000	99.462359 
3065.000000	99.464799 
3064.000000	99.471250 
3063.000000	99.479184 
3062.000000	99.485177 
3061.000000	99.486488 
3060.000000	99.482792 
3059.000000	99.476581 
3058.000000	99.471214 
3057.000000	99.468595 
3056.000000	99.468924 
3055.000000	99.471804 
3054.000000	99.476181 
3053.000000	99.479608 
3052.000000	99.479402 
3051.000000	99.475291 
3050.000000	99.470077 
3049.000000	99.467117 
3048.000000	99.467475 
3047.000000	99.469499 
3046.000000	99.470285 
3045.000000	99.467484 
3044.000000	99.461025 
3043.000000	99.453908 
3042.000000	99.450453 
3041.000000	99.452610 
3040.000000	99.458011 
3039.000000	99.461996 
3038.000000	99.461308 
3037.000000	99.455722 
3036.000000	99.446907 
3035.000000	99.436712 
3034.000000	99.426408 
3033.000000	99.416695 
3032.000000	99.407926 
3031.000000	99.400228 
3030.000000	99.393376 
3029.000000	99.386750 
3028.000000	99.380002 
3027.000000	99.373937 
3026.000000	99.369990 
3025.000000	99.368083 
3024.000000	99.365495 
3023.000000	99.358898 
3022.000000	99.347575 
3021.000000	99.333732 
3020.000000	99.319631 
3019.000000	99.305486 
3018.000000	99.290896 
3017.000000	99.277068 
3016.000000	99.265931 
3015.000000	99.257103 
3014.000000	99.247583 
3013.000000	99.235350 
3012.000000	99.222069 
3011.000000	99.210895 
3010.000000	99.202242 
3009.000000	99.193289 
3008.000000	99.181426 
3007.000000	99.166650 
3006.000000	99.150393 
3005.000000	99.133619 
3004.000000	99.116940 
3003.000000	99.101343 
3002.000000	99.087627 
3001.000000	99.075675 
3000.000000	99.065098 
2999.000000	99.056064 
2998.000000	99.048886 
2997.000000	99.043410 
2996.000000	99.039246 
2995.000000	99.035382 
2994.000000	99.028664 
2993.000000	99.014275 
2992.000000	98.990031 
2991.000000	98.960142 
2990.000000	98.933188 
2989.000000	98.916121 
2988.000000	98.910782 
2987.000000	98.915134 
2986.000000	98.925563 
2985.000000	98.937898 
2984.000000	98.948394 
2983.000000	98.955249 
2982.000000	98.958667 
2981.000000	98.959441 
2980.000000	98.958523 
2979.000000	98.957864 
2978.000000	98.959674 
2977.000000	98.963787 
2976.000000	98.967048 
2975.000000	98.966471 
2974.000000	98.962489 
2973.000000	98.958459 
2972.000000	98.957864 
2971.000000	98.962520 
2970.000000	98.972304 
2969.000000	98.985303 
2968.000000	98.998768 
2967.000000	99.011112 
2966.000000	99.022884 
2965.000000	99.035201 
2964.000000	99.047705 
2963.000000	99.058742 
2962.000000	99.067069 
2961.000000	99.072596 
2960.000000	99.075911 
2959.000000	99.078128 
2958.000000	99.080970 
2957.000000	99.085873 
2956.000000	99.092636 
2955.000000	99.099661 
2954.000000	99.105916 
2953.000000	99.112225 
2952.000000	99.120277 
2951.000000	99.130541 
2950.000000	99.141450 
2949.000000	99.150600 
2948.000000	99.156572 
2947.000000	99.159695 
2946.000000	99.161503 
2945.000000	99.163823 
2944.000000	99.168073 
2943.000000	99.174444 
2942.000000	99.181277 
2941.000000	99.185941 
2940.000000	99.187249 
2939.000000	99.186964 
2938.000000	99.188350 
2937.000000	99.193465 
2936.000000	99.202230 
2935.000000	99.213366 
2934.000000	99.225008 
2933.000000	99.234613 
2932.000000	99.239883 
2931.000000	99.240500 
2930.000000	99.238425 
2929.000000	99.236313 
2928.000000	99.235818 
2927.000000	99.236829 
2926.000000	99.237283 
2925.000000	99.234152 
2924.000000	99.226205 
2923.000000	99.215923 
2922.000000	99.207335 
2921.000000	99.201695 
2920.000000	99.196690 
2919.000000	99.189959 
2918.000000	99.181759 
2917.000000	99.173546 
2916.000000	99.165619 
2915.000000	99.157209 
2914.000000	99.147798 
2913.000000	99.137431 
2912.000000	99.126761 
2911.000000	99.117611 
2910.000000	99.112267 
2909.000000	99.111126 
2908.000000	99.111703 
2907.000000	99.110990 
2906.000000	99.107744 
2905.000000	99.101701 
2904.000000	99.092022 
2903.000000	99.078796 
2902.000000	99.065701 
2901.000000	99.059523 
2900.000000	99.064466 
2899.000000	99.078778 
2898.000000	99.095647 
2897.000000	99.107820 
2896.000000	99.112172 
2895.000000	99.111188 
2894.000000	99.110202 
2893.000000	99.112449 
2892.000000	99.116834 
2891.000000	99.120471 
2890.000000	99.122372 
2889.000000	99.123606 
2888.000000	99.124888 
2887.000000	99.125893 
2886.000000	99.126942 
2885.000000	99.129572 
2884.000000	99.134806 
2883.000000	99.142001 
2882.000000	99.150047 
2881.000000	99.158765 
2880.000000	99.168452 
2879.000000	99.178827 
2878.000000	99.189234 
2877.000000	99.199460 
2876.000000	99.209645 
2875.000000	99.219577 
2874.000000	99.228614 
2873.000000	99.236204 
2872.000000	99.242143 
2871.000000	99.246478 
2870.000000	99.249640 
2869.000000	99.252799 
2868.000000	99.257710 
2867.000000	99.265736 
2866.000000	99.276739 
2865.000000	99.289036 
2864.000000	99.300803 
2863.000000	99.311675 
2862.000000	99.322681 
2861.000000	99.334521 
2860.000000	99.346428 
2859.000000	99.357145 
2858.000000	99.366509 
2857.000000	99.375252 
2856.000000	99.383377 
2855.000000	99.389543 
2854.000000	99.392448 
2853.000000	99.392519 
2852.000000	99.391971 
2851.000000	99.393252 
2850.000000	99.397322 
2849.000000	99.403040 
2848.000000	99.408129 
2847.000000	99.410923 
2846.000000	99.411388 
2845.000000	99.410577 
2844.000000	99.409409 
2843.000000	99.408287 
2842.000000	99.407718 
2841.000000	99.408766 
2840.000000	99.412545 
2839.000000	99.419250 
2838.000000	99.427644 
2837.000000	99.435520 
2836.000000	99.440933 
2835.000000	99.443355 
2834.000000	99.443770 
2833.000000	99.443636 
2832.000000	99.443737 
2831.000000	99.443867 
2830.000000	99.443207 
2829.000000	99.440928 
2828.000000	99.437002 
2827.000000	99.432865 
2826.000000	99.430828 
2825.000000	99.432031 
2824.000000	99.435037 
2823.000000	99.437123 
2822.000000	99.437183 
2821.000000	99.436801 
2820.000000	99.438276 
2819.000000	99.442168 
2818.000000	99.447187 
2817.000000	99.451999 
2816.000000	99.456334 
2815.000000	99.460354 
2814.000000	99.463665 
2813.000000	99.465458 
2812.000000	99.465536 
2811.000000	99.464902 
2810.000000	99.465193 
2809.000000	99.467364 
2808.000000	99.470647 
2807.000000	99.472724 
2806.000000	99.471270 
2805.000000	99.465843 
2804.000000	99.458477 
2803.000000	99.452360 
2802.000000	99.449716 
2801.000000	99.450693 
2800.000000	99.453848 
2799.000000	99.457376 
2798.000000	99.460023 
2797.000000	99.461313 
2796.000000	99.461357 
2795.000000	99.460657 
2794.000000	99.460224 
2793.000000	99.461548 
2792.000000	99.465645 
2791.000000	99.471551 
2790.000000	99.476385 
2789.000000	99.477936 
2788.000000	99.477143 
2787.000000	99.476930 
2786.000000	99.478372 
2785.000000	99.479155 
2784.000000	99.476502 
2783.000000	99.470621 
2782.000000	99.464352 
2781.000000	99.460121 
2780.000000	99.458380 
2779.000000	99.458451 
2778.000000	99.459503 
2777.000000	99.460675 
2776.000000	99.461528 
2775.000000	99.462736 
2774.000000	99.465534 
2773.000000	99.470247 
2772.000000	99.476048 
2771.000000	99.482153 
2770.000000	99.488204 
2769.000000	99.493324 
2768.000000	99.496054 
2767.000000	99.496032 
2766.000000	99.494874 
2765.000000	99.494384 
2764.000000	99.494240 
2763.000000	99.492268 
2762.000000	99.486916 
2761.000000	99.478942 
2760.000000	99.470810 
2759.000000	99.464942 
2758.000000	99.462493 
2757.000000	99.463288 
2756.000000	99.466422 
2755.000000	99.470695 
2754.000000	99.474541 
2753.000000	99.476303 
2752.000000	99.475594 
2751.000000	99.474386 
2750.000000	99.475701 
2749.000000	99.480584 
2748.000000	99.486888 
2747.000000	99.491580 
2746.000000	99.493719 
2745.000000	99.494557 
2744.000000	99.495248 
2743.000000	99.495475 
2742.000000	99.494364 
2741.000000	99.491900 
2740.000000	99.488973 
2739.000000	99.486365 
2738.000000	99.484142 
2737.000000	99.482118 
2736.000000	99.480656 
2735.000000	99.480578 
2734.000000	99.482005 
2733.000000	99.483571 
2732.000000	99.483394 
2731.000000	99.481027 
2730.000000	99.478070 
2729.000000	99.476797 
2728.000000	99.478514 
2727.000000	99.483156 
2726.000000	99.489546 
2725.000000	99.495647 
2724.000000	99.499528 
2723.000000	99.501062 
2722.000000	99.502273 
2721.000000	99.505080 
2720.000000	99.508804 
2719.000000	99.510744 
2718.000000	99.509150 
2717.000000	99.504747 
2716.000000	99.499322 
2715.000000	99.493877 
2714.000000	99.488684 
2713.000000	99.484222 
2712.000000	99.481098 
2711.000000	99.479388 
2710.000000	99.478846 
2709.000000	99.479583 
2708.000000	99.481743 
2707.000000	99.484594 
2706.000000	99.486925 
2705.000000	99.488796 
2704.000000	99.492174 
2703.000000	99.498929 
2702.000000	99.508292 
2701.000000	99.516922 
2700.000000	99.521791 
2699.000000	99.522825 
2698.000000	99.522602 
2697.000000	99.523510 
2696.000000	99.525254 
2695.000000	99.525147 
2694.000000	99.521043 
2693.000000	99.513869 
2692.000000	99.506851 
2691.000000	99.501998 
2690.000000	99.497982 
2689.000000	99.492089 
2688.000000	99.483938 
2687.000000	99.476436 
2686.000000	99.473155 
2685.000000	99.475436 
2684.000000	99.481945 
2683.000000	99.490001 
2682.000000	99.497026 
2681.000000	99.501704 
2680.000000	99.504596 
2679.000000	99.507452 
2678.000000	99.511582 
2677.000000	99.517165 
2676.000000	99.523998 
2675.000000	99.531834 
2674.000000	99.539335 
2673.000000	99.543651 
2672.000000	99.542280 
2671.000000	99.535354 
2670.000000	99.525504 
2669.000000	99.515592 
2668.000000	99.506952 
2667.000000	99.499502 
2666.000000	99.492821 
2665.000000	99.486972 
2664.000000	99.482580 
2663.000000	99.480159 
2662.000000	99.479591 
2661.000000	99.480700 
2660.000000	99.484135 
2659.000000	99.490670 
2658.000000	99.499498 
2657.000000	99.508468 
2656.000000	99.516594 
2655.000000	99.524938 
2654.000000	99.534084 
2653.000000	99.542332 
2652.000000	99.548116 
2651.000000	99.552818 
2650.000000	99.558607 
2649.000000	99.563876 
2648.000000	99.563742 
2647.000000	99.555878 
2646.000000	99.543873 
2645.000000	99.533617 
2644.000000	99.527586 
2643.000000	99.523586 
2642.000000	99.518050 
2641.000000	99.509629 
2640.000000	99.500261 
2639.000000	99.493416 
2638.000000	99.490979 
2637.000000	99.491685 
2636.000000	99.493107 
2635.000000	99.494781 
2634.000000	99.498157 
2633.000000	99.503850 
2632.000000	99.510810 
2631.000000	99.518473 
2630.000000	99.527603 
2629.000000	99.538015 
2628.000000	99.547207 
2627.000000	99.552621 
2626.000000	99.554074 
2625.000000	99.552761 
2624.000000	99.549137 
2623.000000	99.543172 
2622.000000	99.535728 
2621.000000	99.528141 
2620.000000	99.520940 
2619.000000	99.514095 
2618.000000	99.507937 
2617.000000	99.502880 
2616.000000	99.499057 
2615.000000	99.497265 
2614.000000	99.499216 
2613.000000	99.505331 
2612.000000	99.513076 
2611.000000	99.519260 
2610.000000	99.523628 
2609.000000	99.528591 
2608.000000	99.535703 
2607.000000	99.544237 
2606.000000	99.553210 
2605.000000	99.562664 
2604.000000	99.571922 
2603.000000	99.578101 
2602.000000	99.578042 
2601.000000	99.571669 
2600.000000	99.562536 
2599.000000	99.554698 
2598.000000	99.549069 
2597.000000	99.542830 
2596.000000	99.532599 
2595.000000	99.518400 
2594.000000	99.504348 
2593.000000	99.495184 
2592.000000	99.492514 
2591.000000	99.494791 
2590.000000	99.500070 
2589.000000	99.507332 
2588.000000	99.515293 
2587.000000	99.521904 
2586.000000	99.526364 
2585.000000	99.530723 
2584.000000	99.537873 
2583.000000	99.547793 
2582.000000	99.556897 
2581.000000	99.561546 
2580.000000	99.561364 
2579.000000	99.558524 
2578.000000	99.554626 
2577.000000	99.549363 
2576.000000	99.541930 
2575.000000	99.532535 
2574.000000	99.522357 
2573.000000	99.512994 
2572.000000	99.506154 
2571.000000	99.502721 
2570.000000	99.501523 
2569.000000	99.499965 
2568.000000	99.496817 
2567.000000	99.493791 
2566.000000	99.493571 
2565.000000	99.496819 
2564.000000	99.501962 
2563.000000	99.507449 
2562.000000	99.513171 
2561.000000	99.519684 
2560.000000	99.526624 
2559.000000	99.531933 
2558.000000	99.532895 
2557.000000	99.528950 
2556.000000	99.523683 
2555.000000	99.522455 
2554.000000	99.526919 
2553.000000	99.533017 
2552.000000	99.535420 
2551.000000	99.532641 
2550.000000	99.526494 
2549.000000	99.518405 
2548.000000	99.508879 
2547.000000	99.499652 
2546.000000	99.493436 
2545.000000	99.491291 
2544.000000	99.492238 
2543.000000	99.495291 
2542.000000	99.499625 
2541.000000	99.503011 
2540.000000	99.502977 
2539.000000	99.500202 
2538.000000	99.498296 
2537.000000	99.499263 
2536.000000	99.501408 
2535.000000	99.502670 
2534.000000	99.503631 
2533.000000	99.505601 
2532.000000	99.507808 
2531.000000	99.508672 
2530.000000	99.508609 
2529.000000	99.509301 
2528.000000	99.510484 
2527.000000	99.509347 
2526.000000	99.503648 
2525.000000	99.494732 
2524.000000	99.487196 
2523.000000	99.485557 
2522.000000	99.490739 
2521.000000	99.499308 
2520.000000	99.506175 
2519.000000	99.507986 
2518.000000	99.504116 
2517.000000	99.495840 
2516.000000	99.486009 
2515.000000	99.478675 
2514.000000	99.476743 
2513.000000	99.479583 
2512.000000	99.484301 
2511.000000	99.489240 
2510.000000	99.494516 
2509.000000	99.499406 
2508.000000	99.501942 
2507.000000	99.501882 
2506.000000	99.501559 
2505.000000	99.502257 
2504.000000	99.501672 
2503.000000	99.496893 
2502.000000	99.488789 
2501.000000	99.481822 
2500.000000	99.480185 
2499.000000	99.485093 
2498.000000	99.494661 
2497.000000	99.504787 
2496.000000	99.510845 
2495.000000	99.510415 
2494.000000	99.505011 
2493.000000	99.498729 
2492.000000	99.495033 
2491.000000	99.494621 
2490.000000	99.495773 
2489.000000	99.496701 
2488.000000	99.498007 
2487.000000	99.502333 
2486.000000	99.510482 
2485.000000	99.518442 
2484.000000	99.520256 
2483.000000	99.514052 
2482.000000	99.503558 
2481.000000	99.493655 
2480.000000	99.486539 
2479.000000	99.482547 
2478.000000	99.481828 
2477.000000	99.483542 
2476.000000	99.485588 
2475.000000	99.487110 
2474.000000	99.489776 
2473.000000	99.494820 
2472.000000	99.500216 
2471.000000	99.502775 
2470.000000	99.502095 
2469.000000	99.500636 
2468.000000	99.500598 
2467.000000	99.502259 
2466.000000	99.504520 
2465.000000	99.505438 
2464.000000	99.503035 
2463.000000	99.497438 
2462.000000	99.491791 
2461.000000	99.489292 
2460.000000	99.489513 
2459.000000	99.489177 
2458.000000	99.486322 
2457.000000	99.482182 
2456.000000	99.479123 
2455.000000	99.478361 
2454.000000	99.479857 
2453.000000	99.482872 
2452.000000	99.485945 
2451.000000	99.487265 
2450.000000	99.485743 
2449.000000	99.481544 
2448.000000	99.475856 
2447.000000	99.470757 
2446.000000	99.468856 
2445.000000	99.471657 
2444.000000	99.477673 
2443.000000	99.482839 
2442.000000	99.483403 
2441.000000	99.478781 
2440.000000	99.472027 
2439.000000	99.467663 
2438.000000	99.468239 
2437.000000	99.472177 
2436.000000	99.475264 
2435.000000	99.474924 
2434.000000	99.472763 
2433.000000	99.472532 
2432.000000	99.476248 
2431.000000	99.482941 
2430.000000	99.490230 
2429.000000	99.495697 
2428.000000	99.497285 
2427.000000	99.494337 
2426.000000	99.488850 
2425.000000	99.484430 
2424.000000	99.483248 
2423.000000	99.484837 
2422.000000	99.488110 
2421.000000	99.492864 
2420.000000	99.497913 
2419.000000	99.499290 
2418.000000	99.493178 
2417.000000	99.481050 
2416.000000	99.469509 
2415.000000	99.463625 
2414.000000	99.462128 
2413.000000	99.460811 
2412.000000	99.459037 
2411.000000	99.460050 
2410.000000	99.465360 
2409.000000	99.471898 
2408.000000	99.475548 
2407.000000	99.475216 
2406.000000	99.472447 
2405.000000	99.469357 
2404.000000	99.468209 
2403.000000	99.470635 
2402.000000	99.475170 
2401.000000	99.477196 
2400.000000	99.473464 
2399.000000	99.465614 
2398.000000	99.457754 
2397.000000	99.452220 
2396.000000	99.449469 
2395.000000	99.449780 
2394.000000	99.452001 
2393.000000	99.452279 
2392.000000	99.447794 
2391.000000	99.441182 
2390.000000	99.437809 
2389.000000	99.439168 
2388.000000	99.442509 
2387.000000	99.446554 
2386.000000	99.452964 
2385.000000	99.461186 
2384.000000	99.466478 
2383.000000	99.465677 
2382.000000	99.461698 
2381.000000	99.459394 
2380.000000	99.459345 
2379.000000	99.458888 
2378.000000	99.457649 
2377.000000	99.458550 
2376.000000	99.463501 
2375.000000	99.470841 
2374.000000	99.476870 
2373.000000	99.477793 
2372.000000	99.471063 
2371.000000	99.457689 
2370.000000	99.443280 
2369.000000	99.434393 
2368.000000	99.433384 
2367.000000	99.438025 
2366.000000	99.445597 
2365.000000	99.455299 
2364.000000	99.465956 
2363.000000	99.474033 
2362.000000	99.477153 
2361.000000	99.476572 
2360.000000	99.475332 
2359.000000	99.475144 
2358.000000	99.474330 
2357.000000	99.471766 
2356.000000	99.470072 
2355.000000	99.472041 
2354.000000	99.475852 
2353.000000	99.476811 
2352.000000	99.474769 
2351.000000	99.473480 
2350.000000	99.474852 
2349.000000	99.477115 
2348.000000	99.477219 
2347.000000	99.475873 
2346.000000	99.476702 
2345.000000	99.482313 
2344.000000	99.491006 
2343.000000	99.497747 
2342.000000	99.499493 
2341.000000	99.495505 
2340.000000	99.489284 
2339.000000	99.486764 
2338.000000	99.490731 
2337.000000	99.497264 
2336.000000	99.499387 
2335.000000	99.493950 
2334.000000	99.483957 
2333.000000	99.475467 
2332.000000	99.472980 
2331.000000	99.475942 
2330.000000	99.479377 
2329.000000	99.480531 
2328.000000	99.481213 
2327.000000	99.487231 
2326.000000	99.499387 
2325.000000	99.511586 
2324.000000	99.516303 
2323.000000	99.513264 
2322.000000	99.510087 
2321.000000	99.511374 
2320.000000	99.513452 
2319.000000	99.510185 
2318.000000	99.502087 
2317.000000	99.494630 
2316.000000	99.490576 
2315.000000	99.488482 
2314.000000	99.486682 
2313.000000	99.486363 
2312.000000	99.488206 
2311.000000	99.490617 
2310.000000	99.489956 
2309.000000	99.484137 
2308.000000	99.473783 
2307.000000	99.463061 
2306.000000	99.456753 
2305.000000	99.456886 
2304.000000	99.460925 
2303.000000	99.465169 
2302.000000	99.468164 
2301.000000	99.471144 
2300.000000	99.475739 
2299.000000	99.483298 
2298.000000	99.493560 
2297.000000	99.503313 
2296.000000	99.507140 
2295.000000	99.503268 
2294.000000	99.496529 
2293.000000	99.494232 
2292.000000	99.498820 
2291.000000	99.507225 
2290.000000	99.515531 
2289.000000	99.521818 
2288.000000	99.525068 
2287.000000	99.524673 
2286.000000	99.521255 
2285.000000	99.515481 
2284.000000	99.506574 
2283.000000	99.494672 
2282.000000	99.484206 
2281.000000	99.480601 
2280.000000	99.483163 
2279.000000	99.485246 
2278.000000	99.483136 
2277.000000	99.480694 
2276.000000	99.482910 
2275.000000	99.488400 
2274.000000	99.491834 
2273.000000	99.491671 
2272.000000	99.491517 
2271.000000	99.494533 
2270.000000	99.499778 
2269.000000	99.504378 
2268.000000	99.506695 
2267.000000	99.506397 
2266.000000	99.503115 
2265.000000	99.496319 
2264.000000	99.486099 
2263.000000	99.473897 
2262.000000	99.462883 
2261.000000	99.457268 
2260.000000	99.459500 
2259.000000	99.467181 
2258.000000	99.473860 
2257.000000	99.474394 
2256.000000	99.469712 
2255.000000	99.465177 
2254.000000	99.464622 
2253.000000	99.467676 
2252.000000	99.472898 
2251.000000	99.480467 
2250.000000	99.489886 
2249.000000	99.497756 
2248.000000	99.500598 
2247.000000	99.499490 
2246.000000	99.497663 
2245.000000	99.495472 
2244.000000	99.491073 
2243.000000	99.485367 
2242.000000	99.481751 
2241.000000	99.480921 
2240.000000	99.480789 
2239.000000	99.482154 
2238.000000	99.488462 
2237.000000	99.497534 
2236.000000	99.499733 
2235.000000	99.489187 
2234.000000	99.472685 
2233.000000	99.462160 
2232.000000	99.461069 
2231.000000	99.463116 
2230.000000	99.462105 
2229.000000	99.457858 
2228.000000	99.453728 
2227.000000	99.453021 
2226.000000	99.457297 
2225.000000	99.464454 
2224.000000	99.469492 
2223.000000	99.470344 
2222.000000	99.470667 
2221.000000	99.473016 
2220.000000	99.472606 
2219.000000	99.464063 
2218.000000	99.452124 
2217.000000	99.447838 
2216.000000	99.454014 
2215.000000	99.462165 
2214.000000	99.465330 
2213.000000	99.466058 
2212.000000	99.468330 
2211.000000	99.469207 
2210.000000	99.464948 
2209.000000	99.460408 
2208.000000	99.464127 
2207.000000	99.474924 
2206.000000	99.480582 
2205.000000	99.472194 
2204.000000	99.455881 
2203.000000	99.447114 
2202.000000	99.454999 
2201.000000	99.473897 
2200.000000	99.489573 
2199.000000	99.491836 
2198.000000	99.481329 
2197.000000	99.466583 
2196.000000	99.456689 
2195.000000	99.456114 
2194.000000	99.463510 
2193.000000	99.473033 
2192.000000	99.477905 
2191.000000	99.475659 
2190.000000	99.470854 
2189.000000	99.471155 
2188.000000	99.479025 
2187.000000	99.487567 
2186.000000	99.486134 
2185.000000	99.471029 
2184.000000	99.449935 
2183.000000	99.434298 
2182.000000	99.428052 
2181.000000	99.426032 
2180.000000	99.423286 
2179.000000	99.421853 
2178.000000	99.425860 
2177.000000	99.433601 
2176.000000	99.439009 
2175.000000	99.439488 
2174.000000	99.437933 
2173.000000	99.438230 
2172.000000	99.443544 
2171.000000	99.457735 
2170.000000	99.481899 
2169.000000	99.508609 
2168.000000	99.525965 
2167.000000	99.529900 
2166.000000	99.527747 
2165.000000	99.528164 
2164.000000	99.532971 
2163.000000	99.540375 
2162.000000	99.547960 
2161.000000	99.547558 
2160.000000	99.525989 
2159.000000	99.480893 
2158.000000	99.430493 
2157.000000	99.396443 
2156.000000	99.381708 
2155.000000	99.375803 
2154.000000	99.374447 
2153.000000	99.382064 
2152.000000	99.397911 
2151.000000	99.410878 
2150.000000	99.411587 
2149.000000	99.404434 
2148.000000	99.403594 
2147.000000	99.417952 
2146.000000	99.441327 
2145.000000	99.457077 
2144.000000	99.453182 
2143.000000	99.433928 
2142.000000	99.415876 
2141.000000	99.411552 
2140.000000	99.418418 
2139.000000	99.425184 
2138.000000	99.426115 
2137.000000	99.425220 
2136.000000	99.427514 
2135.000000	99.431143 
2134.000000	99.430621 
2133.000000	99.425275 
2132.000000	99.420784 
2131.000000	99.421708 
2130.000000	99.424847 
2129.000000	99.422221 
2128.000000	99.410661 
2127.000000	99.396296 
2126.000000	99.388217 
2125.000000	99.389753 
2124.000000	99.398297 
2123.000000	99.411584 
2122.000000	99.429325 
2121.000000	99.448556 
2120.000000	99.462748 
2119.000000	99.468203 
2118.000000	99.468045 
2117.000000	99.467563 
2116.000000	99.468363 
2115.000000	99.469329 
2114.000000	99.470252 
2113.000000	99.471031 
2112.000000	99.469564 
2111.000000	99.464540 
2110.000000	99.459261 
2109.000000	99.458612 
2108.000000	99.461866 
2107.000000	99.461870 
2106.000000	99.452712 
2105.000000	99.436638 
2104.000000	99.422602 
2103.000000	99.418553 
2102.000000	99.424823 
2101.000000	99.433875 
2100.000000	99.436904 
2099.000000	99.431658 
2098.000000	99.423651 
2097.000000	99.419907 
2096.000000	99.422912 
2095.000000	99.430917 
2094.000000	99.441187 
2093.000000	99.450639 
2092.000000	99.455751 
2091.000000	99.455293 
2090.000000	99.452641 
2089.000000	99.452633 
2088.000000	99.455548 
2087.000000	99.456057 
2086.000000	99.448983 
2085.000000	99.435634 
2084.000000	99.424204 
2083.000000	99.423399 
2082.000000	99.434588 
2081.000000	99.450048 
2080.000000	99.460516 
2079.000000	99.464865 
2078.000000	99.470337 
2077.000000	99.482758 
2076.000000	99.498822 
2075.000000	99.509286 
2074.000000	99.507559 
2073.000000	99.494203 
2072.000000	99.475749 
2071.000000	99.460604 
2070.000000	99.453783 
2069.000000	99.453071 
2068.000000	99.451116 
2067.000000	99.442876 
2066.000000	99.430368 
2065.000000	99.420255 
2064.000000	99.418513 
2063.000000	99.427058 
2062.000000	99.441652 
2061.000000	99.452189 
2060.000000	99.450487 
2059.000000	99.440662 
2058.000000	99.437122 
2057.000000	99.448742 
2056.000000	99.468957 
2055.000000	99.485277 
2054.000000	99.494318 
2053.000000	99.502191 
2052.000000	99.513152 
2051.000000	99.523734 
2050.000000	99.527069 
2049.000000	99.519008 
2048.000000	99.501539 
2047.000000	99.484055 
2046.000000	99.479477 
2045.000000	99.492910 
2044.000000	99.513177 
2043.000000	99.521161 
2042.000000	99.508662 
2041.000000	99.485867 
2040.000000	99.468974 
2039.000000	99.464367 
2038.000000	99.467279 
2037.000000	99.471055 
2036.000000	99.472831 
2035.000000	99.471158 
2034.000000	99.463039 
2033.000000	99.447530 
2032.000000	99.432176 
2031.000000	99.431090 
2030.000000	99.451932 
2029.000000	99.484867 
2028.000000	99.508556 
2027.000000	99.508497 
2026.000000	99.486475 
2025.000000	99.454160 
2024.000000	99.423845 
2023.000000	99.405829 
2022.000000	99.406413 
2021.000000	99.421992 
2020.000000	99.438945 
2019.000000	99.445322 
2018.000000	99.440829 
2017.000000	99.432883 
2016.000000	99.426622 
2015.000000	99.423142 
2014.000000	99.423424 
2013.000000	99.427380 
2012.000000	99.431356 
2011.000000	99.432074 
2010.000000	99.431910 
2009.000000	99.436127 
2008.000000	99.445850 
2007.000000	99.457351 
2006.000000	99.466769 
2005.000000	99.472309 
2004.000000	99.473785 
2003.000000	99.472832 
2002.000000	99.471468 
2001.000000	99.468189 
2000.000000	99.458503 
1999.000000	99.441709 
1998.000000	99.423627 
1997.000000	99.410298 
1996.000000	99.403110 
1995.000000	99.402211 
1994.000000	99.409400 
1993.000000	99.423475 
1992.000000	99.436807 
1991.000000	99.442252 
1990.000000	99.440747 
1989.000000	99.437474 
1988.000000	99.435516 
1987.000000	99.437816 
1986.000000	99.449722 
1985.000000	99.472712 
1984.000000	99.498456 
1983.000000	99.515331 
1982.000000	99.518985 
1981.000000	99.512103 
1980.000000	99.497582 
1979.000000	99.478186 
1978.000000	99.459634 
1977.000000	99.445588 
1976.000000	99.431218 
1975.000000	99.410382 
1974.000000	99.388412 
1973.000000	99.379174 
1972.000000	99.388661 
1971.000000	99.408434 
1970.000000	99.426478 
1969.000000	99.438731 
1968.000000	99.448354 
1967.000000	99.458488 
1966.000000	99.469159 
1965.000000	99.478580 
1964.000000	99.484128 
1963.000000	99.482890 
1962.000000	99.473802 
1961.000000	99.460112 
1960.000000	99.448528 
1959.000000	99.444331 
1958.000000	99.446879 
1957.000000	99.450193 
1956.000000	99.448432 
1955.000000	99.440168 
1954.000000	99.426892 
1953.000000	99.409709 
1952.000000	99.390320 
1951.000000	99.374174 
1950.000000	99.368229 
1949.000000	99.373675 
1948.000000	99.383783 
1947.000000	99.391273 
1946.000000	99.394626 
1945.000000	99.395037 
1944.000000	99.391420 
1943.000000	99.382935 
1942.000000	99.374164 
1941.000000	99.371546 
1940.000000	99.375530 
1939.000000	99.381048 
1938.000000	99.384180 
1937.000000	99.385786 
1936.000000	99.389270 
1935.000000	99.395792 
1934.000000	99.402030 
1933.000000	99.403010 
1932.000000	99.397498 
1931.000000	99.390491 
1930.000000	99.389203 
1929.000000	99.395503 
1928.000000	99.403758 
1927.000000	99.407366 
1926.000000	99.404454 
1925.000000	99.395937 
1924.000000	99.383138 
1923.000000	99.370418 
1922.000000	99.366207 
1921.000000	99.374978 
1920.000000	99.391017 
1919.000000	99.404114 
1918.000000	99.409260 
1917.000000	99.408774 
1916.000000	99.406209 
1915.000000	99.403691 
1914.000000	99.403921 
1913.000000	99.408557 
1912.000000	99.414727 
1911.000000	99.417231 
1910.000000	99.414601 
1909.000000	99.409604 
1908.000000	99.404767 
1907.000000	99.401765 
1906.000000	99.403165 
1905.000000	99.408833 
1904.000000	99.411912 
1903.000000	99.404105 
1902.000000	99.385764 
1901.000000	99.366134 
1900.000000	99.354184 
1899.000000	99.352971 
1898.000000	99.361348 
1897.000000	99.375612 
1896.000000	99.389457 
1895.000000	99.397705 
1894.000000	99.401470 
1893.000000	99.404992 
1892.000000	99.407969 
1891.000000	99.405982 
1890.000000	99.398234 
1889.000000	99.390450 
1888.000000	99.387617 
1887.000000	99.389208 
1886.000000	99.392883 
1885.000000	99.397109 
1884.000000	99.399523 
1883.000000	99.397287 
1882.000000	99.390858 
1881.000000	99.384516 
1880.000000	99.382213 
1879.000000	99.384054 
1878.000000	99.386534 
1877.000000	99.385316 
1876.000000	99.379509 
1875.000000	99.374586 
1874.000000	99.378879 
1873.000000	99.394325 
1872.000000	99.412084 
1871.000000	99.420159 
1870.000000	99.414534 
1869.000000	99.401561 
1868.000000	99.388522 
1867.000000	99.377015 
1866.000000	99.367877 
1865.000000	99.363494 
1864.000000	99.364765 
1863.000000	99.370368 
1862.000000	99.378735 
1861.000000	99.387919 
1860.000000	99.394156 
1859.000000	99.394892 
1858.000000	99.393252 
1857.000000	99.394919 
1856.000000	99.401298 
1855.000000	99.409846 
1854.000000	99.418558 
1853.000000	99.425721 
1852.000000	99.427484 
1851.000000	99.420780 
1850.000000	99.408812 
1849.000000	99.399104 
1848.000000	99.395688 
1847.000000	99.396324 
1846.000000	99.397582 
1845.000000	99.397565 
1844.000000	99.394236 
1843.000000	99.387194 
1842.000000	99.380531 
1841.000000	99.378923 
1840.000000	99.383572 
1839.000000	99.392382 
1838.000000	99.402334 
1837.000000	99.410810 
1836.000000	99.415572 
1835.000000	99.416112 
1834.000000	99.414932 
1833.000000	99.415404 
1832.000000	99.418555 
1831.000000	99.422014 
1830.000000	99.423168 
1829.000000	99.422890 
1828.000000	99.423499 
1827.000000	99.423827 
1826.000000	99.421112 
1825.000000	99.416396 
1824.000000	99.413562 
1823.000000	99.413362 
1822.000000	99.412796 
1821.000000	99.408754 
1820.000000	99.400069 
1819.000000	99.387844 
1818.000000	99.376305 
1817.000000	99.371347 
1816.000000	99.374538 
1815.000000	99.381117 
1814.000000	99.386534 
1813.000000	99.391828 
1812.000000	99.400800 
1811.000000	99.413295 
1810.000000	99.426296 
1809.000000	99.439222 
1808.000000	99.450600 
1807.000000	99.454752 
1806.000000	99.448366 
1805.000000	99.436428 
1804.000000	99.426834 
1803.000000	99.421288 
1802.000000	99.416191 
1801.000000	99.411080 
1800.000000	99.408392 
1799.000000	99.407434 
1798.000000	99.405851 
1797.000000	99.403803 
1796.000000	99.403201 
1795.000000	99.405477 
1794.000000	99.410594 
1793.000000	99.416623 
1792.000000	99.420630 
1791.000000	99.420780 
1790.000000	99.418906 
1789.000000	99.419384 
1788.000000	99.424656 
1787.000000	99.432922 
1786.000000	99.439924 
1785.000000	99.442474 
1784.000000	99.439921 
1783.000000	99.434787 
1782.000000	99.431548 
1781.000000	99.432390 
1780.000000	99.433397 
1779.000000	99.428937 
1778.000000	99.419669 
1777.000000	99.411641 
1776.000000	99.409131 
1775.000000	99.412422 
1774.000000	99.419865 
1773.000000	99.428374 
1772.000000	99.433845 
1771.000000	99.435078 
1770.000000	99.434519 
1769.000000	99.434027 
1768.000000	99.434509 
1767.000000	99.435698 
1766.000000	99.437102 
1765.000000	99.439740 
1764.000000	99.444557 
1763.000000	99.450361 
1762.000000	99.454151 
1761.000000	99.455059 
1760.000000	99.455235 
1759.000000	99.455959 
1758.000000	99.456420 
1757.000000	99.455694 
1756.000000	99.454233 
1755.000000	99.453068 
1754.000000	99.451382 
1753.000000	99.447184 
1752.000000	99.441413 
1751.000000	99.440071 
1750.000000	99.446411 
1749.000000	99.455208 
1748.000000	99.461055 
1747.000000	99.463454 
1746.000000	99.463911 
1745.000000	99.463406 
1744.000000	99.463759 
1743.000000	99.466951 
1742.000000	99.471703 
1741.000000	99.474871 
1740.000000	99.475121 
1739.000000	99.473895 
1738.000000	99.472907 
1737.000000	99.472222 
1736.000000	99.470555 
1735.000000	99.465885 
1734.000000	99.458448 
1733.000000	99.453122 
1732.000000	99.452662 
1731.000000	99.455432 
1730.000000	99.459195 
1729.000000	99.461298 
1728.000000	99.460297 
1727.000000	99.457004 
1726.000000	99.452807 
1725.000000	99.448532 
1724.000000	99.445797 
1723.000000	99.447526 
1722.000000	99.455012 
1721.000000	99.467011 
1720.000000	99.480736 
1719.000000	99.491932 
1718.000000	99.495183 
1717.000000	99.491930 
1716.000000	99.487610 
1715.000000	99.481751 
1714.000000	99.474794 
1713.000000	99.470332 
1712.000000	99.468898 
1711.000000	99.468126 
1710.000000	99.466790 
1709.000000	99.466034 
1708.000000	99.466600 
1707.000000	99.467341 
1706.000000	99.469242 
1705.000000	99.475528 
1704.000000	99.483166 
1703.000000	99.481121 
1702.000000	99.462665 
1701.000000	99.437877 
1700.000000	99.430332 
1699.000000	99.441841 
1698.000000	99.456068 
1697.000000	99.467837 
1696.000000	99.478900 
1695.000000	99.487296 
1694.000000	99.491067 
1693.000000	99.490786 
1692.000000	99.486806 
1691.000000	99.480304 
1690.000000	99.474617 
1689.000000	99.473061 
1688.000000	99.474370 
1687.000000	99.473627 
1686.000000	99.469061 
1685.000000	99.464128 
1684.000000	99.461904 
1683.000000	99.461739 
1682.000000	99.463434 
1681.000000	99.464134 
1680.000000	99.463514 
1679.000000	99.462759 
1678.000000	99.462564 
1677.000000	99.462808 
1676.000000	99.463962 
1675.000000	99.468382 
1674.000000	99.475944 
1673.000000	99.482810 
1672.000000	99.486062 
1671.000000	99.487182 
1670.000000	99.489244 
1669.000000	99.492306 
1668.000000	99.494812 
1667.000000	99.496543 
1666.000000	99.496026 
1665.000000	99.491624 
1664.000000	99.484401 
1663.000000	99.479036 
1662.000000	99.480376 
1661.000000	99.487478 
1660.000000	99.494190 
1659.000000	99.498065 
1658.000000	99.501678 
1657.000000	99.506093 
1656.000000	99.506932 
1655.000000	99.501901 
1654.000000	99.497108 
1653.000000	99.496966 
1652.000000	99.498620 
1651.000000	99.503106 
1650.000000	99.502531 
1649.000000	99.495954 
1648.000000	99.486276 
1647.000000	99.476967 
1646.000000	99.471042 
1645.000000	99.471736 
1644.000000	99.477450 
1643.000000	99.483671 
1642.000000	99.487780 
1641.000000	99.489708 
1640.000000	99.489877 
1639.000000	99.488724 
1638.000000	99.487190 
1637.000000	99.486318 
1636.000000	99.484583 
1635.000000	99.481646 
1634.000000	99.483432 
1633.000000	99.490053 
1632.000000	99.496497 
1631.000000	99.500045 
1630.000000	99.500792 
1629.000000	99.500135 
1628.000000	99.499514 
1627.000000	99.500507 
1626.000000	99.504008 
1625.000000	99.509200 
1624.000000	99.514040 
1623.000000	99.517446 
1622.000000	99.520576 
1621.000000	99.523753 
1620.000000	99.524744 
1619.000000	99.522949 
1618.000000	99.521004 
1617.000000	99.520294 
1616.000000	99.518158 
1615.000000	99.514424 
1614.000000	99.510574 
1613.000000	99.506264 
1612.000000	99.501682 
1611.000000	99.498125 
1610.000000	99.496964 
1609.000000	99.497680 
1608.000000	99.498441 
1607.000000	99.498726 
1606.000000	99.498665 
1605.000000	99.497492 
1604.000000	99.494937 
1603.000000	99.493533 
1602.000000	99.495748 
1601.000000	99.499800 
1600.000000	99.502332 
1599.000000	99.503527 
1598.000000	99.505776 
1597.000000	99.509214 
1596.000000	99.511888 
1595.000000	99.513499 
1594.000000	99.515578 
1593.000000	99.517510 
1592.000000	99.516782 
1591.000000	99.513826 
1590.000000	99.512603 
1589.000000	99.515022 
1588.000000	99.518851 
1587.000000	99.522077 
1586.000000	99.524822 
1585.000000	99.526471 
1584.000000	99.524967 
1583.000000	99.520311 
1582.000000	99.516465 
1581.000000	99.516305 
1580.000000	99.518732 
1579.000000	99.522301 
1578.000000	99.527832 
1577.000000	99.533590 
1576.000000	99.533043 
1575.000000	99.527337 
1574.000000	99.524578 
1573.000000	99.524141 
1572.000000	99.521597 
1571.000000	99.517149 
1570.000000	99.515549 
1569.000000	99.518311 
1568.000000	99.521763 
1567.000000	99.523231 
1566.000000	99.523077 
1565.000000	99.523457 
1564.000000	99.526335 
1563.000000	99.532012 
1562.000000	99.539236 
1561.000000	99.544246 
1560.000000	99.543461 
1559.000000	99.534833 
1558.000000	99.524582 
1557.000000	99.525381 
1556.000000	99.531171 
1555.000000	99.534069 
1554.000000	99.532699 
1553.000000	99.528935 
1552.000000	99.524783 
1551.000000	99.521608 
1550.000000	99.521004 
1549.000000	99.522891 
1548.000000	99.524868 
1547.000000	99.524286 
1546.000000	99.520423 
1545.000000	99.515402 
1544.000000	99.511766 
1543.000000	99.509879 
1542.000000	99.511462 
1541.000000	99.519293 
1540.000000	99.524753 
1539.000000	99.519771 
1538.000000	99.515547 
1537.000000	99.516752 
1536.000000	99.519166 
1535.000000	99.520226 
1534.000000	99.521503 
1533.000000	99.524334 
1532.000000	99.525724 
1531.000000	99.522171 
1530.000000	99.515687 
1529.000000	99.511588 
1528.000000	99.511306 
1527.000000	99.511616 
1526.000000	99.510546 
1525.000000	99.510461 
1524.000000	99.512643 
1523.000000	99.515429 
1522.000000	99.518258 
1521.000000	99.522128 
1520.000000	99.524171 
1519.000000	99.520259 
1518.000000	99.511687 
1517.000000	99.504523 
1516.000000	99.502447 
1515.000000	99.503404 
1514.000000	99.503962 
1513.000000	99.503267 
1512.000000	99.502621 
1511.000000	99.502564 
1510.000000	99.501498 
1509.000000	99.499258 
1508.000000	99.500886 
1507.000000	99.508638 
1506.000000	99.511321 
1505.000000	99.508392 
1504.000000	99.505831 
1503.000000	99.503813 
1502.000000	99.503369 
1501.000000	99.506597 
1500.000000	99.514613 
1499.000000	99.525486 
1498.000000	99.533845 
1497.000000	99.537154 
1496.000000	99.537841 
1495.000000	99.535779 
1494.000000	99.528186 
1493.000000	99.515547 
1492.000000	99.501389 
1491.000000	99.490268 
1490.000000	99.485169 
1489.000000	99.485812 
1488.000000	99.487425 
1487.000000	99.485375 
1486.000000	99.482220 
1485.000000	99.482328 
1484.000000	99.485344 
1483.000000	99.488054 
1482.000000	99.487708 
1481.000000	99.484370 
1480.000000	99.480063 
1479.000000	99.476228 
1478.000000	99.473952 
1477.000000	99.474504 
1476.000000	99.477395 
1475.000000	99.477775 
1474.000000	99.473618 
1473.000000	99.471245 
1472.000000	99.476307 
1471.000000	99.483649 
1470.000000	99.487624 
1469.000000	99.489978 
1468.000000	99.494287 
1467.000000	99.499886 
1466.000000	99.503549 
1465.000000	99.504138 
1464.000000	99.502830 
1463.000000	99.501094 
1462.000000	99.499828 
1461.000000	99.500964 
1460.000000	99.505938 
1459.000000	99.512501 
1458.000000	99.512038 
1457.000000	99.498273 
1456.000000	99.480993 
1455.000000	99.470557 
1454.000000	99.465775 
1453.000000	99.464475 
1452.000000	99.465355 
1451.000000	99.466872 
1450.000000	99.468403 
1449.000000	99.471521 
1448.000000	99.477135 
1447.000000	99.482099 
1446.000000	99.483491 
1445.000000	99.482906 
1444.000000	99.482710 
1443.000000	99.482818 
1442.000000	99.481833 
1441.000000	99.479926 
1440.000000	99.479482 
1439.000000	99.482231 
1438.000000	99.485345 
1437.000000	99.484344 
1436.000000	99.480044 
1435.000000	99.475679 
1434.000000	99.471911 
1433.000000	99.469387 
1432.000000	99.468917 
1431.000000	99.471133 
1430.000000	99.474701 
1429.000000	99.477209 
1428.000000	99.478118 
1427.000000	99.477642 
1426.000000	99.475019 
1425.000000	99.468962 
1424.000000	99.461772 
1423.000000	99.458538 
1422.000000	99.458930 
1421.000000	99.457746 
1420.000000	99.451218 
1419.000000	99.440445 
1418.000000	99.425954 
1417.000000	99.407858 
1416.000000	99.390686 
1415.000000	99.377935 
1414.000000	99.367364 
1413.000000	99.354057 
1412.000000	99.338248 
1411.000000	99.325747 
1410.000000	99.318815 
1409.000000	99.314520 
1408.000000	99.311331 
1407.000000	99.309907 
1406.000000	99.309980 
1405.000000	99.311367 
1404.000000	99.317100 
1403.000000	99.328767 
1402.000000	99.341286 
1401.000000	99.349046 
1400.000000	99.352115 
1399.000000	99.354518 
1398.000000	99.354112 
1397.000000	99.341800 
1396.000000	99.314355 
1395.000000	99.283804 
1394.000000	99.269439 
1393.000000	99.278315 
1392.000000	99.303655 
1391.000000	99.334365 
1390.000000	99.360725 
1389.000000	99.376655 
1388.000000	99.381110 
1387.000000	99.377700 
1386.000000	99.370591 
1385.000000	99.362580 
1384.000000	99.356039 
1383.000000	99.352818 
1382.000000	99.353085 
1381.000000	99.356483 
1380.000000	99.362578 
1379.000000	99.370334 
1378.000000	99.377877 
1377.000000	99.383427 
1376.000000	99.387280 
1375.000000	99.392211 
1374.000000	99.400592 
1373.000000	99.410610 
1372.000000	99.418726 
1371.000000	99.425094 
1370.000000	99.433419 
1369.000000	99.444636 
1368.000000	99.456527 
1367.000000	99.467464 
1366.000000	99.477302 
1365.000000	99.485437 
1364.000000	99.489615 
1363.000000	99.489140 
1362.000000	99.487812 
1361.000000	99.489599 
1360.000000	99.494032 
1359.000000	99.498925 
1358.000000	99.504115 
1357.000000	99.510290 
1356.000000	99.516726 
1355.000000	99.522036 
1354.000000	99.526256 
1353.000000	99.530112 
1352.000000	99.531924 
1351.000000	99.528817 
1350.000000	99.522734 
1349.000000	99.518238 
1348.000000	99.517846 
1347.000000	99.520724 
1346.000000	99.525441 
1345.000000	99.531061 
1344.000000	99.536538 
1343.000000	99.540899 
1342.000000	99.543991 
1341.000000	99.545382 
1340.000000	99.543764 
1339.000000	99.539234 
1338.000000	99.534395 
1337.000000	99.531873 
1336.000000	99.531943 
1335.000000	99.533159 
1334.000000	99.534757 
1333.000000	99.537052 
1332.000000	99.539604 
1331.000000	99.541010 
1330.000000	99.540695 
1329.000000	99.539119 
1328.000000	99.536826 
1327.000000	99.534348 
1326.000000	99.532717 
1325.000000	99.531878 
1324.000000	99.531578 
1323.000000	99.532563 
1322.000000	99.535413 
1321.000000	99.538581 
1320.000000	99.539599 
1319.000000	99.538285 
1318.000000	99.537030 
1317.000000	99.537657 
1316.000000	99.539121 
1315.000000	99.539011 
1314.000000	99.536296 
1313.000000	99.532496 
1312.000000	99.530331 
1311.000000	99.531395 
1310.000000	99.535031 
1309.000000	99.539093 
1308.000000	99.541606 
1307.000000	99.541499 
1306.000000	99.538841 
1305.000000	99.534397 
1304.000000	99.530517 
1303.000000	99.530175 
1302.000000	99.534158 
1301.000000	99.539491 
1300.000000	99.541864 
1299.000000	99.539401 
1298.000000	99.533769 
1297.000000	99.528342 
1296.000000	99.525741 
1295.000000	99.527018 
1294.000000	99.531609 
1293.000000	99.537746 
1292.000000	99.543123 
1291.000000	99.545539 
1290.000000	99.543860 
1289.000000	99.539133 
1288.000000	99.534164 
1287.000000	99.530895 
1286.000000	99.528303 
1285.000000	99.524252 
1284.000000	99.519164 
1283.000000	99.515774 
1282.000000	99.515144 
1281.000000	99.515110 
1280.000000	99.513340 
1279.000000	99.510081 
1278.000000	99.506466 
1277.000000	99.502154 
1276.000000	99.496184 
1275.000000	99.489302 
1274.000000	99.483452 
1273.000000	99.479613 
1272.000000	99.477386 
1271.000000	99.475780 
1270.000000	99.473157 
1269.000000	99.467712 
1268.000000	99.459721 
1267.000000	99.452044 
1266.000000	99.446506 
1265.000000	99.441397 
1264.000000	99.434316 
1263.000000	99.425712 
1262.000000	99.417574 
1261.000000	99.410325 
1260.000000	99.403441 
1259.000000	99.397847 
1258.000000	99.394384 
1257.000000	99.391427 
1256.000000	99.386923 
1255.000000	99.382107 
1254.000000	99.380103 
1253.000000	99.381170 
1252.000000	99.382212 
1251.000000	99.381353 
1250.000000	99.380282 
1249.000000	99.381713 
1248.000000	99.386896 
1247.000000	99.395475 
1246.000000	99.404518 
1245.000000	99.407755 
1244.000000	99.399830 
1243.000000	99.383552 
1242.000000	99.370430 
1241.000000	99.371038 
1240.000000	99.385276 
1239.000000	99.403047 
1238.000000	99.413493 
1237.000000	99.412790 
1236.000000	99.404347 
1235.000000	99.393818 
1234.000000	99.384426 
1233.000000	99.376134 
1232.000000	99.368284 
1231.000000	99.361756 
1230.000000	99.357786 
1229.000000	99.355684 
1228.000000	99.353560 
1227.000000	99.351329 
1226.000000	99.351313 
1225.000000	99.355001 
1224.000000	99.360346 
1223.000000	99.363388 
1222.000000	99.362204 
1221.000000	99.358636 
1220.000000	99.356389 
1219.000000	99.357819 
1218.000000	99.362053 
1217.000000	99.365978 
1216.000000	99.367147 
1215.000000	99.365714 
1214.000000	99.363587 
1213.000000	99.362221 
1212.000000	99.361588 
1211.000000	99.360457 
1210.000000	99.357190 
1209.000000	99.351006 
1208.000000	99.343194 
1207.000000	99.336470 
1206.000000	99.332301 
1205.000000	99.329474 
1204.000000	99.325977 
1203.000000	99.321340 
1202.000000	99.315973 
1201.000000	99.309262 
1200.000000	99.300335 
1199.000000	99.290394 
1198.000000	99.282129 
1197.000000	99.276657 
1196.000000	99.272559 
1195.000000	99.267922 
1194.000000	99.261871 
1193.000000	99.253905 
1192.000000	99.243587 
1191.000000	99.231717 
1190.000000	99.220593 
1189.000000	99.212367 
1188.000000	99.207680 
1187.000000	99.205816 
1186.000000	99.205095 
1185.000000	99.203129 
1184.000000	99.197820 
1183.000000	99.188640 
1182.000000	99.176675 
1181.000000	99.163712 
1180.000000	99.151910 
1179.000000	99.143453 
1178.000000	99.138602 
1177.000000	99.134247 
1176.000000	99.126420 
1175.000000	99.114705 
1174.000000	99.102671 
1173.000000	99.093364 
1172.000000	99.086171 
1171.000000	99.078804 
1170.000000	99.070500 
1169.000000	99.062021 
1168.000000	99.053733 
1167.000000	99.045103 
1166.000000	99.035704 
1165.000000	99.026136 
1164.000000	99.018402 
1163.000000	99.015280 
1162.000000	99.018134 
1161.000000	99.024918 
1160.000000	99.031454 
1159.000000	99.035226 
1158.000000	99.036806 
1157.000000	99.037159 
1156.000000	99.035151 
1155.000000	99.028857 
1154.000000	99.018095 
1153.000000	99.004378 
1152.000000	98.989321 
1151.000000	98.974452 
1150.000000	98.961737 
1149.000000	98.952480 
1148.000000	98.945553 
1147.000000	98.937752 
1146.000000	98.926343 
1145.000000	98.911217 
1144.000000	98.894905 
1143.000000	98.880963 
1142.000000	98.871666 
1141.000000	98.866283 
1140.000000	98.861503 
1139.000000	98.853923 
1138.000000	98.842501 
1137.000000	98.828941 
1136.000000	98.816031 
1135.000000	98.805457 
1134.000000	98.796652 
1133.000000	98.787589 
1132.000000	98.776808 
1131.000000	98.764469 
1130.000000	98.751261 
1129.000000	98.736970 
1128.000000	98.721054 
1127.000000	98.704273 
1126.000000	98.688664 
1125.000000	98.675683 
1124.000000	98.665000 
1123.000000	98.654994 
1122.000000	98.643715 
1121.000000	98.629714 
1120.000000	98.613045 
1119.000000	98.595456 
1118.000000	98.578535 
1117.000000	98.561645 
1116.000000	98.542760 
1115.000000	98.521457 
1114.000000	98.499833 
1113.000000	98.480017 
1112.000000	98.461957 
1111.000000	98.444400 
1110.000000	98.426967 
1109.000000	98.410116 
1108.000000	98.393786 
1107.000000	98.376902 
1106.000000	98.358716 
1105.000000	98.339915 
1104.000000	98.321663 
1103.000000	98.304035 
1102.000000	98.286602 
1101.000000	98.270476 
1100.000000	98.259039 
1099.000000	98.252900 
1098.000000	98.248043 
1097.000000	98.239340 
1096.000000	98.226352 
1095.000000	98.212959 
1094.000000	98.201015 
1093.000000	98.187194 
1092.000000	98.167429 
1091.000000	98.141876 
1090.000000	98.113265 
1089.000000	98.082132 
1088.000000	98.046803 
1087.000000	98.007787 
1086.000000	97.969459 
1085.000000	97.936456 
1084.000000	97.909572 
1083.000000	97.885583 
1082.000000	97.860453 
1081.000000	97.832688 
1080.000000	97.804029 
1079.000000	97.777161 
1078.000000	97.753364 
1077.000000	97.733120 
1076.000000	97.718059 
1075.000000	97.710114 
1074.000000	97.708705 
1073.000000	97.710519 
1072.000000	97.711210 
1071.000000	97.704415 
1070.000000	97.680558 
1069.000000	97.633293 
1068.000000	97.570657 
1067.000000	97.515624 
1066.000000	97.489555 
1065.000000	97.494683 
1064.000000	97.514893 
1063.000000	97.530726 
1062.000000	97.530216 
1061.000000	97.509254 
1060.000000	97.470215 
1059.000000	97.423522 
1058.000000	97.385007 
1057.000000	97.365260 
1056.000000	97.360702 
1055.000000	97.356803 
1054.000000	97.340742 
1053.000000	97.311283 
1052.000000	97.277276 
1051.000000	97.247694 
1050.000000	97.224004 
1049.000000	97.202441 
1048.000000	97.181601 
1047.000000	97.164523 
1046.000000	97.153378 
1045.000000	97.145585 
1044.000000	97.137003 
1043.000000	97.127107 
1042.000000	97.118739 
1041.000000	97.113186 
1040.000000	97.107938 
1039.000000	97.100529 
1038.000000	97.093395 
1037.000000	97.093052 
1036.000000	97.103966 
1035.000000	97.124179 
1034.000000	97.147461 
1033.000000	97.168267 
1032.000000	97.182729 
1031.000000	97.186574 
1030.000000	97.177311 
1029.000000	97.160781 
1028.000000	97.151672 
1027.000000	97.162620 
1026.000000	97.192589 
1025.000000	97.228567 
1024.000000	97.257956 
1023.000000	97.276378 
1022.000000	97.285095 
1021.000000	97.286199 
1020.000000	97.282394 
1019.000000	97.278013 
1018.000000	97.276760 
1017.000000	97.278841 
1016.000000	97.281913 
1015.000000	97.284481 
1014.000000	97.287528 
1013.000000	97.293037 
1012.000000	97.301243 
1011.000000	97.309411 
1010.000000	97.314234 
1009.000000	97.316195 
1008.000000	97.320278 
1007.000000	97.330861 
1006.000000	97.347068 
1005.000000	97.364987 
1004.000000	97.382925 
1003.000000	97.401498 
1002.000000	97.419703 
1001.000000	97.434908 
1000.000000	97.447042 
999.000000	 97.459158 
998.000000	 97.472760 
997.000000	 97.485681 
996.000000	 97.496199 
995.000000	 97.506752 
994.000000	 97.521597 
993.000000	 97.542116 
992.000000	 97.565493 
991.000000	 97.586711 
990.000000	 97.601538 
989.000000	 97.609569 
988.000000	 97.615078 
987.000000	 97.623281 
986.000000	 97.635582 
985.000000	 97.650480 
984.000000	 97.668585 
983.000000	 97.692840 
982.000000	 97.722738 
981.000000	 97.752395 
980.000000	 97.776933 
979.000000	 97.797951 
978.000000	 97.820290 
977.000000	 97.845917 
976.000000	 97.873729 
975.000000	 97.902955 
974.000000	 97.933356 
973.000000	 97.963494 
972.000000	 97.991993 
971.000000	 98.019686 
970.000000	 98.047964 
969.000000	 98.076089 
968.000000	 98.102905 
967.000000	 98.129913 
966.000000	 98.159125 
965.000000	 98.188400 
964.000000	 98.212800 
963.000000	 98.231127 
962.000000	 98.247658 
961.000000	 98.266218 
960.000000	 98.285579 
959.000000	 98.302273 
958.000000	 98.315341 
957.000000	 98.326545 
956.000000	 98.338193 
955.000000	 98.352745 
954.000000	 98.372345 
953.000000	 98.396011 
952.000000	 98.418455 
951.000000	 98.434252 
950.000000	 98.443051 
949.000000	 98.449010 
948.000000	 98.455797 
947.000000	 98.464221 
946.000000	 98.474233 
945.000000	 98.486491 
944.000000	 98.500896 
943.000000	 98.515097 
942.000000	 98.525856 
941.000000	 98.531728 
940.000000	 98.533897 
939.000000	 98.534602 
938.000000	 98.534978 
937.000000	 98.534440 
936.000000	 98.532286 
935.000000	 98.529658 
934.000000	 98.529037 
933.000000	 98.531521 
932.000000	 98.535699 
931.000000	 98.540081 
930.000000	 98.545767 
929.000000	 98.555336 
928.000000	 98.569106 
927.000000	 98.583597 
926.000000	 98.594076 
925.000000	 98.598225 
924.000000	 98.597228 
923.000000	 98.593873 
922.000000	 98.589965 
921.000000	 98.585479 
920.000000	 98.580108 
919.000000	 98.575167 
918.000000	 98.572933 
917.000000	 98.573790 
916.000000	 98.575093 
915.000000	 98.573952 
914.000000	 98.570813 
913.000000	 98.569348 
912.000000	 98.572775 
911.000000	 98.580841 
910.000000	 98.590297 
909.000000	 98.597730 
908.000000	 98.601800 
907.000000	 98.603303 
906.000000	 98.603863 
905.000000	 98.605304 
904.000000	 98.610591 
903.000000	 98.624015 
902.000000	 98.647882 
901.000000	 98.678146 
900.000000	 98.705591 
899.000000	 98.723578 
898.000000	 98.733889 
897.000000	 98.742757 
896.000000	 98.752144 
895.000000	 98.758631 
894.000000	 98.761391 
893.000000	 98.766894 
892.000000	 98.782218 
891.000000	 98.805735 
890.000000	 98.828405 
889.000000	 98.844407 
888.000000	 98.856879 
887.000000	 98.871661 
886.000000	 98.888293 
885.000000	 98.900380 
884.000000	 98.904193 
883.000000	 98.903683 
882.000000	 98.905606 
881.000000	 98.911800 
880.000000	 98.919102 
879.000000	 98.926338 
878.000000	 98.937592 
877.000000	 98.955982 
876.000000	 98.976201 
875.000000	 98.987159 
874.000000	 98.983236 
873.000000	 98.970973 
872.000000	 98.963357 
871.000000	 98.968481 
870.000000	 98.983842 
869.000000	 99.000043 
868.000000	 99.009220 
867.000000	 99.011187 
866.000000	 99.012825 
865.000000	 99.021201 
864.000000	 99.036989 
863.000000	 99.055141 
862.000000	 99.071362 
861.000000	 99.085666 
860.000000	 99.099180 
859.000000	 99.110850 
858.000000	 99.119996 
857.000000	 99.129682 
856.000000	 99.143284 
855.000000	 99.158128 
854.000000	 99.166701 
853.000000	 99.165487 
852.000000	 99.159487 
851.000000	 99.156163 
850.000000	 99.157337 
849.000000	 99.159485 
848.000000	 99.160194 
847.000000	 99.161076 
846.000000	 99.164570 
845.000000	 99.170950 
844.000000	 99.179420 
843.000000	 99.189571 
842.000000	 99.199668 
841.000000	 99.205094 
840.000000	 99.201751 
839.000000	 99.191475 
838.000000	 99.181400 
837.000000	 99.176050 
836.000000	 99.172231 
835.000000	 99.164772 
834.000000	 99.155956 
833.000000	 99.154171 
832.000000	 99.161362 
831.000000	 99.166682 
830.000000	 99.158320 
829.000000	 99.140246 
828.000000	 99.130200 
827.000000	 99.138679 
826.000000	 99.155651 
825.000000	 99.163324 
824.000000	 99.157832 
823.000000	 99.150825 
822.000000	 99.151763 
821.000000	 99.157406 
820.000000	 99.159624 
819.000000	 99.155958 
818.000000	 99.149776 
817.000000	 99.144643 
816.000000	 99.141416 
815.000000	 99.138459 
814.000000	 99.132081 
813.000000	 99.118204 
812.000000	 99.095987 
811.000000	 99.069365 
810.000000	 99.043289 
809.000000	 99.018598 
808.000000	 98.991852 
807.000000	 98.959398 
806.000000	 98.920078 
805.000000	 98.874522 
804.000000	 98.824383 
803.000000	 98.773561 
802.000000	 98.728555 
801.000000	 98.695695 
800.000000	 98.677140 
799.000000	 98.669509 
798.000000	 98.666936 
797.000000	 98.666233 
796.000000	 98.668839 
795.000000	 98.677546 
794.000000	 98.692779 
793.000000	 98.712972 
792.000000	 98.736080 
791.000000	 98.757498 
790.000000	 98.768249 
789.000000	 98.760633 
788.000000	 98.737439 
787.000000	 98.712201 
786.000000	 98.697788 
785.000000	 98.695976 
784.000000	 98.699295 
783.000000	 98.700153 
782.000000	 98.695854 
781.000000	 98.687481 
780.000000	 98.677512 
779.000000	 98.668262 
778.000000	 98.660824 
777.000000	 98.656362 
776.000000	 98.659078 
775.000000	 98.674803 
774.000000	 98.703734 
773.000000	 98.736807 
772.000000	 98.762735 
771.000000	 98.777476 
770.000000	 98.784138 
769.000000	 98.785692 
768.000000	 98.782677 
767.000000	 98.777814 
766.000000	 98.777147 
765.000000	 98.783720 
764.000000	 98.793166 
763.000000	 98.798036 
762.000000	 98.795074 
761.000000	 98.786986 
760.000000	 98.779154 
759.000000	 98.776401 
758.000000	 98.780950 
757.000000	 98.791152 
756.000000	 98.802830 
755.000000	 98.813313 
754.000000	 98.823470 
753.000000	 98.834924 
752.000000	 98.847012 
751.000000	 98.857775 
750.000000	 98.866290 
749.000000	 98.871801 
748.000000	 98.872170 
747.000000	 98.866844 
746.000000	 98.861089 
745.000000	 98.862874 
744.000000	 98.873344 
743.000000	 98.883653 
742.000000	 98.884784 
741.000000	 98.878698 
740.000000	 98.875659 
739.000000	 98.881411 
738.000000	 98.891561 
737.000000	 98.899311 
736.000000	 98.903973 
735.000000	 98.909337 
734.000000	 98.917741 
733.000000	 98.929331 
732.000000	 98.943859 
731.000000	 98.958041 
730.000000	 98.963676 
729.000000	 98.955049 
728.000000	 98.937803 
727.000000	 98.924894 
726.000000	 98.923005 
725.000000	 98.927737 
724.000000	 98.933089 
723.000000	 98.939618 
722.000000	 98.949978 
721.000000	 98.961268 
720.000000	 98.966566 
719.000000	 98.962381 
718.000000	 98.951187 
717.000000	 98.937985 
716.000000	 98.927604 
715.000000	 98.923363 
714.000000	 98.924451 
713.000000	 98.925765 
712.000000	 98.923470 
711.000000	 98.919785 
710.000000	 98.919437 
709.000000	 98.922381 
708.000000	 98.923094 
707.000000	 98.917197 
706.000000	 98.906607 
705.000000	 98.897245 
704.000000	 98.892350 
703.000000	 98.889032 
702.000000	 98.880691 
701.000000	 98.863042 
700.000000	 98.837596 
699.000000	 98.808733 
698.000000	 98.779249 
697.000000	 98.749721 
696.000000	 98.720949 
695.000000	 98.695324 
694.000000	 98.676871 
693.000000	 98.672983 
692.000000	 98.692065 
691.000000	 98.731401 
690.000000	 98.770604 
689.000000	 98.786944 
688.000000	 98.780100 
687.000000	 98.773175 
686.000000	 98.783859 
685.000000	 98.805361 
684.000000	 98.820108 
683.000000	 98.820292 
682.000000	 98.810300 
681.000000	 98.799678 
680.000000	 98.799889 
679.000000	 98.817599 
678.000000	 98.842553 
677.000000	 98.852535 
676.000000	 98.839804 
675.000000	 98.820602 
674.000000	 98.813172 
673.000000	 98.815817 
672.000000	 98.813848 
671.000000	 98.799802 
670.000000	 98.775628 
669.000000	 98.746109 
668.000000	 98.721234 
667.000000	 98.709860 
666.000000	 98.716604 
665.000000	 98.740000 
664.000000	 98.762333 
663.000000	 98.769148 
662.000000	 98.765481 
661.000000	 98.769546 
660.000000	 98.789867 
659.000000	 98.814489 
658.000000	 98.821750 
657.000000	 98.799885 
656.000000	 98.756854 
655.000000	 98.712155 
654.000000	 98.679884 
653.000000	 98.655074 
652.000000	 98.621367 
651.000000	 98.577237 
650.000000	 98.545774 

