4000.000000	99.911775 
3999.000000	99.911667 
3998.000000	99.911513 
3997.000000	99.911378 
3996.000000	99.911263 
3995.000000	99.911143 
3994.000000	99.911006 
3993.000000	99.910864 
3992.000000	99.910702 
3991.000000	99.910477 
3990.000000	99.910171 
3989.000000	99.909844 
3988.000000	99.909606 
3987.000000	99.909533 
3986.000000	99.909588 
3985.000000	99.909640 
3984.000000	99.909552 
3983.000000	99.909285 
3982.000000	99.908897 
3981.000000	99.908487 
3980.000000	99.908106 
3979.000000	99.907759 
3978.000000	99.907485 
3977.000000	99.907402 
3976.000000	99.907615 
3975.000000	99.908057 
3974.000000	99.908434 
3973.000000	99.908434 
3972.000000	99.907990 
3971.000000	99.907308 
3970.000000	99.906711 
3969.000000	99.906393 
3968.000000	99.906365 
3967.000000	99.906547 
3966.000000	99.906858 
3965.000000	99.907211 
3964.000000	99.907446 
3963.000000	99.907333 
3962.000000	99.906679 
3961.000000	99.905469 
3960.000000	99.903954 
3959.000000	99.902573 
3958.000000	99.901698 
3957.000000	99.901407 
3956.000000	99.901462 
3955.000000	99.901552 
3954.000000	99.901622 
3953.000000	99.901908 
3952.000000	99.902582 
3951.000000	99.903439 
3950.000000	99.904010 
3949.000000	99.903990 
3948.000000	99.903525 
3947.000000	99.903023 
3946.000000	99.902726 
3945.000000	99.902501 
3944.000000	99.902067 
3943.000000	99.901383 
3942.000000	99.900735 
3941.000000	99.900438 
3940.000000	99.900526 
3939.000000	99.900781 
3938.000000	99.900988 
3937.000000	99.901095 
3936.000000	99.901134 
3935.000000	99.901091 
3934.000000	99.900913 
3933.000000	99.900660 
3932.000000	99.900588 
3931.000000	99.900976 
3930.000000	99.901820 
3929.000000	99.902709 
3928.000000	99.903039 
3927.000000	99.902384 
3926.000000	99.900795 
3925.000000	99.898844 
3924.000000	99.897160 
3923.000000	99.895908 
3922.000000	99.894814 
3921.000000	99.893750 
3920.000000	99.893051 
3919.000000	99.893072 
3918.000000	99.893775 
3917.000000	99.894940 
3916.000000	99.896441 
3915.000000	99.898057 
3914.000000	99.899196 
3913.000000	99.899253 
3912.000000	99.898211 
3911.000000	99.896726 
3910.000000	99.895558 
3909.000000	99.894972 
3908.000000	99.894667 
3907.000000	99.894209 
3906.000000	99.893482 
3905.000000	99.892899 
3904.000000	99.893083 
3903.000000	99.894234 
3902.000000	99.895845 
3901.000000	99.897120 
3900.000000	99.897725 
3899.000000	99.897951 
3898.000000	99.898183 
3897.000000	99.898411 
3896.000000	99.898403 
3895.000000	99.898113 
3894.000000	99.897709 
3893.000000	99.897319 
3892.000000	99.896977 
3891.000000	99.896760 
3890.000000	99.896771 
3889.000000	99.896983 
3888.000000	99.897211 
3887.000000	99.897411 
3886.000000	99.897631 
3885.000000	99.897696 
3884.000000	99.897271 
3883.000000	99.896236 
3882.000000	99.895031 
3881.000000	99.894534 
3880.000000	99.895106 
3879.000000	99.896212 
3878.000000	99.897088 
3877.000000	99.897473 
3876.000000	99.897649 
3875.000000	99.897965 
3874.000000	99.898446 
3873.000000	99.898904 
3872.000000	99.899204 
3871.000000	99.899380 
3870.000000	99.899577 
3869.000000	99.899868 
3868.000000	99.900164 
3867.000000	99.900316 
3866.000000	99.900339 
3865.000000	99.900424 
3864.000000	99.900662 
3863.000000	99.900937 
3862.000000	99.901111 
3861.000000	99.901185 
3860.000000	99.901246 
3859.000000	99.901342 
3858.000000	99.901444 
3857.000000	99.901516 
3856.000000	99.901555 
3855.000000	99.901584 
3854.000000	99.901620 
3853.000000	99.901663 
3852.000000	99.901713 
3851.000000	99.901766 
3850.000000	99.901819 
3849.000000	99.901883 
3848.000000	99.901961 
3847.000000	99.902045 
3846.000000	99.902126 
3845.000000	99.902211 
3844.000000	99.902302 
3843.000000	99.902392 
3842.000000	99.902464 
3841.000000	99.902505 
3840.000000	99.902516 
3839.000000	99.902507 
3838.000000	99.902485 
3837.000000	99.902457 
3836.000000	99.902420 
3835.000000	99.902361 
3834.000000	99.902267 
3833.000000	99.902147 
3832.000000	99.902036 
3831.000000	99.901968 
3830.000000	99.901947 
3829.000000	99.901952 
3828.000000	99.901969 
3827.000000	99.901999 
3826.000000	99.902053 
3825.000000	99.902122 
3824.000000	99.902167 
3823.000000	99.902133 
3822.000000	99.901994 
3821.000000	99.901798 
3820.000000	99.901649 
3819.000000	99.901609 
3818.000000	99.901647 
3817.000000	99.901724 
3816.000000	99.901836 
3815.000000	99.901961 
3814.000000	99.902049 
3813.000000	99.902059 
3812.000000	99.902029 
3811.000000	99.902105 
3810.000000	99.902353 
3809.000000	99.902618 
3808.000000	99.902680 
3807.000000	99.902531 
3806.000000	99.902429 
3805.000000	99.902531 
3804.000000	99.902637 
3803.000000	99.902450 
3802.000000	99.901948 
3801.000000	99.901444 
3800.000000	99.901237 
3799.000000	99.901222 
3798.000000	99.901047 
3797.000000	99.900771 
3796.000000	99.900801 
3795.000000	99.901291 
3794.000000	99.901959 
3793.000000	99.902411 
3792.000000	99.902527 
3791.000000	99.902445 
3790.000000	99.902290 
3789.000000	99.902037 
3788.000000	99.901635 
3787.000000	99.901129 
3786.000000	99.900662 
3785.000000	99.900402 
3784.000000	99.900452 
3783.000000	99.900775 
3782.000000	99.901197 
3781.000000	99.901535 
3780.000000	99.901713 
3779.000000	99.901716 
3778.000000	99.901499 
3777.000000	99.901016 
3776.000000	99.900384 
3775.000000	99.899966 
3774.000000	99.900132 
3773.000000	99.900920 
3772.000000	99.901942 
3771.000000	99.902686 
3770.000000	99.902926 
3769.000000	99.902776 
3768.000000	99.902367 
3767.000000	99.901673 
3766.000000	99.900776 
3765.000000	99.899992 
3764.000000	99.899592 
3763.000000	99.899526 
3762.000000	99.899502 
3761.000000	99.899300 
3760.000000	99.898929 
3759.000000	99.898527 
3758.000000	99.898213 
3757.000000	99.898023 
3756.000000	99.897917 
3755.000000	99.897783 
3754.000000	99.897510 
3753.000000	99.897142 
3752.000000	99.896866 
3751.000000	99.896768 
3750.000000	99.896694 
3749.000000	99.896435 
3748.000000	99.895955 
3747.000000	99.895334 
3746.000000	99.894717 
3745.000000	99.894308 
3744.000000	99.894196 
3743.000000	99.894288 
3742.000000	99.894363 
3741.000000	99.894280 
3740.000000	99.894217 
3739.000000	99.894336 
3738.000000	99.894450 
3737.000000	99.894295 
3736.000000	99.893877 
3735.000000	99.893435 
3734.000000	99.893160 
3733.000000	99.893004 
3732.000000	99.892838 
3731.000000	99.892604 
3730.000000	99.892314 
3729.000000	99.892005 
3728.000000	99.891733 
3727.000000	99.891540 
3726.000000	99.891404 
3725.000000	99.891262 
3724.000000	99.891061 
3723.000000	99.890819 
3722.000000	99.890641 
3721.000000	99.890607 
3720.000000	99.890664 
3719.000000	99.890700 
3718.000000	99.890699 
3717.000000	99.890734 
3716.000000	99.890797 
3715.000000	99.890724 
3714.000000	99.890350 
3713.000000	99.889744 
3712.000000	99.889202 
3711.000000	99.888887 
3710.000000	99.888647 
3709.000000	99.888286 
3708.000000	99.887879 
3707.000000	99.887689 
3706.000000	99.887857 
3705.000000	99.888255 
3704.000000	99.888646 
3703.000000	99.888950 
3702.000000	99.889272 
3701.000000	99.889644 
3700.000000	99.889837 
3699.000000	99.889509 
3698.000000	99.888574 
3697.000000	99.887463 
3696.000000	99.886869 
3695.000000	99.887141 
3694.000000	99.888028 
3693.000000	99.889019 
3692.000000	99.889779 
3691.000000	99.890029 
3690.000000	99.889448 
3689.000000	99.888135 
3688.000000	99.886957 
3687.000000	99.886813 
3686.000000	99.887723 
3685.000000	99.889059 
3684.000000	99.890304 
3683.000000	99.891126 
3682.000000	99.891094 
3681.000000	99.890001 
3680.000000	99.888334 
3679.000000	99.886916 
3678.000000	99.885830 
3677.000000	99.884113 
3676.000000	99.881151 
3675.000000	99.878115 
3674.000000	99.876723 
3673.000000	99.876805 
3672.000000	99.876944 
3671.000000	99.876701 
3670.000000	99.876500 
3669.000000	99.876650 
3668.000000	99.877114 
3667.000000	99.877536 
3666.000000	99.877950 
3665.000000	99.878692 
3664.000000	99.879344 
3663.000000	99.878913 
3662.000000	99.876914 
3661.000000	99.873939 
3660.000000	99.871251 
3659.000000	99.869795 
3658.000000	99.869502 
3657.000000	99.869433 
3656.000000	99.868674 
3655.000000	99.867144 
3654.000000	99.865188 
3653.000000	99.863009 
3652.000000	99.861235 
3651.000000	99.860652 
3650.000000	99.860692 
3649.000000	99.859386 
3648.000000	99.855694 
3647.000000	99.850971 
3646.000000	99.847654 
3645.000000	99.846927 
3644.000000	99.847962 
3643.000000	99.849047 
3642.000000	99.849014 
3641.000000	99.847782 
3640.000000	99.845846 
3639.000000	99.843509 
3638.000000	99.840674 
3637.000000	99.837180 
3636.000000	99.833101 
3635.000000	99.828956 
3634.000000	99.825562 
3633.000000	99.823424 
3632.000000	99.822351 
3631.000000	99.821874 
3630.000000	99.821795 
3629.000000	99.821582 
3628.000000	99.820234 
3627.000000	99.817298 
3626.000000	99.812952 
3625.000000	99.808601 
3624.000000	99.806577 
3623.000000	99.807743 
3622.000000	99.811094 
3621.000000	99.815114 
3620.000000	99.818510 
3619.000000	99.820292 
3618.000000	99.820145 
3617.000000	99.818721 
3616.000000	99.817134 
3615.000000	99.816252 
3614.000000	99.816384 
3613.000000	99.817497 
3612.000000	99.819647 
3611.000000	99.822831 
3610.000000	99.826521 
3609.000000	99.829667 
3608.000000	99.831447 
3607.000000	99.832011 
3606.000000	99.832127 
3605.000000	99.832191 
3604.000000	99.831949 
3603.000000	99.830921 
3602.000000	99.829141 
3601.000000	99.827641 
3600.000000	99.827832 
3599.000000	99.830280 
3598.000000	99.834178 
3597.000000	99.838205 
3596.000000	99.841523 
3595.000000	99.843748 
3594.000000	99.844457 
3593.000000	99.843246 
3592.000000	99.840247 
3591.000000	99.836307 
3590.000000	99.832531 
3589.000000	99.829560 
3588.000000	99.827513 
3587.000000	99.826548 
3586.000000	99.826994 
3585.000000	99.828744 
3584.000000	99.831124 
3583.000000	99.833508 
3582.000000	99.835717 
3581.000000	99.837836 
3580.000000	99.839800 
3579.000000	99.841223 
3578.000000	99.841663 
3577.000000	99.840972 
3576.000000	99.839353 
3575.000000	99.837209 
3574.000000	99.835046 
3573.000000	99.833403 
3572.000000	99.832667 
3571.000000	99.832866 
3570.000000	99.833627 
3569.000000	99.834314 
3568.000000	99.834307 
3567.000000	99.833424 
3566.000000	99.832198 
3565.000000	99.831620 
3564.000000	99.832522 
3563.000000	99.835067 
3562.000000	99.838453 
3561.000000	99.841166 
3560.000000	99.842068 
3559.000000	99.841253 
3558.000000	99.839856 
3557.000000	99.838990 
3556.000000	99.838918 
3555.000000	99.839221 
3554.000000	99.839445 
3553.000000	99.839425 
3552.000000	99.839102 
3551.000000	99.838285 
3550.000000	99.836768 
3549.000000	99.834703 
3548.000000	99.832757 
3547.000000	99.831757 
3546.000000	99.831987 
3545.000000	99.832880 
3544.000000	99.833554 
3543.000000	99.833705 
3542.000000	99.833852 
3541.000000	99.834746 
3540.000000	99.836590 
3539.000000	99.838756 
3538.000000	99.840187 
3537.000000	99.840117 
3536.000000	99.838536 
3535.000000	99.836136 
3534.000000	99.833807 
3533.000000	99.832049 
3532.000000	99.830724 
3531.000000	99.829331 
3530.000000	99.827615 
3529.000000	99.825928 
3528.000000	99.824914 
3527.000000	99.824859 
3526.000000	99.825493 
3525.000000	99.826345 
3524.000000	99.827120 
3523.000000	99.827754 
3522.000000	99.828369 
3521.000000	99.829341 
3520.000000	99.831159 
3519.000000	99.833887 
3518.000000	99.836714 
3517.000000	99.838359 
3516.000000	99.838154 
3515.000000	99.836653 
3514.000000	99.835122 
3513.000000	99.834318 
3512.000000	99.833880 
3511.000000	99.833002 
3510.000000	99.831482 
3509.000000	99.829919 
3508.000000	99.828889 
3507.000000	99.828255 
3506.000000	99.827496 
3505.000000	99.826538 
3504.000000	99.825996 
3503.000000	99.826529 
3502.000000	99.828145 
3501.000000	99.830215 
3500.000000	99.831926 
3499.000000	99.832633 
3498.000000	99.832004 
3497.000000	99.830183 
3496.000000	99.827864 
3495.000000	99.825917 
3494.000000	99.824807 
3493.000000	99.824439 
3492.000000	99.824511 
3491.000000	99.824827 
3490.000000	99.825280 
3489.000000	99.825699 
3488.000000	99.825893 
3487.000000	99.825857 
3486.000000	99.825779 
3485.000000	99.825805 
3484.000000	99.825845 
3483.000000	99.825639 
3482.000000	99.825011 
3481.000000	99.824038 
3480.000000	99.822981 
3479.000000	99.822086 
3478.000000	99.821545 
3477.000000	99.821542 
3476.000000	99.822186 
3475.000000	99.823265 
3474.000000	99.824141 
3473.000000	99.824178 
3472.000000	99.823276 
3471.000000	99.821931 
3470.000000	99.820795 
3469.000000	99.820119 
3468.000000	99.819753 
3467.000000	99.819501 
3466.000000	99.819280 
3465.000000	99.818997 
3464.000000	99.818503 
3463.000000	99.817752 
3462.000000	99.816896 
3461.000000	99.816114 
3460.000000	99.815449 
3459.000000	99.814883 
3458.000000	99.814484 
3457.000000	99.814332 
3456.000000	99.814328 
3455.000000	99.814227 
3454.000000	99.813879 
3453.000000	99.813334 
3452.000000	99.812691 
3451.000000	99.812014 
3450.000000	99.811478 
3449.000000	99.811380 
3448.000000	99.811798 
3447.000000	99.812254 
3446.000000	99.812041 
3445.000000	99.811026 
3444.000000	99.809925 
3443.000000	99.809607 
3442.000000	99.810241 
3441.000000	99.811255 
3440.000000	99.811987 
3439.000000	99.812225 
3438.000000	99.812100 
3437.000000	99.811757 
3436.000000	99.811300 
3435.000000	99.810882 
3434.000000	99.810698 
3433.000000	99.810899 
3432.000000	99.811501 
3431.000000	99.812264 
3430.000000	99.812707 
3429.000000	99.812531 
3428.000000	99.812049 
3427.000000	99.811982 
3426.000000	99.812680 
3425.000000	99.813688 
3424.000000	99.814224 
3423.000000	99.813995 
3422.000000	99.813382 
3421.000000	99.812934 
3420.000000	99.812853 
3419.000000	99.813003 
3418.000000	99.813227 
3417.000000	99.813505 
3416.000000	99.813822 
3415.000000	99.813949 
3414.000000	99.813475 
3413.000000	99.812141 
3412.000000	99.810132 
3411.000000	99.808010 
3410.000000	99.806306 
3409.000000	99.805242 
3408.000000	99.804783 
3407.000000	99.804787 
3406.000000	99.805024 
3405.000000	99.805217 
3404.000000	99.805241 
3403.000000	99.805320 
3402.000000	99.805870 
3401.000000	99.807088 
3400.000000	99.808651 
3399.000000	99.809811 
3398.000000	99.809866 
3397.000000	99.808616 
3396.000000	99.806499 
3395.000000	99.804391 
3394.000000	99.803079 
3393.000000	99.802862 
3392.000000	99.803521 
3391.000000	99.804507 
3390.000000	99.805245 
3389.000000	99.805410 
3388.000000	99.805026 
3387.000000	99.804394 
3386.000000	99.803921 
3385.000000	99.803955 
3384.000000	99.804639 
3383.000000	99.805783 
3382.000000	99.806875 
3381.000000	99.807409 
3380.000000	99.807309 
3379.000000	99.806959 
3378.000000	99.806754 
3377.000000	99.806697 
3376.000000	99.806576 
3375.000000	99.806405 
3374.000000	99.806435 
3373.000000	99.806753 
3372.000000	99.807107 
3371.000000	99.807261 
3370.000000	99.807367 
3369.000000	99.807803 
3368.000000	99.808647 
3367.000000	99.809481 
3366.000000	99.809777 
3365.000000	99.809380 
3364.000000	99.808570 
3363.000000	99.807735 
3362.000000	99.807039 
3361.000000	99.806364 
3360.000000	99.805584 
3359.000000	99.804855 
3358.000000	99.804570 
3357.000000	99.804939 
3356.000000	99.805672 
3355.000000	99.806189 
3354.000000	99.806229 
3353.000000	99.806119 
3352.000000	99.806320 
3351.000000	99.806866 
3350.000000	99.807361 
3349.000000	99.807488 
3348.000000	99.807318 
3347.000000	99.807066 
3346.000000	99.806741 
3345.000000	99.806203 
3344.000000	99.805539 
3343.000000	99.805181 
3342.000000	99.805538 
3341.000000	99.806592 
3340.000000	99.807882 
3339.000000	99.808865 
3338.000000	99.809238 
3337.000000	99.808994 
3336.000000	99.808376 
3335.000000	99.807780 
3334.000000	99.807599 
3333.000000	99.808011 
3332.000000	99.808898 
3331.000000	99.809952 
3330.000000	99.810873 
3329.000000	99.811507 
3328.000000	99.811827 
3327.000000	99.811812 
3326.000000	99.811401 
3325.000000	99.810573 
3324.000000	99.809432 
3323.000000	99.808229 
3322.000000	99.807285 
3321.000000	99.806904 
3320.000000	99.807329 
3319.000000	99.808591 
3318.000000	99.810294 
3317.000000	99.811714 
3316.000000	99.812361 
3315.000000	99.812466 
3314.000000	99.812736 
3313.000000	99.813541 
3312.000000	99.814477 
3311.000000	99.814916 
3310.000000	99.814855 
3309.000000	99.814956 
3308.000000	99.815748 
3307.000000	99.816984 
3306.000000	99.817917 
3305.000000	99.818038 
3304.000000	99.817400 
3303.000000	99.816431 
3302.000000	99.815614 
3301.000000	99.815173 
3300.000000	99.814802 
3299.000000	99.813769 
3298.000000	99.811630 
3297.000000	99.808951 
3296.000000	99.807068 
3295.000000	99.806879 
3294.000000	99.808122 
3293.000000	99.809870 
3292.000000	99.811562 
3291.000000	99.813329 
3290.000000	99.815400 
3289.000000	99.817495 
3288.000000	99.818878 
3287.000000	99.818952 
3286.000000	99.817879 
3285.000000	99.816698 
3284.000000	99.816590 
3283.000000	99.817771 
3282.000000	99.819226 
3281.000000	99.819726 
3280.000000	99.818971 
3279.000000	99.817538 
3278.000000	99.816026 
3277.000000	99.814661 
3276.000000	99.813674 
3275.000000	99.813409 
3274.000000	99.813800 
3273.000000	99.814164 
3272.000000	99.813907 
3271.000000	99.813221 
3270.000000	99.812761 
3269.000000	99.812841 
3268.000000	99.813269 
3267.000000	99.813824 
3266.000000	99.814477 
3265.000000	99.815114 
3264.000000	99.815434 
3263.000000	99.815312 
3262.000000	99.815092 
3261.000000	99.815302 
3260.000000	99.816105 
3259.000000	99.817148 
3258.000000	99.817941 
3257.000000	99.818274 
3256.000000	99.818275 
3255.000000	99.818162 
3254.000000	99.818070 
3253.000000	99.818077 
3252.000000	99.818251 
3251.000000	99.818595 
3250.000000	99.819029 
3249.000000	99.819533 
3248.000000	99.820210 
3247.000000	99.821074 
3246.000000	99.821802 
3245.000000	99.821899 
3244.000000	99.821163 
3243.000000	99.819857 
3242.000000	99.818410 
3241.000000	99.817113 
3240.000000	99.816128 
3239.000000	99.815615 
3238.000000	99.815749 
3237.000000	99.816558 
3236.000000	99.817786 
3235.000000	99.818924 
3234.000000	99.819462 
3233.000000	99.819239 
3232.000000	99.818557 
3231.000000	99.817930 
3230.000000	99.817683 
3229.000000	99.817853 
3228.000000	99.818396 
3227.000000	99.819279 
3226.000000	99.820343 
3225.000000	99.821272 
3224.000000	99.821817 
3223.000000	99.821962 
3222.000000	99.821837 
3221.000000	99.821556 
3220.000000	99.821241 
3219.000000	99.821095 
3218.000000	99.821271 
3217.000000	99.821700 
3216.000000	99.822146 
3215.000000	99.822441 
3214.000000	99.822619 
3213.000000	99.822809 
3212.000000	99.823062 
3211.000000	99.823312 
3210.000000	99.823465 
3209.000000	99.823495 
3208.000000	99.823463 
3207.000000	99.823472 
3206.000000	99.823602 
3205.000000	99.823855 
3204.000000	99.824174 
3203.000000	99.824490 
3202.000000	99.824768 
3201.000000	99.825010 
3200.000000	99.825238 
3199.000000	99.825476 
3198.000000	99.825733 
3197.000000	99.826003 
3196.000000	99.826261 
3195.000000	99.826483 
3194.000000	99.826657 
3193.000000	99.826794 
3192.000000	99.826923 
3191.000000	99.827066 
3190.000000	99.827226 
3189.000000	99.827383 
3188.000000	99.827526 
3187.000000	99.827653 
3186.000000	99.827767 
3185.000000	99.827870 
3184.000000	99.827980 
3183.000000	99.828118 
3182.000000	99.828269 
3181.000000	99.828367 
3180.000000	99.828372 
3179.000000	99.828305 
3178.000000	99.828237 
3177.000000	99.828221 
3176.000000	99.828278 
3175.000000	99.828413 
3174.000000	99.828596 
3173.000000	99.828737 
3172.000000	99.828754 
3171.000000	99.828661 
3170.000000	99.828562 
3169.000000	99.828507 
3168.000000	99.828427 
3167.000000	99.828248 
3166.000000	99.827996 
3165.000000	99.827780 
3164.000000	99.827674 
3163.000000	99.827661 
3162.000000	99.827657 
3161.000000	99.827589 
3160.000000	99.827452 
3159.000000	99.827299 
3158.000000	99.827177 
3157.000000	99.827084 
3156.000000	99.826989 
3155.000000	99.826864 
3154.000000	99.826674 
3153.000000	99.826381 
3152.000000	99.826013 
3151.000000	99.825710 
3150.000000	99.825594 
3149.000000	99.825624 
3148.000000	99.825628 
3147.000000	99.825524 
3146.000000	99.825403 
3145.000000	99.825403 
3144.000000	99.825570 
3143.000000	99.825826 
3142.000000	99.826016 
3141.000000	99.826020 
3140.000000	99.825851 
3139.000000	99.825660 
3138.000000	99.825622 
3137.000000	99.825778 
3136.000000	99.826019 
3135.000000	99.826217 
3134.000000	99.826341 
3133.000000	99.826417 
3132.000000	99.826450 
3131.000000	99.826439 
3130.000000	99.826425 
3129.000000	99.826488 
3128.000000	99.826683 
3127.000000	99.826999 
3126.000000	99.827386 
3125.000000	99.827788 
3124.000000	99.828170 
3123.000000	99.828495 
3122.000000	99.828724 
3121.000000	99.828843 
3120.000000	99.828901 
3119.000000	99.828978 
3118.000000	99.829124 
3117.000000	99.829323 
3116.000000	99.829542 
3115.000000	99.829779 
3114.000000	99.830060 
3113.000000	99.830397 
3112.000000	99.830778 
3111.000000	99.831187 
3110.000000	99.831613 
3109.000000	99.832033 
3108.000000	99.832404 
3107.000000	99.832690 
3106.000000	99.832896 
3105.000000	99.833092 
3104.000000	99.833381 
3103.000000	99.833808 
3102.000000	99.834326 
3101.000000	99.834805 
3100.000000	99.835173 
3099.000000	99.835479 
3098.000000	99.835802 
3097.000000	99.836111 
3096.000000	99.836309 
3095.000000	99.836415 
3094.000000	99.836580 
3093.000000	99.836903 
3092.000000	99.837299 
3091.000000	99.837579 
3090.000000	99.837646 
3089.000000	99.837551 
3088.000000	99.837427 
3087.000000	99.837369 
3086.000000	99.837377 
3085.000000	99.837395 
3084.000000	99.837403 
3083.000000	99.837501 
3082.000000	99.837801 
3081.000000	99.838250 
3080.000000	99.838620 
3079.000000	99.838749 
3078.000000	99.838730 
3077.000000	99.838790 
3076.000000	99.839027 
3075.000000	99.839328 
3074.000000	99.839506 
3073.000000	99.839460 
3072.000000	99.839261 
3071.000000	99.839144 
3070.000000	99.839354 
3069.000000	99.839886 
3068.000000	99.840405 
3067.000000	99.840587 
3066.000000	99.840488 
3065.000000	99.840442 
3064.000000	99.840567 
3063.000000	99.840555 
3062.000000	99.840026 
3061.000000	99.838960 
3060.000000	99.837781 
3059.000000	99.837050 
3058.000000	99.837055 
3057.000000	99.837647 
3056.000000	99.838388 
3055.000000	99.838918 
3054.000000	99.839144 
3053.000000	99.839164 
3052.000000	99.839149 
3051.000000	99.839288 
3050.000000	99.839649 
3049.000000	99.840026 
3048.000000	99.840130 
3047.000000	99.840002 
3046.000000	99.840053 
3045.000000	99.840579 
3044.000000	99.841394 
3043.000000	99.842111 
3042.000000	99.842672 
3041.000000	99.843371 
3040.000000	99.844407 
3039.000000	99.845583 
3038.000000	99.846482 
3037.000000	99.846863 
3036.000000	99.846875 
3035.000000	99.846916 
3034.000000	99.847306 
3033.000000	99.848081 
3032.000000	99.849094 
3031.000000	99.850282 
3030.000000	99.851726 
3029.000000	99.853415 
3028.000000	99.855054 
3027.000000	99.856235 
3026.000000	99.856840 
3025.000000	99.857207 
3024.000000	99.857898 
3023.000000	99.859199 
3022.000000	99.860845 
3021.000000	99.862202 
3020.000000	99.862844 
3019.000000	99.862931 
3018.000000	99.863080 
3017.000000	99.863773 
3016.000000	99.864988 
3015.000000	99.866443 
3014.000000	99.868032 
3013.000000	99.869877 
3012.000000	99.871938 
3011.000000	99.873816 
3010.000000	99.875072 
3009.000000	99.875684 
3008.000000	99.876102 
3007.000000	99.876845 
3006.000000	99.878034 
3005.000000	99.879396 
3004.000000	99.880682 
3003.000000	99.881982 
3002.000000	99.883555 
3001.000000	99.885400 
3000.000000	99.887124 
2999.000000	99.888269 
2998.000000	99.888685 
2997.000000	99.888577 
2996.000000	99.888348 
2995.000000	99.888429 
2994.000000	99.889114 
2993.000000	99.890431 
2992.000000	99.892090 
2991.000000	99.893642 
2990.000000	99.894731 
2989.000000	99.895237 
2988.000000	99.895253 
2987.000000	99.895023 
2986.000000	99.894861 
2985.000000	99.894991 
2984.000000	99.895397 
2983.000000	99.895817 
2982.000000	99.895967 
2981.000000	99.895842 
2980.000000	99.895804 
2979.000000	99.896258 
2978.000000	99.897216 
2977.000000	99.898199 
2976.000000	99.898697 
2975.000000	99.898666 
2974.000000	99.898472 
2973.000000	99.898452 
2972.000000	99.898612 
2971.000000	99.898772 
2970.000000	99.898826 
2969.000000	99.898815 
2968.000000	99.898818 
2967.000000	99.898870 
2966.000000	99.898954 
2965.000000	99.899048 
2964.000000	99.899139 
2963.000000	99.899203 
2962.000000	99.899212 
2961.000000	99.899159 
2960.000000	99.899085 
2959.000000	99.899051 
2958.000000	99.899069 
2957.000000	99.899104 
2956.000000	99.899128 
2955.000000	99.899140 
2954.000000	99.899145 
2953.000000	99.899143 
2952.000000	99.899134 
2951.000000	99.899118 
2950.000000	99.899102 
2949.000000	99.899093 
2948.000000	99.899097 
2947.000000	99.899119 
2946.000000	99.899155 
2945.000000	99.899198 
2944.000000	99.899243 
2943.000000	99.899289 
2942.000000	99.899336 
2941.000000	99.899391 
2940.000000	99.899453 
2939.000000	99.899522 
2938.000000	99.899598 
2937.000000	99.899676 
2936.000000	99.899740 
2935.000000	99.899777 
2934.000000	99.899793 
2933.000000	99.899818 
2932.000000	99.899881 
2931.000000	99.899969 
2930.000000	99.900036 
2929.000000	99.900060 
2928.000000	99.900078 
2927.000000	99.900128 
2926.000000	99.900195 
2925.000000	99.900237 
2924.000000	99.900260 
2923.000000	99.900304 
2922.000000	99.900331 
2921.000000	99.900226 
2920.000000	99.899923 
2919.000000	99.899533 
2918.000000	99.899278 
2917.000000	99.899286 
2916.000000	99.899487 
2915.000000	99.899682 
2914.000000	99.899723 
2913.000000	99.899623 
2912.000000	99.899507 
2911.000000	99.899479 
2910.000000	99.899541 
2909.000000	99.899670 
2908.000000	99.899911 
2907.000000	99.900315 
2906.000000	99.900759 
2905.000000	99.900945 
2904.000000	99.900687 
2903.000000	99.900112 
2902.000000	99.899549 
2901.000000	99.899217 
2900.000000	99.899075 
2899.000000	99.898932 
2898.000000	99.898612 
2897.000000	99.898071 
2896.000000	99.897442 
2895.000000	99.896953 
2894.000000	99.896729 
2893.000000	99.896667 
2892.000000	99.896529 
2891.000000	99.896180 
2890.000000	99.895681 
2889.000000	99.895199 
2888.000000	99.894848 
2887.000000	99.894631 
2886.000000	99.894459 
2885.000000	99.894202 
2884.000000	99.893759 
2883.000000	99.893103 
2882.000000	99.892262 
2881.000000	99.891317 
2880.000000	99.890434 
2879.000000	99.889811 
2878.000000	99.889520 
2877.000000	99.889393 
2876.000000	99.889120 
2875.000000	99.888540 
2874.000000	99.887734 
2873.000000	99.886880 
2872.000000	99.886060 
2871.000000	99.885243 
2870.000000	99.884386 
2869.000000	99.883510 
2868.000000	99.882699 
2867.000000	99.882022 
2866.000000	99.881445 
2865.000000	99.880827 
2864.000000	99.880087 
2863.000000	99.879298 
2862.000000	99.878567 
2861.000000	99.877867 
2860.000000	99.877123 
2859.000000	99.876423 
2858.000000	99.875956 
2857.000000	99.875695 
2856.000000	99.875311 
2855.000000	99.874497 
2854.000000	99.873256 
2853.000000	99.871823 
2852.000000	99.870467 
2851.000000	99.869374 
2850.000000	99.868556 
2849.000000	99.867808 
2848.000000	99.866866 
2847.000000	99.865736 
2846.000000	99.864726 
2845.000000	99.864054 
2844.000000	99.863619 
2843.000000	99.863265 
2842.000000	99.863019 
2841.000000	99.862919 
2840.000000	99.862798 
2839.000000	99.862411 
2838.000000	99.861710 
2837.000000	99.860837 
2836.000000	99.859937 
2835.000000	99.859116 
2834.000000	99.858469 
2833.000000	99.858014 
2832.000000	99.857646 
2831.000000	99.857222 
2830.000000	99.856718 
2829.000000	99.856224 
2828.000000	99.855811 
2827.000000	99.855458 
2826.000000	99.855106 
2825.000000	99.854729 
2824.000000	99.854333 
2823.000000	99.853934 
2822.000000	99.853546 
2821.000000	99.853182 
2820.000000	99.852852 
2819.000000	99.852549 
2818.000000	99.852265 
2817.000000	99.851989 
2816.000000	99.851724 
2815.000000	99.851473 
2814.000000	99.851241 
2813.000000	99.851034 
2812.000000	99.850854 
2811.000000	99.850697 
2810.000000	99.850558 
2809.000000	99.850432 
2808.000000	99.850320 
2807.000000	99.850224 
2806.000000	99.850148 
2805.000000	99.850092 
2804.000000	99.850054 
2803.000000	99.850028 
2802.000000	99.850007 
2801.000000	99.849980 
2800.000000	99.849942 
2799.000000	99.849896 
2798.000000	99.849848 
2797.000000	99.849811 
2796.000000	99.849792 
2795.000000	99.849791 
2794.000000	99.849801 
2793.000000	99.849813 
2792.000000	99.849820 
2791.000000	99.849820 
2790.000000	99.849812 
2789.000000	99.849798 
2788.000000	99.849778 
2787.000000	99.849749 
2786.000000	99.849713 
2785.000000	99.849676 
2784.000000	99.849652 
2783.000000	99.849649 
2782.000000	99.849667 
2781.000000	99.849698 
2780.000000	99.849724 
2779.000000	99.849734 
2778.000000	99.849724 
2777.000000	99.849693 
2776.000000	99.849642 
2775.000000	99.849575 
2774.000000	99.849509 
2773.000000	99.849469 
2772.000000	99.849461 
2771.000000	99.849471 
2770.000000	99.849485 
2769.000000	99.849508 
2768.000000	99.849530 
2767.000000	99.849498 
2766.000000	99.849370 
2765.000000	99.849176 
2764.000000	99.848990 
2763.000000	99.848863 
2762.000000	99.848774 
2761.000000	99.848645 
2760.000000	99.848417 
2759.000000	99.848113 
2758.000000	99.847837 
2757.000000	99.847664 
2756.000000	99.847551 
2755.000000	99.847400 
2754.000000	99.847202 
2753.000000	99.847051 
2752.000000	99.847001 
2751.000000	99.846992 
2750.000000	99.846921 
2749.000000	99.846744 
2748.000000	99.846504 
2747.000000	99.846295 
2746.000000	99.846188 
2745.000000	99.846176 
2744.000000	99.846160 
2743.000000	99.846053 
2742.000000	99.845875 
2741.000000	99.845737 
2740.000000	99.845695 
2739.000000	99.845668 
2738.000000	99.845545 
2737.000000	99.845351 
2736.000000	99.845227 
2735.000000	99.845238 
2734.000000	99.845283 
2733.000000	99.845237 
2732.000000	99.845128 
2731.000000	99.845110 
2730.000000	99.845263 
2729.000000	99.845508 
2728.000000	99.845700 
2727.000000	99.845791 
2726.000000	99.845851 
2725.000000	99.845978 
2724.000000	99.846171 
2723.000000	99.846327 
2722.000000	99.846365 
2721.000000	99.846333 
2720.000000	99.846345 
2719.000000	99.846421 
2718.000000	99.846433 
2717.000000	99.846278 
2716.000000	99.846047 
2715.000000	99.845986 
2714.000000	99.846242 
2713.000000	99.846748 
2712.000000	99.847280 
2711.000000	99.847648 
2710.000000	99.847826 
2709.000000	99.847929 
2708.000000	99.848087 
2707.000000	99.848282 
2706.000000	99.848348 
2705.000000	99.848166 
2704.000000	99.847813 
2703.000000	99.847494 
2702.000000	99.847350 
2701.000000	99.847388 
2700.000000	99.847542 
2699.000000	99.847719 
2698.000000	99.847817 
2697.000000	99.847777 
2696.000000	99.847651 
2695.000000	99.847569 
2694.000000	99.847601 
2693.000000	99.847686 
2692.000000	99.847713 
2691.000000	99.847632 
2690.000000	99.847483 
2689.000000	99.847347 
2688.000000	99.847265 
2687.000000	99.847222 
2686.000000	99.847169 
2685.000000	99.847060 
2684.000000	99.846874 
2683.000000	99.846607 
2682.000000	99.846282 
2681.000000	99.845967 
2680.000000	99.845753 
2679.000000	99.845672 
2678.000000	99.845650 
2677.000000	99.845593 
2676.000000	99.845503 
2675.000000	99.845454 
2674.000000	99.845442 
2673.000000	99.845373 
2672.000000	99.845203 
2671.000000	99.844977 
2670.000000	99.844770 
2669.000000	99.844609 
2668.000000	99.844470 
2667.000000	99.844353 
2666.000000	99.844310 
2665.000000	99.844391 
2664.000000	99.844574 
2663.000000	99.844779 
2662.000000	99.844919 
2661.000000	99.844943 
2660.000000	99.844872 
2659.000000	99.844792 
2658.000000	99.844769 
2657.000000	99.844775 
2656.000000	99.844728 
2655.000000	99.844599 
2654.000000	99.844436 
2653.000000	99.844318 
2652.000000	99.844359 
2651.000000	99.844695 
2650.000000	99.845292 
2649.000000	99.845742 
2648.000000	99.845532 
2647.000000	99.844522 
2646.000000	99.843151 
2645.000000	99.842098 
2644.000000	99.841742 
2643.000000	99.842072 
2642.000000	99.842789 
2641.000000	99.843476 
2640.000000	99.843849 
2639.000000	99.844003 
2638.000000	99.844288 
2637.000000	99.844841 
2636.000000	99.845349 
2635.000000	99.845413 
2634.000000	99.845038 
2633.000000	99.844691 
2632.000000	99.844959 
2631.000000	99.846143 
2630.000000	99.847970 
2629.000000	99.849534 
2628.000000	99.849894 
2627.000000	99.848868 
2626.000000	99.847238 
2625.000000	99.846035 
2624.000000	99.845580 
2623.000000	99.845427 
2622.000000	99.845030 
2621.000000	99.844304 
2620.000000	99.843538 
2619.000000	99.842926 
2618.000000	99.842278 
2617.000000	99.841292 
2616.000000	99.840107 
2615.000000	99.839332 
2614.000000	99.839302 
2613.000000	99.839539 
2612.000000	99.839380 
2611.000000	99.839064 
2610.000000	99.839511 
2609.000000	99.840994 
2608.000000	99.842610 
2607.000000	99.843238 
2606.000000	99.842800 
2605.000000	99.842233 
2604.000000	99.842460 
2603.000000	99.843522 
2602.000000	99.844648 
2601.000000	99.845009 
2600.000000	99.844507 
2599.000000	99.843798 
2598.000000	99.843558 
2597.000000	99.843705 
2596.000000	99.843607 
2595.000000	99.842983 
2594.000000	99.842230 
2593.000000	99.841838 
2592.000000	99.841751 
2591.000000	99.841554 
2590.000000	99.841080 
2589.000000	99.840596 
2588.000000	99.840438 
2587.000000	99.840655 
2586.000000	99.841037 
2585.000000	99.841352 
2584.000000	99.841539 
2583.000000	99.841698 
2582.000000	99.841928 
2581.000000	99.842166 
2580.000000	99.842259 
2579.000000	99.842178 
2578.000000	99.842051 
2577.000000	99.842018 
2576.000000	99.842088 
2575.000000	99.842194 
2574.000000	99.842301 
2573.000000	99.842429 
2572.000000	99.842586 
2571.000000	99.842744 
2570.000000	99.842884 
2569.000000	99.843007 
2568.000000	99.843114 
2567.000000	99.843210 
2566.000000	99.843305 
2565.000000	99.843406 
2564.000000	99.843513 
2563.000000	99.843618 
2562.000000	99.843715 
2561.000000	99.843805 
2560.000000	99.843889 
2559.000000	99.843967 
2558.000000	99.844040 
2557.000000	99.844112 
2556.000000	99.844189 
2555.000000	99.844279 
2554.000000	99.844388 
2553.000000	99.844522 
2552.000000	99.844683 
2551.000000	99.844867 
2550.000000	99.845065 
2549.000000	99.845268 
2548.000000	99.845472 
2547.000000	99.845677 
2546.000000	99.845883 
2545.000000	99.846096 
2544.000000	99.846317 
2543.000000	99.846542 
2542.000000	99.846765 
2541.000000	99.846982 
2540.000000	99.847193 
2539.000000	99.847401 
2538.000000	99.847613 
2537.000000	99.847834 
2536.000000	99.848066 
2535.000000	99.848308 
2534.000000	99.848557 
2533.000000	99.848809 
2532.000000	99.849061 
2531.000000	99.849308 
2530.000000	99.849542 
2529.000000	99.849757 
2528.000000	99.849966 
2527.000000	99.850197 
2526.000000	99.850477 
2525.000000	99.850774 
2524.000000	99.851009 
2523.000000	99.851120 
2522.000000	99.851147 
2521.000000	99.851233 
2520.000000	99.851457 
2519.000000	99.851721 
2518.000000	99.851855 
2517.000000	99.851864 
2516.000000	99.851935 
2515.000000	99.852241 
2514.000000	99.852825 
2513.000000	99.853669 
2512.000000	99.854687 
2511.000000	99.855621 
2510.000000	99.856148 
2509.000000	99.856190 
2508.000000	99.856021 
2507.000000	99.855944 
2506.000000	99.855964 
2505.000000	99.855949 
2504.000000	99.855925 
2503.000000	99.856026 
2502.000000	99.856224 
2501.000000	99.856310 
2500.000000	99.856158 
2499.000000	99.855881 
2498.000000	99.855700 
2497.000000	99.855737 
2496.000000	99.855984 
2495.000000	99.856355 
2494.000000	99.856722 
2493.000000	99.856945 
2492.000000	99.856945 
2491.000000	99.856745 
2490.000000	99.856399 
2489.000000	99.855957 
2488.000000	99.855517 
2487.000000	99.855241 
2486.000000	99.855245 
2485.000000	99.855489 
2484.000000	99.855793 
2483.000000	99.855983 
2482.000000	99.856011 
2481.000000	99.855924 
2480.000000	99.855789 
2479.000000	99.855650 
2478.000000	99.855529 
2477.000000	99.855442 
2476.000000	99.855397 
2475.000000	99.855377 
2474.000000	99.855340 
2473.000000	99.855256 
2472.000000	99.855120 
2471.000000	99.854951 
2470.000000	99.854780 
2469.000000	99.854635 
2468.000000	99.854529 
2467.000000	99.854461 
2466.000000	99.854420 
2465.000000	99.854394 
2464.000000	99.854370 
2463.000000	99.854345 
2462.000000	99.854322 
2461.000000	99.854305 
2460.000000	99.854296 
2459.000000	99.854297 
2458.000000	99.854315 
2457.000000	99.854352 
2456.000000	99.854406 
2455.000000	99.854468 
2454.000000	99.854525 
2453.000000	99.854574 
2452.000000	99.854620 
2451.000000	99.854680 
2450.000000	99.854767 
2449.000000	99.854883 
2448.000000	99.855016 
2447.000000	99.855141 
2446.000000	99.855238 
2445.000000	99.855294 
2444.000000	99.855313 
2443.000000	99.855316 
2442.000000	99.855326 
2441.000000	99.855356 
2440.000000	99.855404 
2439.000000	99.855459 
2438.000000	99.855527 
2437.000000	99.855626 
2436.000000	99.855766 
2435.000000	99.855938 
2434.000000	99.856110 
2433.000000	99.856221 
2432.000000	99.856223 
2431.000000	99.856130 
2430.000000	99.856003 
2429.000000	99.855894 
2428.000000	99.855804 
2427.000000	99.855710 
2426.000000	99.855635 
2425.000000	99.855647 
2424.000000	99.855745 
2423.000000	99.855797 
2422.000000	99.855670 
2421.000000	99.855394 
2420.000000	99.855161 
2419.000000	99.855161 
2418.000000	99.855463 
2417.000000	99.855959 
2416.000000	99.856341 
2415.000000	99.856263 
2414.000000	99.855645 
2413.000000	99.854853 
2412.000000	99.854390 
2411.000000	99.854359 
2410.000000	99.854352 
2409.000000	99.853932 
2408.000000	99.853168 
2407.000000	99.852600 
2406.000000	99.852685 
2405.000000	99.853386 
2404.000000	99.854295 
2403.000000	99.855032 
2402.000000	99.855539 
2401.000000	99.855973 
2400.000000	99.856364 
2399.000000	99.856441 
2398.000000	99.855853 
2397.000000	99.854574 
2396.000000	99.853101 
2395.000000	99.852180 
2394.000000	99.852237 
2393.000000	99.853062 
2392.000000	99.853972 
2391.000000	99.854317 
2390.000000	99.853834 
2389.000000	99.852719 
2388.000000	99.851571 
2387.000000	99.851146 
2386.000000	99.851865 
2385.000000	99.853464 
2384.000000	99.855269 
2383.000000	99.856879 
2382.000000	99.858409 
2381.000000	99.860047 
2380.000000	99.861639 
2379.000000	99.862840 
2378.000000	99.863512 
2377.000000	99.863736 
2376.000000	99.863570 
2375.000000	99.863096 
2374.000000	99.862677 
2373.000000	99.862840 
2372.000000	99.863674 
2371.000000	99.864567 
2370.000000	99.864798 
2369.000000	99.864370 
2368.000000	99.864118 
2367.000000	99.864887 
2366.000000	99.866608 
2365.000000	99.868172 
2364.000000	99.868469 
2363.000000	99.867492 
2362.000000	99.866265 
2361.000000	99.865845 
2360.000000	99.866362 
2359.000000	99.867110 
2358.000000	99.867408 
2357.000000	99.867025 
2356.000000	99.866075 
2355.000000	99.864867 
2354.000000	99.863707 
2353.000000	99.862862 
2352.000000	99.862497 
2351.000000	99.862830 
2350.000000	99.863910 
2349.000000	99.865315 
2348.000000	99.866451 
2347.000000	99.866819 
2346.000000	99.866431 
2345.000000	99.865804 
2344.000000	99.865582 
2343.000000	99.866047 
2342.000000	99.866871 
2341.000000	99.867877 
2340.000000	99.868838 
2339.000000	99.869245 
2338.000000	99.868586 
2337.000000	99.866955 
2336.000000	99.865074 
2335.000000	99.863398 
2334.000000	99.861568 
2333.000000	99.859035 
2332.000000	99.856225 
2331.000000	99.854583 
2330.000000	99.855080 
2329.000000	99.856773 
2328.000000	99.857818 
2327.000000	99.857151 
2326.000000	99.855558 
2325.000000	99.854275 
2324.000000	99.853570 
2323.000000	99.852676 
2322.000000	99.850830 
2321.000000	99.848342 
2320.000000	99.846057 
2319.000000	99.844652 
2318.000000	99.844271 
2317.000000	99.844711 
2316.000000	99.845671 
2315.000000	99.846812 
2314.000000	99.847835 
2313.000000	99.848388 
2312.000000	99.848374 
2311.000000	99.848028 
2310.000000	99.847909 
2309.000000	99.848302 
2308.000000	99.848947 
2307.000000	99.849155 
2306.000000	99.848468 
2305.000000	99.846993 
2304.000000	99.845336 
2303.000000	99.844205 
2302.000000	99.843963 
2301.000000	99.844386 
2300.000000	99.844876 
2299.000000	99.844997 
2298.000000	99.844813 
2297.000000	99.844487 
2296.000000	99.843888 
2295.000000	99.842749 
2294.000000	99.841222 
2293.000000	99.839975 
2292.000000	99.839572 
2291.000000	99.839923 
2290.000000	99.840443 
2289.000000	99.840656 
2288.000000	99.840578 
2287.000000	99.840489 
2286.000000	99.840527 
2285.000000	99.840534 
2284.000000	99.840263 
2283.000000	99.839665 
2282.000000	99.838996 
2281.000000	99.838617 
2280.000000	99.838674 
2279.000000	99.838999 
2278.000000	99.839336 
2277.000000	99.839588 
2276.000000	99.839746 
2275.000000	99.839742 
2274.000000	99.839546 
2273.000000	99.839383 
2272.000000	99.839661 
2271.000000	99.840581 
2270.000000	99.841877 
2269.000000	99.842929 
2268.000000	99.843233 
2267.000000	99.842685 
2266.000000	99.841576 
2265.000000	99.840450 
2264.000000	99.839805 
2263.000000	99.839776 
2262.000000	99.840063 
2261.000000	99.840169 
2260.000000	99.839932 
2259.000000	99.839767 
2258.000000	99.840280 
2257.000000	99.841650 
2256.000000	99.843414 
2255.000000	99.844791 
2254.000000	99.845297 
2253.000000	99.845038 
2252.000000	99.844593 
2251.000000	99.844536 
2250.000000	99.845082 
2249.000000	99.846160 
2248.000000	99.847598 
2247.000000	99.849037 
2246.000000	99.849828 
2245.000000	99.849455 
2244.000000	99.848167 
2243.000000	99.846877 
2242.000000	99.846259 
2241.000000	99.846245 
2240.000000	99.846521 
2239.000000	99.846979 
2238.000000	99.847259 
2237.000000	99.846444 
2236.000000	99.844151 
2235.000000	99.841817 
2234.000000	99.841717 
2233.000000	99.844604 
2232.000000	99.848994 
2231.000000	99.852770 
2230.000000	99.855014 
2229.000000	99.855832 
2228.000000	99.855603 
2227.000000	99.854997 
2226.000000	99.854970 
2225.000000	99.856054 
2224.000000	99.858049 
2223.000000	99.860815 
2222.000000	99.864596 
2221.000000	99.868815 
2220.000000	99.871527 
2219.000000	99.871223 
2218.000000	99.868471 
2217.000000	99.864960 
2216.000000	99.861452 
2215.000000	99.858045 
2214.000000	99.855708 
2213.000000	99.855592 
2212.000000	99.856948 
2211.000000	99.857574 
2210.000000	99.856749 
2209.000000	99.856030 
2208.000000	99.856675 
2207.000000	99.858014 
2206.000000	99.859266 
2205.000000	99.861139 
2204.000000	99.864224 
2203.000000	99.867237 
2202.000000	99.868474 
2201.000000	99.868290 
2200.000000	99.868358 
2199.000000	99.868978 
2198.000000	99.869034 
2197.000000	99.868307 
2196.000000	99.868042 
2195.000000	99.868792 
2194.000000	99.869066 
2193.000000	99.867161 
2192.000000	99.863564 
2191.000000	99.860650 
2190.000000	99.860037 
2189.000000	99.861043 
2188.000000	99.861825 
2187.000000	99.861260 
2186.000000	99.859336 
2185.000000	99.856525 
2184.000000	99.853702 
2183.000000	99.852236 
2182.000000	99.853075 
2181.000000	99.855673 
2180.000000	99.858531 
2179.000000	99.860893 
2178.000000	99.863077 
2177.000000	99.865143 
2176.000000	99.866369 
2175.000000	99.866466 
2174.000000	99.866411 
2173.000000	99.867303 
2172.000000	99.868877 
2171.000000	99.869846 
2170.000000	99.869408 
2169.000000	99.867747 
2168.000000	99.865495 
2167.000000	99.863578 
2166.000000	99.863381 
2165.000000	99.865837 
2164.000000	99.869796 
2163.000000	99.872223 
2162.000000	99.871086 
2161.000000	99.867690 
2160.000000	99.865884 
2159.000000	99.868349 
2158.000000	99.874193 
2157.000000	99.879930 
2156.000000	99.882866 
2155.000000	99.882860 
2154.000000	99.881490 
2153.000000	99.880550 
2152.000000	99.880897 
2151.000000	99.882029 
2150.000000	99.882485 
2149.000000	99.880948 
2148.000000	99.877208 
2147.000000	99.872094 
2146.000000	99.866681 
2145.000000	99.861830 
2144.000000	99.858299 
2143.000000	99.856607 
2142.000000	99.856450 
2141.000000	99.856696 
2140.000000	99.856495 
2139.000000	99.856212 
2138.000000	99.856864 
2137.000000	99.858959 
2136.000000	99.862245 
2135.000000	99.866153 
2134.000000	99.869806 
2133.000000	99.871965 
2132.000000	99.871882 
2131.000000	99.870154 
2130.000000	99.867897 
2129.000000	99.865204 
2128.000000	99.861437 
2127.000000	99.857228 
2126.000000	99.854887 
2125.000000	99.855889 
2124.000000	99.858661 
2123.000000	99.859746 
2122.000000	99.857238 
2121.000000	99.852415 
2120.000000	99.848303 
2119.000000	99.847125 
2118.000000	99.849067 
2117.000000	99.852779 
2116.000000	99.856504 
2115.000000	99.859220 
2114.000000	99.860974 
2113.000000	99.862112 
2112.000000	99.862724 
2111.000000	99.862942 
2110.000000	99.863286 
2109.000000	99.864221 
2108.000000	99.865490 
2107.000000	99.866337 
2106.000000	99.866412 
2105.000000	99.866139 
2104.000000	99.866179 
2103.000000	99.866721 
2102.000000	99.867413 
2101.000000	99.867847 
2100.000000	99.867966 
2099.000000	99.868007 
2098.000000	99.868205 
2097.000000	99.868599 
2096.000000	99.869075 
2095.000000	99.869500 
2094.000000	99.869784 
2093.000000	99.869903 
2092.000000	99.869886 
2091.000000	99.869801 
2090.000000	99.869735 
2089.000000	99.869740 
2088.000000	99.869829 
2087.000000	99.869985 
2086.000000	99.870178 
2085.000000	99.870375 
2084.000000	99.870544 
2083.000000	99.870663 
2082.000000	99.870739 
2081.000000	99.870806 
2080.000000	99.870906 
2079.000000	99.871065 
2078.000000	99.871268 
2077.000000	99.871480 
2076.000000	99.871661 
2075.000000	99.871784 
2074.000000	99.871841 
2073.000000	99.871865 
2072.000000	99.871916 
2071.000000	99.872054 
2070.000000	99.872352 
2069.000000	99.872846 
2068.000000	99.873388 
2067.000000	99.873653 
2066.000000	99.873483 
2065.000000	99.873164 
2064.000000	99.873132 
2063.000000	99.873456 
2062.000000	99.873904 
2061.000000	99.874448 
2060.000000	99.875285 
2059.000000	99.876319 
2058.000000	99.877023 
2057.000000	99.877014 
2056.000000	99.876529 
2055.000000	99.876133 
2054.000000	99.876085 
2053.000000	99.876164 
2052.000000	99.876101 
2051.000000	99.876096 
2050.000000	99.876910 
2049.000000	99.879304 
2048.000000	99.883245 
2047.000000	99.887523 
2046.000000	99.890438 
2045.000000	99.891246 
2044.000000	99.890562 
2043.000000	99.889746 
2042.000000	99.889642 
2041.000000	99.890206 
2040.000000	99.891214 
2039.000000	99.892768 
2038.000000	99.894913 
2037.000000	99.897165 
2036.000000	99.898873 
2035.000000	99.899963 
2034.000000	99.900867 
2033.000000	99.901824 
2032.000000	99.902774 
2031.000000	99.903892 
2030.000000	99.905476 
2029.000000	99.907060 
2028.000000	99.907406 
2027.000000	99.905946 
2026.000000	99.903713 
2025.000000	99.902471 
2024.000000	99.902845 
2023.000000	99.903942 
2022.000000	99.904517 
2021.000000	99.904186 
2020.000000	99.903474 
2019.000000	99.903167 
2018.000000	99.903773 
2017.000000	99.905287 
2016.000000	99.907085 
2015.000000	99.908266 
2014.000000	99.908443 
2013.000000	99.908084 
2012.000000	99.907941 
2011.000000	99.908096 
2010.000000	99.907965 
2009.000000	99.907277 
2008.000000	99.906640 
2007.000000	99.906825 
2006.000000	99.907639 
2005.000000	99.907902 
2004.000000	99.906815 
2003.000000	99.904953 
2002.000000	99.903670 
2001.000000	99.903588 
2000.000000	99.904162 
1999.000000	99.904449 
1998.000000	99.904084 
1997.000000	99.903520 
1996.000000	99.903490 
1995.000000	99.904319 
1994.000000	99.905714 
1993.000000	99.907093 
1992.000000	99.908067 
1991.000000	99.908649 
1990.000000	99.908957 
1989.000000	99.908951 
1988.000000	99.908567 
1987.000000	99.907895 
1986.000000	99.907051 
1985.000000	99.906048 
1984.000000	99.905043 
1983.000000	99.904548 
1982.000000	99.905047 
1981.000000	99.906388 
1980.000000	99.907918 
1979.000000	99.909263 
1978.000000	99.910619 
1977.000000	99.912240 
1976.000000	99.913910 
1975.000000	99.915012 
1974.000000	99.914839 
1973.000000	99.912937 
1972.000000	99.909672 
1971.000000	99.906505 
1970.000000	99.904986 
1969.000000	99.905346 
1968.000000	99.906302 
1967.000000	99.906205 
1966.000000	99.904277 
1965.000000	99.900816 
1964.000000	99.896908 
1963.000000	99.894000 
1962.000000	99.893061 
1961.000000	99.893812 
1960.000000	99.894967 
1959.000000	99.895509 
1958.000000	99.895295 
1957.000000	99.894393 
1956.000000	99.892706 
1955.000000	99.890645 
1954.000000	99.889444 
1953.000000	99.890022 
1952.000000	99.891932 
1951.000000	99.893689 
1950.000000	99.894211 
1949.000000	99.893525 
1948.000000	99.892216 
1947.000000	99.890851 
1946.000000	99.889844 
1945.000000	99.889426 
1944.000000	99.889456 
1943.000000	99.889416 
1942.000000	99.888885 
1941.000000	99.887939 
1940.000000	99.886939 
1939.000000	99.886111 
1938.000000	99.885483 
1937.000000	99.885049 
1936.000000	99.884817 
1935.000000	99.884733 
1934.000000	99.884629 
1933.000000	99.884300 
1932.000000	99.883654 
1931.000000	99.882794 
1930.000000	99.881954 
1929.000000	99.881286 
1928.000000	99.880714 
1927.000000	99.880090 
1926.000000	99.879496 
1925.000000	99.879219 
1924.000000	99.879397 
1923.000000	99.879763 
1922.000000	99.879853 
1921.000000	99.879477 
1920.000000	99.878754 
1919.000000	99.877844 
1918.000000	99.876823 
1917.000000	99.875774 
1916.000000	99.874833 
1915.000000	99.874064 
1914.000000	99.873480 
1913.000000	99.873165 
1912.000000	99.873189 
1911.000000	99.873440 
1910.000000	99.873637 
1909.000000	99.873525 
1908.000000	99.873089 
1907.000000	99.872536 
1906.000000	99.872184 
1905.000000	99.872220 
1904.000000	99.872492 
1903.000000	99.872577 
1902.000000	99.872223 
1901.000000	99.871661 
1900.000000	99.871347 
1899.000000	99.871413 
1898.000000	99.871563 
1897.000000	99.871470 
1896.000000	99.871097 
1895.000000	99.870603 
1894.000000	99.870148 
1893.000000	99.869856 
1892.000000	99.869821 
1891.000000	99.870007 
1890.000000	99.870215 
1889.000000	99.870269 
1888.000000	99.870194 
1887.000000	99.870082 
1886.000000	99.869887 
1885.000000	99.869529 
1884.000000	99.869086 
1883.000000	99.868744 
1882.000000	99.868572 
1881.000000	99.868512 
1880.000000	99.868553 
1879.000000	99.868729 
1878.000000	99.868943 
1877.000000	99.868993 
1876.000000	99.868843 
1875.000000	99.868696 
1874.000000	99.868729 
1873.000000	99.868874 
1872.000000	99.868970 
1871.000000	99.869056 
1870.000000	99.869349 
1869.000000	99.869957 
1868.000000	99.870642 
1867.000000	99.871002 
1866.000000	99.870903 
1865.000000	99.870511 
1864.000000	99.870106 
1863.000000	99.869826 
1862.000000	99.869686 
1861.000000	99.869687 
1860.000000	99.869808 
1859.000000	99.869950 
1858.000000	99.869958 
1857.000000	99.869766 
1856.000000	99.869491 
1855.000000	99.869322 
1854.000000	99.869304 
1853.000000	99.869301 
1852.000000	99.869181 
1851.000000	99.869002 
1850.000000	99.868943 
1849.000000	99.869069 
1848.000000	99.869257 
1847.000000	99.869371 
1846.000000	99.869435 
1845.000000	99.869530 
1844.000000	99.869552 
1843.000000	99.869276 
1842.000000	99.868681 
1841.000000	99.867999 
1840.000000	99.867506 
1839.000000	99.867332 
1838.000000	99.867450 
1837.000000	99.867742 
1836.000000	99.868077 
1835.000000	99.868345 
1834.000000	99.868467 
1833.000000	99.868393 
1832.000000	99.868093 
1831.000000	99.867562 
1830.000000	99.866981 
1829.000000	99.866746 
1828.000000	99.867118 
1827.000000	99.868004 
1826.000000	99.869001 
1825.000000	99.869597 
1824.000000	99.869462 
1823.000000	99.868682 
1822.000000	99.867598 
1821.000000	99.866562 
1820.000000	99.865845 
1819.000000	99.865474 
1818.000000	99.865254 
1817.000000	99.865003 
1816.000000	99.864712 
1815.000000	99.864405 
1814.000000	99.864019 
1813.000000	99.863586 
1812.000000	99.863310 
1811.000000	99.863346 
1810.000000	99.863666 
1809.000000	99.864246 
1808.000000	99.865170 
1807.000000	99.866238 
1806.000000	99.866814 
1805.000000	99.866525 
1804.000000	99.865894 
1803.000000	99.865767 
1802.000000	99.866162 
1801.000000	99.866240 
1800.000000	99.865541 
1799.000000	99.864604 
1798.000000	99.864031 
1797.000000	99.863646 
1796.000000	99.862879 
1795.000000	99.861451 
1794.000000	99.859618 
1793.000000	99.858217 
1792.000000	99.858362 
1791.000000	99.860454 
1790.000000	99.863572 
1789.000000	99.866364 
1788.000000	99.868184 
1787.000000	99.869053 
1786.000000	99.869271 
1785.000000	99.869287 
1784.000000	99.869571 
1783.000000	99.870144 
1782.000000	99.870251 
1781.000000	99.869133 
1780.000000	99.867094 
1779.000000	99.865330 
1778.000000	99.864503 
1777.000000	99.864271 
1776.000000	99.864248 
1775.000000	99.864511 
1774.000000	99.864956 
1773.000000	99.864745 
1772.000000	99.863520 
1771.000000	99.862630 
1770.000000	99.863287 
1769.000000	99.865035 
1768.000000	99.866622 
1767.000000	99.867605 
1766.000000	99.868640 
1765.000000	99.870018 
1764.000000	99.870931 
1763.000000	99.870506 
1762.000000	99.868982 
1761.000000	99.867599 
1760.000000	99.867060 
1759.000000	99.867102 
1758.000000	99.867278 
1757.000000	99.867280 
1756.000000	99.866991 
1755.000000	99.866592 
1754.000000	99.866452 
1753.000000	99.866784 
1752.000000	99.867489 
1751.000000	99.868369 
1750.000000	99.869406 
1749.000000	99.870460 
1748.000000	99.871087 
1747.000000	99.871068 
1746.000000	99.870710 
1745.000000	99.870451 
1744.000000	99.870342 
1743.000000	99.870187 
1742.000000	99.869950 
1741.000000	99.869761 
1740.000000	99.869691 
1739.000000	99.869748 
1738.000000	99.869953 
1737.000000	99.870179 
1736.000000	99.870128 
1735.000000	99.869505 
1734.000000	99.868476 
1733.000000	99.867828 
1732.000000	99.867746 
1731.000000	99.867738 
1730.000000	99.867590 
1729.000000	99.867472 
1728.000000	99.867559 
1727.000000	99.867812 
1726.000000	99.868115 
1725.000000	99.868372 
1724.000000	99.868395 
1723.000000	99.867971 
1722.000000	99.867082 
1721.000000	99.865935 
1720.000000	99.864832 
1719.000000	99.864119 
1718.000000	99.864128 
1717.000000	99.864848 
1716.000000	99.865588 
1715.000000	99.865698 
1714.000000	99.865258 
1713.000000	99.864734 
1712.000000	99.864445 
1711.000000	99.864323 
1710.000000	99.864143 
1709.000000	99.863843 
1708.000000	99.863522 
1707.000000	99.863222 
1706.000000	99.862972 
1705.000000	99.862899 
1704.000000	99.863001 
1703.000000	99.862999 
1702.000000	99.862742 
1701.000000	99.862424 
1700.000000	99.862236 
1699.000000	99.861999 
1698.000000	99.861137 
1697.000000	99.859381 
1696.000000	99.857405 
1695.000000	99.856135 
1694.000000	99.855569 
1693.000000	99.855232 
1692.000000	99.854868 
1691.000000	99.854455 
1690.000000	99.854003 
1689.000000	99.853519 
1688.000000	99.853080 
1687.000000	99.852708 
1686.000000	99.852329 
1685.000000	99.851821 
1684.000000	99.851339 
1683.000000	99.851132 
1682.000000	99.850802 
1681.000000	99.850125 
1680.000000	99.849267 
1679.000000	99.848407 
1678.000000	99.847708 
1677.000000	99.847227 
1676.000000	99.846933 
1675.000000	99.846690 
1674.000000	99.846359 
1673.000000	99.845938 
1672.000000	99.845450 
1671.000000	99.844842 
1670.000000	99.843989 
1669.000000	99.842981 
1668.000000	99.842220 
1667.000000	99.841942 
1666.000000	99.841993 
1665.000000	99.842038 
1664.000000	99.841897 
1663.000000	99.841645 
1662.000000	99.841354 
1661.000000	99.840953 
1660.000000	99.840449 
1659.000000	99.840050 
1658.000000	99.839942 
1657.000000	99.840120 
1656.000000	99.840402 
1655.000000	99.840585 
1654.000000	99.840429 
1653.000000	99.839722 
1652.000000	99.838855 
1651.000000	99.838283 
1650.000000	99.838002 
1649.000000	99.837703 
1648.000000	99.837190 
1647.000000	99.836704 
1646.000000	99.836591 
1645.000000	99.836754 
1644.000000	99.836994 
1643.000000	99.837304 
1642.000000	99.837568 
1641.000000	99.837589 
1640.000000	99.837293 
1639.000000	99.836880 
1638.000000	99.836717 
1637.000000	99.836961 
1636.000000	99.837309 
1635.000000	99.837451 
1634.000000	99.837644 
1633.000000	99.838278 
1632.000000	99.839273 
1631.000000	99.840199 
1630.000000	99.840797 
1629.000000	99.841100 
1628.000000	99.841212 
1627.000000	99.841182 
1626.000000	99.841036 
1625.000000	99.840880 
1624.000000	99.840871 
1623.000000	99.841190 
1622.000000	99.841926 
1621.000000	99.842905 
1620.000000	99.843790 
1619.000000	99.844287 
1618.000000	99.844301 
1617.000000	99.844075 
1616.000000	99.844097 
1615.000000	99.844548 
1614.000000	99.845305 
1613.000000	99.846345 
1612.000000	99.847640 
1611.000000	99.848977 
1610.000000	99.850111 
1609.000000	99.850963 
1608.000000	99.851575 
1607.000000	99.852012 
1606.000000	99.852340 
1605.000000	99.852673 
1604.000000	99.853128 
1603.000000	99.853773 
1602.000000	99.854618 
1601.000000	99.855588 
1600.000000	99.856534 
1599.000000	99.857353 
1598.000000	99.858038 
1597.000000	99.858636 
1596.000000	99.859161 
1595.000000	99.859614 
1594.000000	99.860056 
1593.000000	99.860614 
1592.000000	99.861370 
1591.000000	99.862279 
1590.000000	99.863216 
1589.000000	99.864074 
1588.000000	99.864823 
1587.000000	99.865490 
1586.000000	99.866110 
1585.000000	99.866706 
1584.000000	99.867281 
1583.000000	99.867828 
1582.000000	99.868347 
1581.000000	99.868859 
1580.000000	99.869371 
1579.000000	99.869878 
1578.000000	99.870387 
1577.000000	99.870931 
1576.000000	99.871515 
1575.000000	99.872073 
1574.000000	99.872533 
1573.000000	99.872895 
1572.000000	99.873190 
1571.000000	99.873477 
1570.000000	99.873842 
1569.000000	99.874337 
1568.000000	99.874910 
1567.000000	99.875455 
1566.000000	99.875914 
1565.000000	99.876271 
1564.000000	99.876531 
1563.000000	99.876704 
1562.000000	99.876790 
1561.000000	99.876793 
1560.000000	99.876780 
1559.000000	99.876919 
1558.000000	99.877330 
1557.000000	99.877778 
1556.000000	99.878174 
1555.000000	99.878569 
1554.000000	99.878853 
1553.000000	99.878945 
1552.000000	99.878869 
1551.000000	99.878734 
1550.000000	99.878676 
1549.000000	99.878759 
1548.000000	99.878921 
1547.000000	99.879058 
1546.000000	99.879149 
1545.000000	99.879253 
1544.000000	99.879402 
1543.000000	99.879498 
1542.000000	99.879420 
1541.000000	99.879203 
1540.000000	99.879056 
1539.000000	99.879083 
1538.000000	99.879133 
1537.000000	99.879180 
1536.000000	99.879247 
1535.000000	99.879306 
1534.000000	99.879354 
1533.000000	99.879373 
1532.000000	99.879315 
1531.000000	99.879199 
1530.000000	99.879153 
1529.000000	99.879236 
1528.000000	99.879361 
1527.000000	99.879384 
1526.000000	99.879268 
1525.000000	99.879137 
1524.000000	99.879099 
1523.000000	99.879135 
1522.000000	99.879212 
1521.000000	99.879415 
1520.000000	99.879790 
1519.000000	99.880258 
1518.000000	99.880738 
1517.000000	99.881113 
1516.000000	99.881246 
1515.000000	99.881093 
1514.000000	99.880794 
1513.000000	99.880588 
1512.000000	99.880649 
1511.000000	99.881030 
1510.000000	99.881656 
1509.000000	99.882394 
1508.000000	99.883099 
1507.000000	99.883465 
1506.000000	99.883215 
1505.000000	99.882532 
1504.000000	99.882128 
1503.000000	99.882192 
1502.000000	99.882423 
1501.000000	99.882668 
1500.000000	99.882966 
1499.000000	99.883358 
1498.000000	99.883722 
1497.000000	99.883763 
1496.000000	99.883336 
1495.000000	99.882727 
1494.000000	99.882342 
1493.000000	99.882279 
1492.000000	99.882357 
1491.000000	99.882335 
1490.000000	99.882163 
1489.000000	99.882032 
1488.000000	99.882055 
1487.000000	99.882171 
1486.000000	99.882329 
1485.000000	99.882587 
1484.000000	99.883023 
1483.000000	99.883553 
1482.000000	99.883955 
1481.000000	99.884077 
1480.000000	99.883978 
1479.000000	99.883804 
1478.000000	99.883632 
1477.000000	99.883485 
1476.000000	99.883413 
1475.000000	99.883423 
1474.000000	99.883341 
1473.000000	99.882956 
1472.000000	99.882364 
1471.000000	99.881940 
1470.000000	99.881870 
1469.000000	99.882066 
1468.000000	99.882328 
1467.000000	99.882511 
1466.000000	99.882554 
1465.000000	99.882477 
1464.000000	99.882422 
1463.000000	99.882536 
1462.000000	99.882786 
1461.000000	99.882940 
1460.000000	99.882789 
1459.000000	99.882353 
1458.000000	99.881865 
1457.000000	99.881554 
1456.000000	99.881452 
1455.000000	99.881578 
1454.000000	99.882004 
1453.000000	99.882553 
1452.000000	99.882909 
1451.000000	99.882889 
1450.000000	99.882524 
1449.000000	99.881996 
1448.000000	99.881530 
1447.000000	99.881315 
1446.000000	99.881390 
1445.000000	99.881655 
1444.000000	99.881946 
1443.000000	99.882112 
1442.000000	99.882079 
1441.000000	99.881845 
1440.000000	99.881428 
1439.000000	99.880875 
1438.000000	99.880379 
1437.000000	99.880285 
1436.000000	99.880863 
1435.000000	99.882027 
1434.000000	99.883403 
1433.000000	99.884560 
1432.000000	99.885185 
1431.000000	99.885239 
1430.000000	99.885059 
1429.000000	99.885073 
1428.000000	99.885415 
1427.000000	99.885951 
1426.000000	99.886525 
1425.000000	99.887155 
1424.000000	99.888006 
1423.000000	99.889105 
1422.000000	99.890194 
1421.000000	99.890968 
1420.000000	99.891314 
1419.000000	99.891473 
1418.000000	99.891854 
1417.000000	99.892335 
1416.000000	99.892570 
1415.000000	99.892657 
1414.000000	99.893001 
1413.000000	99.893801 
1412.000000	99.894762 
1411.000000	99.895478 
1410.000000	99.896031 
1409.000000	99.896853 
1408.000000	99.898097 
1407.000000	99.899426 
1406.000000	99.900375 
1405.000000	99.900830 
1404.000000	99.901089 
1403.000000	99.901500 
1402.000000	99.902125 
1401.000000	99.902752 
1400.000000	99.903230 
1399.000000	99.903787 
1398.000000	99.904818 
1397.000000	99.906331 
1396.000000	99.907874 
1395.000000	99.908892 
1394.000000	99.909158 
1393.000000	99.908935 
1392.000000	99.908608 
1391.000000	99.908344 
1390.000000	99.908203 
1389.000000	99.908383 
1388.000000	99.909149 
1387.000000	99.910470 
1386.000000	99.911792 
1385.000000	99.912449 
1384.000000	99.912242 
1383.000000	99.911519 
1382.000000	99.910920 
1381.000000	99.910849 
1380.000000	99.911226 
1379.000000	99.911754 
1378.000000	99.912229 
1377.000000	99.912547 
1376.000000	99.912583 
1375.000000	99.912261 
1374.000000	99.911698 
1373.000000	99.911117 
1372.000000	99.910630 
1371.000000	99.910260 
1370.000000	99.910038 
1369.000000	99.910066 
1368.000000	99.910406 
1367.000000	99.910909 
1366.000000	99.911292 
1365.000000	99.911388 
1364.000000	99.911283 
1363.000000	99.911196 
1362.000000	99.911217 
1361.000000	99.911250 
1360.000000	99.911245 
1359.000000	99.911263 
1358.000000	99.911322 
1357.000000	99.911349 
1356.000000	99.911296 
1355.000000	99.911206 
1354.000000	99.911144 
1353.000000	99.911120 
1352.000000	99.911111 
1351.000000	99.911107 
1350.000000	99.911106 
1349.000000	99.911107 
1348.000000	99.911107 
1347.000000	99.911105 
1346.000000	99.911103 
1345.000000	99.911101 
1344.000000	99.911099 
1343.000000	99.911098 
1342.000000	99.911101 
1341.000000	99.911108 
1340.000000	99.911116 
1339.000000	99.911122 
1338.000000	99.911130 
1337.000000	99.911144 
1336.000000	99.911170 
1335.000000	99.911205 
1334.000000	99.911244 
1333.000000	99.911283 
1332.000000	99.911317 
1331.000000	99.911350 
1330.000000	99.911384 
1329.000000	99.911423 
1328.000000	99.911465 
1327.000000	99.911510 
1326.000000	99.911555 
1325.000000	99.911598 
1324.000000	99.911637 
1323.000000	99.911666 
1322.000000	99.911685 
1321.000000	99.911697 
1320.000000	99.911707 
1319.000000	99.911719 
1318.000000	99.911732 
1317.000000	99.911744 
1316.000000	99.911752 
1315.000000	99.911757 
1314.000000	99.911762 
1313.000000	99.911765 
1312.000000	99.911764 
1311.000000	99.911757 
1310.000000	99.911745 
1309.000000	99.911732 
1308.000000	99.911720 
1307.000000	99.911711 
1306.000000	99.911707 
1305.000000	99.911709 
1304.000000	99.911716 
1303.000000	99.911722 
1302.000000	99.911723 
1301.000000	99.911717 
1300.000000	99.911705 
1299.000000	99.911671 
1298.000000	99.911621 
1297.000000	99.911615 
1296.000000	99.911716 
1295.000000	99.911865 
1294.000000	99.911920 
1293.000000	99.911819 
1292.000000	99.911682 
1291.000000	99.911690 
1290.000000	99.911899 
1289.000000	99.912152 
1288.000000	99.912145 
1287.000000	99.911656 
1286.000000	99.910791 
1285.000000	99.909968 
1284.000000	99.909552 
1283.000000	99.909533 
1282.000000	99.909546 
1281.000000	99.909227 
1280.000000	99.908580 
1279.000000	99.908119 
1278.000000	99.908496 
1277.000000	99.909659 
1276.000000	99.910422 
1275.000000	99.909457 
1274.000000	99.906852 
1273.000000	99.904261 
1272.000000	99.903241 
1271.000000	99.903884 
1270.000000	99.905374 
1269.000000	99.907308 
1268.000000	99.909755 
1267.000000	99.912332 
1266.000000	99.914145 
1265.000000	99.914789 
1264.000000	99.914788 
1263.000000	99.914784 
1262.000000	99.914692 
1261.000000	99.914031 
1260.000000	99.912845 
1259.000000	99.911730 
1258.000000	99.910890 
1257.000000	99.909732 
1256.000000	99.907817 
1255.000000	99.905819 
1254.000000	99.904966 
1253.000000	99.905675 
1252.000000	99.907405 
1251.000000	99.909685 
1250.000000	99.912329 
1249.000000	99.914489 
1248.000000	99.914595 
1247.000000	99.912027 
1246.000000	99.908248 
1245.000000	99.905411 
1244.000000	99.904180 
1243.000000	99.903646 
1242.000000	99.903142 
1241.000000	99.903321 
1240.000000	99.905260 
1239.000000	99.908865 
1238.000000	99.912294 
1237.000000	99.913031 
1236.000000	99.909941 
1235.000000	99.904601 
1234.000000	99.900233 
1233.000000	99.898733 
1232.000000	99.898996 
1231.000000	99.898486 
1230.000000	99.895924 
1229.000000	99.891936 
1228.000000	99.887552 
1227.000000	99.882814 
1226.000000	99.876731 
1225.000000	99.868114 
1224.000000	99.856639 
1223.000000	99.843570 
1222.000000	99.831108 
1221.000000	99.820524 
1220.000000	99.811224 
1219.000000	99.802028 
1218.000000	99.792718 
1217.000000	99.783580 
1216.000000	99.773947 
1215.000000	99.762338 
1214.000000	99.748139 
1213.000000	99.732313 
1212.000000	99.716243 
1211.000000	99.700536 
1210.000000	99.685228 
1209.000000	99.670531 
1208.000000	99.656810 
1207.000000	99.643965 
1206.000000	99.631206 
1205.000000	99.617578 
1204.000000	99.602712 
1203.000000	99.587116 
1202.000000	99.571758 
1201.000000	99.557290 
1200.000000	99.543672 
1199.000000	99.530601 
1198.000000	99.518152 
1197.000000	99.506620 
1196.000000	99.495611 
1195.000000	99.483687 
1194.000000	99.469574 
1193.000000	99.453759 
1192.000000	99.438243 
1191.000000	99.424334 
1190.000000	99.411237 
1189.000000	99.397332 
1188.000000	99.382189 
1187.000000	99.366332 
1186.000000	99.349483 
1185.000000	99.330456 
1184.000000	99.309138 
1183.000000	99.287451 
1182.000000	99.267648 
1181.000000	99.250209 
1180.000000	99.233743 
1179.000000	99.216272 
1178.000000	99.196439 
1177.000000	99.174441 
1176.000000	99.152243 
1175.000000	99.132036 
1174.000000	99.113949 
1173.000000	99.095974 
1172.000000	99.076329 
1171.000000	99.054888 
1170.000000	99.032240 
1169.000000	99.009102 
1168.000000	98.987386 
1167.000000	98.970104 
1166.000000	98.958922 
1165.000000	98.953046 
1164.000000	98.951485 
1163.000000	98.954861 
1162.000000	98.963463 
1161.000000	98.974783 
1160.000000	98.984672 
1159.000000	98.990116 
1158.000000	98.989580 
1157.000000	98.981994 
1156.000000	98.967705 
1155.000000	98.949911 
1154.000000	98.932782 
1153.000000	98.917620 
1152.000000	98.902424 
1151.000000	98.885162 
1150.000000	98.865761 
1149.000000	98.845017 
1148.000000	98.823632 
1147.000000	98.802885 
1146.000000	98.784435 
1145.000000	98.768457 
1144.000000	98.753078 
1143.000000	98.736497 
1142.000000	98.718814 
1141.000000	98.701095 
1140.000000	98.683413 
1139.000000	98.664707 
1138.000000	98.644279 
1137.000000	98.622635 
1136.000000	98.600608 
1135.000000	98.578040 
1134.000000	98.553870 
1133.000000	98.527853 
1132.000000	98.501772 
1131.000000	98.478201 
1130.000000	98.458120 
1129.000000	98.440580 
1128.000000	98.424394 
1127.000000	98.408635 
1126.000000	98.391377 
1125.000000	98.370035 
1124.000000	98.344108 
1123.000000	98.316233 
1122.000000	98.289325 
1121.000000	98.263984 
1120.000000	98.239940 
1119.000000	98.218395 
1118.000000	98.200891 
1117.000000	98.186716 
1116.000000	98.173240 
1115.000000	98.158437 
1114.000000	98.141699 
1113.000000	98.122794 
1112.000000	98.101811 
1111.000000	98.079977 
1110.000000	98.058967 
1109.000000	98.039310 
1108.000000	98.020427 
1107.000000	98.001858 
1106.000000	97.983444 
1105.000000	97.964866 
1104.000000	97.946301 
1103.000000	97.929170 
1102.000000	97.915025 
1101.000000	97.903829 
1100.000000	97.894245 
1099.000000	97.885271 
1098.000000	97.876708 
1097.000000	97.868322 
1096.000000	97.859293 
1095.000000	97.848539 
1094.000000	97.835530 
1093.000000	97.821243 
1092.000000	97.808140 
1091.000000	97.798058 
1090.000000	97.789939 
1089.000000	97.780987 
1088.000000	97.770475 
1087.000000	97.760826 
1086.000000	97.754145 
1085.000000	97.749283 
1084.000000	97.743786 
1083.000000	97.737709 
1082.000000	97.733895 
1081.000000	97.734605 
1080.000000	97.738541 
1079.000000	97.741058 
1078.000000	97.737170 
1077.000000	97.725028 
1076.000000	97.706829 
1075.000000	97.686197 
1074.000000	97.664867 
1073.000000	97.642432 
1072.000000	97.618370 
1071.000000	97.592576 
1070.000000	97.564261 
1069.000000	97.532439 
1068.000000	97.497847 
1067.000000	97.462568 
1066.000000	97.427194 
1065.000000	97.389868 
1064.000000	97.348573 
1063.000000	97.302997 
1062.000000	97.254513 
1061.000000	97.206452 
1060.000000	97.164013 
1059.000000	97.130677 
1058.000000	97.103878 
1057.000000	97.076994 
1056.000000	97.046347 
1055.000000	97.013317 
1054.000000	96.978888 
1053.000000	96.939932 
1052.000000	96.893457 
1051.000000	96.841960 
1050.000000	96.791573 
1049.000000	96.746269 
1048.000000	96.705802 
1047.000000	96.666945 
1046.000000	96.625082 
1045.000000	96.577495 
1044.000000	96.527231 
1043.000000	96.481384 
1042.000000	96.443611 
1041.000000	96.410343 
1040.000000	96.375836 
1039.000000	96.338564 
1038.000000	96.300932 
1037.000000	96.265397 
1036.000000	96.233454 
1035.000000	96.206374 
1034.000000	96.184391 
1033.000000	96.166383 
1032.000000	96.151906 
1031.000000	96.141920 
1030.000000	96.136279 
1029.000000	96.132385 
1028.000000	96.127730 
1027.000000	96.122161 
1026.000000	96.116585 
1025.000000	96.111250 
1024.000000	96.106470 
1023.000000	96.103263 
1022.000000	96.102031 
1021.000000	96.101852 
1020.000000	96.101630 
1019.000000	96.100701 
1018.000000	96.098537 
1017.000000	96.095742 
1016.000000	96.094933 
1015.000000	96.098171 
1014.000000	96.103667 
1013.000000	96.107526 
1012.000000	96.108413 
1011.000000	96.107696 
1010.000000	96.105691 
1009.000000	96.101525 
1008.000000	96.096614 
1007.000000	96.094213 
1006.000000	96.095143 
1005.000000	96.097958 
1004.000000	96.103726 
1003.000000	96.115972 
1002.000000	96.134654 
1001.000000	96.154714 
1000.000000	96.172462 
999.000000	 96.189391 
998.000000	 96.207790 
997.000000	 96.226836 
996.000000	 96.245482 
995.000000	 96.265441 
994.000000	 96.288175 
993.000000	 96.311710 
992.000000	 96.333394 
991.000000	 96.353862 
990.000000	 96.375956 
989.000000	 96.401314 
988.000000	 96.429487 
987.000000	 96.458520 
986.000000	 96.485581 
985.000000	 96.509840 
984.000000	 96.535707 
983.000000	 96.569882 
982.000000	 96.613612 
981.000000	 96.660905 
980.000000	 96.706119 
979.000000	 96.750184 
978.000000	 96.797077 
977.000000	 96.847646 
976.000000	 96.899894 
975.000000	 96.952452 
974.000000	 97.004471 
973.000000	 97.054289 
972.000000	 97.101456 
971.000000	 97.148481 
970.000000	 97.197646 
969.000000	 97.247598 
968.000000	 97.295907 
967.000000	 97.343294 
966.000000	 97.391962 
965.000000	 97.440851 
964.000000	 97.486252 
963.000000	 97.527092 
962.000000	 97.566472 
961.000000	 97.607519 
960.000000	 97.650190 
959.000000	 97.692699 
958.000000	 97.733914 
957.000000	 97.773534 
956.000000	 97.811537 
955.000000	 97.848209 
954.000000	 97.883807 
953.000000	 97.917976 
952.000000	 97.950100 
951.000000	 97.979809 
950.000000	 98.006365 
949.000000	 98.028638 
948.000000	 98.047059 
947.000000	 98.064321 
946.000000	 98.081979 
945.000000	 98.097525 
944.000000	 98.107867 
943.000000	 98.115191 
942.000000	 98.126017 
941.000000	 98.143666 
940.000000	 98.164474 
939.000000	 98.182487 
938.000000	 98.195479 
937.000000	 98.205573 
936.000000	 98.216424 
935.000000	 98.231066 
934.000000	 98.250312 
933.000000	 98.271542 
932.000000	 98.290364 
931.000000	 98.304647 
930.000000	 98.315945 
929.000000	 98.326580 
928.000000	 98.337200 
927.000000	 98.348042 
926.000000	 98.360333 
925.000000	 98.374744 
924.000000	 98.390046 
923.000000	 98.404776 
922.000000	 98.418777 
921.000000	 98.431624 
920.000000	 98.441233 
919.000000	 98.446203 
918.000000	 98.448541 
917.000000	 98.451957 
916.000000	 98.457977 
915.000000	 98.465650 
914.000000	 98.474782 
913.000000	 98.487644 
912.000000	 98.507063 
911.000000	 98.533719 
910.000000	 98.565267 
909.000000	 98.597622 
908.000000	 98.627697 
907.000000	 98.655649 
906.000000	 98.684126 
905.000000	 98.714898 
904.000000	 98.746804 
903.000000	 98.777399 
902.000000	 98.805788 
901.000000	 98.833243 
900.000000	 98.862042 
899.000000	 98.894413 
898.000000	 98.931049 
897.000000	 98.969303 
896.000000	 99.004185 
895.000000	 99.033077 
894.000000	 99.058731 
893.000000	 99.086130 
892.000000	 99.117312 
891.000000	 99.150772 
890.000000	 99.184241 
889.000000	 99.215333 
888.000000	 99.240633 
887.000000	 99.258007 
886.000000	 99.270527 
885.000000	 99.285152 
884.000000	 99.305865 
883.000000	 99.329795 
882.000000	 99.351077 
881.000000	 99.367009 
880.000000	 99.379656 
879.000000	 99.392856 
878.000000	 99.408555 
877.000000	 99.425646 
876.000000	 99.442512 
875.000000	 99.460678 
874.000000	 99.484154 
873.000000	 99.513827 
872.000000	 99.544654 
871.000000	 99.570926 
870.000000	 99.592379 
869.000000	 99.611919 
868.000000	 99.629282 
867.000000	 99.641552 
866.000000	 99.649576 
865.000000	 99.659078 
864.000000	 99.674185 
863.000000	 99.693490 
862.000000	 99.713591 
861.000000	 99.732882 
860.000000	 99.750261 
859.000000	 99.763594 
858.000000	 99.771947 
857.000000	 99.777347 
856.000000	 99.782988 
855.000000	 99.791724 
854.000000	 99.806531 
853.000000	 99.828657 
852.000000	 99.853828 
851.000000	 99.874157 
850.000000	 99.886271 
849.000000	 99.894272 
848.000000	 99.902381 
847.000000	 99.908558 
846.000000	 99.908949 
845.000000	 99.905110 
844.000000	 99.902214 
843.000000	 99.902082 
842.000000	 99.902590 
841.000000	 99.902908 
840.000000	 99.904623 
839.000000	 99.907075 
838.000000	 99.905291 
837.000000	 99.894385 
836.000000	 99.874606 
835.000000	 99.851478 
834.000000	 99.831801 
833.000000	 99.819457 
832.000000	 99.814328 
831.000000	 99.814944 
830.000000	 99.821708 
829.000000	 99.835861 
828.000000	 99.854640 
827.000000	 99.870145 
826.000000	 99.876349 
825.000000	 99.876299 
824.000000	 99.878953 
823.000000	 99.889018 
822.000000	 99.903137 
821.000000	 99.915919 
820.000000	 99.925506 
819.000000	 99.931563 
818.000000	 99.931009 
817.000000	 99.919008 
816.000000	 99.894476 
815.000000	 99.863275 
814.000000	 99.834128 
813.000000	 99.810283 
812.000000	 99.785849 
811.000000	 99.750907 
810.000000	 99.699559 
809.000000	 99.632691 
808.000000	 99.554516 
807.000000	 99.468204 
806.000000	 99.374524 
805.000000	 99.273767 
804.000000	 99.169331 
803.000000	 99.069238 
802.000000	 98.982184 
801.000000	 98.911817 
800.000000	 98.857365 
799.000000	 98.820009 
798.000000	 98.804818 
797.000000	 98.814246 
796.000000	 98.842427 
795.000000	 98.878815 
794.000000	 98.916085 
793.000000	 98.951484 
792.000000	 98.982160 
791.000000	 99.004316 
790.000000	 99.017403 
789.000000	 99.024058 
788.000000	 99.024155 
787.000000	 99.013316 
786.000000	 98.989487 
785.000000	 98.956817 
784.000000	 98.920436 
783.000000	 98.881634 
782.000000	 98.841868 
781.000000	 98.807950 
780.000000	 98.788137 
779.000000	 98.784261 
778.000000	 98.791679 
777.000000	 98.806186 
776.000000	 98.827180 
775.000000	 98.854610 
774.000000	 98.887299 
773.000000	 98.924915 
772.000000	 98.967435 
771.000000	 99.011069 
770.000000	 99.048041 
769.000000	 99.072493 
768.000000	 99.084898 
767.000000	 99.090399 
766.000000	 99.095108 
765.000000	 99.103940 
764.000000	 99.118700 
763.000000	 99.136513 
762.000000	 99.151871 
761.000000	 99.161507 
760.000000	 99.166575 
759.000000	 99.170944 
758.000000	 99.179749 
757.000000	 99.198541 
756.000000	 99.229414 
755.000000	 99.266563 
754.000000	 99.299301 
753.000000	 99.321666 
752.000000	 99.335905 
751.000000	 99.345437 
750.000000	 99.349215 
749.000000	 99.346679 
748.000000	 99.344233 
747.000000	 99.350345 
746.000000	 99.364993 
745.000000	 99.380229 
744.000000	 99.392307 
743.000000	 99.407331 
742.000000	 99.431789 
741.000000	 99.462647 
740.000000	 99.491753 
739.000000	 99.516982 
738.000000	 99.543254 
737.000000	 99.573269 
736.000000	 99.602522 
735.000000	 99.624834 
734.000000	 99.638702 
733.000000	 99.646213 
732.000000	 99.648580 
731.000000	 99.645620 
730.000000	 99.638376 
729.000000	 99.629866 
728.000000	 99.623807 
727.000000	 99.623750 
726.000000	 99.632042 
725.000000	 99.647826 
724.000000	 99.667214 
723.000000	 99.686957 
722.000000	 99.706526 
721.000000	 99.725171 
720.000000	 99.739511 
719.000000	 99.747269 
718.000000	 99.751358 
717.000000	 99.756313 
716.000000	 99.762396 
715.000000	 99.767562 
714.000000	 99.773732 
713.000000	 99.785655 
712.000000	 99.802998 
711.000000	 99.818705 
710.000000	 99.826958 
709.000000	 99.828280 
708.000000	 99.825032 
707.000000	 99.816691 
706.000000	 99.803125 
705.000000	 99.788968 
704.000000	 99.780122 
703.000000	 99.776912 
702.000000	 99.773272 
701.000000	 99.761351 
700.000000	 99.735087 
699.000000	 99.692082 
698.000000	 99.636601 
697.000000	 99.581233 
696.000000	 99.542130 
695.000000	 99.529946 
694.000000	 99.544406 
693.000000	 99.575843 
692.000000	 99.611400 
691.000000	 99.641532 
690.000000	 99.662858 
689.000000	 99.676536 
688.000000	 99.685563 
687.000000	 99.694030 
686.000000	 99.705922 
685.000000	 99.721296 
684.000000	 99.734808 
683.000000	 99.741210 
682.000000	 99.741994 
681.000000	 99.743285 
680.000000	 99.747210 
679.000000	 99.749976 
678.000000	 99.750196 
677.000000	 99.754216 
676.000000	 99.769099 
675.000000	 99.792949 
674.000000	 99.816380 
673.000000	 99.832175 
672.000000	 99.840686 
671.000000	 99.846124 
670.000000	 99.850460 
669.000000	 99.850484 
668.000000	 99.843610 
667.000000	 99.837839 
666.000000	 99.841168 
665.000000	 99.853871 
664.000000	 99.873365 
663.000000	 99.893177 
662.000000	 99.905383 
661.000000	 99.905231 
660.000000	 99.892406 
659.000000	 99.871683 
658.000000	 99.854237 
657.000000	 99.851309 
656.000000	 99.864466 
655.000000	 99.884747 
654.000000	 99.900959 
653.000000	 99.908662 
652.000000	 99.909854 
651.000000	 99.909420 
650.000000	 99.913326 

