4000.000000	99.172308 
3999.000000	99.171728 
3998.000000	99.171593 
3997.000000	99.172098 
3996.000000	99.172830 
3995.000000	99.173148 
3994.000000	99.172888 
3993.000000	99.172480 
3992.000000	99.172304 
3991.000000	99.172101 
3990.000000	99.171245 
3989.000000	99.169525 
3988.000000	99.167483 
3987.000000	99.165955 
3986.000000	99.165406 
3985.000000	99.165777 
3984.000000	99.166674 
3983.000000	99.167758 
3982.000000	99.169038 
3981.000000	99.170742 
3980.000000	99.172852 
3979.000000	99.174819 
3978.000000	99.175899 
3977.000000	99.175732 
3976.000000	99.174520 
3975.000000	99.172679 
3974.000000	99.170496 
3973.000000	99.168212 
3972.000000	99.166278 
3971.000000	99.165283 
3970.000000	99.165588 
3969.000000	99.167055 
3968.000000	99.168994 
3967.000000	99.170474 
3966.000000	99.170880 
3965.000000	99.170267 
3964.000000	99.169228 
3963.000000	99.168438 
3962.000000	99.168193 
3961.000000	99.168287 
3960.000000	99.168236 
3959.000000	99.167631 
3958.000000	99.166484 
3957.000000	99.165274 
3956.000000	99.164510 
3955.000000	99.164221 
3954.000000	99.163988 
3953.000000	99.163479 
3952.000000	99.162788 
3951.000000	99.162225 
3950.000000	99.161889 
3949.000000	99.161503 
3948.000000	99.160732 
3947.000000	99.159659 
3946.000000	99.158838 
3945.000000	99.158738 
3944.000000	99.159178 
3943.000000	99.159390 
3942.000000	99.158855 
3941.000000	99.157952 
3940.000000	99.157440 
3939.000000	99.157359 
3938.000000	99.156980 
3937.000000	99.155791 
3936.000000	99.154088 
3935.000000	99.152669 
3934.000000	99.152088 
3933.000000	99.152440 
3932.000000	99.153408 
3931.000000	99.154412 
3930.000000	99.154882 
3929.000000	99.154559 
3928.000000	99.153680 
3927.000000	99.152733 
3926.000000	99.151835 
3925.000000	99.150697 
3924.000000	99.149302 
3923.000000	99.148179 
3922.000000	99.147612 
3921.000000	99.147257 
3920.000000	99.146970 
3919.000000	99.147144 
3918.000000	99.147903 
3917.000000	99.148676 
3916.000000	99.148947 
3915.000000	99.148967 
3914.000000	99.149183 
3913.000000	99.149461 
3912.000000	99.149299 
3911.000000	99.148483 
3910.000000	99.147112 
3909.000000	99.145503 
3908.000000	99.143917 
3907.000000	99.142582 
3906.000000	99.141570 
3905.000000	99.140762 
3904.000000	99.139973 
3903.000000	99.139259 
3902.000000	99.138872 
3901.000000	99.138803 
3900.000000	99.138714 
3899.000000	99.138360 
3898.000000	99.137804 
3897.000000	99.137198 
3896.000000	99.136605 
3895.000000	99.136044 
3894.000000	99.135554 
3893.000000	99.135146 
3892.000000	99.134732 
3891.000000	99.134226 
3890.000000	99.133660 
3889.000000	99.133123 
3888.000000	99.132642 
3887.000000	99.132185 
3886.000000	99.131707 
3885.000000	99.131192 
3884.000000	99.130668 
3883.000000	99.130171 
3882.000000	99.129700 
3881.000000	99.129220 
3880.000000	99.128698 
3879.000000	99.128130 
3878.000000	99.127550 
3877.000000	99.126990 
3876.000000	99.126441 
3875.000000	99.125877 
3874.000000	99.125283 
3873.000000	99.124686 
3872.000000	99.124142 
3871.000000	99.123672 
3870.000000	99.123232 
3869.000000	99.122788 
3868.000000	99.122417 
3867.000000	99.122201 
3866.000000	99.122092 
3865.000000	99.121970 
3864.000000	99.121801 
3863.000000	99.121626 
3862.000000	99.121464 
3861.000000	99.121267 
3860.000000	99.120978 
3859.000000	99.120581 
3858.000000	99.120074 
3857.000000	99.119527 
3856.000000	99.119139 
3855.000000	99.119104 
3854.000000	99.119351 
3853.000000	99.119477 
3852.000000	99.119460 
3851.000000	99.119644 
3850.000000	99.120018 
3849.000000	99.120358 
3848.000000	99.120577 
3847.000000	99.120704 
3846.000000	99.120779 
3845.000000	99.120829 
3844.000000	99.120881 
3843.000000	99.120953 
3842.000000	99.121057 
3841.000000	99.121192 
3840.000000	99.121354 
3839.000000	99.121537 
3838.000000	99.121739 
3837.000000	99.121962 
3836.000000	99.122207 
3835.000000	99.122475 
3834.000000	99.122770 
3833.000000	99.123091 
3832.000000	99.123435 
3831.000000	99.123794 
3830.000000	99.124159 
3829.000000	99.124520 
3828.000000	99.124875 
3827.000000	99.125222 
3826.000000	99.125561 
3825.000000	99.125898 
3824.000000	99.126250 
3823.000000	99.126629 
3822.000000	99.127039 
3821.000000	99.127469 
3820.000000	99.127913 
3819.000000	99.128387 
3818.000000	99.128900 
3817.000000	99.129444 
3816.000000	99.129999 
3815.000000	99.130550 
3814.000000	99.131093 
3813.000000	99.131620 
3812.000000	99.132116 
3811.000000	99.132577 
3810.000000	99.133011 
3809.000000	99.133430 
3808.000000	99.133836 
3807.000000	99.134225 
3806.000000	99.134606 
3805.000000	99.134994 
3804.000000	99.135406 
3803.000000	99.135845 
3802.000000	99.136302 
3801.000000	99.136769 
3800.000000	99.137250 
3799.000000	99.137754 
3798.000000	99.138277 
3797.000000	99.138800 
3796.000000	99.139308 
3795.000000	99.139788 
3794.000000	99.140256 
3793.000000	99.140748 
3792.000000	99.141270 
3791.000000	99.141776 
3790.000000	99.142209 
3789.000000	99.142514 
3788.000000	99.142724 
3787.000000	99.143046 
3786.000000	99.143713 
3785.000000	99.144603 
3784.000000	99.145288 
3783.000000	99.145604 
3782.000000	99.145812 
3781.000000	99.145981 
3780.000000	99.145643 
3779.000000	99.144378 
3778.000000	99.142658 
3777.000000	99.141703 
3776.000000	99.141865 
3775.000000	99.142209 
3774.000000	99.141947 
3773.000000	99.141468 
3772.000000	99.141490 
3771.000000	99.141691 
3770.000000	99.140849 
3769.000000	99.138779 
3768.000000	99.137138 
3767.000000	99.137188 
3766.000000	99.137833 
3765.000000	99.137223 
3764.000000	99.135358 
3763.000000	99.134117 
3762.000000	99.134617 
3761.000000	99.135956 
3760.000000	99.136812 
3759.000000	99.136609 
3758.000000	99.135180 
3757.000000	99.132625 
3756.000000	99.129439 
3755.000000	99.126547 
3754.000000	99.124446 
3753.000000	99.123350 
3752.000000	99.123361 
3751.000000	99.122721 
3750.000000	99.117940 
3749.000000	99.108786 
3748.000000	99.100070 
3747.000000	99.096396 
3746.000000	99.098842 
3745.000000	99.104547 
3744.000000	99.106366 
3743.000000	99.103814 
3742.000000	99.106000 
3741.000000	99.112412 
3740.000000	99.114452 
3739.000000	99.111099 
3738.000000	99.107076 
3737.000000	99.105546 
3736.000000	99.105983 
3735.000000	99.107801 
3734.000000	99.112068 
3733.000000	99.118171 
3732.000000	99.122581 
3731.000000	99.123700 
3730.000000	99.124059 
3729.000000	99.125592 
3728.000000	99.127131 
3727.000000	99.127296 
3726.000000	99.126669 
3725.000000	99.126986 
3724.000000	99.128692 
3723.000000	99.129679 
3722.000000	99.128390 
3721.000000	99.126011 
3720.000000	99.124676 
3719.000000	99.124275 
3718.000000	99.121991 
3717.000000	99.115484 
3716.000000	99.105548 
3715.000000	99.095191 
3714.000000	99.086486 
3713.000000	99.079861 
3712.000000	99.074638 
3711.000000	99.070181 
3710.000000	99.067919 
3709.000000	99.069573 
3708.000000	99.073237 
3707.000000	99.074698 
3706.000000	99.071671 
3705.000000	99.065332 
3704.000000	99.058572 
3703.000000	99.053529 
3702.000000	99.049806 
3701.000000	99.045540 
3700.000000	99.040777 
3699.000000	99.037148 
3698.000000	99.034145 
3697.000000	99.029140 
3696.000000	99.021107 
3695.000000	99.012002 
3694.000000	99.004067 
3693.000000	98.997553 
3692.000000	98.992239 
3691.000000	98.988842 
3690.000000	98.987277 
3689.000000	98.985100 
3688.000000	98.980704 
3687.000000	98.977011 
3686.000000	98.977056 
3685.000000	98.978779 
3684.000000	98.978300 
3683.000000	98.974998 
3682.000000	98.970607 
3681.000000	98.965445 
3680.000000	98.957395 
3679.000000	98.945703 
3678.000000	98.933874 
3677.000000	98.926620 
3676.000000	98.923905 
3675.000000	98.919865 
3674.000000	98.914472 
3673.000000	98.914448 
3672.000000	98.919052 
3671.000000	98.923103 
3670.000000	98.924350 
3669.000000	98.922549 
3668.000000	98.920923 
3667.000000	98.921938 
3666.000000	98.923378 
3665.000000	98.923113 
3664.000000	98.921433 
3663.000000	98.919201 
3662.000000	98.916479 
3661.000000	98.913014 
3660.000000	98.909415 
3659.000000	98.907378 
3658.000000	98.907979 
3657.000000	98.909619 
3656.000000	98.908738 
3655.000000	98.904494 
3654.000000	98.900278 
3653.000000	98.898322 
3652.000000	98.898140 
3651.000000	98.899137 
3650.000000	98.900070 
3649.000000	98.898626 
3648.000000	98.895454 
3647.000000	98.894048 
3646.000000	98.896208 
3645.000000	98.901117 
3644.000000	98.906992 
3643.000000	98.912273 
3642.000000	98.915992 
3641.000000	98.918066 
3640.000000	98.919257 
3639.000000	98.920599 
3638.000000	98.922549 
3637.000000	98.925019 
3636.000000	98.927200 
3635.000000	98.927274 
3634.000000	98.923648 
3633.000000	98.917025 
3632.000000	98.910690 
3631.000000	98.908031 
3630.000000	98.910199 
3629.000000	98.913777 
3628.000000	98.913900 
3627.000000	98.913282 
3626.000000	98.916648 
3625.000000	98.921694 
3624.000000	98.924440 
3623.000000	98.924213 
3622.000000	98.922401 
3621.000000	98.920661 
3620.000000	98.919976 
3619.000000	98.920295 
3618.000000	98.921501 
3617.000000	98.924604 
3616.000000	98.930033 
3615.000000	98.936178 
3614.000000	98.940671 
3613.000000	98.942153 
3612.000000	98.941492 
3611.000000	98.941295 
3610.000000	98.943656 
3609.000000	98.948607 
3608.000000	98.954430 
3607.000000	98.959445 
3606.000000	98.963580 
3605.000000	98.967567 
3604.000000	98.971634 
3603.000000	98.975578 
3602.000000	98.978987 
3601.000000	98.981508 
3600.000000	98.983434 
3599.000000	98.985527 
3598.000000	98.987757 
3597.000000	98.989192 
3596.000000	98.989471 
3595.000000	98.989117 
3594.000000	98.988813 
3593.000000	98.989071 
3592.000000	98.990478 
3591.000000	98.993275 
3590.000000	98.997344 
3589.000000	99.001840 
3588.000000	99.004544 
3587.000000	99.003366 
3586.000000	98.999768 
3585.000000	98.997619 
3584.000000	98.998406 
3583.000000	99.000712 
3582.000000	99.002804 
3581.000000	99.003644 
3580.000000	99.002919 
3579.000000	99.001046 
3578.000000	98.998870 
3577.000000	98.997218 
3576.000000	98.996783 
3575.000000	98.997774 
3574.000000	98.999556 
3573.000000	99.000742 
3572.000000	99.000076 
3571.000000	98.997306 
3570.000000	98.993385 
3569.000000	98.989885 
3568.000000	98.987912 
3567.000000	98.987595 
3566.000000	98.988802 
3565.000000	98.991686 
3564.000000	98.995373 
3563.000000	98.998007 
3562.000000	98.998799 
3561.000000	98.998550 
3560.000000	98.998374 
3559.000000	98.998523 
3558.000000	98.998439 
3557.000000	98.997634 
3556.000000	98.996396 
3555.000000	98.995598 
3554.000000	98.995712 
3553.000000	98.996150 
3552.000000	98.995793 
3551.000000	98.994231 
3550.000000	98.992079 
3549.000000	98.990214 
3548.000000	98.989150 
3547.000000	98.989081 
3546.000000	98.989919 
3545.000000	98.991326 
3544.000000	98.992890 
3543.000000	98.994246 
3542.000000	98.995126 
3541.000000	98.995410 
3540.000000	98.995313 
3539.000000	98.995374 
3538.000000	98.995983 
3537.000000	98.996908 
3536.000000	98.997381 
3535.000000	98.996859 
3534.000000	98.995496 
3533.000000	98.993928 
3532.000000	98.992697 
3531.000000	98.991953 
3530.000000	98.991575 
3529.000000	98.991393 
3528.000000	98.991394 
3527.000000	98.991711 
3526.000000	98.992419 
3525.000000	98.993296 
3524.000000	98.993919 
3523.000000	98.994021 
3522.000000	98.993705 
3521.000000	98.993277 
3520.000000	98.992938 
3519.000000	98.992682 
3518.000000	98.992452 
3517.000000	98.992257 
3516.000000	98.992129 
3515.000000	98.992028 
3514.000000	98.991887 
3513.000000	98.991687 
3512.000000	98.991437 
3511.000000	98.991109 
3510.000000	98.990679 
3509.000000	98.990189 
3508.000000	98.989729 
3507.000000	98.989345 
3506.000000	98.988998 
3505.000000	98.988630 
3504.000000	98.988233 
3503.000000	98.987828 
3502.000000	98.987432 
3501.000000	98.987035 
3500.000000	98.986625 
3499.000000	98.986199 
3498.000000	98.985753 
3497.000000	98.985285 
3496.000000	98.984800 
3495.000000	98.984309 
3494.000000	98.983818 
3493.000000	98.983330 
3492.000000	98.982841 
3491.000000	98.982351 
3490.000000	98.981860 
3489.000000	98.981369 
3488.000000	98.980878 
3487.000000	98.980382 
3486.000000	98.979874 
3485.000000	98.979349 
3484.000000	98.978809 
3483.000000	98.978255 
3482.000000	98.977690 
3481.000000	98.977119 
3480.000000	98.976545 
3479.000000	98.975971 
3478.000000	98.975396 
3477.000000	98.974818 
3476.000000	98.974229 
3475.000000	98.973627 
3474.000000	98.973015 
3473.000000	98.972400 
3472.000000	98.971791 
3471.000000	98.971193 
3470.000000	98.970604 
3469.000000	98.970018 
3468.000000	98.969432 
3467.000000	98.968844 
3466.000000	98.968249 
3465.000000	98.967641 
3464.000000	98.967016 
3463.000000	98.966387 
3462.000000	98.965759 
3461.000000	98.965117 
3460.000000	98.964447 
3459.000000	98.963780 
3458.000000	98.963187 
3457.000000	98.962704 
3456.000000	98.962296 
3455.000000	98.961882 
3454.000000	98.961403 
3453.000000	98.960861 
3452.000000	98.960295 
3451.000000	98.959742 
3450.000000	98.959222 
3449.000000	98.958703 
3448.000000	98.958103 
3447.000000	98.957352 
3446.000000	98.956509 
3445.000000	98.955761 
3444.000000	98.955245 
3443.000000	98.954920 
3442.000000	98.954632 
3441.000000	98.954287 
3440.000000	98.953919 
3439.000000	98.953561 
3438.000000	98.953145 
3437.000000	98.952576 
3436.000000	98.951857 
3435.000000	98.951129 
3434.000000	98.950567 
3433.000000	98.950256 
3432.000000	98.950157 
3431.000000	98.950109 
3430.000000	98.949919 
3429.000000	98.949470 
3428.000000	98.948780 
3427.000000	98.947961 
3426.000000	98.947138 
3425.000000	98.946415 
3424.000000	98.945900 
3423.000000	98.945664 
3422.000000	98.945646 
3421.000000	98.945636 
3420.000000	98.945461 
3419.000000	98.945150 
3418.000000	98.944865 
3417.000000	98.944695 
3416.000000	98.944576 
3415.000000	98.944383 
3414.000000	98.944081 
3413.000000	98.943752 
3412.000000	98.943503 
3411.000000	98.943372 
3410.000000	98.943325 
3409.000000	98.943314 
3408.000000	98.943303 
3407.000000	98.943261 
3406.000000	98.943171 
3405.000000	98.943043 
3404.000000	98.942924 
3403.000000	98.942867 
3402.000000	98.942889 
3401.000000	98.942962 
3400.000000	98.943031 
3399.000000	98.943059 
3398.000000	98.943052 
3397.000000	98.943043 
3396.000000	98.943061 
3395.000000	98.943111 
3394.000000	98.943170 
3393.000000	98.943225 
3392.000000	98.943278 
3391.000000	98.943340 
3390.000000	98.943416 
3389.000000	98.943512 
3388.000000	98.943632 
3387.000000	98.943779 
3386.000000	98.943952 
3385.000000	98.944148 
3384.000000	98.944361 
3383.000000	98.944586 
3382.000000	98.944819 
3381.000000	98.945056 
3380.000000	98.945289 
3379.000000	98.945516 
3378.000000	98.945738 
3377.000000	98.945962 
3376.000000	98.946207 
3375.000000	98.946485 
3374.000000	98.946800 
3373.000000	98.947132 
3372.000000	98.947451 
3371.000000	98.947728 
3370.000000	98.947956 
3369.000000	98.948159 
3368.000000	98.948378 
3367.000000	98.948634 
3366.000000	98.948901 
3365.000000	98.949118 
3364.000000	98.949264 
3363.000000	98.949413 
3362.000000	98.949687 
3361.000000	98.950126 
3360.000000	98.950643 
3359.000000	98.951085 
3358.000000	98.951382 
3357.000000	98.951611 
3356.000000	98.951930 
3355.000000	98.952417 
3354.000000	98.952984 
3353.000000	98.953471 
3352.000000	98.953816 
3351.000000	98.954120 
3350.000000	98.954552 
3349.000000	98.955205 
3348.000000	98.956044 
3347.000000	98.956919 
3346.000000	98.957640 
3345.000000	98.958077 
3344.000000	98.958247 
3343.000000	98.958265 
3342.000000	98.958229 
3341.000000	98.958185 
3340.000000	98.958215 
3339.000000	98.958440 
3338.000000	98.958872 
3337.000000	98.959316 
3336.000000	98.959534 
3335.000000	98.959516 
3334.000000	98.959528 
3333.000000	98.959844 
3332.000000	98.960483 
3331.000000	98.961214 
3330.000000	98.961797 
3329.000000	98.962179 
3328.000000	98.962494 
3327.000000	98.962899 
3326.000000	98.963428 
3325.000000	98.963990 
3324.000000	98.964516 
3323.000000	98.965073 
3322.000000	98.965776 
3321.000000	98.966583 
3320.000000	98.967253 
3319.000000	98.967562 
3318.000000	98.967532 
3317.000000	98.967464 
3316.000000	98.967686 
3315.000000	98.968286 
3314.000000	98.969073 
3313.000000	98.969795 
3312.000000	98.970382 
3311.000000	98.970923 
3310.000000	98.971463 
3309.000000	98.971894 
3308.000000	98.972082 
3307.000000	98.972086 
3306.000000	98.972160 
3305.000000	98.972458 
3304.000000	98.972818 
3303.000000	98.972932 
3302.000000	98.972714 
3301.000000	98.972484 
3300.000000	98.972710 
3299.000000	98.973585 
3298.000000	98.974821 
3297.000000	98.975853 
3296.000000	98.976295 
3295.000000	98.976228 
3294.000000	98.976120 
3293.000000	98.976439 
3292.000000	98.977330 
3291.000000	98.978634 
3290.000000	98.980116 
3289.000000	98.981569 
3288.000000	98.982759 
3287.000000	98.983473 
3286.000000	98.983719 
3285.000000	98.983742 
3284.000000	98.983751 
3283.000000	98.983714 
3282.000000	98.983517 
3281.000000	98.983167 
3280.000000	98.982692 
3279.000000	98.981974 
3278.000000	98.980951 
3277.000000	98.979987 
3276.000000	98.979741 
3275.000000	98.980512 
3274.000000	98.981864 
3273.000000	98.982926 
3272.000000	98.983034 
3271.000000	98.982117 
3270.000000	98.980677 
3269.000000	98.979547 
3268.000000	98.979476 
3267.000000	98.980733 
3266.000000	98.982985 
3265.000000	98.985508 
3264.000000	98.987667 
3263.000000	98.989239 
3262.000000	98.990367 
3261.000000	98.991241 
3260.000000	98.991784 
3259.000000	98.991713 
3258.000000	98.990951 
3257.000000	98.989873 
3256.000000	98.989003 
3255.000000	98.988558 
3254.000000	98.988466 
3253.000000	98.988744 
3252.000000	98.989552 
3251.000000	98.990806 
3250.000000	98.991993 
3249.000000	98.992596 
3248.000000	98.992613 
3247.000000	98.992462 
3246.000000	98.992477 
3245.000000	98.992628 
3244.000000	98.992767 
3243.000000	98.992955 
3242.000000	98.993447 
3241.000000	98.994399 
3240.000000	98.995635 
3239.000000	98.996669 
3238.000000	98.997058 
3237.000000	98.996742 
3236.000000	98.996111 
3235.000000	98.995718 
3234.000000	98.995875 
3233.000000	98.996577 
3232.000000	98.997685 
3231.000000	98.999034 
3230.000000	99.000384 
3229.000000	99.001401 
3228.000000	99.001834 
3227.000000	99.001677 
3226.000000	99.001170 
3225.000000	99.000692 
3224.000000	99.000591 
3223.000000	99.001003 
3222.000000	99.001765 
3221.000000	99.002577 
3220.000000	99.003308 
3219.000000	99.004049 
3218.000000	99.004829 
3217.000000	99.005452 
3216.000000	99.005722 
3215.000000	99.005759 
3214.000000	99.005912 
3213.000000	99.006394 
3212.000000	99.007158 
3211.000000	99.008145 
3210.000000	99.009490 
3209.000000	99.011295 
3208.000000	99.013288 
3207.000000	99.014886 
3206.000000	99.015717 
3205.000000	99.016061 
3204.000000	99.016675 
3203.000000	99.018107 
3202.000000	99.020217 
3201.000000	99.022438 
3200.000000	99.024346 
3199.000000	99.025789 
3198.000000	99.026596 
3197.000000	99.026604 
3196.000000	99.026143 
3195.000000	99.026113 
3194.000000	99.027021 
3193.000000	99.028134 
3192.000000	99.028203 
3191.000000	99.027029 
3190.000000	99.025861 
3189.000000	99.026021 
3188.000000	99.027538 
3187.000000	99.029370 
3186.000000	99.030631 
3185.000000	99.031258 
3184.000000	99.031552 
3183.000000	99.031604 
3182.000000	99.031341 
3181.000000	99.030858 
3180.000000	99.030477 
3179.000000	99.030534 
3178.000000	99.031138 
3177.000000	99.031990 
3176.000000	99.032470 
3175.000000	99.032200 
3174.000000	99.031613 
3173.000000	99.031714 
3172.000000	99.033033 
3171.000000	99.035033 
3170.000000	99.036698 
3169.000000	99.037664 
3168.000000	99.038469 
3167.000000	99.039749 
3166.000000	99.041531 
3165.000000	99.043373 
3164.000000	99.044890 
3163.000000	99.046013 
3162.000000	99.046910 
3161.000000	99.047849 
3160.000000	99.049048 
3159.000000	99.050460 
3158.000000	99.051651 
3157.000000	99.052077 
3156.000000	99.051530 
3155.000000	99.050375 
3154.000000	99.049380 
3153.000000	99.049249 
3152.000000	99.050205 
3151.000000	99.051864 
3150.000000	99.053436 
3149.000000	99.054309 
3148.000000	99.054518 
3147.000000	99.054641 
3146.000000	99.055140 
3145.000000	99.055838 
3144.000000	99.056181 
3143.000000	99.055995 
3142.000000	99.055780 
3141.000000	99.056163 
3140.000000	99.057159 
3139.000000	99.058148 
3138.000000	99.058589 
3137.000000	99.058599 
3136.000000	99.058737 
3135.000000	99.059306 
3134.000000	99.060025 
3133.000000	99.060392 
3132.000000	99.060213 
3131.000000	99.059685 
3130.000000	99.059085 
3129.000000	99.058509 
3128.000000	99.057954 
3127.000000	99.057563 
3126.000000	99.057648 
3125.000000	99.058431 
3124.000000	99.059766 
3123.000000	99.061150 
3122.000000	99.062063 
3121.000000	99.062412 
3120.000000	99.062668 
3119.000000	99.063447 
3118.000000	99.064773 
3117.000000	99.065871 
3116.000000	99.065953 
3115.000000	99.065151 
3114.000000	99.064384 
3113.000000	99.064169 
3112.000000	99.063927 
3111.000000	99.062854 
3110.000000	99.061191 
3109.000000	99.060065 
3108.000000	99.060067 
3107.000000	99.060685 
3106.000000	99.061155 
3105.000000	99.061392 
3104.000000	99.061816 
3103.000000	99.062703 
3102.000000	99.064091 
3101.000000	99.065975 
3100.000000	99.068144 
3099.000000	99.069984 
3098.000000	99.070889 
3097.000000	99.070983 
3096.000000	99.071110 
3095.000000	99.071965 
3094.000000	99.073344 
3093.000000	99.074393 
3092.000000	99.074484 
3091.000000	99.073703 
3090.000000	99.072617 
3089.000000	99.071818 
3088.000000	99.071732 
3087.000000	99.072649 
3086.000000	99.074623 
3085.000000	99.077208 
3084.000000	99.079505 
3083.000000	99.080694 
3082.000000	99.080619 
3081.000000	99.079858 
3080.000000	99.079141 
3079.000000	99.078676 
3078.000000	99.078035 
3077.000000	99.076706 
3076.000000	99.074800 
3075.000000	99.073252 
3074.000000	99.073161 
3073.000000	99.074785 
3072.000000	99.077263 
3071.000000	99.079459 
3070.000000	99.080814 
3069.000000	99.081026 
3068.000000	99.079311 
3067.000000	99.074957 
3066.000000	99.068871 
3065.000000	99.063777 
3064.000000	99.062017 
3063.000000	99.063388 
3062.000000	99.065651 
3061.000000	99.067006 
3060.000000	99.067608 
3059.000000	99.068801 
3058.000000	99.071425 
3057.000000	99.074968 
3056.000000	99.077933 
3055.000000	99.078933 
3054.000000	99.077758 
3053.000000	99.075484 
3052.000000	99.073452 
3051.000000	99.072211 
3050.000000	99.071556 
3049.000000	99.071055 
3048.000000	99.069906 
3047.000000	99.066721 
3046.000000	99.060671 
3045.000000	99.053205 
3044.000000	99.047585 
3043.000000	99.045873 
3042.000000	99.046857 
3041.000000	99.047505 
3040.000000	99.046018 
3039.000000	99.042855 
3038.000000	99.039265 
3037.000000	99.035745 
3036.000000	99.031968 
3035.000000	99.027541 
3034.000000	99.022533 
3033.000000	99.017415 
3032.000000	99.012510 
3031.000000	99.007462 
3030.000000	99.001150 
3029.000000	98.992349 
3028.000000	98.980854 
3027.000000	98.968037 
3026.000000	98.956117 
3025.000000	98.946533 
3024.000000	98.938717 
3023.000000	98.930493 
3022.000000	98.919961 
3021.000000	98.907221 
3020.000000	98.894269 
3019.000000	98.883247 
3018.000000	98.874862 
3017.000000	98.868216 
3016.000000	98.861574 
3015.000000	98.853153 
3014.000000	98.841806 
3013.000000	98.827582 
3012.000000	98.811536 
3011.000000	98.794648 
3010.000000	98.777132 
3009.000000	98.759125 
3008.000000	98.741757 
3007.000000	98.726857 
3006.000000	98.715380 
3005.000000	98.706270 
3004.000000	98.696877 
3003.000000	98.684522 
3002.000000	98.668136 
3001.000000	98.649118 
3000.000000	98.630640 
2999.000000	98.615489 
2998.000000	98.604303 
2997.000000	98.596114 
2996.000000	98.590163 
2995.000000	98.585900 
2994.000000	98.580684 
2993.000000	98.569105 
2992.000000	98.547056 
2991.000000	98.517190 
2990.000000	98.488921 
2989.000000	98.471314 
2988.000000	98.466192 
2987.000000	98.468440 
2986.000000	98.472046 
2985.000000	98.475010 
2984.000000	98.478396 
2983.000000	98.482536 
2982.000000	98.485834 
2981.000000	98.486834 
2980.000000	98.486063 
2979.000000	98.485261 
2978.000000	98.485370 
2977.000000	98.485758 
2976.000000	98.485131 
2975.000000	98.482828 
2974.000000	98.479285 
2973.000000	98.475564 
2972.000000	98.472670 
2971.000000	98.471306 
2970.000000	98.472094 
2969.000000	98.475677 
2968.000000	98.482407 
2967.000000	98.491964 
2966.000000	98.503316 
2965.000000	98.515026 
2964.000000	98.525768 
2963.000000	98.534943 
2962.000000	98.542937 
2961.000000	98.550453 
2960.000000	98.557481 
2959.000000	98.563419 
2958.000000	98.568497 
2957.000000	98.574370 
2956.000000	98.582385 
2955.000000	98.591505 
2954.000000	98.599013 
2953.000000	98.603765 
2952.000000	98.608052 
2951.000000	98.615564 
2950.000000	98.627462 
2949.000000	98.640768 
2948.000000	98.650759 
2947.000000	98.654760 
2946.000000	98.653872 
2945.000000	98.651576 
2944.000000	98.650695 
2943.000000	98.651631 
2942.000000	98.653120 
2941.000000	98.653801 
2940.000000	98.652830 
2939.000000	98.649866 
2938.000000	98.645337 
2937.000000	98.640651 
2936.000000	98.637561 
2935.000000	98.637078 
2934.000000	98.638986 
2933.000000	98.642040 
2932.000000	98.644250 
2931.000000	98.643445 
2930.000000	98.638505 
2929.000000	98.630452 
2928.000000	98.622010 
2927.000000	98.615858 
2926.000000	98.613249 
2925.000000	98.613828 
2924.000000	98.616166 
2923.000000	98.618661 
2922.000000	98.620648 
2921.000000	98.622704 
2920.000000	98.625439 
2919.000000	98.628182 
2918.000000	98.629489 
2917.000000	98.628787 
2916.000000	98.626802 
2915.000000	98.624497 
2914.000000	98.622500 
2913.000000	98.621588 
2912.000000	98.622469 
2911.000000	98.624555 
2910.000000	98.625897 
2909.000000	98.625080 
2908.000000	98.622582 
2907.000000	98.619524 
2906.000000	98.615707 
2905.000000	98.609821 
2904.000000	98.601446 
2903.000000	98.592326 
2902.000000	98.585838 
2901.000000	98.585448 
2900.000000	98.592851 
2899.000000	98.606490 
2898.000000	98.621730 
2897.000000	98.633708 
2896.000000	98.640847 
2895.000000	98.645347 
2894.000000	98.650418 
2893.000000	98.657298 
2892.000000	98.664677 
2891.000000	98.670292 
2890.000000	98.672918 
2889.000000	98.673271 
2888.000000	98.673319 
2887.000000	98.674686 
2886.000000	98.677723 
2885.000000	98.682073 
2884.000000	98.687734 
2883.000000	98.695158 
2882.000000	98.704485 
2881.000000	98.715136 
2880.000000	98.726212 
2879.000000	98.737073 
2878.000000	98.747559 
2877.000000	98.757738 
2876.000000	98.767254 
2875.000000	98.774888 
2874.000000	98.779368 
2873.000000	98.781140 
2872.000000	98.782924 
2871.000000	98.787645 
2870.000000	98.795808 
2869.000000	98.805387 
2868.000000	98.814284 
2867.000000	98.822359 
2866.000000	98.831020 
2865.000000	98.841394 
2864.000000	98.853076 
2863.000000	98.864221 
2862.000000	98.872771 
2861.000000	98.878129 
2860.000000	98.881933 
2859.000000	98.886848 
2858.000000	98.894222 
2857.000000	98.903104 
2856.000000	98.911657 
2855.000000	98.919204 
2854.000000	98.926623 
2853.000000	98.935016 
2852.000000	98.944321 
2851.000000	98.953285 
2850.000000	98.960770 
2849.000000	98.966987 
2848.000000	98.973274 
2847.000000	98.980633 
2846.000000	98.988676 
2845.000000	98.996142 
2844.000000	99.002156 
2843.000000	99.006771 
2842.000000	99.010688 
2841.000000	99.014877 
2840.000000	99.020032 
2839.000000	99.025747 
2838.000000	99.030412 
2837.000000	99.032662 
2836.000000	99.032985 
2835.000000	99.033444 
2834.000000	99.035758 
2833.000000	99.040073 
2832.000000	99.045444 
2831.000000	99.050733 
2830.000000	99.054992 
2829.000000	99.057864 
2828.000000	99.060149 
2827.000000	99.063353 
2826.000000	99.067998 
2825.000000	99.072633 
2824.000000	99.075171 
2823.000000	99.075170 
2822.000000	99.074487 
2821.000000	99.075563 
2820.000000	99.079150 
2819.000000	99.083853 
2818.000000	99.087800 
2817.000000	99.090443 
2816.000000	99.092433 
2815.000000	99.094080 
2814.000000	99.094709 
2813.000000	99.093830 
2812.000000	99.092224 
2811.000000	99.091172 
2810.000000	99.091019 
2809.000000	99.091341 
2808.000000	99.092110 
2807.000000	99.093694 
2806.000000	99.095787 
2805.000000	99.097426 
2804.000000	99.098400 
2803.000000	99.099739 
2802.000000	99.102305 
2801.000000	99.105476 
2800.000000	99.107781 
2799.000000	99.108439 
2798.000000	99.107819 
2797.000000	99.106704 
2796.000000	99.105634 
2795.000000	99.104906 
2794.000000	99.104803 
2793.000000	99.105517 
2792.000000	99.106868 
2791.000000	99.108261 
2790.000000	99.109193 
2789.000000	99.109873 
2788.000000	99.111073 
2787.000000	99.113158 
2786.000000	99.115520 
2785.000000	99.117223 
2784.000000	99.118069 
2783.000000	99.118626 
2782.000000	99.119317 
2781.000000	99.119922 
2780.000000	99.120109 
2779.000000	99.120057 
2778.000000	99.120281 
2777.000000	99.121051 
2776.000000	99.122184 
2775.000000	99.123260 
2774.000000	99.123875 
2773.000000	99.123828 
2772.000000	99.123288 
2771.000000	99.122820 
2770.000000	99.122986 
2769.000000	99.123918 
2768.000000	99.125345 
2767.000000	99.126921 
2766.000000	99.128368 
2765.000000	99.129382 
2764.000000	99.129723 
2763.000000	99.129536 
2762.000000	99.129366 
2761.000000	99.129711 
2760.000000	99.130699 
2759.000000	99.132167 
2758.000000	99.133813 
2757.000000	99.135209 
2756.000000	99.136034 
2755.000000	99.136457 
2754.000000	99.136999 
2753.000000	99.137787 
2752.000000	99.138265 
2751.000000	99.137905 
2750.000000	99.136925 
2749.000000	99.135994 
2748.000000	99.135381 
2747.000000	99.134782 
2746.000000	99.133953 
2745.000000	99.133153 
2744.000000	99.132884 
2743.000000	99.133407 
2742.000000	99.134636 
2741.000000	99.136233 
2740.000000	99.137729 
2739.000000	99.138763 
2738.000000	99.139319 
2737.000000	99.139744 
2736.000000	99.140471 
2735.000000	99.141694 
2734.000000	99.143217 
2733.000000	99.144538 
2732.000000	99.145181 
2731.000000	99.145051 
2730.000000	99.144502 
2729.000000	99.144067 
2728.000000	99.144042 
2727.000000	99.144433 
2726.000000	99.145102 
2725.000000	99.145869 
2724.000000	99.146580 
2723.000000	99.147195 
2722.000000	99.147809 
2721.000000	99.148497 
2720.000000	99.149176 
2719.000000	99.149681 
2718.000000	99.149961 
2717.000000	99.150119 
2716.000000	99.150311 
2715.000000	99.150652 
2714.000000	99.151183 
2713.000000	99.151848 
2712.000000	99.152493 
2711.000000	99.152974 
2710.000000	99.153281 
2709.000000	99.153524 
2708.000000	99.153806 
2707.000000	99.154131 
2706.000000	99.154448 
2705.000000	99.154740 
2704.000000	99.155034 
2703.000000	99.155351 
2702.000000	99.155682 
2701.000000	99.156007 
2700.000000	99.156317 
2699.000000	99.156609 
2698.000000	99.156883 
2697.000000	99.157142 
2696.000000	99.157389 
2695.000000	99.157632 
2694.000000	99.157871 
2693.000000	99.158107 
2692.000000	99.158336 
2691.000000	99.158555 
2690.000000	99.158764 
2689.000000	99.158967 
2688.000000	99.159173 
2687.000000	99.159384 
2686.000000	99.159594 
2685.000000	99.159799 
2684.000000	99.159993 
2683.000000	99.160178 
2682.000000	99.160356 
2681.000000	99.160532 
2680.000000	99.160710 
2679.000000	99.160890 
2678.000000	99.161071 
2677.000000	99.161254 
2676.000000	99.161446 
2675.000000	99.161651 
2674.000000	99.161849 
2673.000000	99.162013 
2672.000000	99.162139 
2671.000000	99.162235 
2670.000000	99.162300 
2669.000000	99.162326 
2668.000000	99.162328 
2667.000000	99.162362 
2666.000000	99.162478 
2665.000000	99.162689 
2664.000000	99.162969 
2663.000000	99.163294 
2662.000000	99.163651 
2661.000000	99.164002 
2660.000000	99.164258 
2659.000000	99.164325 
2658.000000	99.164206 
2657.000000	99.164036 
2656.000000	99.164013 
2655.000000	99.164232 
2654.000000	99.164620 
2653.000000	99.164998 
2652.000000	99.165210 
2651.000000	99.165200 
2650.000000	99.165021 
2649.000000	99.164810 
2648.000000	99.164707 
2647.000000	99.164767 
2646.000000	99.164968 
2645.000000	99.165326 
2644.000000	99.165858 
2643.000000	99.166465 
2642.000000	99.166971 
2641.000000	99.167303 
2640.000000	99.167575 
2639.000000	99.167930 
2638.000000	99.168383 
2637.000000	99.168840 
2636.000000	99.169186 
2635.000000	99.169314 
2634.000000	99.169189 
2633.000000	99.168935 
2632.000000	99.168811 
2631.000000	99.168935 
2630.000000	99.169219 
2629.000000	99.169517 
2628.000000	99.169756 
2627.000000	99.169952 
2626.000000	99.170124 
2625.000000	99.170277 
2624.000000	99.170427 
2623.000000	99.170605 
2622.000000	99.170811 
2621.000000	99.171014 
2620.000000	99.171194 
2619.000000	99.171360 
2618.000000	99.171516 
2617.000000	99.171651 
2616.000000	99.171758 
2615.000000	99.171855 
2614.000000	99.171965 
2613.000000	99.172091 
2612.000000	99.172213 
2611.000000	99.172314 
2610.000000	99.172394 
2609.000000	99.172462 
2608.000000	99.172521 
2607.000000	99.172569 
2606.000000	99.172602 
2605.000000	99.172622 
2604.000000	99.172629 
2603.000000	99.172620 
2602.000000	99.172589 
2601.000000	99.172535 
2600.000000	99.172467 
2599.000000	99.172396 
2598.000000	99.172324 
2597.000000	99.172242 
2596.000000	99.172138 
2595.000000	99.172007 
2594.000000	99.171856 
2593.000000	99.171695 
2592.000000	99.171539 
2591.000000	99.171399 
2590.000000	99.171278 
2589.000000	99.171175 
2588.000000	99.171074 
2587.000000	99.170953 
2586.000000	99.170798 
2585.000000	99.170602 
2584.000000	99.170368 
2583.000000	99.170116 
2582.000000	99.169866 
2581.000000	99.169629 
2580.000000	99.169401 
2579.000000	99.169171 
2578.000000	99.168933 
2577.000000	99.168688 
2576.000000	99.168441 
2575.000000	99.168197 
2574.000000	99.167963 
2573.000000	99.167741 
2572.000000	99.167527 
2571.000000	99.167313 
2570.000000	99.167095 
2569.000000	99.166875 
2568.000000	99.166663 
2567.000000	99.166470 
2566.000000	99.166302 
2565.000000	99.166160 
2564.000000	99.166043 
2563.000000	99.165947 
2562.000000	99.165867 
2561.000000	99.165798 
2560.000000	99.165738 
2559.000000	99.165687 
2558.000000	99.165646 
2557.000000	99.165614 
2556.000000	99.165585 
2555.000000	99.165557 
2554.000000	99.165542 
2553.000000	99.165561 
2552.000000	99.165621 
2551.000000	99.165708 
2550.000000	99.165792 
2549.000000	99.165865 
2548.000000	99.165940 
2547.000000	99.166020 
2546.000000	99.166086 
2545.000000	99.166132 
2544.000000	99.166177 
2543.000000	99.166254 
2542.000000	99.166380 
2541.000000	99.166550 
2540.000000	99.166740 
2539.000000	99.166926 
2538.000000	99.167097 
2537.000000	99.167252 
2536.000000	99.167392 
2535.000000	99.167520 
2534.000000	99.167665 
2533.000000	99.167884 
2532.000000	99.168213 
2531.000000	99.168626 
2530.000000	99.169022 
2529.000000	99.169310 
2528.000000	99.169474 
2527.000000	99.169595 
2526.000000	99.169799 
2525.000000	99.170155 
2524.000000	99.170650 
2523.000000	99.171202 
2522.000000	99.171685 
2521.000000	99.171974 
2520.000000	99.172026 
2519.000000	99.171911 
2518.000000	99.171758 
2517.000000	99.171658 
2516.000000	99.171624 
2515.000000	99.171625 
2514.000000	99.171655 
2513.000000	99.171766 
2512.000000	99.171996 
2511.000000	99.172257 
2510.000000	99.172364 
2509.000000	99.172271 
2508.000000	99.172201 
2507.000000	99.172430 
2506.000000	99.172920 
2505.000000	99.173278 
2504.000000	99.173158 
2503.000000	99.172563 
2502.000000	99.171803 
2501.000000	99.171202 
2500.000000	99.170930 
2499.000000	99.171060 
2498.000000	99.171603 
2497.000000	99.172431 
2496.000000	99.173249 
2495.000000	99.173743 
2494.000000	99.173752 
2493.000000	99.173284 
2492.000000	99.172443 
2491.000000	99.171373 
2490.000000	99.170271 
2489.000000	99.169399 
2488.000000	99.168963 
2487.000000	99.168971 
2486.000000	99.169227 
2485.000000	99.169531 
2484.000000	99.169868 
2483.000000	99.170269 
2482.000000	99.170589 
2481.000000	99.170580 
2480.000000	99.170200 
2479.000000	99.169692 
2478.000000	99.169301 
2477.000000	99.169002 
2476.000000	99.168633 
2475.000000	99.168204 
2474.000000	99.167932 
2473.000000	99.167966 
2472.000000	99.168220 
2471.000000	99.168504 
2470.000000	99.168693 
2469.000000	99.168679 
2468.000000	99.168292 
2467.000000	99.167426 
2466.000000	99.166305 
2465.000000	99.165480 
2464.000000	99.165365 
2463.000000	99.165870 
2462.000000	99.166457 
2461.000000	99.166651 
2460.000000	99.166444 
2459.000000	99.166170 
2458.000000	99.166106 
2457.000000	99.166249 
2456.000000	99.166395 
2455.000000	99.166323 
2454.000000	99.165912 
2453.000000	99.165197 
2452.000000	99.164374 
2451.000000	99.163702 
2450.000000	99.163332 
2449.000000	99.163250 
2448.000000	99.163360 
2447.000000	99.163597 
2446.000000	99.163961 
2445.000000	99.164464 
2444.000000	99.165078 
2443.000000	99.165692 
2442.000000	99.166107 
2441.000000	99.166145 
2440.000000	99.165791 
2439.000000	99.165196 
2438.000000	99.164578 
2437.000000	99.164120 
2436.000000	99.163923 
2435.000000	99.163928 
2434.000000	99.163890 
2433.000000	99.163548 
2432.000000	99.162919 
2431.000000	99.162340 
2430.000000	99.162129 
2429.000000	99.162285 
2428.000000	99.162648 
2427.000000	99.163225 
2426.000000	99.164090 
2425.000000	99.164980 
2424.000000	99.165302 
2423.000000	99.164726 
2422.000000	99.163642 
2421.000000	99.162955 
2420.000000	99.163232 
2419.000000	99.164273 
2418.000000	99.165415 
2417.000000	99.166174 
2416.000000	99.166534 
2415.000000	99.166678 
2414.000000	99.166700 
2413.000000	99.166660 
2412.000000	99.166700 
2411.000000	99.166902 
2410.000000	99.167101 
2409.000000	99.167071 
2408.000000	99.166935 
2407.000000	99.167216 
2406.000000	99.168308 
2405.000000	99.169950 
2404.000000	99.171469 
2403.000000	99.172425 
2402.000000	99.172828 
2401.000000	99.172925 
2400.000000	99.172952 
2399.000000	99.173065 
2398.000000	99.173363 
2397.000000	99.173905 
2396.000000	99.174724 
2395.000000	99.175833 
2394.000000	99.177167 
2393.000000	99.178547 
2392.000000	99.179822 
2391.000000	99.181040 
2390.000000	99.182417 
2389.000000	99.184075 
2388.000000	99.185908 
2387.000000	99.187718 
2386.000000	99.189393 
2385.000000	99.190896 
2384.000000	99.192158 
2383.000000	99.193159 
2382.000000	99.194128 
2381.000000	99.195484 
2380.000000	99.197389 
2379.000000	99.199411 
2378.000000	99.200835 
2377.000000	99.201409 
2376.000000	99.201611 
2375.000000	99.202160 
2374.000000	99.203290 
2373.000000	99.204681 
2372.000000	99.205997 
2371.000000	99.207307 
2370.000000	99.208873 
2369.000000	99.210643 
2368.000000	99.212080 
2367.000000	99.212666 
2366.000000	99.212424 
2365.000000	99.211911 
2364.000000	99.211800 
2363.000000	99.212344 
2362.000000	99.213350 
2361.000000	99.214385 
2360.000000	99.215084 
2359.000000	99.215425 
2358.000000	99.215675 
2357.000000	99.216113 
2356.000000	99.216775 
2355.000000	99.217485 
2354.000000	99.218066 
2353.000000	99.218378 
2352.000000	99.218371 
2351.000000	99.218112 
2350.000000	99.217716 
2349.000000	99.217309 
2348.000000	99.217018 
2347.000000	99.216941 
2346.000000	99.216995 
2345.000000	99.216940 
2344.000000	99.216654 
2343.000000	99.216266 
2342.000000	99.216011 
2341.000000	99.215949 
2340.000000	99.215907 
2339.000000	99.215651 
2338.000000	99.215152 
2337.000000	99.214571 
2336.000000	99.214043 
2335.000000	99.213556 
2334.000000	99.213066 
2333.000000	99.212556 
2332.000000	99.211984 
2331.000000	99.211299 
2330.000000	99.210495 
2329.000000	99.209692 
2328.000000	99.209009 
2327.000000	99.208512 
2326.000000	99.208110 
2325.000000	99.207616 
2324.000000	99.206878 
2323.000000	99.205949 
2322.000000	99.205130 
2321.000000	99.204693 
2320.000000	99.204601 
2319.000000	99.204477 
2318.000000	99.203999 
2317.000000	99.203148 
2316.000000	99.202132 
2315.000000	99.201122 
2314.000000	99.200068 
2313.000000	99.198912 
2312.000000	99.197735 
2311.000000	99.196779 
2310.000000	99.196232 
2309.000000	99.196026 
2308.000000	99.195716 
2307.000000	99.194781 
2306.000000	99.193107 
2305.000000	99.191076 
2304.000000	99.189222 
2303.000000	99.187799 
2302.000000	99.186709 
2301.000000	99.185760 
2300.000000	99.184846 
2299.000000	99.183917 
2298.000000	99.182909 
2297.000000	99.181839 
2296.000000	99.180837 
2295.000000	99.180002 
2294.000000	99.179218 
2293.000000	99.178263 
2292.000000	99.177062 
2291.000000	99.175787 
2290.000000	99.174650 
2289.000000	99.173701 
2288.000000	99.172824 
2287.000000	99.171886 
2286.000000	99.170858 
2285.000000	99.169839 
2284.000000	99.168951 
2283.000000	99.168186 
2282.000000	99.167352 
2281.000000	99.166243 
2280.000000	99.164904 
2279.000000	99.163688 
2278.000000	99.162948 
2277.000000	99.162691 
2276.000000	99.162603 
2275.000000	99.162344 
2274.000000	99.161799 
2273.000000	99.161020 
2272.000000	99.160008 
2271.000000	99.158617 
2270.000000	99.156869 
2269.000000	99.155339 
2268.000000	99.154846 
2267.000000	99.155679 
2266.000000	99.157204 
2265.000000	99.158305 
2264.000000	99.158347 
2263.000000	99.157477 
2262.000000	99.156426 
2261.000000	99.156043 
2260.000000	99.156753 
2259.000000	99.158065 
2258.000000	99.158705 
2257.000000	99.157801 
2256.000000	99.155849 
2255.000000	99.154193 
2254.000000	99.153403 
2253.000000	99.152820 
2252.000000	99.151857 
2251.000000	99.151038 
2250.000000	99.151300 
2249.000000	99.152873 
2248.000000	99.155247 
2247.000000	99.157659 
2246.000000	99.159139 
2245.000000	99.158637 
2244.000000	99.155906 
2243.000000	99.152030 
2242.000000	99.148597 
2241.000000	99.146511 
2240.000000	99.145817 
2239.000000	99.146082 
2238.000000	99.146452 
2237.000000	99.145793 
2236.000000	99.143500 
2235.000000	99.140113 
2234.000000	99.136846 
2233.000000	99.134802 
2232.000000	99.134772 
2231.000000	99.137156 
2230.000000	99.141684 
2229.000000	99.147515 
2228.000000	99.153814 
2227.000000	99.159792 
2226.000000	99.164042 
2225.000000	99.164872 
2224.000000	99.161966 
2223.000000	99.157139 
2222.000000	99.152973 
2221.000000	99.151014 
2220.000000	99.151351 
2219.000000	99.153422 
2218.000000	99.156624 
2217.000000	99.160497 
2216.000000	99.164661 
2215.000000	99.168486 
2214.000000	99.170895 
2213.000000	99.170939 
2212.000000	99.168626 
2211.000000	99.165118 
2210.000000	99.162218 
2209.000000	99.161476 
2208.000000	99.163031 
2207.000000	99.164842 
2206.000000	99.164003 
2205.000000	99.159549 
2204.000000	99.153518 
2203.000000	99.148804 
2202.000000	99.146453 
2201.000000	99.145874 
2200.000000	99.146402 
2199.000000	99.147342 
2198.000000	99.147376 
2197.000000	99.145725 
2196.000000	99.143770 
2195.000000	99.143912 
2194.000000	99.146780 
2193.000000	99.150814 
2192.000000	99.154194 
2191.000000	99.156141 
2190.000000	99.156452 
2189.000000	99.155243 
2188.000000	99.153481 
2187.000000	99.152640 
2186.000000	99.153296 
2185.000000	99.154756 
2184.000000	99.156062 
2183.000000	99.156802 
2182.000000	99.156895 
2181.000000	99.156453 
2180.000000	99.156103 
2179.000000	99.156587 
2178.000000	99.157760 
2177.000000	99.158553 
2176.000000	99.158259 
2175.000000	99.157269 
2174.000000	99.156388 
2173.000000	99.155919 
2172.000000	99.155700 
2171.000000	99.155639 
2170.000000	99.155822 
2169.000000	99.156313 
2168.000000	99.157076 
2167.000000	99.157991 
2166.000000	99.158817 
2165.000000	99.159331 
2164.000000	99.159563 
2163.000000	99.159757 
2162.000000	99.160114 
2161.000000	99.160618 
2160.000000	99.161131 
2159.000000	99.161527 
2158.000000	99.161754 
2157.000000	99.161852 
2156.000000	99.161916 
2155.000000	99.162004 
2154.000000	99.162089 
2153.000000	99.162128 
2152.000000	99.162114 
2151.000000	99.162063 
2150.000000	99.161998 
2149.000000	99.161935 
2148.000000	99.161880 
2147.000000	99.161822 
2146.000000	99.161742 
2145.000000	99.161620 
2144.000000	99.161443 
2143.000000	99.161218 
2142.000000	99.160964 
2141.000000	99.160696 
2140.000000	99.160424 
2139.000000	99.160156 
2138.000000	99.159895 
2137.000000	99.159636 
2136.000000	99.159371 
2135.000000	99.159103 
2134.000000	99.158839 
2133.000000	99.158580 
2132.000000	99.158311 
2131.000000	99.158014 
2130.000000	99.157680 
2129.000000	99.157308 
2128.000000	99.156905 
2127.000000	99.156474 
2126.000000	99.156020 
2125.000000	99.155547 
2124.000000	99.155059 
2123.000000	99.154569 
2122.000000	99.154114 
2121.000000	99.153732 
2120.000000	99.153381 
2119.000000	99.152947 
2118.000000	99.152386 
2117.000000	99.151789 
2116.000000	99.151240 
2115.000000	99.150760 
2114.000000	99.150403 
2113.000000	99.150270 
2112.000000	99.150327 
2111.000000	99.150284 
2110.000000	99.149852 
2109.000000	99.149058 
2108.000000	99.148262 
2107.000000	99.147811 
2106.000000	99.147675 
2105.000000	99.147387 
2104.000000	99.146488 
2103.000000	99.145141 
2102.000000	99.144181 
2101.000000	99.144300 
2100.000000	99.145299 
2099.000000	99.146263 
2098.000000	99.146496 
2097.000000	99.146197 
2096.000000	99.146160 
2095.000000	99.146726 
2094.000000	99.147029 
2093.000000	99.145647 
2092.000000	99.142396 
2091.000000	99.139295 
2090.000000	99.138857 
2089.000000	99.141360 
2088.000000	99.144418 
2087.000000	99.145522 
2086.000000	99.144732 
2085.000000	99.144081 
2084.000000	99.145019 
2083.000000	99.147171 
2082.000000	99.149278 
2081.000000	99.150653 
2080.000000	99.151576 
2079.000000	99.152687 
2078.000000	99.154310 
2077.000000	99.156384 
2076.000000	99.158905 
2075.000000	99.162178 
2074.000000	99.166180 
2073.000000	99.169808 
2072.000000	99.171451 
2071.000000	99.170517 
2070.000000	99.168066 
2069.000000	99.165823 
2068.000000	99.164670 
2067.000000	99.164340 
2066.000000	99.164228 
2065.000000	99.164074 
2064.000000	99.164045 
2063.000000	99.164464 
2062.000000	99.165501 
2061.000000	99.167094 
2060.000000	99.168987 
2059.000000	99.170912 
2058.000000	99.172646 
2057.000000	99.173948 
2056.000000	99.174535 
2055.000000	99.174153 
2054.000000	99.172898 
2053.000000	99.171446 
2052.000000	99.170720 
2051.000000	99.171136 
2050.000000	99.172193 
2049.000000	99.172869 
2048.000000	99.172562 
2047.000000	99.171436 
2046.000000	99.170037 
2045.000000	99.168830 
2044.000000	99.168100 
2043.000000	99.167954 
2042.000000	99.168225 
2041.000000	99.168468 
2040.000000	99.168330 
2039.000000	99.167905 
2038.000000	99.167553 
2037.000000	99.167422 
2036.000000	99.167300 
2035.000000	99.166909 
2034.000000	99.166202 
2033.000000	99.165326 
2032.000000	99.164456 
2031.000000	99.163738 
2030.000000	99.163240 
2029.000000	99.162897 
2028.000000	99.162532 
2027.000000	99.162019 
2026.000000	99.161449 
2025.000000	99.161129 
2024.000000	99.161336 
2023.000000	99.161996 
2022.000000	99.162550 
2021.000000	99.162336 
2020.000000	99.161210 
2019.000000	99.159845 
2018.000000	99.159187 
2017.000000	99.159412 
2016.000000	99.159675 
2015.000000	99.159085 
2014.000000	99.157777 
2013.000000	99.156764 
2012.000000	99.156896 
2011.000000	99.158256 
2010.000000	99.160344 
2009.000000	99.162589 
2008.000000	99.164566 
2007.000000	99.165914 
2006.000000	99.166243 
2005.000000	99.165402 
2004.000000	99.163864 
2003.000000	99.162486 
2002.000000	99.161762 
2001.000000	99.161424 
2000.000000	99.160847 
1999.000000	99.159701 
1998.000000	99.158198 
1997.000000	99.157012 
1996.000000	99.156913 
1995.000000	99.158224 
1994.000000	99.160434 
1993.000000	99.162362 
1992.000000	99.163139 
1991.000000	99.162887 
1990.000000	99.162288 
1989.000000	99.161754 
1988.000000	99.161343 
1987.000000	99.161150 
1986.000000	99.161235 
1985.000000	99.161301 
1984.000000	99.160922 
1983.000000	99.160068 
1982.000000	99.159027 
1981.000000	99.157832 
1980.000000	99.156210 
1979.000000	99.154270 
1978.000000	99.152811 
1977.000000	99.152442 
1976.000000	99.152697 
1975.000000	99.152536 
1974.000000	99.151573 
1973.000000	99.150528 
1972.000000	99.150424 
1971.000000	99.151436 
1970.000000	99.152561 
1969.000000	99.152459 
1968.000000	99.150816 
1967.000000	99.148728 
1966.000000	99.147580 
1965.000000	99.147482 
1964.000000	99.147428 
1963.000000	99.146670 
1962.000000	99.145411 
1961.000000	99.144253 
1960.000000	99.143451 
1959.000000	99.142924 
1958.000000	99.142562 
1957.000000	99.142116 
1956.000000	99.141201 
1955.000000	99.139909 
1954.000000	99.139055 
1953.000000	99.139261 
1952.000000	99.139799 
1951.000000	99.139116 
1950.000000	99.136610 
1949.000000	99.133320 
1948.000000	99.130788 
1947.000000	99.129345 
1946.000000	99.127749 
1945.000000	99.124466 
1944.000000	99.119452 
1943.000000	99.114759 
1942.000000	99.112847 
1941.000000	99.114160 
1940.000000	99.116887 
1939.000000	99.119112 
1938.000000	99.120747 
1937.000000	99.122922 
1936.000000	99.125869 
1935.000000	99.128026 
1934.000000	99.127711 
1933.000000	99.125528 
1932.000000	99.124200 
1931.000000	99.125737 
1930.000000	99.129221 
1929.000000	99.131666 
1928.000000	99.131460 
1927.000000	99.129684 
1926.000000	99.128345 
1925.000000	99.128141 
1924.000000	99.128435 
1923.000000	99.129006 
1922.000000	99.130292 
1921.000000	99.132089 
1920.000000	99.132942 
1919.000000	99.131222 
1918.000000	99.126568 
1917.000000	99.120528 
1916.000000	99.115560 
1915.000000	99.113074 
1914.000000	99.112963 
1913.000000	99.114497 
1912.000000	99.117001 
1911.000000	99.119936 
1910.000000	99.122442 
1909.000000	99.123664 
1908.000000	99.124057 
1907.000000	99.125016 
1906.000000	99.127095 
1905.000000	99.129152 
1904.000000	99.129703 
1903.000000	99.128844 
1902.000000	99.127715 
1901.000000	99.126986 
1900.000000	99.126730 
1899.000000	99.127034 
1898.000000	99.127966 
1897.000000	99.129112 
1896.000000	99.129758 
1895.000000	99.129714 
1894.000000	99.129218 
1893.000000	99.128364 
1892.000000	99.127318 
1891.000000	99.126736 
1890.000000	99.126996 
1889.000000	99.127282 
1888.000000	99.126718 
1887.000000	99.125958 
1886.000000	99.126320 
1885.000000	99.128032 
1884.000000	99.130081 
1883.000000	99.131655 
1882.000000	99.132630 
1881.000000	99.132924 
1880.000000	99.132773 
1879.000000	99.133237 
1878.000000	99.135473 
1877.000000	99.139309 
1876.000000	99.142875 
1875.000000	99.144362 
1874.000000	99.143546 
1873.000000	99.141270 
1872.000000	99.138412 
1871.000000	99.135503 
1870.000000	99.132798 
1869.000000	99.130416 
1868.000000	99.128763 
1867.000000	99.128637 
1866.000000	99.129935 
1865.000000	99.131074 
1864.000000	99.130563 
1863.000000	99.128696 
1862.000000	99.127210 
1861.000000	99.127444 
1860.000000	99.129466 
1859.000000	99.132731 
1858.000000	99.136391 
1857.000000	99.139109 
1856.000000	99.139857 
1855.000000	99.139073 
1854.000000	99.138282 
1853.000000	99.138275 
1852.000000	99.138722 
1851.000000	99.139153 
1850.000000	99.139748 
1849.000000	99.141217 
1848.000000	99.143692 
1847.000000	99.146298 
1846.000000	99.147664 
1845.000000	99.147089 
1844.000000	99.145320 
1843.000000	99.144190 
1842.000000	99.144557 
1841.000000	99.145443 
1840.000000	99.145720 
1839.000000	99.145237 
1838.000000	99.144574 
1837.000000	99.144141 
1836.000000	99.143859 
1835.000000	99.143722 
1834.000000	99.143870 
1833.000000	99.144273 
1832.000000	99.144781 
1831.000000	99.145252 
1830.000000	99.145660 
1829.000000	99.146124 
1828.000000	99.146638 
1827.000000	99.146914 
1826.000000	99.146768 
1825.000000	99.146495 
1824.000000	99.146470 
1823.000000	99.146651 
1822.000000	99.146576 
1821.000000	99.145957 
1820.000000	99.145204 
1819.000000	99.145092 
1818.000000	99.146013 
1817.000000	99.147433 
1816.000000	99.148371 
1815.000000	99.148735 
1814.000000	99.149230 
1813.000000	99.150264 
1812.000000	99.151301 
1811.000000	99.151692 
1810.000000	99.151744 
1809.000000	99.151957 
1808.000000	99.152102 
1807.000000	99.151752 
1806.000000	99.151008 
1805.000000	99.150285 
1804.000000	99.149744 
1803.000000	99.149306 
1802.000000	99.148695 
1801.000000	99.147717 
1800.000000	99.146622 
1799.000000	99.146174 
1798.000000	99.147028 
1797.000000	99.148936 
1796.000000	99.150966 
1795.000000	99.152367 
1794.000000	99.152931 
1793.000000	99.152762 
1792.000000	99.152075 
1791.000000	99.151400 
1790.000000	99.151346 
1789.000000	99.151816 
1788.000000	99.152386 
1787.000000	99.152961 
1786.000000	99.153755 
1785.000000	99.154678 
1784.000000	99.155270 
1783.000000	99.155377 
1782.000000	99.155081 
1781.000000	99.154623 
1780.000000	99.154212 
1779.000000	99.153845 
1778.000000	99.153583 
1777.000000	99.153487 
1776.000000	99.153685 
1775.000000	99.154086 
1774.000000	99.154348 
1773.000000	99.154258 
1772.000000	99.153932 
1771.000000	99.153654 
1770.000000	99.153585 
1769.000000	99.153587 
1768.000000	99.153494 
1767.000000	99.153331 
1766.000000	99.153226 
1765.000000	99.153236 
1764.000000	99.153304 
1763.000000	99.153363 
1762.000000	99.153380 
1761.000000	99.153371 
1760.000000	99.153351 
1759.000000	99.153312 
1758.000000	99.153278 
1757.000000	99.153278 
1756.000000	99.153316 
1755.000000	99.153322 
1754.000000	99.153227 
1753.000000	99.153032 
1752.000000	99.152831 
1751.000000	99.152677 
1750.000000	99.152498 
1749.000000	99.152246 
1748.000000	99.152008 
1747.000000	99.151906 
1746.000000	99.151923 
1745.000000	99.151972 
1744.000000	99.151975 
1743.000000	99.151906 
1742.000000	99.151787 
1741.000000	99.151654 
1740.000000	99.151521 
1739.000000	99.151438 
1738.000000	99.151508 
1737.000000	99.151678 
1736.000000	99.151748 
1735.000000	99.151649 
1734.000000	99.151331 
1733.000000	99.150817 
1732.000000	99.150449 
1731.000000	99.150218 
1730.000000	99.149969 
1729.000000	99.149675 
1728.000000	99.149418 
1727.000000	99.149264 
1726.000000	99.149178 
1725.000000	99.149190 
1724.000000	99.149206 
1723.000000	99.149048 
1722.000000	99.148747 
1721.000000	99.148398 
1720.000000	99.148107 
1719.000000	99.148072 
1718.000000	99.148409 
1717.000000	99.148603 
1716.000000	99.148223 
1715.000000	99.147770 
1714.000000	99.147779 
1713.000000	99.147919 
1712.000000	99.147512 
1711.000000	99.146569 
1710.000000	99.145662 
1709.000000	99.145100 
1708.000000	99.144701 
1707.000000	99.144171 
1706.000000	99.143512 
1705.000000	99.142792 
1704.000000	99.142030 
1703.000000	99.141246 
1702.000000	99.140443 
1701.000000	99.139718 
1700.000000	99.138715 
1699.000000	99.137642 
1698.000000	99.137211 
1697.000000	99.136713 
1696.000000	99.135405 
1695.000000	99.133448 
1694.000000	99.131847 
1693.000000	99.130838 
1692.000000	99.129847 
1691.000000	99.128715 
1690.000000	99.127658 
1689.000000	99.126810 
1688.000000	99.126234 
1687.000000	99.125747 
1686.000000	99.125217 
1685.000000	99.124618 
1684.000000	99.123475 
1683.000000	99.121860 
1682.000000	99.120474 
1681.000000	99.119051 
1680.000000	99.117513 
1679.000000	99.116089 
1678.000000	99.114762 
1677.000000	99.113393 
1676.000000	99.112090 
1675.000000	99.110998 
1674.000000	99.109999 
1673.000000	99.109094 
1672.000000	99.108258 
1671.000000	99.107507 
1670.000000	99.106706 
1669.000000	99.105393 
1668.000000	99.103715 
1667.000000	99.102201 
1666.000000	99.100941 
1665.000000	99.099773 
1664.000000	99.098616 
1663.000000	99.097561 
1662.000000	99.096457 
1661.000000	99.095184 
1660.000000	99.094210 
1659.000000	99.093869 
1658.000000	99.093976 
1657.000000	99.094053 
1656.000000	99.093632 
1655.000000	99.092403 
1654.000000	99.091243 
1653.000000	99.090146 
1652.000000	99.088595 
1651.000000	99.089049 
1650.000000	99.090075 
1649.000000	99.089921 
1648.000000	99.088878 
1647.000000	99.087438 
1646.000000	99.085942 
1645.000000	99.085419 
1644.000000	99.086078 
1643.000000	99.087118 
1642.000000	99.087645 
1641.000000	99.087285 
1640.000000	99.086636 
1639.000000	99.086371 
1638.000000	99.086771 
1637.000000	99.087743 
1636.000000	99.088922 
1635.000000	99.089456 
1634.000000	99.089960 
1633.000000	99.090935 
1632.000000	99.090887 
1631.000000	99.089580 
1630.000000	99.088016 
1629.000000	99.087365 
1628.000000	99.088159 
1627.000000	99.090192 
1626.000000	99.092347 
1625.000000	99.093651 
1624.000000	99.094384 
1623.000000	99.095382 
1622.000000	99.096806 
1621.000000	99.098494 
1620.000000	99.100608 
1619.000000	99.103148 
1618.000000	99.106000 
1617.000000	99.107990 
1616.000000	99.108406 
1615.000000	99.108952 
1614.000000	99.110420 
1613.000000	99.111931 
1612.000000	99.113741 
1611.000000	99.116706 
1610.000000	99.119772 
1609.000000	99.121129 
1608.000000	99.121261 
1607.000000	99.122256 
1606.000000	99.124340 
1605.000000	99.126325 
1604.000000	99.128279 
1603.000000	99.130798 
1602.000000	99.133812 
1601.000000	99.136685 
1600.000000	99.139211 
1599.000000	99.141507 
1598.000000	99.143452 
1597.000000	99.144933 
1596.000000	99.145932 
1595.000000	99.146275 
1594.000000	99.145740 
1593.000000	99.144877 
1592.000000	99.145159 
1591.000000	99.147503 
1590.000000	99.150995 
1589.000000	99.153885 
1588.000000	99.155689 
1587.000000	99.157309 
1586.000000	99.159308 
1585.000000	99.161097 
1584.000000	99.162601 
1583.000000	99.164036 
1582.000000	99.164737 
1581.000000	99.164436 
1580.000000	99.163919 
1579.000000	99.163563 
1578.000000	99.162704 
1577.000000	99.161045 
1576.000000	99.159177 
1575.000000	99.158574 
1574.000000	99.159729 
1573.000000	99.161375 
1572.000000	99.162552 
1571.000000	99.163378 
1570.000000	99.163979 
1569.000000	99.164128 
1568.000000	99.164524 
1567.000000	99.165416 
1566.000000	99.166115 
1565.000000	99.166321 
1564.000000	99.166404 
1563.000000	99.166505 
1562.000000	99.166171 
1561.000000	99.165119 
1560.000000	99.164570 
1559.000000	99.164987 
1558.000000	99.165084 
1557.000000	99.165804 
1556.000000	99.166956 
1555.000000	99.167682 
1554.000000	99.167761 
1553.000000	99.167568 
1552.000000	99.167511 
1551.000000	99.167509 
1550.000000	99.167517 
1549.000000	99.167552 
1548.000000	99.167596 
1547.000000	99.167498 
1546.000000	99.167050 
1545.000000	99.166364 
1544.000000	99.165825 
1543.000000	99.165720 
1542.000000	99.166151 
1541.000000	99.167052 
1540.000000	99.167806 
1539.000000	99.167905 
1538.000000	99.167826 
1537.000000	99.167929 
1536.000000	99.167987 
1535.000000	99.167992 
1534.000000	99.167928 
1533.000000	99.167623 
1532.000000	99.167141 
1531.000000	99.166741 
1530.000000	99.166505 
1529.000000	99.166263 
1528.000000	99.165864 
1527.000000	99.165482 
1526.000000	99.165414 
1525.000000	99.165749 
1524.000000	99.166315 
1523.000000	99.166932 
1522.000000	99.167523 
1521.000000	99.167540 
1520.000000	99.166634 
1519.000000	99.165112 
1518.000000	99.163227 
1517.000000	99.161442 
1516.000000	99.160146 
1515.000000	99.159375 
1514.000000	99.158903 
1513.000000	99.158591 
1512.000000	99.158312 
1511.000000	99.157748 
1510.000000	99.156739 
1509.000000	99.155495 
1508.000000	99.154979 
1507.000000	99.155821 
1506.000000	99.156572 
1505.000000	99.156146 
1504.000000	99.155278 
1503.000000	99.154418 
1502.000000	99.153763 
1501.000000	99.153243 
1500.000000	99.152326 
1499.000000	99.150597 
1498.000000	99.148428 
1497.000000	99.146658 
1496.000000	99.145422 
1495.000000	99.144763 
1494.000000	99.144957 
1493.000000	99.145707 
1492.000000	99.146209 
1491.000000	99.145874 
1490.000000	99.144769 
1489.000000	99.143167 
1488.000000	99.140904 
1487.000000	99.138115 
1486.000000	99.135439 
1485.000000	99.132852 
1484.000000	99.130489 
1483.000000	99.128836 
1482.000000	99.128248 
1481.000000	99.128367 
1480.000000	99.128016 
1479.000000	99.126568 
1478.000000	99.124326 
1477.000000	99.121997 
1476.000000	99.119842 
1475.000000	99.118247 
1474.000000	99.117527 
1473.000000	99.117156 
1472.000000	99.115874 
1471.000000	99.113643 
1470.000000	99.111829 
1469.000000	99.110410 
1468.000000	99.108347 
1467.000000	99.105495 
1466.000000	99.102887 
1465.000000	99.101468 
1464.000000	99.101146 
1463.000000	99.100823 
1462.000000	99.100116 
1461.000000	99.099154 
1460.000000	99.097872 
1459.000000	99.095305 
1458.000000	99.089707 
1457.000000	99.079920 
1456.000000	99.068656 
1455.000000	99.061023 
1454.000000	99.057146 
1453.000000	99.055795 
1452.000000	99.056852 
1451.000000	99.059108 
1450.000000	99.061050 
1449.000000	99.062205 
1448.000000	99.062698 
1447.000000	99.063045 
1446.000000	99.063245 
1445.000000	99.063601 
1444.000000	99.064580 
1443.000000	99.065098 
1442.000000	99.064780 
1441.000000	99.064397 
1440.000000	99.064510 
1439.000000	99.063990 
1438.000000	99.062741 
1437.000000	99.061832 
1436.000000	99.060391 
1435.000000	99.057198 
1434.000000	99.052822 
1433.000000	99.048357 
1432.000000	99.044649 
1431.000000	99.041879 
1430.000000	99.039816 
1429.000000	99.038482 
1428.000000	99.037037 
1427.000000	99.034578 
1426.000000	99.030385 
1425.000000	99.025427 
1424.000000	99.021552 
1423.000000	99.017957 
1422.000000	99.012453 
1421.000000	99.003923 
1420.000000	98.993472 
1419.000000	98.982964 
1418.000000	98.974140 
1417.000000	98.967594 
1416.000000	98.961204 
1415.000000	98.952599 
1414.000000	98.941573 
1413.000000	98.930284 
1412.000000	98.921223 
1411.000000	98.914730 
1410.000000	98.909580 
1409.000000	98.905114 
1408.000000	98.901786 
1407.000000	98.900817 
1406.000000	98.902459 
1405.000000	98.905776 
1404.000000	98.910124 
1403.000000	98.915440 
1402.000000	98.922200 
1401.000000	98.930579 
1400.000000	98.939656 
1399.000000	98.946465 
1398.000000	98.947172 
1397.000000	98.939548 
1396.000000	98.924740 
1395.000000	98.909718 
1394.000000	98.904399 
1393.000000	98.912915 
1392.000000	98.930338 
1391.000000	98.947852 
1390.000000	98.959691 
1389.000000	98.964981 
1388.000000	98.965501 
1387.000000	98.963446 
1386.000000	98.960872 
1385.000000	98.959428 
1384.000000	98.959640 
1383.000000	98.960737 
1382.000000	98.961989 
1381.000000	98.963650 
1380.000000	98.966633 
1379.000000	98.971504 
1378.000000	98.977868 
1377.000000	98.984835 
1376.000000	98.991750 
1375.000000	98.998461 
1374.000000	99.005195 
1373.000000	99.012626 
1372.000000	99.021136 
1371.000000	99.030041 
1370.000000	99.037913 
1369.000000	99.043978 
1368.000000	99.048844 
1367.000000	99.053440 
1366.000000	99.058347 
1365.000000	99.064039 
1364.000000	99.070981 
1363.000000	99.078672 
1362.000000	99.085273 
1361.000000	99.089400 
1360.000000	99.091853 
1359.000000	99.094871 
1358.000000	99.100166 
1357.000000	99.107707 
1356.000000	99.115908 
1355.000000	99.122904 
1354.000000	99.128197 
1353.000000	99.132743 
1352.000000	99.136981 
1351.000000	99.140130 
1350.000000	99.141540 
1349.000000	99.142334 
1348.000000	99.144260 
1347.000000	99.147265 
1346.000000	99.150008 
1345.000000	99.151826 
1344.000000	99.153271 
1343.000000	99.154566 
1342.000000	99.155295 
1341.000000	99.155849 
1340.000000	99.157809 
1339.000000	99.161763 
1338.000000	99.166094 
1337.000000	99.169065 
1336.000000	99.170617 
1335.000000	99.171387 
1334.000000	99.171356 
1333.000000	99.170293 
1332.000000	99.168773 
1331.000000	99.167781 
1330.000000	99.167521 
1329.000000	99.167461 
1328.000000	99.167306 
1327.000000	99.167228 
1326.000000	99.167207 
1325.000000	99.167134 
1324.000000	99.167353 
1323.000000	99.168182 
1322.000000	99.169405 
1321.000000	99.170722 
1320.000000	99.172467 
1319.000000	99.175021 
1318.000000	99.177593 
1317.000000	99.178448 
1316.000000	99.176670 
1315.000000	99.173248 
1314.000000	99.170153 
1313.000000	99.168488 
1312.000000	99.167890 
1311.000000	99.167737 
1310.000000	99.168234 
1309.000000	99.169865 
1308.000000	99.172070 
1307.000000	99.173301 
1306.000000	99.172533 
1305.000000	99.170488 
1304.000000	99.169054 
1303.000000	99.169473 
1302.000000	99.171431 
1301.000000	99.173573 
1300.000000	99.174719 
1299.000000	99.174659 
1298.000000	99.174198 
1297.000000	99.174358 
1296.000000	99.175391 
1295.000000	99.176578 
1294.000000	99.176940 
1293.000000	99.176031 
1292.000000	99.174036 
1291.000000	99.171665 
1290.000000	99.170105 
1289.000000	99.170456 
1288.000000	99.172667 
1287.000000	99.175215 
1286.000000	99.176392 
1285.000000	99.175774 
1284.000000	99.174025 
1283.000000	99.171809 
1282.000000	99.169198 
1281.000000	99.165906 
1280.000000	99.162072 
1279.000000	99.158395 
1278.000000	99.155524 
1277.000000	99.153714 
1276.000000	99.152932 
1275.000000	99.152934 
1274.000000	99.153041 
1273.000000	99.152184 
1272.000000	99.149573 
1271.000000	99.145486 
1270.000000	99.141090 
1269.000000	99.137228 
1268.000000	99.133573 
1267.000000	99.129212 
1266.000000	99.123889 
1265.000000	99.118353 
1264.000000	99.113487 
1263.000000	99.109368 
1262.000000	99.105275 
1261.000000	99.100511 
1260.000000	99.095238 
1259.000000	99.090354 
1258.000000	99.086398 
1257.000000	99.082826 
1256.000000	99.078863 
1255.000000	99.074989 
1254.000000	99.072698 
1253.000000	99.072408 
1252.000000	99.072605 
1251.000000	99.071972 
1250.000000	99.071611 
1249.000000	99.073858 
1248.000000	99.079202 
1247.000000	99.085385 
1246.000000	99.089098 
1245.000000	99.087380 
1244.000000	99.078382 
1243.000000	99.063785 
1242.000000	99.050750 
1241.000000	99.047879 
1240.000000	99.057005 
1239.000000	99.070419 
1238.000000	99.078126 
1237.000000	99.076888 
1236.000000	99.070397 
1235.000000	99.062863 
1234.000000	99.055363 
1233.000000	99.047544 
1232.000000	99.039324 
1231.000000	99.030212 
1230.000000	99.019657 
1229.000000	99.009114 
1228.000000	99.001728 
1227.000000	98.998753 
1226.000000	98.997692 
1225.000000	98.995022 
1224.000000	98.989539 
1223.000000	98.982180 
1222.000000	98.973989 
1221.000000	98.965537 
1220.000000	98.957367 
1219.000000	98.949552 
1218.000000	98.941130 
1217.000000	98.930937 
1216.000000	98.918754 
1215.000000	98.904973 
1214.000000	98.889478 
1213.000000	98.871537 
1212.000000	98.850777 
1211.000000	98.827999 
1210.000000	98.805115 
1209.000000	98.784061 
1208.000000	98.765164 
1207.000000	98.746556 
1206.000000	98.726033 
1205.000000	98.703644 
1204.000000	98.681387 
1203.000000	98.660126 
1202.000000	98.638295 
1201.000000	98.614497 
1200.000000	98.590080 
1199.000000	98.567732 
1198.000000	98.548117 
1197.000000	98.529090 
1196.000000	98.507676 
1195.000000	98.481979 
1194.000000	98.452078 
1193.000000	98.420189 
1192.000000	98.389515 
1191.000000	98.361689 
1190.000000	98.335361 
1189.000000	98.308061 
1188.000000	98.278985 
1187.000000	98.249134 
1186.000000	98.219562 
1185.000000	98.190758 
1184.000000	98.163055 
1183.000000	98.136013 
1182.000000	98.107739 
1181.000000	98.076431 
1180.000000	98.042437 
1179.000000	98.007433 
1178.000000	97.971964 
1177.000000	97.935536 
1176.000000	97.898627 
1175.000000	97.862248 
1174.000000	97.825312 
1173.000000	97.784975 
1172.000000	97.740599 
1171.000000	97.695415 
1170.000000	97.653195 
1169.000000	97.614847 
1168.000000	97.579315 
1167.000000	97.546365 
1166.000000	97.517623 
1165.000000	97.496210 
1164.000000	97.486086 
1163.000000	97.489998 
1162.000000	97.506601 
1161.000000	97.530244 
1160.000000	97.554036 
1159.000000	97.572147 
1158.000000	97.579408 
1157.000000	97.571286 
1156.000000	97.546267 
1155.000000	97.508157 
1154.000000	97.464930 
1153.000000	97.424360 
1152.000000	97.389916 
1151.000000	97.359753 
1150.000000	97.329186 
1149.000000	97.294956 
1148.000000	97.257628 
1147.000000	97.219816 
1146.000000	97.182790 
1145.000000	97.145873 
1144.000000	97.108521 
1143.000000	97.071329 
1142.000000	97.035068 
1141.000000	97.000236 
1140.000000	96.967334 
1139.000000	96.935783 
1138.000000	96.902717 
1137.000000	96.864888 
1136.000000	96.822083 
1135.000000	96.777040 
1134.000000	96.731833 
1133.000000	96.686040 
1132.000000	96.638765 
1131.000000	96.590649 
1130.000000	96.543459 
1129.000000	96.498847 
1128.000000	96.457155 
1127.000000	96.415825 
1126.000000	96.370007 
1125.000000	96.317392 
1124.000000	96.261984 
1123.000000	96.210152 
1122.000000	96.162978 
1121.000000	96.115632 
1120.000000	96.064407 
1119.000000	96.010838 
1118.000000	95.958302 
1117.000000	95.908367 
1116.000000	95.861754 
1115.000000	95.819342 
1114.000000	95.780240 
1113.000000	95.741489 
1112.000000	95.701226 
1111.000000	95.659791 
1110.000000	95.616948 
1109.000000	95.571150 
1108.000000	95.522806 
1107.000000	95.475444 
1106.000000	95.431884 
1105.000000	95.391232 
1104.000000	95.350822 
1103.000000	95.309319 
1102.000000	95.267195 
1101.000000	95.226023 
1100.000000	95.187705 
1099.000000	95.152694 
1098.000000	95.118987 
1097.000000	95.084589 
1096.000000	95.050120 
1095.000000	95.016408 
1094.000000	94.980609 
1093.000000	94.938122 
1092.000000	94.887882 
1091.000000	94.832640 
1090.000000	94.774920 
1089.000000	94.716438 
1088.000000	94.660599 
1087.000000	94.610614 
1086.000000	94.564773 
1085.000000	94.518143 
1084.000000	94.469403 
1083.000000	94.421612 
1082.000000	94.376013 
1081.000000	94.330134 
1080.000000	94.282836 
1079.000000	94.236193 
1078.000000	94.191198 
1077.000000	94.146589 
1076.000000	94.103281 
1075.000000	94.064814 
1074.000000	94.031522 
1073.000000	93.998531 
1072.000000	93.960137 
1071.000000	93.910933 
1070.000000	93.842890 
1069.000000	93.749692 
1068.000000	93.637844 
1067.000000	93.527866 
1066.000000	93.438785 
1065.000000	93.373674 
1064.000000	93.322447 
1063.000000	93.272425 
1062.000000	93.212449 
1061.000000	93.133822 
1060.000000	93.035459 
1059.000000	92.927405 
1058.000000	92.824356 
1057.000000	92.734846 
1056.000000	92.657622 
1055.000000	92.585485 
1054.000000	92.510333 
1053.000000	92.427659 
1052.000000	92.339368 
1051.000000	92.250830 
1050.000000	92.163864 
1049.000000	92.075195 
1048.000000	91.982192 
1047.000000	91.886224 
1046.000000	91.789994 
1045.000000	91.695502 
1044.000000	91.604496 
1043.000000	91.516974 
1042.000000	91.429721 
1041.000000	91.340671 
1040.000000	91.254132 
1039.000000	91.177306 
1038.000000	91.112695 
1037.000000	91.058586 
1036.000000	91.014959 
1035.000000	90.982590 
1034.000000	90.957743 
1033.000000	90.934340 
1032.000000	90.910069 
1031.000000	90.884412 
1030.000000	90.854255 
1029.000000	90.820399 
1028.000000	90.795624 
1027.000000	90.794687 
1026.000000	90.815406 
1025.000000	90.839117 
1024.000000	90.851256 
1023.000000	90.852584 
1022.000000	90.849558 
1021.000000	90.844630 
1020.000000	90.839016 
1019.000000	90.835531 
1018.000000	90.833954 
1017.000000	90.830114 
1016.000000	90.822772 
1015.000000	90.815662 
1014.000000	90.810870 
1013.000000	90.806308 
1012.000000	90.801185 
1011.000000	90.797781 
1010.000000	90.796730 
1009.000000	90.796840 
1008.000000	90.800287 
1007.000000	90.811327 
1006.000000	90.829321 
1005.000000	90.849791 
1004.000000	90.872611 
1003.000000	90.901947 
1002.000000	90.937817 
1001.000000	90.975294 
1000.000000	91.012510 
999.000000	 91.051717 
998.000000	 91.092108 
997.000000	 91.130033 
996.000000	 91.167391 
995.000000	 91.211218 
994.000000	 91.262954 
993.000000	 91.315875 
992.000000	 91.365231 
991.000000	 91.413566 
990.000000	 91.463966 
989.000000	 91.515536 
988.000000	 91.568172 
987.000000	 91.625061 
986.000000	 91.687863 
985.000000	 91.755366 
984.000000	 91.828624 
983.000000	 91.911220 
982.000000	 92.002840 
981.000000	 92.098340 
980.000000	 92.194722 
979.000000	 92.293760 
978.000000	 92.396885 
977.000000	 92.503335 
976.000000	 92.613874 
975.000000	 92.729951 
974.000000	 92.848541 
973.000000	 92.964530 
972.000000	 93.079039 
971.000000	 93.198469 
970.000000	 93.323861 
969.000000	 93.448052 
968.000000	 93.565449 
967.000000	 93.678172 
966.000000	 93.789954 
965.000000	 93.899839 
964.000000	 94.005161 
963.000000	 94.106225 
962.000000	 94.204868 
961.000000	 94.301654 
960.000000	 94.396522 
959.000000	 94.489095 
958.000000	 94.576994 
957.000000	 94.657251 
956.000000	 94.730588 
955.000000	 94.801102 
954.000000	 94.870955 
953.000000	 94.938782 
952.000000	 95.003860 
951.000000	 95.067536 
950.000000	 95.129179 
949.000000	 95.184743 
948.000000	 95.231298 
947.000000	 95.270016 
946.000000	 95.303397 
945.000000	 95.332548 
944.000000	 95.358605 
943.000000	 95.384005 
942.000000	 95.410609 
941.000000	 95.438329 
940.000000	 95.466197 
939.000000	 95.492867 
938.000000	 95.516650 
937.000000	 95.538243 
936.000000	 95.563097 
935.000000	 95.596975 
934.000000	 95.638447 
933.000000	 95.679579 
932.000000	 95.715012 
931.000000	 95.746773 
930.000000	 95.779033 
929.000000	 95.811509 
928.000000	 95.839866 
927.000000	 95.860421 
926.000000	 95.873372 
925.000000	 95.883287 
924.000000	 95.896772 
923.000000	 95.917401 
922.000000	 95.942368 
921.000000	 95.965667 
920.000000	 95.983845 
919.000000	 95.996468 
918.000000	 96.002921 
917.000000	 96.003258 
916.000000	 96.001908 
915.000000	 96.005855 
914.000000	 96.017973 
913.000000	 96.035698 
912.000000	 96.057193 
911.000000	 96.085432 
910.000000	 96.125010 
909.000000	 96.177890 
908.000000	 96.242995 
907.000000	 96.316984 
906.000000	 96.394736 
905.000000	 96.471900 
904.000000	 96.547692 
903.000000	 96.623556 
902.000000	 96.700133 
901.000000	 96.777750 
900.000000	 96.858069 
899.000000	 96.941558 
898.000000	 97.024082 
897.000000	 97.099671 
896.000000	 97.166433 
895.000000	 97.227196 
894.000000	 97.285519 
893.000000	 97.343917 
892.000000	 97.404439 
891.000000	 97.467258 
890.000000	 97.529536 
889.000000	 97.589004 
888.000000	 97.647208 
887.000000	 97.705559 
886.000000	 97.760187 
885.000000	 97.805892 
884.000000	 97.844191 
883.000000	 97.881860 
882.000000	 97.921426 
881.000000	 97.959061 
880.000000	 97.993232 
879.000000	 98.029536 
878.000000	 98.073992 
877.000000	 98.125643 
876.000000	 98.178251 
875.000000	 98.225653 
874.000000	 98.263971 
873.000000	 98.293363 
872.000000	 98.320353 
871.000000	 98.354460 
870.000000	 98.399046 
869.000000	 98.448358 
868.000000	 98.496110 
867.000000	 98.543173 
866.000000	 98.593083 
865.000000	 98.643278 
864.000000	 98.686684 
863.000000	 98.721864 
862.000000	 98.756306 
861.000000	 98.797143 
860.000000	 98.841715 
859.000000	 98.880770 
858.000000	 98.909637 
857.000000	 98.932998 
856.000000	 98.958739 
855.000000	 98.989956 
854.000000	 99.023768 
853.000000	 99.055241 
852.000000	 99.080459 
851.000000	 99.097806 
850.000000	 99.109227 
849.000000	 99.119567 
848.000000	 99.132601 
847.000000	 99.148065 
846.000000	 99.163533 
845.000000	 99.177479 
844.000000	 99.188340 
843.000000	 99.192807 
842.000000	 99.189072 
841.000000	 99.180567 
840.000000	 99.171876 
839.000000	 99.161475 
838.000000	 99.143953 
837.000000	 99.120059 
836.000000	 99.098437 
835.000000	 99.084730 
834.000000	 99.074894 
833.000000	 99.064032 
832.000000	 99.056670 
831.000000	 99.060990 
830.000000	 99.075212 
829.000000	 99.087724 
828.000000	 99.091566 
827.000000	 99.092189 
826.000000	 99.098683 
825.000000	 99.112548 
824.000000	 99.128271 
823.000000	 99.140904 
822.000000	 99.149653 
821.000000	 99.156159 
820.000000	 99.161613 
819.000000	 99.165085 
818.000000	 99.164563 
817.000000	 99.159986 
816.000000	 99.153245 
815.000000	 99.143066 
814.000000	 99.122170 
813.000000	 99.083233 
812.000000	 99.026238 
811.000000	 98.955242 
810.000000	 98.867934 
809.000000	 98.753896 
808.000000	 98.605884 
807.000000	 98.429464 
806.000000	 98.238860 
805.000000	 98.046228 
804.000000	 97.858856 
803.000000	 97.684281 
802.000000	 97.532349 
801.000000	 97.411376 
800.000000	 97.324768 
799.000000	 97.271350 
798.000000	 97.247906 
797.000000	 97.251764 
796.000000	 97.280428 
795.000000	 97.327791 
794.000000	 97.382947 
793.000000	 97.435808 
792.000000	 97.482640 
791.000000	 97.523688 
790.000000	 97.557649 
789.000000	 97.581267 
788.000000	 97.591512 
787.000000	 97.584439 
786.000000	 97.554711 
785.000000	 97.501313 
784.000000	 97.432578 
783.000000	 97.361263 
782.000000	 97.295691 
781.000000	 97.239742 
780.000000	 97.199063 
779.000000	 97.180192 
778.000000	 97.183356 
777.000000	 97.202682 
776.000000	 97.234717 
775.000000	 97.281111 
774.000000	 97.341730 
773.000000	 97.410561 
772.000000	 97.480269 
771.000000	 97.546790 
770.000000	 97.608350 
769.000000	 97.663425 
768.000000	 97.710408 
767.000000	 97.746969 
766.000000	 97.770785 
765.000000	 97.784227 
764.000000	 97.796462 
763.000000	 97.815529 
762.000000	 97.838222 
761.000000	 97.853091 
760.000000	 97.854837 
759.000000	 97.851829 
758.000000	 97.858027 
757.000000	 97.880099 
756.000000	 97.912662 
755.000000	 97.942930 
754.000000	 97.960479 
753.000000	 97.966525 
752.000000	 97.974193 
751.000000	 97.996950 
750.000000	 98.036365 
749.000000	 98.082734 
748.000000	 98.125917 
747.000000	 98.162359 
746.000000	 98.193730 
745.000000	 98.223994 
744.000000	 98.257894 
743.000000	 98.298080 
742.000000	 98.343027 
741.000000	 98.390118 
740.000000	 98.439328 
739.000000	 98.490714 
738.000000	 98.540507 
737.000000	 98.583836 
736.000000	 98.619245 
735.000000	 98.646835 
734.000000	 98.665543 
733.000000	 98.677722 
732.000000	 98.692950 
731.000000	 98.719476 
730.000000	 98.752848 
729.000000	 98.780695 
728.000000	 98.798849 
727.000000	 98.814300 
726.000000	 98.831276 
725.000000	 98.844170 
724.000000	 98.847781 
723.000000	 98.846579 
722.000000	 98.849534 
721.000000	 98.861617 
720.000000	 98.883954 
719.000000	 98.915971 
718.000000	 98.952653 
717.000000	 98.984845 
716.000000	 99.006521 
715.000000	 99.018963 
714.000000	 99.026422 
713.000000	 99.031673 
712.000000	 99.037929 
711.000000	 99.049291 
710.000000	 99.064614 
709.000000	 99.075163 
708.000000	 99.072780 
707.000000	 99.058105 
706.000000	 99.036965 
705.000000	 99.012386 
704.000000	 98.984402 
703.000000	 98.953798 
702.000000	 98.921249 
701.000000	 98.882809 
700.000000	 98.829377 
699.000000	 98.753197 
698.000000	 98.656132 
697.000000	 98.554022 
696.000000	 98.471141 
695.000000	 98.424844 
694.000000	 98.415639 
693.000000	 98.433181 
692.000000	 98.468952 
691.000000	 98.519313 
690.000000	 98.578555 
689.000000	 98.638295 
688.000000	 98.694558 
687.000000	 98.747134 
686.000000	 98.791419 
685.000000	 98.818809 
684.000000	 98.827947 
683.000000	 98.829529 
682.000000	 98.836763 
681.000000	 98.855386 
680.000000	 98.882387 
679.000000	 98.909098 
678.000000	 98.925104 
677.000000	 98.926835 
676.000000	 98.927130 
675.000000	 98.945398 
674.000000	 98.983932 
673.000000	 99.023024 
672.000000	 99.045677 
671.000000	 99.059535 
670.000000	 99.086993 
669.000000	 99.138393 
668.000000	 99.179546 
667.000000	 99.181630 
666.000000	 99.164714 
665.000000	 99.145702 
664.000000	 99.132936 
663.000000	 99.140278 
662.000000	 99.169463 
661.000000	 99.201117 
660.000000	 99.213651 
659.000000	 99.206555 
658.000000	 99.192682 
657.000000	 99.177988 
656.000000	 99.162924 
655.000000	 99.154676 
654.000000	 99.159037 
653.000000	 99.166817 
652.000000	 99.165094 
651.000000	 99.156857 
650.000000	 99.156274 

