4000.000000	99.318789 
3999.000000	99.318324 
3998.000000	99.317717 
3997.000000	99.317472 
3996.000000	99.317598 
3995.000000	99.317749 
3994.000000	99.317743 
3993.000000	99.317740 
3992.000000	99.317913 
3991.000000	99.318130 
3990.000000	99.318051 
3989.000000	99.317409 
3988.000000	99.316180 
3987.000000	99.314631 
3986.000000	99.313269 
3985.000000	99.312600 
3984.000000	99.312820 
3983.000000	99.313724 
3982.000000	99.314978 
3981.000000	99.316433 
3980.000000	99.318058 
3979.000000	99.319666 
3978.000000	99.320870 
3977.000000	99.321321 
3976.000000	99.320872 
3975.000000	99.319556 
3974.000000	99.317586 
3973.000000	99.315428 
3972.000000	99.313728 
3971.000000	99.312995 
3970.000000	99.313343 
3969.000000	99.314440 
3968.000000	99.315668 
3967.000000	99.316466 
3966.000000	99.316636 
3965.000000	99.316355 
3964.000000	99.315965 
3963.000000	99.315748 
3962.000000	99.315788 
3961.000000	99.315929 
3960.000000	99.315838 
3959.000000	99.315266 
3958.000000	99.314393 
3957.000000	99.313722 
3956.000000	99.313559 
3955.000000	99.313678 
3954.000000	99.313625 
3953.000000	99.313223 
3952.000000	99.312664 
3951.000000	99.312210 
3950.000000	99.311905 
3949.000000	99.311606 
3948.000000	99.311214 
3947.000000	99.310812 
3946.000000	99.310517 
3945.000000	99.310313 
3944.000000	99.310085 
3943.000000	99.309772 
3942.000000	99.309412 
3941.000000	99.309053 
3940.000000	99.308690 
3939.000000	99.308301 
3938.000000	99.307892 
3937.000000	99.307478 
3936.000000	99.307060 
3935.000000	99.306643 
3934.000000	99.306235 
3933.000000	99.305843 
3932.000000	99.305470 
3931.000000	99.305114 
3930.000000	99.304770 
3929.000000	99.304427 
3928.000000	99.304080 
3927.000000	99.303723 
3926.000000	99.303362 
3925.000000	99.303004 
3924.000000	99.302656 
3923.000000	99.302320 
3922.000000	99.301992 
3921.000000	99.301667 
3920.000000	99.301349 
3919.000000	99.301043 
3918.000000	99.300752 
3917.000000	99.300473 
3916.000000	99.300202 
3915.000000	99.299937 
3914.000000	99.299677 
3913.000000	99.299420 
3912.000000	99.299159 
3911.000000	99.298889 
3910.000000	99.298615 
3909.000000	99.298346 
3908.000000	99.298086 
3907.000000	99.297835 
3906.000000	99.297589 
3905.000000	99.297343 
3904.000000	99.297093 
3903.000000	99.296836 
3902.000000	99.296572 
3901.000000	99.296298 
3900.000000	99.296010 
3899.000000	99.295707 
3898.000000	99.295391 
3897.000000	99.295068 
3896.000000	99.294748 
3895.000000	99.294433 
3894.000000	99.294128 
3893.000000	99.293834 
3892.000000	99.293554 
3891.000000	99.293281 
3890.000000	99.293011 
3889.000000	99.292741 
3888.000000	99.292469 
3887.000000	99.292189 
3886.000000	99.291905 
3885.000000	99.291625 
3884.000000	99.291356 
3883.000000	99.291096 
3882.000000	99.290838 
3881.000000	99.290576 
3880.000000	99.290312 
3879.000000	99.290053 
3878.000000	99.289799 
3877.000000	99.289547 
3876.000000	99.289289 
3875.000000	99.289024 
3874.000000	99.288757 
3873.000000	99.288493 
3872.000000	99.288233 
3871.000000	99.287979 
3870.000000	99.287735 
3869.000000	99.287517 
3868.000000	99.287329 
3867.000000	99.287161 
3866.000000	99.286997 
3865.000000	99.286831 
3864.000000	99.286663 
3863.000000	99.286500 
3862.000000	99.286337 
3861.000000	99.286159 
3860.000000	99.285971 
3859.000000	99.285781 
3858.000000	99.285578 
3857.000000	99.285385 
3856.000000	99.285306 
3855.000000	99.285425 
3854.000000	99.285618 
3853.000000	99.285678 
3852.000000	99.285752 
3851.000000	99.285967 
3850.000000	99.286205 
3849.000000	99.286368 
3848.000000	99.286480 
3847.000000	99.286568 
3846.000000	99.286629 
3845.000000	99.286666 
3844.000000	99.286699 
3843.000000	99.286736 
3842.000000	99.286769 
3841.000000	99.286789 
3840.000000	99.286799 
3839.000000	99.286802 
3838.000000	99.286798 
3837.000000	99.286789 
3836.000000	99.286776 
3835.000000	99.286763 
3834.000000	99.286754 
3833.000000	99.286751 
3832.000000	99.286756 
3831.000000	99.286770 
3830.000000	99.286787 
3829.000000	99.286805 
3828.000000	99.286820 
3827.000000	99.286829 
3826.000000	99.286834 
3825.000000	99.286843 
3824.000000	99.286868 
3823.000000	99.286912 
3822.000000	99.286969 
3821.000000	99.287032 
3820.000000	99.287104 
3819.000000	99.287190 
3818.000000	99.287282 
3817.000000	99.287370 
3816.000000	99.287454 
3815.000000	99.287540 
3814.000000	99.287631 
3813.000000	99.287714 
3812.000000	99.287777 
3811.000000	99.287821 
3810.000000	99.287856 
3809.000000	99.287886 
3808.000000	99.287905 
3807.000000	99.287916 
3806.000000	99.287930 
3805.000000	99.287958 
3804.000000	99.288001 
3803.000000	99.288054 
3802.000000	99.288120 
3801.000000	99.288212 
3800.000000	99.288339 
3799.000000	99.288490 
3798.000000	99.288666 
3797.000000	99.288821 
3796.000000	99.288957 
3795.000000	99.289162 
3794.000000	99.289495 
3793.000000	99.289900 
3792.000000	99.290285 
3791.000000	99.290630 
3790.000000	99.290908 
3789.000000	99.291070 
3788.000000	99.291175 
3787.000000	99.291423 
3786.000000	99.291922 
3785.000000	99.292547 
3784.000000	99.293190 
3783.000000	99.293886 
3782.000000	99.294500 
3781.000000	99.294632 
3780.000000	99.294074 
3779.000000	99.293092 
3778.000000	99.292285 
3777.000000	99.291868 
3776.000000	99.291515 
3775.000000	99.291064 
3774.000000	99.290916 
3773.000000	99.291354 
3772.000000	99.291919 
3771.000000	99.291808 
3770.000000	99.290886 
3769.000000	99.289884 
3768.000000	99.289495 
3767.000000	99.289447 
3766.000000	99.289145 
3765.000000	99.288676 
3764.000000	99.288689 
3763.000000	99.289363 
3762.000000	99.289986 
3761.000000	99.290036 
3760.000000	99.289989 
3759.000000	99.290278 
3758.000000	99.290470 
3757.000000	99.289948 
3756.000000	99.288824 
3755.000000	99.287408 
3754.000000	99.285755 
3753.000000	99.284243 
3752.000000	99.283509 
3751.000000	99.282826 
3750.000000	99.280618 
3749.000000	99.277829 
3748.000000	99.276893 
3747.000000	99.277716 
3746.000000	99.278247 
3745.000000	99.277065 
3744.000000	99.274595 
3743.000000	99.274619 
3742.000000	99.278096 
3741.000000	99.279936 
3740.000000	99.278085 
3739.000000	99.275582 
3738.000000	99.275170 
3737.000000	99.276409 
3736.000000	99.277879 
3735.000000	99.279609 
3734.000000	99.281371 
3733.000000	99.281147 
3732.000000	99.278223 
3731.000000	99.275454 
3730.000000	99.275372 
3729.000000	99.276574 
3728.000000	99.276392 
3727.000000	99.275184 
3726.000000	99.275553 
3725.000000	99.278272 
3724.000000	99.280433 
3723.000000	99.279314 
3722.000000	99.275763 
3721.000000	99.272658 
3720.000000	99.271617 
3719.000000	99.271396 
3718.000000	99.269872 
3717.000000	99.266404 
3716.000000	99.262007 
3715.000000	99.257265 
3714.000000	99.251888 
3713.000000	99.246079 
3712.000000	99.240315 
3711.000000	99.235121 
3710.000000	99.232025 
3709.000000	99.231643 
3708.000000	99.232231 
3707.000000	99.231574 
3706.000000	99.228847 
3705.000000	99.224392 
3704.000000	99.218993 
3703.000000	99.213698 
3702.000000	99.209301 
3701.000000	99.206144 
3700.000000	99.204448 
3699.000000	99.202989 
3698.000000	99.199060 
3697.000000	99.191741 
3696.000000	99.183261 
3695.000000	99.176103 
3694.000000	99.170192 
3693.000000	99.164446 
3692.000000	99.159427 
3691.000000	99.156147 
3690.000000	99.153348 
3689.000000	99.148434 
3688.000000	99.142833 
3687.000000	99.141333 
3686.000000	99.144376 
3685.000000	99.147341 
3684.000000	99.147507 
3683.000000	99.146304 
3682.000000	99.145279 
3681.000000	99.143096 
3680.000000	99.137665 
3679.000000	99.129957 
3678.000000	99.122003 
3677.000000	99.114319 
3676.000000	99.106452 
3675.000000	99.100845 
3674.000000	99.103780 
3673.000000	99.113947 
3672.000000	99.121242 
3671.000000	99.122139 
3670.000000	99.120674 
3669.000000	99.120458 
3668.000000	99.122358 
3667.000000	99.123624 
3666.000000	99.122169 
3665.000000	99.119856 
3664.000000	99.119507 
3663.000000	99.121545 
3662.000000	99.124185 
3661.000000	99.125840 
3660.000000	99.126842 
3659.000000	99.128799 
3658.000000	99.132219 
3657.000000	99.135798 
3656.000000	99.138102 
3655.000000	99.141002 
3654.000000	99.146310 
3653.000000	99.151977 
3652.000000	99.155976 
3651.000000	99.159117 
3650.000000	99.161256 
3649.000000	99.160082 
3648.000000	99.156448 
3647.000000	99.154731 
3646.000000	99.157373 
3645.000000	99.162977 
3644.000000	99.168997 
3643.000000	99.174181 
3642.000000	99.178995 
3641.000000	99.184124 
3640.000000	99.189622 
3639.000000	99.195359 
3638.000000	99.201823 
3637.000000	99.209342 
3636.000000	99.216083 
3635.000000	99.219006 
3634.000000	99.217378 
3633.000000	99.214111 
3632.000000	99.212414 
3631.000000	99.213014 
3630.000000	99.214951 
3629.000000	99.215792 
3628.000000	99.215210 
3627.000000	99.217011 
3626.000000	99.220864 
3625.000000	99.223503 
3624.000000	99.225044 
3623.000000	99.226964 
3622.000000	99.229049 
3621.000000	99.230115 
3620.000000	99.230085 
3619.000000	99.230007 
3618.000000	99.231103 
3617.000000	99.233649 
3616.000000	99.236173 
3615.000000	99.236978 
3614.000000	99.235884 
3613.000000	99.234123 
3612.000000	99.233100 
3611.000000	99.233292 
3610.000000	99.234414 
3609.000000	99.236373 
3608.000000	99.239116 
3607.000000	99.242100 
3606.000000	99.244556 
3605.000000	99.246050 
3604.000000	99.246803 
3603.000000	99.247309 
3602.000000	99.247785 
3601.000000	99.248543 
3600.000000	99.250228 
3599.000000	99.252918 
3598.000000	99.255392 
3597.000000	99.256458 
3596.000000	99.256062 
3595.000000	99.255106 
3594.000000	99.254496 
3593.000000	99.254718 
3592.000000	99.255807 
3591.000000	99.257520 
3590.000000	99.259393 
3589.000000	99.260758 
3588.000000	99.260931 
3587.000000	99.259881 
3586.000000	99.258598 
3585.000000	99.257939 
3584.000000	99.257772 
3583.000000	99.257738 
3582.000000	99.257722 
3581.000000	99.257714 
3580.000000	99.257706 
3579.000000	99.257783 
3578.000000	99.258016 
3577.000000	99.258431 
3576.000000	99.259017 
3575.000000	99.259714 
3574.000000	99.260392 
3573.000000	99.260885 
3572.000000	99.261117 
3571.000000	99.261127 
3570.000000	99.260975 
3569.000000	99.260652 
3568.000000	99.260177 
3567.000000	99.259728 
3566.000000	99.259637 
3565.000000	99.260024 
3564.000000	99.260530 
3563.000000	99.260748 
3562.000000	99.260674 
3561.000000	99.260553 
3560.000000	99.260543 
3559.000000	99.260593 
3558.000000	99.260572 
3557.000000	99.260433 
3556.000000	99.260271 
3555.000000	99.260182 
3554.000000	99.260146 
3553.000000	99.260076 
3552.000000	99.259947 
3551.000000	99.259816 
3550.000000	99.259718 
3549.000000	99.259639 
3548.000000	99.259614 
3547.000000	99.259730 
3546.000000	99.260001 
3545.000000	99.260346 
3544.000000	99.260628 
3543.000000	99.260751 
3542.000000	99.260709 
3541.000000	99.260583 
3540.000000	99.260503 
3539.000000	99.260540 
3538.000000	99.260668 
3537.000000	99.260791 
3536.000000	99.260827 
3535.000000	99.260761 
3534.000000	99.260619 
3533.000000	99.260456 
3532.000000	99.260334 
3531.000000	99.260295 
3530.000000	99.260335 
3529.000000	99.260405 
3528.000000	99.260467 
3527.000000	99.260514 
3526.000000	99.260549 
3525.000000	99.260563 
3524.000000	99.260551 
3523.000000	99.260523 
3522.000000	99.260494 
3521.000000	99.260470 
3520.000000	99.260447 
3519.000000	99.260422 
3518.000000	99.260401 
3517.000000	99.260389 
3516.000000	99.260385 
3515.000000	99.260386 
3514.000000	99.260387 
3513.000000	99.260383 
3512.000000	99.260370 
3511.000000	99.260347 
3510.000000	99.260308 
3509.000000	99.260251 
3508.000000	99.260176 
3507.000000	99.260084 
3506.000000	99.259972 
3505.000000	99.259836 
3504.000000	99.259674 
3503.000000	99.259489 
3502.000000	99.259291 
3501.000000	99.259088 
3500.000000	99.258883 
3499.000000	99.258670 
3498.000000	99.258440 
3497.000000	99.258190 
3496.000000	99.257925 
3495.000000	99.257651 
3494.000000	99.257383 
3493.000000	99.257143 
3492.000000	99.256910 
3491.000000	99.256620 
3490.000000	99.256237 
3489.000000	99.255833 
3488.000000	99.255539 
3487.000000	99.255443 
3486.000000	99.255501 
3485.000000	99.255572 
3484.000000	99.255539 
3483.000000	99.255399 
3482.000000	99.255208 
3481.000000	99.254952 
3480.000000	99.254556 
3479.000000	99.254070 
3478.000000	99.253710 
3477.000000	99.253573 
3476.000000	99.253376 
3475.000000	99.252690 
3474.000000	99.251530 
3473.000000	99.250517 
3472.000000	99.250282 
3471.000000	99.250799 
3470.000000	99.251454 
3469.000000	99.251691 
3468.000000	99.251396 
3467.000000	99.250673 
3466.000000	99.249514 
3465.000000	99.247806 
3464.000000	99.245606 
3463.000000	99.243276 
3462.000000	99.241276 
3461.000000	99.239848 
3460.000000	99.238981 
3459.000000	99.238691 
3458.000000	99.239192 
3457.000000	99.240573 
3456.000000	99.242465 
3455.000000	99.244257 
3454.000000	99.245567 
3453.000000	99.246414 
3452.000000	99.246954 
3451.000000	99.247329 
3450.000000	99.247764 
3449.000000	99.248483 
3448.000000	99.249314 
3447.000000	99.249629 
3446.000000	99.248997 
3445.000000	99.247829 
3444.000000	99.247055 
3443.000000	99.247147 
3442.000000	99.247677 
3441.000000	99.247937 
3440.000000	99.247805 
3439.000000	99.247734 
3438.000000	99.247974 
3437.000000	99.248132 
3436.000000	99.247674 
3435.000000	99.246706 
3434.000000	99.245950 
3433.000000	99.246002 
3432.000000	99.246778 
3431.000000	99.247658 
3430.000000	99.248005 
3429.000000	99.247569 
3428.000000	99.246549 
3427.000000	99.245385 
3426.000000	99.244505 
3425.000000	99.244147 
3424.000000	99.244334 
3423.000000	99.244921 
3422.000000	99.245623 
3421.000000	99.246121 
3420.000000	99.246255 
3419.000000	99.246121 
3418.000000	99.245950 
3417.000000	99.245891 
3416.000000	99.245910 
3415.000000	99.245873 
3414.000000	99.245701 
3413.000000	99.245457 
3412.000000	99.245297 
3411.000000	99.245317 
3410.000000	99.245480 
3409.000000	99.245680 
3408.000000	99.245832 
3407.000000	99.245879 
3406.000000	99.245767 
3405.000000	99.245515 
3404.000000	99.245270 
3403.000000	99.245235 
3402.000000	99.245507 
3401.000000	99.246018 
3400.000000	99.246569 
3399.000000	99.246974 
3398.000000	99.247177 
3397.000000	99.247243 
3396.000000	99.247256 
3395.000000	99.247224 
3394.000000	99.247124 
3393.000000	99.247024 
3392.000000	99.247053 
3391.000000	99.247231 
3390.000000	99.247418 
3389.000000	99.247480 
3388.000000	99.247462 
3387.000000	99.247540 
3386.000000	99.247824 
3385.000000	99.248234 
3384.000000	99.248553 
3383.000000	99.248590 
3382.000000	99.248327 
3381.000000	99.247943 
3380.000000	99.247618 
3379.000000	99.247333 
3378.000000	99.246975 
3377.000000	99.246694 
3376.000000	99.246954 
3375.000000	99.248082 
3374.000000	99.249831 
3373.000000	99.251457 
3372.000000	99.252285 
3371.000000	99.252141 
3370.000000	99.251360 
3369.000000	99.250544 
3368.000000	99.250190 
3367.000000	99.250334 
3366.000000	99.250506 
3365.000000	99.250131 
3364.000000	99.249071 
3363.000000	99.247763 
3362.000000	99.246835 
3361.000000	99.246605 
3360.000000	99.246921 
3359.000000	99.247374 
3358.000000	99.247734 
3357.000000	99.248223 
3356.000000	99.249238 
3355.000000	99.250713 
3354.000000	99.251971 
3353.000000	99.252401 
3352.000000	99.252207 
3351.000000	99.252275 
3350.000000	99.253267 
3349.000000	99.255006 
3348.000000	99.256717 
3347.000000	99.257690 
3346.000000	99.257660 
3345.000000	99.256829 
3344.000000	99.255683 
3343.000000	99.254654 
3342.000000	99.253827 
3341.000000	99.253038 
3340.000000	99.252267 
3339.000000	99.251748 
3338.000000	99.251563 
3337.000000	99.251331 
3336.000000	99.250537 
3335.000000	99.249208 
3334.000000	99.248096 
3333.000000	99.248067 
3332.000000	99.249295 
3331.000000	99.251044 
3330.000000	99.252244 
3329.000000	99.252436 
3328.000000	99.252123 
3327.000000	99.252174 
3326.000000	99.252923 
3325.000000	99.253985 
3324.000000	99.254876 
3323.000000	99.255571 
3322.000000	99.256276 
3321.000000	99.256869 
3320.000000	99.256932 
3319.000000	99.256331 
3318.000000	99.255546 
3317.000000	99.255278 
3316.000000	99.255791 
3315.000000	99.256707 
3314.000000	99.257338 
3313.000000	99.257233 
3312.000000	99.256453 
3311.000000	99.255475 
3310.000000	99.254833 
3309.000000	99.254745 
3308.000000	99.255048 
3307.000000	99.255435 
3306.000000	99.255667 
3305.000000	99.255550 
3304.000000	99.254861 
3303.000000	99.253507 
3302.000000	99.251826 
3301.000000	99.250554 
3300.000000	99.250344 
3299.000000	99.251322 
3298.000000	99.253099 
3297.000000	99.255092 
3296.000000	99.256806 
3295.000000	99.257962 
3294.000000	99.258553 
3293.000000	99.258814 
3292.000000	99.259022 
3291.000000	99.259269 
3290.000000	99.259491 
3289.000000	99.259661 
3288.000000	99.259877 
3287.000000	99.260221 
3286.000000	99.260651 
3285.000000	99.261004 
3284.000000	99.261032 
3283.000000	99.260506 
3282.000000	99.259430 
3281.000000	99.258114 
3280.000000	99.256893 
3279.000000	99.255765 
3278.000000	99.254574 
3277.000000	99.253497 
3276.000000	99.253023 
3275.000000	99.253302 
3274.000000	99.253737 
3273.000000	99.253416 
3272.000000	99.251863 
3271.000000	99.249300 
3270.000000	99.246414 
3269.000000	99.244076 
3268.000000	99.243105 
3267.000000	99.243973 
3266.000000	99.246476 
3265.000000	99.249709 
3264.000000	99.252576 
3263.000000	99.254526 
3262.000000	99.255862 
3261.000000	99.257280 
3260.000000	99.259007 
3259.000000	99.260418 
3258.000000	99.260670 
3257.000000	99.259613 
3256.000000	99.257929 
3255.000000	99.256447 
3254.000000	99.255542 
3253.000000	99.255227 
3252.000000	99.255425 
3251.000000	99.255912 
3250.000000	99.256215 
3249.000000	99.255914 
3248.000000	99.255038 
3247.000000	99.254018 
3246.000000	99.253248 
3245.000000	99.252801 
3244.000000	99.252576 
3243.000000	99.252596 
3242.000000	99.253062 
3241.000000	99.254070 
3240.000000	99.255302 
3239.000000	99.256092 
3238.000000	99.255974 
3237.000000	99.255143 
3236.000000	99.254343 
3235.000000	99.254187 
3234.000000	99.254658 
3233.000000	99.255373 
3232.000000	99.256137 
3231.000000	99.257072 
3230.000000	99.258226 
3229.000000	99.259317 
3228.000000	99.259953 
3227.000000	99.259981 
3226.000000	99.259528 
3225.000000	99.258870 
3224.000000	99.258324 
3223.000000	99.258159 
3222.000000	99.258483 
3221.000000	99.259183 
3220.000000	99.259979 
3219.000000	99.260582 
3218.000000	99.260805 
3217.000000	99.260582 
3216.000000	99.260011 
3215.000000	99.259383 
3214.000000	99.259017 
3213.000000	99.258983 
3212.000000	99.259087 
3211.000000	99.259192 
3210.000000	99.259468 
3209.000000	99.260130 
3208.000000	99.261016 
3207.000000	99.261644 
3206.000000	99.261715 
3205.000000	99.261487 
3204.000000	99.261559 
3203.000000	99.262293 
3202.000000	99.263489 
3201.000000	99.264642 
3200.000000	99.265486 
3199.000000	99.266145 
3198.000000	99.266796 
3197.000000	99.267383 
3196.000000	99.267839 
3195.000000	99.268363 
3194.000000	99.269119 
3193.000000	99.269700 
3192.000000	99.269380 
3191.000000	99.268070 
3190.000000	99.266698 
3189.000000	99.266364 
3188.000000	99.267220 
3187.000000	99.268390 
3186.000000	99.268851 
3185.000000	99.268203 
3184.000000	99.266730 
3183.000000	99.265077 
3182.000000	99.263887 
3181.000000	99.263443 
3180.000000	99.263482 
3179.000000	99.263438 
3178.000000	99.262949 
3177.000000	99.262061 
3176.000000	99.261018 
3175.000000	99.260140 
3174.000000	99.259946 
3173.000000	99.261004 
3172.000000	99.263326 
3171.000000	99.265972 
3170.000000	99.267640 
3169.000000	99.267876 
3168.000000	99.267536 
3167.000000	99.267991 
3166.000000	99.269868 
3165.000000	99.272551 
3164.000000	99.274768 
3163.000000	99.275653 
3162.000000	99.275262 
3161.000000	99.274337 
3160.000000	99.273747 
3159.000000	99.273981 
3158.000000	99.274886 
3157.000000	99.275774 
3156.000000	99.275904 
3155.000000	99.275076 
3154.000000	99.273778 
3153.000000	99.272778 
3152.000000	99.272500 
3151.000000	99.272758 
3150.000000	99.273004 
3149.000000	99.272814 
3148.000000	99.272240 
3147.000000	99.271752 
3146.000000	99.271764 
3145.000000	99.272190 
3144.000000	99.272562 
3143.000000	99.272658 
3142.000000	99.272820 
3141.000000	99.273506 
3140.000000	99.274628 
3139.000000	99.275560 
3138.000000	99.275830 
3137.000000	99.275607 
3136.000000	99.275442 
3135.000000	99.275656 
3134.000000	99.276115 
3133.000000	99.276521 
3132.000000	99.276740 
3131.000000	99.276777 
3130.000000	99.276581 
3129.000000	99.276051 
3128.000000	99.275272 
3127.000000	99.274634 
3126.000000	99.274541 
3125.000000	99.274982 
3124.000000	99.275529 
3123.000000	99.275757 
3122.000000	99.275625 
3121.000000	99.275404 
3120.000000	99.275356 
3119.000000	99.275544 
3118.000000	99.275839 
3117.000000	99.275972 
3116.000000	99.275696 
3115.000000	99.275063 
3114.000000	99.274470 
3113.000000	99.274256 
3112.000000	99.274302 
3111.000000	99.274235 
3110.000000	99.274015 
3109.000000	99.274017 
3108.000000	99.274418 
3107.000000	99.274819 
3106.000000	99.274702 
3105.000000	99.274137 
3104.000000	99.273780 
3103.000000	99.274199 
3102.000000	99.275449 
3101.000000	99.277173 
3100.000000	99.278840 
3099.000000	99.279938 
3098.000000	99.280188 
3097.000000	99.279752 
3096.000000	99.279202 
3095.000000	99.279086 
3094.000000	99.279467 
3093.000000	99.279948 
3092.000000	99.280092 
3091.000000	99.279758 
3090.000000	99.279091 
3089.000000	99.278402 
3088.000000	99.278137 
3087.000000	99.278760 
3086.000000	99.280364 
3085.000000	99.282317 
3084.000000	99.283574 
3083.000000	99.283508 
3082.000000	99.282402 
3081.000000	99.281132 
3080.000000	99.280377 
3079.000000	99.280159 
3078.000000	99.279966 
3077.000000	99.279193 
3076.000000	99.277616 
3075.000000	99.275739 
3074.000000	99.274669 
3073.000000	99.275333 
3072.000000	99.277720 
3071.000000	99.280961 
3070.000000	99.284012 
3069.000000	99.285912 
3068.000000	99.285545 
3067.000000	99.282047 
3066.000000	99.276063 
3065.000000	99.270198 
3064.000000	99.267298 
3063.000000	99.268084 
3062.000000	99.270791 
3061.000000	99.273043 
3060.000000	99.273774 
3059.000000	99.273502 
3058.000000	99.273387 
3057.000000	99.274223 
3056.000000	99.275879 
3055.000000	99.277435 
3054.000000	99.277959 
3053.000000	99.277200 
3052.000000	99.275510 
3051.000000	99.273349 
3050.000000	99.271123 
3049.000000	99.269131 
3048.000000	99.267023 
3047.000000	99.263521 
3046.000000	99.257601 
3045.000000	99.250116 
3044.000000	99.243517 
3043.000000	99.239570 
3042.000000	99.237952 
3041.000000	99.237202 
3040.000000	99.236242 
3039.000000	99.234565 
3038.000000	99.231824 
3037.000000	99.228180 
3036.000000	99.224579 
3035.000000	99.221752 
3034.000000	99.219059 
3033.000000	99.214837 
3032.000000	99.207807 
3031.000000	99.197974 
3030.000000	99.186285 
3029.000000	99.173787 
3028.000000	99.161332 
3027.000000	99.149596 
3026.000000	99.139027 
3025.000000	99.129785 
3024.000000	99.121505 
3023.000000	99.112963 
3022.000000	99.102425 
3021.000000	99.089044 
3020.000000	99.073998 
3019.000000	99.059760 
3018.000000	99.048102 
3017.000000	99.038990 
3016.000000	99.031084 
3015.000000	99.022675 
3014.000000	99.012169 
3013.000000	98.998479 
3012.000000	98.981432 
3011.000000	98.961729 
3010.000000	98.940556 
3009.000000	98.919507 
3008.000000	98.900593 
3007.000000	98.885406 
3006.000000	98.873829 
3005.000000	98.863852 
3004.000000	98.852939 
3003.000000	98.839439 
3002.000000	98.822953 
3001.000000	98.804311 
3000.000000	98.785564 
2999.000000	98.769119 
2998.000000	98.756156 
2997.000000	98.746265 
2996.000000	98.738763 
2995.000000	98.733070 
2994.000000	98.726626 
2993.000000	98.713779 
2992.000000	98.689774 
2991.000000	98.657018 
2990.000000	98.625697 
2989.000000	98.606081 
2988.000000	98.600525 
2987.000000	98.603503 
2986.000000	98.608346 
2985.000000	98.612904 
2984.000000	98.618589 
2983.000000	98.625852 
2982.000000	98.632335 
2981.000000	98.635201 
2980.000000	98.634187 
2979.000000	98.631694 
2978.000000	98.630093 
2977.000000	98.629438 
2976.000000	98.628033 
2975.000000	98.624907 
2974.000000	98.621165 
2973.000000	98.618802 
2972.000000	98.618862 
2971.000000	98.621325 
2970.000000	98.626308 
2969.000000	98.634390 
2968.000000	98.645537 
2967.000000	98.658450 
2966.000000	98.671451 
2965.000000	98.683758 
2964.000000	98.695593 
2963.000000	98.707335 
2962.000000	98.718830 
2961.000000	98.729359 
2960.000000	98.738091 
2959.000000	98.744895 
2958.000000	98.750922 
2957.000000	98.757922 
2956.000000	98.766364 
2955.000000	98.774372 
2954.000000	98.779379 
2953.000000	98.781379 
2952.000000	98.784156 
2951.000000	98.792423 
2950.000000	98.807091 
2949.000000	98.823515 
2948.000000	98.835093 
2947.000000	98.838802 
2946.000000	98.837152 
2945.000000	98.835174 
2944.000000	98.835926 
2943.000000	98.839255 
2942.000000	98.843883 
2941.000000	98.848971 
2940.000000	98.853591 
2939.000000	98.856354 
2938.000000	98.856678 
2937.000000	98.855952 
2936.000000	98.856699 
2935.000000	98.860489 
2934.000000	98.866756 
2933.000000	98.873200 
2932.000000	98.877133 
2931.000000	98.877039 
2930.000000	98.873504 
2929.000000	98.868547 
2928.000000	98.863759 
2927.000000	98.859400 
2926.000000	98.855447 
2925.000000	98.852612 
2924.000000	98.851528 
2923.000000	98.851471 
2922.000000	98.850877 
2921.000000	98.848936 
2920.000000	98.845895 
2919.000000	98.842013 
2918.000000	98.837152 
2917.000000	98.831425 
2916.000000	98.825490 
2915.000000	98.820067 
2914.000000	98.815747 
2913.000000	98.813140 
2912.000000	98.812350 
2911.000000	98.812138 
2910.000000	98.810523 
2909.000000	98.806714 
2908.000000	98.801884 
2907.000000	98.797489 
2906.000000	98.793207 
2905.000000	98.786979 
2904.000000	98.777079 
2903.000000	98.764423 
2902.000000	98.753376 
2901.000000	98.749860 
2900.000000	98.757349 
2899.000000	98.773639 
2898.000000	98.791481 
2897.000000	98.803809 
2896.000000	98.808866 
2895.000000	98.810121 
2894.000000	98.811963 
2893.000000	98.816082 
2892.000000	98.821458 
2891.000000	98.826395 
2890.000000	98.829946 
2889.000000	98.832071 
2888.000000	98.833342 
2887.000000	98.834733 
2886.000000	98.837296 
2885.000000	98.841641 
2884.000000	98.847594 
2883.000000	98.854484 
2882.000000	98.861926 
2881.000000	98.870335 
2880.000000	98.880506 
2879.000000	98.892675 
2878.000000	98.906142 
2877.000000	98.919708 
2876.000000	98.932136 
2875.000000	98.942188 
2874.000000	98.948874 
2873.000000	98.952329 
2872.000000	98.954384 
2871.000000	98.957784 
2870.000000	98.964484 
2869.000000	98.974549 
2868.000000	98.986487 
2867.000000	98.998610 
2866.000000	99.010355 
2865.000000	99.022475 
2864.000000	99.035746 
2863.000000	99.049422 
2862.000000	99.061391 
2861.000000	99.070262 
2860.000000	99.077028 
2859.000000	99.084206 
2858.000000	99.093356 
2857.000000	99.103821 
2856.000000	99.113775 
2855.000000	99.121976 
2854.000000	99.128441 
2853.000000	99.133935 
2852.000000	99.139092 
2851.000000	99.144088 
2850.000000	99.149126 
2849.000000	99.154822 
2848.000000	99.161673 
2847.000000	99.169149 
2846.000000	99.175812 
2845.000000	99.180617 
2844.000000	99.183830 
2843.000000	99.186483 
2842.000000	99.189385 
2841.000000	99.192967 
2840.000000	99.197462 
2839.000000	99.202383 
2838.000000	99.206033 
2837.000000	99.206573 
2836.000000	99.204054 
2835.000000	99.201041 
2834.000000	99.200731 
2833.000000	99.204316 
2832.000000	99.210123 
2831.000000	99.215128 
2830.000000	99.217419 
2829.000000	99.217547 
2828.000000	99.217772 
2827.000000	99.219858 
2826.000000	99.223456 
2825.000000	99.226632 
2824.000000	99.227915 
2823.000000	99.227755 
2822.000000	99.228039 
2821.000000	99.230309 
2820.000000	99.234414 
2819.000000	99.238841 
2818.000000	99.242354 
2817.000000	99.245214 
2816.000000	99.248508 
2815.000000	99.252359 
2814.000000	99.255352 
2813.000000	99.256055 
2812.000000	99.254673 
2811.000000	99.252763 
2810.000000	99.251621 
2809.000000	99.251474 
2808.000000	99.252057 
2807.000000	99.253196 
2806.000000	99.254631 
2805.000000	99.255886 
2804.000000	99.256750 
2803.000000	99.257620 
2802.000000	99.258999 
2801.000000	99.260754 
2800.000000	99.262122 
2799.000000	99.262466 
2798.000000	99.261926 
2797.000000	99.261311 
2796.000000	99.261393 
2795.000000	99.262274 
2794.000000	99.263419 
2793.000000	99.264216 
2792.000000	99.264457 
2791.000000	99.264338 
2790.000000	99.264241 
2789.000000	99.264658 
2788.000000	99.266081 
2787.000000	99.268584 
2786.000000	99.271486 
2785.000000	99.273803 
2784.000000	99.275116 
2783.000000	99.275711 
2782.000000	99.275889 
2781.000000	99.275555 
2780.000000	99.274640 
2779.000000	99.273575 
2778.000000	99.272998 
2777.000000	99.273133 
2776.000000	99.273692 
2775.000000	99.274233 
2774.000000	99.274458 
2773.000000	99.274407 
2772.000000	99.274543 
2771.000000	99.275452 
2770.000000	99.277249 
2769.000000	99.279480 
2768.000000	99.281745 
2767.000000	99.284037 
2766.000000	99.286158 
2765.000000	99.287314 
2764.000000	99.286944 
2763.000000	99.285757 
2762.000000	99.285269 
2761.000000	99.286213 
2760.000000	99.288011 
2759.000000	99.289851 
2758.000000	99.291582 
2757.000000	99.293250 
2756.000000	99.294468 
2755.000000	99.294797 
2754.000000	99.294347 
2753.000000	99.293536 
2752.000000	99.292518 
2751.000000	99.291243 
2750.000000	99.289864 
2749.000000	99.288630 
2748.000000	99.287460 
2747.000000	99.286046 
2746.000000	99.284359 
2745.000000	99.282830 
2744.000000	99.282031 
2743.000000	99.282376 
2742.000000	99.283973 
2741.000000	99.286454 
2740.000000	99.289075 
2739.000000	99.291271 
2738.000000	99.293073 
2737.000000	99.294771 
2736.000000	99.296282 
2735.000000	99.297133 
2734.000000	99.296994 
2733.000000	99.295991 
2732.000000	99.294549 
2731.000000	99.293219 
2730.000000	99.292587 
2729.000000	99.293005 
2728.000000	99.294316 
2727.000000	99.295967 
2726.000000	99.297476 
2725.000000	99.298673 
2724.000000	99.299524 
2723.000000	99.300055 
2722.000000	99.300468 
2721.000000	99.301045 
2720.000000	99.301782 
2719.000000	99.302295 
2718.000000	99.302217 
2717.000000	99.301591 
2716.000000	99.300854 
2715.000000	99.300541 
2714.000000	99.301002 
2713.000000	99.302203 
2712.000000	99.303646 
2711.000000	99.304677 
2710.000000	99.305047 
2709.000000	99.305085 
2708.000000	99.305250 
2707.000000	99.305590 
2706.000000	99.305795 
2705.000000	99.305699 
2704.000000	99.305502 
2703.000000	99.305497 
2702.000000	99.305723 
2701.000000	99.305939 
2700.000000	99.305881 
2699.000000	99.305510 
2698.000000	99.305064 
2697.000000	99.304863 
2696.000000	99.305012 
2695.000000	99.305340 
2694.000000	99.305603 
2693.000000	99.305704 
2692.000000	99.305666 
2691.000000	99.305510 
2690.000000	99.305311 
2689.000000	99.305284 
2688.000000	99.305610 
2687.000000	99.306196 
2686.000000	99.306694 
2685.000000	99.306835 
2684.000000	99.306684 
2683.000000	99.306539 
2682.000000	99.306652 
2681.000000	99.307043 
2680.000000	99.307535 
2679.000000	99.307893 
2678.000000	99.307982 
2677.000000	99.307849 
2676.000000	99.307675 
2675.000000	99.307617 
2674.000000	99.307694 
2673.000000	99.307817 
2672.000000	99.307884 
2671.000000	99.307844 
2670.000000	99.307687 
2669.000000	99.307427 
2668.000000	99.307122 
2667.000000	99.306866 
2666.000000	99.306741 
2665.000000	99.306765 
2664.000000	99.306887 
2663.000000	99.307038 
2662.000000	99.307182 
2661.000000	99.307315 
2660.000000	99.307426 
2659.000000	99.307505 
2658.000000	99.307562 
2657.000000	99.307628 
2656.000000	99.307728 
2655.000000	99.307855 
2654.000000	99.307988 
2653.000000	99.308110 
2652.000000	99.308220 
2651.000000	99.308323 
2650.000000	99.308425 
2649.000000	99.308531 
2648.000000	99.308644 
2647.000000	99.308761 
2646.000000	99.308882 
2645.000000	99.309010 
2644.000000	99.309147 
2643.000000	99.309294 
2642.000000	99.309446 
2641.000000	99.309599 
2640.000000	99.309754 
2639.000000	99.309916 
2638.000000	99.310090 
2637.000000	99.310276 
2636.000000	99.310466 
2635.000000	99.310647 
2634.000000	99.310812 
2633.000000	99.310982 
2632.000000	99.311193 
2631.000000	99.311456 
2630.000000	99.311726 
2629.000000	99.311944 
2628.000000	99.312114 
2627.000000	99.312334 
2626.000000	99.312692 
2625.000000	99.313172 
2624.000000	99.313685 
2623.000000	99.314162 
2622.000000	99.314541 
2621.000000	99.314740 
2620.000000	99.314763 
2619.000000	99.314757 
2618.000000	99.314880 
2617.000000	99.315139 
2616.000000	99.315439 
2615.000000	99.315714 
2614.000000	99.315876 
2613.000000	99.315765 
2612.000000	99.315299 
2611.000000	99.314649 
2610.000000	99.314121 
2609.000000	99.313923 
2608.000000	99.314117 
2607.000000	99.314723 
2606.000000	99.315694 
2605.000000	99.316833 
2604.000000	99.317842 
2603.000000	99.318447 
2602.000000	99.318493 
2601.000000	99.318088 
2600.000000	99.317697 
2599.000000	99.317864 
2598.000000	99.318681 
2597.000000	99.319642 
2596.000000	99.320092 
2595.000000	99.319748 
2594.000000	99.318719 
2593.000000	99.317308 
2592.000000	99.316013 
2591.000000	99.315415 
2590.000000	99.315775 
2589.000000	99.316762 
2588.000000	99.317712 
2587.000000	99.318205 
2586.000000	99.318202 
2585.000000	99.317749 
2584.000000	99.316850 
2583.000000	99.315686 
2582.000000	99.314661 
2581.000000	99.314040 
2580.000000	99.313663 
2579.000000	99.313149 
2578.000000	99.312367 
2577.000000	99.311625 
2576.000000	99.311386 
2575.000000	99.311825 
2574.000000	99.312672 
2573.000000	99.313434 
2572.000000	99.313785 
2571.000000	99.313709 
2570.000000	99.313321 
2569.000000	99.312692 
2568.000000	99.311919 
2567.000000	99.311254 
2566.000000	99.310979 
2565.000000	99.311141 
2564.000000	99.311491 
2563.000000	99.311707 
2562.000000	99.311655 
2561.000000	99.311418 
2560.000000	99.311217 
2559.000000	99.311305 
2558.000000	99.311782 
2557.000000	99.312358 
2556.000000	99.312476 
2555.000000	99.311925 
2554.000000	99.311281 
2553.000000	99.311434 
2552.000000	99.312624 
2551.000000	99.314160 
2550.000000	99.315216 
2549.000000	99.315683 
2548.000000	99.315851 
2547.000000	99.315573 
2546.000000	99.314397 
2545.000000	99.312508 
2544.000000	99.310952 
2543.000000	99.310643 
2542.000000	99.311489 
2541.000000	99.312655 
2540.000000	99.313448 
2539.000000	99.313691 
2538.000000	99.313363 
2537.000000	99.312351 
2536.000000	99.310646 
2535.000000	99.308644 
2534.000000	99.307149 
2533.000000	99.306987 
2532.000000	99.308405 
2531.000000	99.310704 
2530.000000	99.312678 
2529.000000	99.313766 
2528.000000	99.314552 
2527.000000	99.315869 
2526.000000	99.317674 
2525.000000	99.319157 
2524.000000	99.319854 
2523.000000	99.320047 
2522.000000	99.320085 
2521.000000	99.319826 
2520.000000	99.319007 
2519.000000	99.317760 
2518.000000	99.316480 
2517.000000	99.315437 
2516.000000	99.314749 
2515.000000	99.314499 
2514.000000	99.314632 
2513.000000	99.314847 
2512.000000	99.314783 
2511.000000	99.314258 
2510.000000	99.313338 
2509.000000	99.312347 
2508.000000	99.311801 
2507.000000	99.312067 
2506.000000	99.312902 
2505.000000	99.313462 
2504.000000	99.313008 
2503.000000	99.311538 
2502.000000	99.309758 
2501.000000	99.308522 
2500.000000	99.308315 
2499.000000	99.309129 
2498.000000	99.310566 
2497.000000	99.311977 
2496.000000	99.312785 
2495.000000	99.312834 
2494.000000	99.312367 
2493.000000	99.311686 
2492.000000	99.310868 
2491.000000	99.309861 
2490.000000	99.308796 
2489.000000	99.308049 
2488.000000	99.307909 
2487.000000	99.308285 
2486.000000	99.308762 
2485.000000	99.309029 
2484.000000	99.309167 
2483.000000	99.309422 
2482.000000	99.309820 
2481.000000	99.310106 
2480.000000	99.310043 
2479.000000	99.309662 
2478.000000	99.309217 
2477.000000	99.308959 
2476.000000	99.308946 
2475.000000	99.309089 
2474.000000	99.309284 
2473.000000	99.309485 
2472.000000	99.309680 
2471.000000	99.309873 
2470.000000	99.310070 
2469.000000	99.310240 
2468.000000	99.310274 
2467.000000	99.310062 
2466.000000	99.309645 
2465.000000	99.309271 
2464.000000	99.309190 
2463.000000	99.309423 
2462.000000	99.309750 
2461.000000	99.309913 
2460.000000	99.309860 
2459.000000	99.309740 
2458.000000	99.309721 
2457.000000	99.309845 
2456.000000	99.310011 
2455.000000	99.310074 
2454.000000	99.309961 
2453.000000	99.309711 
2452.000000	99.309423 
2451.000000	99.309172 
2450.000000	99.308975 
2449.000000	99.308830 
2448.000000	99.308721 
2447.000000	99.308618 
2446.000000	99.308513 
2445.000000	99.308456 
2444.000000	99.308525 
2443.000000	99.308724 
2442.000000	99.308945 
2441.000000	99.309044 
2440.000000	99.308962 
2439.000000	99.308740 
2438.000000	99.308453 
2437.000000	99.308155 
2436.000000	99.307889 
2435.000000	99.307665 
2434.000000	99.307414 
2433.000000	99.307032 
2432.000000	99.306505 
2431.000000	99.305972 
2430.000000	99.305628 
2429.000000	99.305555 
2428.000000	99.305696 
2427.000000	99.305931 
2426.000000	99.306173 
2425.000000	99.306328 
2424.000000	99.306256 
2423.000000	99.305858 
2422.000000	99.305208 
2421.000000	99.304608 
2420.000000	99.304348 
2419.000000	99.304453 
2418.000000	99.304725 
2417.000000	99.304926 
2416.000000	99.304991 
2415.000000	99.304951 
2414.000000	99.304813 
2413.000000	99.304583 
2412.000000	99.304348 
2411.000000	99.304218 
2410.000000	99.304210 
2409.000000	99.304249 
2408.000000	99.304281 
2407.000000	99.304356 
2406.000000	99.304545 
2405.000000	99.304833 
2404.000000	99.305148 
2403.000000	99.305398 
2402.000000	99.305502 
2401.000000	99.305454 
2400.000000	99.305347 
2399.000000	99.305328 
2398.000000	99.305490 
2397.000000	99.305822 
2396.000000	99.306254 
2395.000000	99.306716 
2394.000000	99.307164 
2393.000000	99.307578 
2392.000000	99.307954 
2391.000000	99.308302 
2390.000000	99.308645 
2389.000000	99.309000 
2388.000000	99.309366 
2387.000000	99.309720 
2386.000000	99.310042 
2385.000000	99.310333 
2384.000000	99.310608 
2383.000000	99.310883 
2382.000000	99.311164 
2381.000000	99.311454 
2380.000000	99.311752 
2379.000000	99.312052 
2378.000000	99.312350 
2377.000000	99.312646 
2376.000000	99.312949 
2375.000000	99.313268 
2374.000000	99.313603 
2373.000000	99.313950 
2372.000000	99.314296 
2371.000000	99.314635 
2370.000000	99.314961 
2369.000000	99.315266 
2368.000000	99.315537 
2367.000000	99.315770 
2366.000000	99.315968 
2365.000000	99.316148 
2364.000000	99.316327 
2363.000000	99.316513 
2362.000000	99.316709 
2361.000000	99.316908 
2360.000000	99.317105 
2359.000000	99.317301 
2358.000000	99.317495 
2357.000000	99.317687 
2356.000000	99.317870 
2355.000000	99.318034 
2354.000000	99.318168 
2353.000000	99.318269 
2352.000000	99.318343 
2351.000000	99.318401 
2350.000000	99.318458 
2349.000000	99.318519 
2348.000000	99.318583 
2347.000000	99.318644 
2346.000000	99.318696 
2345.000000	99.318728 
2344.000000	99.318731 
2343.000000	99.318715 
2342.000000	99.318722 
2341.000000	99.318789 
2340.000000	99.318906 
2339.000000	99.319013 
2338.000000	99.319075 
2337.000000	99.319100 
2336.000000	99.319116 
2335.000000	99.319135 
2334.000000	99.319152 
2333.000000	99.319146 
2332.000000	99.319086 
2331.000000	99.318929 
2330.000000	99.318623 
2329.000000	99.318194 
2328.000000	99.317744 
2327.000000	99.317485 
2326.000000	99.317494 
2325.000000	99.317622 
2324.000000	99.317559 
2323.000000	99.317185 
2322.000000	99.316801 
2321.000000	99.316777 
2320.000000	99.317157 
2319.000000	99.317590 
2318.000000	99.317754 
2317.000000	99.317530 
2316.000000	99.316930 
2315.000000	99.315988 
2314.000000	99.314827 
2313.000000	99.313763 
2312.000000	99.313093 
2311.000000	99.312946 
2310.000000	99.313176 
2309.000000	99.313438 
2308.000000	99.313288 
2307.000000	99.312431 
2306.000000	99.310985 
2305.000000	99.309419 
2304.000000	99.308148 
2303.000000	99.307265 
2302.000000	99.306605 
2301.000000	99.305974 
2300.000000	99.305267 
2299.000000	99.304456 
2298.000000	99.303577 
2297.000000	99.302753 
2296.000000	99.302091 
2295.000000	99.301563 
2294.000000	99.300995 
2293.000000	99.300254 
2292.000000	99.299369 
2291.000000	99.298494 
2290.000000	99.297746 
2289.000000	99.297134 
2288.000000	99.296587 
2287.000000	99.296029 
2286.000000	99.295415 
2285.000000	99.294743 
2284.000000	99.294046 
2283.000000	99.293358 
2282.000000	99.292689 
2281.000000	99.292016 
2280.000000	99.291315 
2279.000000	99.290623 
2278.000000	99.290021 
2277.000000	99.289539 
2276.000000	99.289124 
2275.000000	99.288688 
2274.000000	99.288167 
2273.000000	99.287544 
2272.000000	99.286819 
2271.000000	99.285938 
2270.000000	99.284839 
2269.000000	99.283700 
2268.000000	99.282977 
2267.000000	99.283006 
2266.000000	99.283631 
2265.000000	99.284191 
2264.000000	99.284128 
2263.000000	99.283408 
2262.000000	99.282539 
2261.000000	99.282149 
2260.000000	99.282415 
2259.000000	99.282764 
2258.000000	99.282303 
2257.000000	99.280846 
2256.000000	99.279347 
2255.000000	99.278895 
2254.000000	99.279317 
2253.000000	99.279409 
2252.000000	99.278673 
2251.000000	99.278080 
2250.000000	99.278676 
2249.000000	99.280163 
2248.000000	99.281305 
2247.000000	99.281297 
2246.000000	99.280133 
2245.000000	99.278043 
2244.000000	99.275214 
2243.000000	99.272097 
2242.000000	99.269554 
2241.000000	99.268444 
2240.000000	99.268931 
2239.000000	99.270162 
2238.000000	99.270803 
2237.000000	99.270045 
2236.000000	99.268049 
2235.000000	99.265413 
2234.000000	99.262643 
2233.000000	99.260399 
2232.000000	99.259708 
2231.000000	99.261163 
2230.000000	99.264186 
2229.000000	99.267680 
2228.000000	99.271187 
2227.000000	99.274714 
2226.000000	99.277632 
2225.000000	99.278724 
2224.000000	99.277568 
2223.000000	99.275222 
2222.000000	99.273253 
2221.000000	99.272431 
2220.000000	99.272430 
2219.000000	99.272486 
2218.000000	99.272273 
2217.000000	99.272351 
2216.000000	99.273641 
2215.000000	99.276147 
2214.000000	99.278327 
2213.000000	99.278341 
2212.000000	99.275912 
2211.000000	99.272623 
2210.000000	99.270491 
2209.000000	99.270271 
2208.000000	99.271260 
2207.000000	99.272078 
2206.000000	99.271695 
2205.000000	99.270009 
2204.000000	99.267727 
2203.000000	99.265727 
2202.000000	99.264489 
2201.000000	99.264039 
2200.000000	99.264059 
2199.000000	99.263969 
2198.000000	99.263248 
2197.000000	99.261929 
2196.000000	99.260683 
2195.000000	99.260175 
2194.000000	99.260394 
2193.000000	99.260839 
2192.000000	99.261058 
2191.000000	99.260915 
2190.000000	99.260454 
2189.000000	99.259790 
2188.000000	99.259084 
2187.000000	99.258467 
2186.000000	99.257956 
2185.000000	99.257500 
2184.000000	99.257057 
2183.000000	99.256599 
2182.000000	99.256096 
2181.000000	99.255556 
2180.000000	99.255028 
2179.000000	99.254546 
2178.000000	99.254095 
2177.000000	99.253654 
2176.000000	99.253231 
2175.000000	99.252841 
2174.000000	99.252486 
2173.000000	99.252177 
2172.000000	99.251917 
2171.000000	99.251711 
2170.000000	99.251562 
2169.000000	99.251459 
2168.000000	99.251381 
2167.000000	99.251303 
2166.000000	99.251210 
2165.000000	99.251106 
2164.000000	99.251018 
2163.000000	99.250983 
2162.000000	99.251023 
2161.000000	99.251133 
2160.000000	99.251288 
2159.000000	99.251464 
2158.000000	99.251653 
2157.000000	99.251855 
2156.000000	99.252081 
2155.000000	99.252335 
2154.000000	99.252608 
2153.000000	99.252883 
2152.000000	99.253150 
2151.000000	99.253416 
2150.000000	99.253696 
2149.000000	99.254004 
2148.000000	99.254340 
2147.000000	99.254687 
2146.000000	99.255019 
2145.000000	99.255311 
2144.000000	99.255556 
2143.000000	99.255749 
2142.000000	99.255916 
2141.000000	99.256099 
2140.000000	99.256284 
2139.000000	99.256441 
2138.000000	99.256625 
2137.000000	99.256886 
2136.000000	99.257099 
2135.000000	99.257106 
2134.000000	99.257009 
2133.000000	99.257116 
2132.000000	99.257550 
2131.000000	99.258017 
2130.000000	99.257979 
2129.000000	99.257089 
2128.000000	99.255614 
2127.000000	99.254363 
2126.000000	99.253917 
2125.000000	99.254078 
2124.000000	99.254427 
2123.000000	99.255302 
2122.000000	99.257377 
2121.000000	99.260258 
2120.000000	99.262356 
2119.000000	99.262619 
2118.000000	99.261668 
2117.000000	99.260777 
2116.000000	99.260327 
2115.000000	99.259912 
2114.000000	99.259334 
2113.000000	99.258710 
2112.000000	99.257951 
2111.000000	99.256857 
2110.000000	99.255642 
2109.000000	99.254858 
2108.000000	99.254680 
2107.000000	99.254510 
2106.000000	99.253383 
2105.000000	99.250753 
2104.000000	99.247021 
2103.000000	99.243424 
2102.000000	99.241226 
2101.000000	99.240817 
2100.000000	99.241681 
2099.000000	99.243058 
2098.000000	99.244482 
2097.000000	99.245876 
2096.000000	99.247235 
2095.000000	99.248049 
2094.000000	99.247081 
2093.000000	99.243344 
2092.000000	99.237737 
2091.000000	99.233295 
2090.000000	99.232544 
2089.000000	99.234928 
2088.000000	99.237450 
2087.000000	99.238023 
2086.000000	99.237451 
2085.000000	99.237558 
2084.000000	99.238660 
2083.000000	99.239579 
2082.000000	99.239486 
2081.000000	99.238796 
2080.000000	99.238356 
2079.000000	99.238463 
2078.000000	99.238904 
2077.000000	99.239642 
2076.000000	99.241049 
2075.000000	99.243319 
2074.000000	99.245761 
2073.000000	99.247095 
2072.000000	99.246717 
2071.000000	99.245323 
2070.000000	99.244075 
2069.000000	99.243226 
2068.000000	99.242099 
2067.000000	99.240362 
2066.000000	99.238681 
2065.000000	99.237879 
2064.000000	99.237859 
2063.000000	99.237799 
2062.000000	99.237263 
2061.000000	99.236665 
2060.000000	99.236661 
2059.000000	99.237355 
2058.000000	99.238096 
2057.000000	99.238018 
2056.000000	99.236792 
2055.000000	99.234710 
2054.000000	99.232403 
2053.000000	99.230475 
2052.000000	99.229271 
2051.000000	99.228794 
2050.000000	99.228577 
2049.000000	99.227780 
2048.000000	99.225787 
2047.000000	99.222793 
2046.000000	99.219810 
2045.000000	99.217881 
2044.000000	99.217273 
2043.000000	99.217347 
2042.000000	99.217109 
2041.000000	99.216033 
2040.000000	99.214391 
2039.000000	99.212892 
2038.000000	99.211974 
2037.000000	99.211425 
2036.000000	99.210567 
2035.000000	99.208760 
2034.000000	99.205876 
2033.000000	99.202529 
2032.000000	99.199791 
2031.000000	99.198327 
2030.000000	99.197840 
2029.000000	99.197469 
2028.000000	99.196754 
2027.000000	99.195976 
2026.000000	99.195634 
2025.000000	99.196000 
2024.000000	99.197064 
2023.000000	99.198338 
2022.000000	99.198656 
2021.000000	99.196929 
2020.000000	99.193598 
2019.000000	99.190927 
2018.000000	99.190913 
2017.000000	99.193076 
2016.000000	99.194634 
2015.000000	99.193362 
2014.000000	99.189735 
2013.000000	99.186354 
2012.000000	99.185581 
2011.000000	99.187858 
2010.000000	99.191917 
2009.000000	99.196223 
2008.000000	99.200082 
2007.000000	99.203389 
2006.000000	99.205740 
2005.000000	99.206498 
2004.000000	99.205906 
2003.000000	99.205343 
2002.000000	99.205993 
2001.000000	99.207513 
2000.000000	99.208473 
1999.000000	99.207844 
1998.000000	99.205837 
1997.000000	99.203742 
1996.000000	99.203115 
1995.000000	99.204725 
1994.000000	99.207843 
1993.000000	99.210499 
1992.000000	99.211095 
1991.000000	99.209798 
1990.000000	99.208041 
1989.000000	99.206999 
1988.000000	99.206922 
1987.000000	99.207502 
1986.000000	99.208164 
1985.000000	99.208232 
1984.000000	99.207395 
1983.000000	99.206048 
1982.000000	99.204827 
1981.000000	99.203830 
1980.000000	99.202628 
1979.000000	99.200999 
1978.000000	99.199291 
1977.000000	99.197924 
1976.000000	99.196842 
1975.000000	99.195781 
1974.000000	99.194931 
1973.000000	99.195128 
1972.000000	99.197024 
1971.000000	99.200108 
1970.000000	99.202744 
1969.000000	99.203398 
1968.000000	99.201898 
1967.000000	99.199496 
1966.000000	99.197872 
1965.000000	99.197540 
1964.000000	99.197774 
1963.000000	99.197709 
1962.000000	99.197151 
1961.000000	99.196455 
1960.000000	99.196116 
1959.000000	99.196559 
1958.000000	99.197893 
1957.000000	99.199623 
1956.000000	99.200865 
1955.000000	99.201175 
1954.000000	99.201026 
1953.000000	99.201196 
1952.000000	99.201653 
1951.000000	99.201458 
1950.000000	99.199898 
1949.000000	99.197491 
1948.000000	99.195766 
1947.000000	99.195754 
1946.000000	99.196800 
1945.000000	99.197061 
1944.000000	99.195574 
1943.000000	99.193630 
1942.000000	99.193472 
1941.000000	99.195684 
1940.000000	99.198719 
1939.000000	99.201009 
1938.000000	99.202773 
1937.000000	99.205397 
1936.000000	99.209375 
1935.000000	99.213270 
1934.000000	99.215099 
1933.000000	99.214768 
1932.000000	99.214564 
1931.000000	99.216878 
1930.000000	99.221407 
1929.000000	99.225275 
1928.000000	99.226595 
1927.000000	99.226428 
1926.000000	99.226930 
1925.000000	99.228409 
1924.000000	99.229403 
1923.000000	99.229283 
1922.000000	99.228979 
1921.000000	99.229050 
1920.000000	99.228514 
1919.000000	99.226211 
1918.000000	99.222387 
1917.000000	99.218592 
1916.000000	99.216246 
1915.000000	99.215624 
1914.000000	99.216271 
1913.000000	99.217828 
1912.000000	99.220123 
1911.000000	99.222829 
1910.000000	99.225040 
1909.000000	99.225843 
1908.000000	99.225744 
1907.000000	99.226381 
1906.000000	99.228747 
1905.000000	99.231916 
1904.000000	99.233929 
1903.000000	99.233808 
1902.000000	99.231926 
1901.000000	99.229427 
1900.000000	99.227685 
1899.000000	99.227584 
1898.000000	99.229064 
1897.000000	99.231306 
1896.000000	99.233482 
1895.000000	99.235240 
1894.000000	99.236291 
1893.000000	99.236328 
1892.000000	99.235628 
1891.000000	99.235063 
1890.000000	99.235038 
1889.000000	99.235061 
1888.000000	99.234934 
1887.000000	99.235332 
1886.000000	99.236667 
1885.000000	99.238330 
1884.000000	99.239464 
1883.000000	99.240052 
1882.000000	99.240574 
1881.000000	99.241281 
1880.000000	99.242528 
1879.000000	99.244897 
1878.000000	99.248399 
1877.000000	99.251936 
1876.000000	99.254188 
1875.000000	99.254833 
1874.000000	99.254251 
1873.000000	99.252599 
1872.000000	99.250063 
1871.000000	99.247454 
1870.000000	99.245678 
1869.000000	99.244709 
1868.000000	99.244277 
1867.000000	99.245051 
1866.000000	99.247408 
1865.000000	99.250026 
1864.000000	99.251007 
1863.000000	99.249959 
1862.000000	99.248304 
1861.000000	99.247670 
1860.000000	99.248601 
1859.000000	99.250802 
1858.000000	99.253557 
1857.000000	99.255828 
1856.000000	99.256975 
1855.000000	99.257502 
1854.000000	99.258377 
1853.000000	99.259631 
1852.000000	99.260607 
1851.000000	99.261046 
1850.000000	99.261476 
1849.000000	99.262592 
1848.000000	99.264417 
1847.000000	99.266299 
1846.000000	99.267419 
1845.000000	99.267411 
1844.000000	99.266783 
1843.000000	99.266716 
1842.000000	99.267636 
1841.000000	99.268730 
1840.000000	99.269180 
1839.000000	99.268854 
1838.000000	99.268124 
1837.000000	99.267366 
1836.000000	99.266852 
1835.000000	99.266886 
1834.000000	99.267511 
1833.000000	99.268331 
1832.000000	99.268826 
1831.000000	99.268737 
1830.000000	99.268303 
1829.000000	99.268153 
1828.000000	99.268610 
1827.000000	99.269370 
1826.000000	99.269988 
1825.000000	99.270279 
1824.000000	99.270297 
1823.000000	99.270151 
1822.000000	99.269781 
1821.000000	99.269136 
1820.000000	99.268575 
1819.000000	99.268701 
1818.000000	99.269772 
1817.000000	99.271187 
1816.000000	99.271991 
1815.000000	99.272083 
1814.000000	99.272114 
1813.000000	99.272547 
1812.000000	99.273118 
1811.000000	99.273501 
1810.000000	99.273943 
1809.000000	99.274537 
1808.000000	99.274762 
1807.000000	99.274246 
1806.000000	99.273277 
1805.000000	99.272374 
1804.000000	99.271729 
1803.000000	99.271263 
1802.000000	99.270750 
1801.000000	99.269981 
1800.000000	99.269022 
1799.000000	99.268458 
1798.000000	99.268923 
1797.000000	99.270336 
1796.000000	99.271998 
1795.000000	99.273284 
1794.000000	99.273956 
1793.000000	99.273941 
1792.000000	99.273248 
1791.000000	99.272404 
1790.000000	99.272098 
1789.000000	99.272359 
1788.000000	99.272875 
1787.000000	99.273576 
1786.000000	99.274594 
1785.000000	99.275729 
1784.000000	99.276463 
1783.000000	99.276574 
1782.000000	99.276096 
1781.000000	99.275231 
1780.000000	99.274220 
1779.000000	99.273371 
1778.000000	99.273042 
1777.000000	99.273315 
1776.000000	99.273973 
1775.000000	99.274527 
1774.000000	99.274617 
1773.000000	99.274449 
1772.000000	99.274497 
1771.000000	99.274909 
1770.000000	99.275474 
1769.000000	99.275938 
1768.000000	99.276227 
1767.000000	99.276406 
1766.000000	99.276552 
1765.000000	99.276724 
1764.000000	99.276924 
1763.000000	99.277162 
1762.000000	99.277443 
1761.000000	99.277781 
1760.000000	99.278093 
1759.000000	99.278320 
1758.000000	99.278624 
1757.000000	99.279244 
1756.000000	99.280149 
1755.000000	99.280858 
1754.000000	99.281028 
1753.000000	99.280900 
1752.000000	99.281069 
1751.000000	99.281552 
1750.000000	99.281735 
1749.000000	99.281409 
1748.000000	99.281166 
1747.000000	99.281559 
1746.000000	99.282390 
1745.000000	99.283280 
1744.000000	99.284096 
1743.000000	99.284832 
1742.000000	99.285498 
1741.000000	99.286105 
1740.000000	99.286646 
1739.000000	99.287284 
1738.000000	99.288162 
1737.000000	99.288939 
1736.000000	99.289074 
1735.000000	99.288717 
1734.000000	99.287930 
1733.000000	99.286952 
1732.000000	99.286397 
1731.000000	99.286030 
1730.000000	99.285611 
1729.000000	99.285287 
1728.000000	99.285228 
1727.000000	99.285477 
1726.000000	99.285969 
1725.000000	99.286768 
1724.000000	99.287552 
1723.000000	99.287920 
1722.000000	99.287928 
1721.000000	99.287783 
1720.000000	99.287636 
1719.000000	99.287806 
1718.000000	99.288509 
1717.000000	99.288982 
1716.000000	99.288563 
1715.000000	99.287966 
1714.000000	99.288019 
1713.000000	99.288379 
1712.000000	99.288322 
1711.000000	99.288032 
1710.000000	99.288176 
1709.000000	99.288678 
1708.000000	99.288845 
1707.000000	99.288351 
1706.000000	99.287719 
1705.000000	99.287291 
1704.000000	99.286897 
1703.000000	99.286390 
1702.000000	99.285894 
1701.000000	99.285553 
1700.000000	99.284592 
1699.000000	99.283365 
1698.000000	99.282921 
1697.000000	99.282931 
1696.000000	99.282751 
1695.000000	99.282245 
1694.000000	99.281756 
1693.000000	99.281411 
1692.000000	99.281054 
1691.000000	99.280796 
1690.000000	99.280711 
1689.000000	99.280643 
1688.000000	99.280501 
1687.000000	99.280262 
1686.000000	99.280095 
1685.000000	99.280221 
1684.000000	99.280258 
1683.000000	99.280062 
1682.000000	99.279807 
1681.000000	99.279437 
1680.000000	99.279127 
1679.000000	99.278994 
1678.000000	99.278834 
1677.000000	99.278515 
1676.000000	99.278158 
1675.000000	99.277896 
1674.000000	99.277681 
1673.000000	99.277547 
1672.000000	99.277544 
1671.000000	99.277704 
1670.000000	99.277894 
1669.000000	99.277894 
1668.000000	99.277765 
1667.000000	99.277639 
1666.000000	99.277513 
1665.000000	99.277370 
1664.000000	99.277268 
1663.000000	99.277313 
1662.000000	99.277436 
1661.000000	99.277487 
1660.000000	99.277545 
1659.000000	99.277778 
1658.000000	99.278201 
1657.000000	99.278601 
1656.000000	99.278844 
1655.000000	99.278870 
1654.000000	99.279143 
1653.000000	99.279228 
1652.000000	99.279000 
1651.000000	99.279323 
1650.000000	99.279729 
1649.000000	99.279886 
1648.000000	99.280082 
1647.000000	99.280115 
1646.000000	99.279857 
1645.000000	99.279748 
1644.000000	99.280005 
1643.000000	99.280496 
1642.000000	99.280974 
1641.000000	99.281241 
1640.000000	99.281328 
1639.000000	99.281385 
1638.000000	99.281627 
1637.000000	99.282370 
1636.000000	99.283661 
1635.000000	99.284787 
1634.000000	99.285432 
1633.000000	99.285640 
1632.000000	99.285315 
1631.000000	99.284789 
1630.000000	99.284346 
1629.000000	99.284048 
1628.000000	99.284102 
1627.000000	99.284815 
1626.000000	99.285903 
1625.000000	99.286734 
1624.000000	99.287247 
1623.000000	99.287930 
1622.000000	99.288999 
1621.000000	99.290179 
1620.000000	99.291199 
1619.000000	99.291939 
1618.000000	99.292602 
1617.000000	99.293297 
1616.000000	99.294368 
1615.000000	99.296093 
1614.000000	99.297759 
1613.000000	99.298772 
1612.000000	99.299645 
1611.000000	99.300928 
1610.000000	99.301997 
1609.000000	99.302090 
1608.000000	99.301762 
1607.000000	99.302223 
1606.000000	99.303524 
1605.000000	99.304924 
1604.000000	99.306064 
1603.000000	99.306843 
1602.000000	99.307230 
1601.000000	99.307539 
1600.000000	99.308385 
1599.000000	99.309911 
1598.000000	99.311507 
1597.000000	99.312572 
1596.000000	99.313033 
1595.000000	99.313065 
1594.000000	99.312761 
1593.000000	99.312436 
1592.000000	99.312765 
1591.000000	99.314088 
1590.000000	99.315812 
1589.000000	99.317037 
1588.000000	99.317619 
1587.000000	99.318031 
1586.000000	99.318437 
1585.000000	99.318562 
1584.000000	99.318574 
1583.000000	99.318803 
1582.000000	99.319109 
1581.000000	99.319184 
1580.000000	99.319005 
1579.000000	99.318615 
1578.000000	99.318025 
1577.000000	99.317481 
1576.000000	99.317259 
1575.000000	99.317420 
1574.000000	99.317682 
1573.000000	99.317810 
1572.000000	99.317855 
1571.000000	99.317934 
1570.000000	99.317987 
1569.000000	99.317936 
1568.000000	99.317865 
1567.000000	99.317779 
1566.000000	99.317654 
1565.000000	99.317517 
1564.000000	99.317398 
1563.000000	99.317283 
1562.000000	99.317165 
1561.000000	99.317045 
1560.000000	99.316919 
1559.000000	99.316777 
1558.000000	99.316612 
1557.000000	99.316432 
1556.000000	99.316243 
1555.000000	99.316048 
1554.000000	99.315849 
1553.000000	99.315646 
1552.000000	99.315439 
1551.000000	99.315227 
1550.000000	99.315011 
1549.000000	99.314789 
1548.000000	99.314563 
1547.000000	99.314332 
1546.000000	99.314096 
1545.000000	99.313860 
1544.000000	99.313630 
1543.000000	99.313412 
1542.000000	99.313208 
1541.000000	99.313009 
1540.000000	99.312806 
1539.000000	99.312597 
1538.000000	99.312384 
1537.000000	99.312167 
1536.000000	99.311943 
1535.000000	99.311713 
1534.000000	99.311478 
1533.000000	99.311239 
1532.000000	99.311001 
1531.000000	99.310767 
1530.000000	99.310537 
1529.000000	99.310305 
1528.000000	99.310066 
1527.000000	99.309820 
1526.000000	99.309567 
1525.000000	99.309306 
1524.000000	99.309036 
1523.000000	99.308761 
1522.000000	99.308493 
1521.000000	99.308220 
1520.000000	99.307895 
1519.000000	99.307479 
1518.000000	99.306975 
1517.000000	99.306442 
1516.000000	99.305951 
1515.000000	99.305530 
1514.000000	99.305153 
1513.000000	99.304817 
1512.000000	99.304504 
1511.000000	99.304132 
1510.000000	99.303655 
1509.000000	99.303094 
1508.000000	99.302624 
1507.000000	99.302370 
1506.000000	99.302213 
1505.000000	99.301925 
1504.000000	99.301435 
1503.000000	99.300806 
1502.000000	99.300169 
1501.000000	99.299528 
1500.000000	99.298720 
1499.000000	99.297686 
1498.000000	99.296715 
1497.000000	99.296099 
1496.000000	99.295592 
1495.000000	99.295141 
1494.000000	99.295129 
1493.000000	99.295626 
1492.000000	99.296181 
1491.000000	99.296254 
1490.000000	99.295559 
1489.000000	99.294083 
1488.000000	99.291917 
1487.000000	99.289738 
1486.000000	99.288253 
1485.000000	99.287002 
1484.000000	99.285436 
1483.000000	99.283729 
1482.000000	99.282655 
1481.000000	99.282511 
1480.000000	99.282540 
1479.000000	99.281935 
1478.000000	99.280626 
1477.000000	99.278936 
1476.000000	99.277145 
1475.000000	99.276209 
1474.000000	99.277045 
1473.000000	99.278874 
1472.000000	99.279453 
1471.000000	99.278453 
1470.000000	99.277492 
1469.000000	99.277010 
1468.000000	99.276285 
1467.000000	99.275227 
1466.000000	99.274704 
1465.000000	99.275269 
1464.000000	99.276515 
1463.000000	99.277483 
1462.000000	99.277903 
1461.000000	99.277608 
1460.000000	99.276303 
1459.000000	99.273208 
1458.000000	99.267582 
1457.000000	99.258590 
1456.000000	99.248000 
1455.000000	99.239500 
1454.000000	99.234647 
1453.000000	99.234373 
1452.000000	99.238222 
1451.000000	99.243028 
1450.000000	99.245965 
1449.000000	99.246903 
1448.000000	99.246737 
1447.000000	99.246447 
1446.000000	99.246143 
1445.000000	99.246125 
1444.000000	99.246768 
1443.000000	99.247603 
1442.000000	99.248624 
1441.000000	99.250129 
1440.000000	99.251890 
1439.000000	99.252805 
1438.000000	99.253511 
1437.000000	99.254742 
1436.000000	99.254467 
1435.000000	99.251021 
1434.000000	99.246007 
1433.000000	99.241381 
1432.000000	99.237459 
1431.000000	99.232970 
1430.000000	99.227322 
1429.000000	99.221839 
1428.000000	99.217215 
1427.000000	99.213131 
1426.000000	99.208918 
1425.000000	99.205218 
1424.000000	99.202671 
1423.000000	99.199573 
1422.000000	99.193896 
1421.000000	99.185191 
1420.000000	99.174485 
1419.000000	99.163071 
1418.000000	99.153262 
1417.000000	99.146078 
1416.000000	99.138919 
1415.000000	99.129148 
1414.000000	99.116906 
1413.000000	99.104644 
1412.000000	99.094561 
1411.000000	99.086477 
1410.000000	99.079190 
1409.000000	99.072589 
1408.000000	99.067468 
1407.000000	99.064923 
1406.000000	99.065231 
1405.000000	99.067955 
1404.000000	99.072489 
1403.000000	99.078128 
1402.000000	99.084854 
1401.000000	99.092982 
1400.000000	99.101529 
1399.000000	99.106914 
1398.000000	99.105126 
1397.000000	99.094620 
1396.000000	99.077314 
1395.000000	99.060324 
1394.000000	99.053550 
1393.000000	99.061442 
1392.000000	99.079327 
1391.000000	99.098239 
1390.000000	99.111636 
1389.000000	99.117724 
1388.000000	99.117792 
1387.000000	99.114220 
1386.000000	99.109704 
1385.000000	99.106555 
1384.000000	99.105703 
1383.000000	99.106314 
1382.000000	99.107072 
1381.000000	99.107800 
1380.000000	99.109788 
1379.000000	99.114262 
1378.000000	99.120879 
1377.000000	99.128191 
1376.000000	99.135138 
1375.000000	99.141657 
1374.000000	99.148242 
1373.000000	99.155634 
1372.000000	99.164046 
1371.000000	99.172766 
1370.000000	99.180469 
1369.000000	99.186448 
1368.000000	99.191346 
1367.000000	99.196295 
1366.000000	99.202006 
1365.000000	99.208700 
1364.000000	99.216236 
1363.000000	99.223813 
1362.000000	99.230198 
1361.000000	99.234824 
1360.000000	99.238376 
1359.000000	99.242252 
1358.000000	99.247619 
1357.000000	99.254738 
1356.000000	99.262613 
1355.000000	99.269535 
1354.000000	99.274687 
1353.000000	99.278857 
1352.000000	99.282645 
1351.000000	99.285338 
1350.000000	99.286014 
1349.000000	99.285847 
1348.000000	99.287020 
1347.000000	99.289794 
1346.000000	99.292418 
1345.000000	99.293639 
1344.000000	99.293952 
1343.000000	99.294229 
1342.000000	99.294802 
1341.000000	99.296130 
1340.000000	99.298854 
1339.000000	99.302473 
1338.000000	99.305563 
1337.000000	99.307811 
1336.000000	99.310115 
1335.000000	99.312487 
1334.000000	99.313593 
1333.000000	99.312827 
1332.000000	99.311417 
1331.000000	99.310765 
1330.000000	99.310800 
1329.000000	99.310999 
1328.000000	99.311704 
1327.000000	99.313271 
1326.000000	99.314683 
1325.000000	99.314740 
1324.000000	99.313874 
1323.000000	99.313483 
1322.000000	99.314196 
1321.000000	99.315755 
1320.000000	99.318074 
1319.000000	99.321082 
1318.000000	99.323677 
1317.000000	99.324048 
1316.000000	99.321458 
1315.000000	99.317179 
1314.000000	99.313453 
1313.000000	99.311631 
1312.000000	99.311409 
1311.000000	99.311792 
1310.000000	99.312455 
1309.000000	99.313890 
1308.000000	99.316154 
1307.000000	99.318138 
1306.000000	99.318476 
1305.000000	99.317264 
1304.000000	99.316086 
1303.000000	99.316172 
1302.000000	99.317166 
1301.000000	99.317898 
1300.000000	99.317851 
1299.000000	99.317551 
1298.000000	99.317936 
1297.000000	99.319473 
1296.000000	99.321643 
1295.000000	99.323108 
1294.000000	99.322712 
1293.000000	99.320449 
1292.000000	99.317222 
1291.000000	99.313897 
1290.000000	99.311007 
1289.000000	99.309056 
1288.000000	99.308287 
1287.000000	99.308007 
1286.000000	99.306988 
1285.000000	99.304760 
1284.000000	99.301789 
1283.000000	99.298567 
1282.000000	99.295078 
1281.000000	99.291260 
1280.000000	99.287607 
1279.000000	99.284568 
1278.000000	99.281803 
1277.000000	99.278730 
1276.000000	99.275358 
1275.000000	99.271922 
1274.000000	99.268031 
1273.000000	99.262940 
1272.000000	99.256651 
1271.000000	99.250170 
1270.000000	99.244514 
1269.000000	99.239765 
1268.000000	99.235183 
1267.000000	99.229926 
1266.000000	99.223671 
1265.000000	99.216844 
1264.000000	99.210257 
1263.000000	99.204321 
1262.000000	99.198645 
1261.000000	99.192677 
1260.000000	99.186683 
1259.000000	99.181527 
1258.000000	99.177483 
1257.000000	99.173868 
1256.000000	99.170182 
1255.000000	99.167016 
1254.000000	99.165234 
1253.000000	99.164582 
1252.000000	99.163908 
1251.000000	99.162763 
1250.000000	99.162052 
1249.000000	99.162862 
1248.000000	99.165207 
1247.000000	99.168066 
1246.000000	99.169916 
1245.000000	99.168875 
1244.000000	99.163441 
1243.000000	99.154571 
1242.000000	99.146778 
1241.000000	99.145069 
1240.000000	99.150263 
1239.000000	99.157884 
1238.000000	99.162270 
1237.000000	99.161685 
1236.000000	99.158212 
1235.000000	99.154097 
1234.000000	99.149783 
1233.000000	99.145176 
1232.000000	99.140712 
1231.000000	99.136475 
1230.000000	99.131834 
1229.000000	99.127015 
1228.000000	99.123919 
1227.000000	99.124156 
1226.000000	99.126898 
1225.000000	99.129718 
1224.000000	99.131218 
1223.000000	99.131821 
1222.000000	99.132310 
1221.000000	99.132816 
1220.000000	99.133459 
1219.000000	99.134952 
1218.000000	99.137806 
1217.000000	99.141204 
1216.000000	99.143209 
1215.000000	99.142240 
1214.000000	99.138266 
1213.000000	99.132506 
1212.000000	99.126192 
1211.000000	99.119985 
1210.000000	99.114530 
1209.000000	99.110722 
1208.000000	99.108702 
1207.000000	99.107038 
1206.000000	99.103911 
1205.000000	99.099120 
1204.000000	99.094060 
1203.000000	99.089600 
1202.000000	99.084965 
1201.000000	99.079100 
1200.000000	99.072296 
1199.000000	99.065816 
1198.000000	99.060482 
1197.000000	99.056053 
1196.000000	99.051210 
1195.000000	99.043991 
1194.000000	99.033314 
1193.000000	99.020482 
1192.000000	99.008545 
1191.000000	98.999563 
1190.000000	98.992726 
1189.000000	98.985628 
1188.000000	98.976810 
1187.000000	98.966586 
1186.000000	98.956149 
1185.000000	98.946691 
1184.000000	98.938846 
1183.000000	98.932040 
1182.000000	98.924645 
1181.000000	98.915617 
1180.000000	98.905663 
1179.000000	98.895941 
1178.000000	98.886143 
1177.000000	98.875101 
1176.000000	98.862979 
1175.000000	98.851248 
1174.000000	98.840149 
1173.000000	98.827814 
1172.000000	98.812907 
1171.000000	98.797025 
1170.000000	98.783160 
1169.000000	98.772295 
1168.000000	98.762715 
1167.000000	98.752605 
1166.000000	98.742419 
1165.000000	98.734459 
1164.000000	98.730827 
1163.000000	98.732186 
1162.000000	98.737844 
1161.000000	98.746288 
1160.000000	98.755387 
1159.000000	98.762375 
1158.000000	98.764294 
1157.000000	98.758948 
1156.000000	98.745900 
1155.000000	98.727254 
1154.000000	98.707594 
1153.000000	98.692040 
1152.000000	98.682914 
1151.000000	98.677864 
1150.000000	98.671850 
1149.000000	98.661499 
1148.000000	98.647266 
1147.000000	98.631529 
1146.000000	98.615578 
1145.000000	98.599110 
1144.000000	98.581771 
1143.000000	98.563981 
1142.000000	98.546486 
1141.000000	98.530155 
1140.000000	98.516132 
1139.000000	98.505046 
1138.000000	98.495718 
1137.000000	98.485433 
1136.000000	98.471969 
1135.000000	98.455136 
1134.000000	98.436295 
1133.000000	98.416756 
1132.000000	98.396858 
1131.000000	98.376511 
1130.000000	98.356481 
1129.000000	98.338629 
1128.000000	98.323894 
1127.000000	98.309879 
1126.000000	98.292048 
1125.000000	98.268712 
1124.000000	98.243864 
1123.000000	98.223283 
1122.000000	98.207973 
1121.000000	98.193310 
1120.000000	98.174770 
1119.000000	98.152500 
1118.000000	98.129741 
1117.000000	98.108674 
1116.000000	98.089090 
1115.000000	98.069873 
1114.000000	98.050183 
1113.000000	98.029635 
1112.000000	98.008398 
1111.000000	97.986920 
1110.000000	97.964929 
1109.000000	97.941416 
1108.000000	97.916311 
1107.000000	97.891430 
1106.000000	97.868885 
1105.000000	97.848870 
1104.000000	97.829448 
1103.000000	97.808558 
1102.000000	97.786082 
1101.000000	97.763932 
1100.000000	97.744127 
1099.000000	97.727023 
1098.000000	97.711348 
1097.000000	97.695762 
1096.000000	97.679701 
1095.000000	97.662480 
1094.000000	97.642427 
1093.000000	97.617770 
1092.000000	97.588149 
1091.000000	97.554854 
1090.000000	97.520003 
1089.000000	97.485827 
1088.000000	97.454022 
1087.000000	97.424723 
1086.000000	97.396303 
1085.000000	97.367125 
1084.000000	97.337347 
1083.000000	97.308138 
1082.000000	97.279548 
1081.000000	97.250501 
1080.000000	97.220685 
1079.000000	97.190901 
1078.000000	97.161645 
1077.000000	97.133188 
1076.000000	97.107293 
1075.000000	97.086890 
1074.000000	97.073295 
1073.000000	97.064836 
1072.000000	97.057587 
1071.000000	97.045273 
1070.000000	97.019545 
1069.000000	96.975276 
1068.000000	96.918215 
1067.000000	96.864866 
1066.000000	96.830627 
1065.000000	96.818226 
1064.000000	96.818356 
1063.000000	96.818508 
1062.000000	96.809257 
1061.000000	96.785051 
1060.000000	96.745013 
1059.000000	96.695434 
1058.000000	96.648263 
1057.000000	96.613270 
1056.000000	96.591227 
1055.000000	96.575080 
1054.000000	96.557255 
1053.000000	96.535545 
1052.000000	96.512540 
1051.000000	96.490875 
1050.000000	96.470276 
1049.000000	96.448937 
1048.000000	96.426270 
1047.000000	96.403764 
1046.000000	96.384124 
1045.000000	96.369576 
1044.000000	96.359524 
1043.000000	96.349647 
1042.000000	96.335364 
1041.000000	96.317311 
1040.000000	96.301764 
1039.000000	96.294875 
1038.000000	96.298238 
1037.000000	96.310368 
1036.000000	96.329239 
1035.000000	96.351588 
1034.000000	96.372918 
1033.000000	96.390652 
1032.000000	96.404504 
1031.000000	96.411960 
1030.000000	96.408322 
1029.000000	96.395874 
1028.000000	96.388888 
1027.000000	96.402151 
1026.000000	96.434852 
1025.000000	96.471056 
1024.000000	96.496296 
1023.000000	96.508884 
1022.000000	96.515244 
1021.000000	96.520799 
1020.000000	96.527794 
1019.000000	96.537071 
1018.000000	96.548067 
1017.000000	96.559097 
1016.000000	96.569865 
1015.000000	96.582158 
1014.000000	96.596908 
1013.000000	96.612431 
1012.000000	96.626587 
1011.000000	96.639004 
1010.000000	96.650671 
1009.000000	96.663261 
1008.000000	96.679121 
1007.000000	96.699683 
1006.000000	96.723231 
1005.000000	96.746204 
1004.000000	96.767283 
1003.000000	96.788450 
1002.000000	96.811788 
1001.000000	96.837176 
1000.000000	96.863320 
999.000000	 96.888923 
998.000000	 96.912502 
997.000000	 96.933332 
996.000000	 96.953280 
995.000000	 96.975772 
994.000000	 97.002064 
993.000000	 97.029937 
992.000000	 97.056530 
991.000000	 97.080922 
990.000000	 97.103620 
989.000000	 97.125367 
988.000000	 97.147322 
987.000000	 97.170993 
986.000000	 97.197094 
985.000000	 97.225355 
984.000000	 97.255478 
983.000000	 97.287121 
982.000000	 97.319331 
981.000000	 97.351069 
980.000000	 97.382389 
979.000000	 97.414590 
978.000000	 97.449386 
977.000000	 97.488246 
976.000000	 97.531175 
975.000000	 97.574870 
974.000000	 97.613932 
973.000000	 97.646474 
972.000000	 97.677465 
971.000000	 97.713832 
970.000000	 97.756604 
969.000000	 97.800332 
968.000000	 97.839898 
967.000000	 97.875038 
966.000000	 97.908178 
965.000000	 97.940767 
964.000000	 97.972726 
963.000000	 98.003423 
962.000000	 98.032061 
961.000000	 98.058438 
960.000000	 98.083855 
959.000000	 98.109858 
958.000000	 98.135757 
957.000000	 98.159031 
956.000000	 98.178721 
955.000000	 98.196920 
954.000000	 98.216247 
953.000000	 98.237113 
952.000000	 98.258173 
951.000000	 98.278137 
950.000000	 98.296139 
949.000000	 98.311212 
948.000000	 98.322475 
947.000000	 98.329700 
946.000000	 98.333510 
945.000000	 98.335398 
944.000000	 98.337583 
943.000000	 98.342221 
942.000000	 98.350430 
941.000000	 98.362002 
940.000000	 98.375372 
939.000000	 98.387469 
938.000000	 98.395035 
937.000000	 98.397905 
936.000000	 98.400441 
935.000000	 98.407860 
934.000000	 98.420969 
933.000000	 98.435990 
932.000000	 98.449280 
931.000000	 98.460209 
930.000000	 98.469293 
929.000000	 98.475764 
928.000000	 98.478289 
927.000000	 98.477072 
926.000000	 98.474395 
925.000000	 98.473563 
924.000000	 98.477334 
923.000000	 98.486076 
922.000000	 98.496856 
921.000000	 98.505309 
920.000000	 98.509002 
919.000000	 98.508523 
918.000000	 98.505712 
917.000000	 98.502179 
916.000000	 98.499606 
915.000000	 98.499653 
914.000000	 98.502446 
913.000000	 98.506189 
912.000000	 98.509330 
911.000000	 98.512618 
910.000000	 98.518439 
909.000000	 98.528683 
908.000000	 98.543705 
907.000000	 98.562458 
906.000000	 98.582750 
905.000000	 98.601912 
904.000000	 98.618066 
903.000000	 98.631225 
902.000000	 98.643549 
901.000000	 98.658352 
900.000000	 98.677824 
899.000000	 98.700712 
898.000000	 98.722472 
897.000000	 98.738888 
896.000000	 98.749548 
895.000000	 98.757272 
894.000000	 98.764885 
893.000000	 98.773716 
892.000000	 98.784972 
891.000000	 98.800715 
890.000000	 98.822330 
889.000000	 98.848396 
888.000000	 98.874578 
887.000000	 98.895956 
886.000000	 98.910318 
885.000000	 98.919946 
884.000000	 98.929707 
883.000000	 98.942028 
882.000000	 98.954111 
881.000000	 98.961684 
880.000000	 98.965294 
879.000000	 98.970858 
878.000000	 98.983177 
877.000000	 99.000709 
876.000000	 99.017894 
875.000000	 99.031016 
874.000000	 99.040257 
873.000000	 99.047469 
872.000000	 99.054090 
871.000000	 99.060982 
870.000000	 99.068767 
869.000000	 99.078286 
868.000000	 99.091239 
867.000000	 99.109168 
866.000000	 99.130329 
865.000000	 99.148975 
864.000000	 99.160493 
863.000000	 99.167092 
862.000000	 99.175790 
861.000000	 99.189837 
860.000000	 99.204822 
859.000000	 99.214957 
858.000000	 99.220556 
857.000000	 99.226739 
856.000000	 99.236688 
855.000000	 99.249563 
854.000000	 99.263914 
853.000000	 99.279020 
852.000000	 99.292588 
851.000000	 99.301193 
850.000000	 99.304713 
849.000000	 99.307295 
848.000000	 99.312122 
847.000000	 99.317611 
846.000000	 99.320465 
845.000000	 99.320116 
844.000000	 99.318269 
843.000000	 99.316358 
842.000000	 99.315752 
841.000000	 99.318293 
840.000000	 99.323592 
839.000000	 99.327235 
838.000000	 99.325093 
837.000000	 99.318765 
836.000000	 99.313466 
835.000000	 99.310608 
834.000000	 99.306144 
833.000000	 99.297430 
832.000000	 99.288480 
831.000000	 99.285795 
830.000000	 99.290394 
829.000000	 99.296657 
828.000000	 99.299098 
827.000000	 99.298323 
826.000000	 99.299372 
825.000000	 99.305067 
824.000000	 99.312562 
823.000000	 99.317245 
822.000000	 99.318670 
821.000000	 99.320204 
820.000000	 99.323112 
819.000000	 99.324316 
818.000000	 99.321488 
817.000000	 99.317625 
816.000000	 99.317369 
815.000000	 99.319604 
814.000000	 99.317198 
813.000000	 99.304884 
812.000000	 99.284364 
811.000000	 99.259798 
810.000000	 99.230272 
809.000000	 99.189689 
808.000000	 99.134230 
807.000000	 99.068126 
806.000000	 99.001025 
805.000000	 98.940203 
804.000000	 98.886786 
803.000000	 98.839397 
802.000000	 98.799220 
801.000000	 98.769798 
800.000000	 98.752661 
799.000000	 98.745681 
798.000000	 98.746604 
797.000000	 98.755750 
796.000000	 98.772905 
795.000000	 98.793538 
794.000000	 98.811585 
793.000000	 98.825436 
792.000000	 98.837940 
791.000000	 98.850760 
790.000000	 98.862130 
789.000000	 98.870067 
788.000000	 98.873746 
787.000000	 98.870961 
786.000000	 98.858256 
785.000000	 98.835427 
784.000000	 98.807245 
783.000000	 98.779554 
782.000000	 98.756189 
781.000000	 98.740060 
780.000000	 98.733110 
779.000000	 98.733138 
778.000000	 98.734476 
777.000000	 98.735093 
776.000000	 98.740279 
775.000000	 98.756245 
774.000000	 98.782421 
773.000000	 98.812660 
772.000000	 98.841574 
771.000000	 98.866856 
770.000000	 98.887972 
769.000000	 98.905861 
768.000000	 98.922177 
767.000000	 98.936495 
766.000000	 98.946413 
765.000000	 98.952571 
764.000000	 98.960425 
763.000000	 98.973446 
762.000000	 98.986876 
761.000000	 98.992574 
760.000000	 98.989245 
759.000000	 98.984418 
758.000000	 98.986553 
757.000000	 98.997329 
756.000000	 99.011002 
755.000000	 99.019117 
754.000000	 99.017099 
753.000000	 99.008883 
752.000000	 99.004719 
751.000000	 99.012366 
750.000000	 99.030519 
749.000000	 99.051268 
748.000000	 99.067743 
747.000000	 99.078254 
746.000000	 99.085099 
745.000000	 99.092205 
744.000000	 99.102789 
743.000000	 99.116716 
742.000000	 99.130613 
741.000000	 99.142381 
740.000000	 99.154314 
739.000000	 99.169518 
738.000000	 99.186509 
737.000000	 99.199914 
736.000000	 99.205849 
735.000000	 99.204719 
734.000000	 99.200227 
733.000000	 99.197931 
732.000000	 99.203345 
731.000000	 99.217866 
730.000000	 99.236043 
729.000000	 99.250098 
728.000000	 99.257847 
727.000000	 99.263130 
726.000000	 99.268616 
725.000000	 99.272246 
724.000000	 99.271761 
723.000000	 99.268639 
722.000000	 99.265945 
721.000000	 99.265665 
720.000000	 99.269652 
719.000000	 99.279565 
718.000000	 99.293636 
717.000000	 99.306288 
716.000000	 99.312660 
715.000000	 99.311793 
714.000000	 99.305778 
713.000000	 99.298735 
712.000000	 99.297051 
711.000000	 99.306070 
710.000000	 99.323503 
709.000000	 99.339018 
708.000000	 99.343296 
707.000000	 99.335516 
706.000000	 99.320405 
705.000000	 99.301994 
704.000000	 99.283103 
703.000000	 99.267621 
702.000000	 99.259061 
701.000000	 99.256040 
700.000000	 99.251835 
699.000000	 99.240001 
698.000000	 99.220153 
697.000000	 99.198492 
696.000000	 99.182459 
695.000000	 99.174692 
694.000000	 99.173208 
693.000000	 99.176907 
692.000000	 99.187840 
691.000000	 99.206228 
690.000000	 99.226246 
689.000000	 99.241090 
688.000000	 99.250766 
687.000000	 99.259745 
686.000000	 99.268093 
685.000000	 99.270845 
684.000000	 99.266563 
683.000000	 99.261034 
682.000000	 99.260856 
681.000000	 99.267074 
680.000000	 99.275786 
679.000000	 99.282056 
678.000000	 99.282589 
677.000000	 99.277997 
676.000000	 99.274382 
675.000000	 99.278077 
674.000000	 99.287762 
673.000000	 99.295045 
672.000000	 99.294577 
671.000000	 99.290022 
670.000000	 99.289594 
669.000000	 99.298200 
668.000000	 99.310365 
667.000000	 99.316785 
666.000000	 99.314854 
665.000000	 99.306192 
664.000000	 99.297342 
663.000000	 99.298391 
662.000000	 99.313658 
661.000000	 99.334286 
660.000000	 99.346064 
659.000000	 99.343819 
658.000000	 99.332205 
657.000000	 99.318416 
656.000000	 99.307046 
655.000000	 99.300937 
654.000000	 99.300759 
653.000000	 99.303559 
652.000000	 99.306149 
651.000000	 99.309199 
650.000000	 99.315102 

