4000.000000	99.761999 
3999.000000	99.755947 
3998.000000	99.752014 
3997.000000	99.753140 
3996.000000	99.758716 
3995.000000	99.765563 
3994.000000	99.770903 
3993.000000	99.774133 
3992.000000	99.776036 
3991.000000	99.777105 
3990.000000	99.777085 
3989.000000	99.775615 
3988.000000	99.772681 
3987.000000	99.768793 
3986.000000	99.765365 
3985.000000	99.764685 
3984.000000	99.768557 
3983.000000	99.776579 
3982.000000	99.786105 
3981.000000	99.793927 
3980.000000	99.797876 
3979.000000	99.797214 
3978.000000	99.792485 
3977.000000	99.785346 
3976.000000	99.777817 
3975.000000	99.770986 
3974.000000	99.764590 
3973.000000	99.758284 
3972.000000	99.753265 
3971.000000	99.752191 
3970.000000	99.757190 
3969.000000	99.767644 
3968.000000	99.779685 
3967.000000	99.788014 
3966.000000	99.788818 
3965.000000	99.781931 
3964.000000	99.770854 
3963.000000	99.760881 
3962.000000	99.756319 
3961.000000	99.758079 
3960.000000	99.763169 
3959.000000	99.766835 
3958.000000	99.766303 
3957.000000	99.762934 
3956.000000	99.760524 
3955.000000	99.761343 
3954.000000	99.764083 
3953.000000	99.765751 
3952.000000	99.764883 
3951.000000	99.762603 
3950.000000	99.760920 
3949.000000	99.760495 
3948.000000	99.760325 
3947.000000	99.759531 
3946.000000	99.759012 
3945.000000	99.760805 
3944.000000	99.765413 
3943.000000	99.770072 
3942.000000	99.770759 
3941.000000	99.766491 
3940.000000	99.760556 
3939.000000	99.757064 
3938.000000	99.757210 
3937.000000	99.759124 
3936.000000	99.760500 
3935.000000	99.760748 
3934.000000	99.760902 
3933.000000	99.762200 
3932.000000	99.764989 
3931.000000	99.768546 
3930.000000	99.771652 
3929.000000	99.773020 
3928.000000	99.771702 
3927.000000	99.767648 
3926.000000	99.762044 
3925.000000	99.756885 
3924.000000	99.753634 
3923.000000	99.752149 
3922.000000	99.750932 
3921.000000	99.748752 
3920.000000	99.746387 
3919.000000	99.746190 
3918.000000	99.749189 
3917.000000	99.753324 
3916.000000	99.755546 
3915.000000	99.755350 
3914.000000	99.755081 
3913.000000	99.757026 
3912.000000	99.760912 
3911.000000	99.764059 
3910.000000	99.763592 
3909.000000	99.758772 
3908.000000	99.751425 
3907.000000	99.744821 
3906.000000	99.741836 
3905.000000	99.743397 
3904.000000	99.747970 
3903.000000	99.752809 
3902.000000	99.756096 
3901.000000	99.757245 
3900.000000	99.756066 
3899.000000	99.752613 
3898.000000	99.747513 
3897.000000	99.741738 
3896.000000	99.735994 
3895.000000	99.731201 
3894.000000	99.729846 
3893.000000	99.735100 
3892.000000	99.746777 
3891.000000	99.759533 
3890.000000	99.767711 
3889.000000	99.770513 
3888.000000	99.770491 
3887.000000	99.770143 
3886.000000	99.770411 
3885.000000	99.770417 
3884.000000	99.769840 
3883.000000	99.769687 
3882.000000	99.769499 
3881.000000	99.767238 
3880.000000	99.761961 
3879.000000	99.755275 
3878.000000	99.750559 
3877.000000	99.749860 
3876.000000	99.752207 
3875.000000	99.755063 
3874.000000	99.755945 
3873.000000	99.753748 
3872.000000	99.749090 
3871.000000	99.743376 
3870.000000	99.738592 
3869.000000	99.737564 
3868.000000	99.742844 
3867.000000	99.753393 
3866.000000	99.763147 
3865.000000	99.766660 
3864.000000	99.764691 
3863.000000	99.762228 
3862.000000	99.762236 
3861.000000	99.762657 
3860.000000	99.759571 
3859.000000	99.751453 
3858.000000	99.739451 
3857.000000	99.726523 
3856.000000	99.717267 
3855.000000	99.716752 
3854.000000	99.724228 
3853.000000	99.730466 
3852.000000	99.732154 
3851.000000	99.736907 
3850.000000	99.746725 
3849.000000	99.755588 
3848.000000	99.760055 
3847.000000	99.761463 
3846.000000	99.762337 
3845.000000	99.763842 
3844.000000	99.765199 
3843.000000	99.764693 
3842.000000	99.761492 
3841.000000	99.757159 
3840.000000	99.754901 
3839.000000	99.756299 
3838.000000	99.758389 
3837.000000	99.756466 
3836.000000	99.749951 
3835.000000	99.743260 
3834.000000	99.741218 
3833.000000	99.745093 
3832.000000	99.752043 
3831.000000	99.757688 
3830.000000	99.760208 
3829.000000	99.761273 
3828.000000	99.762901 
3827.000000	99.764557 
3826.000000	99.763642 
3825.000000	99.758702 
3824.000000	99.751378 
3823.000000	99.745257 
3822.000000	99.742980 
3821.000000	99.743711 
3820.000000	99.745455 
3819.000000	99.749356 
3818.000000	99.756005 
3817.000000	99.761870 
3816.000000	99.763125 
3815.000000	99.759708 
3814.000000	99.755955 
3813.000000	99.755197 
3812.000000	99.754940 
3811.000000	99.751248 
3810.000000	99.744723 
3809.000000	99.739725 
3808.000000	99.739155 
3807.000000	99.740907 
3806.000000	99.741225 
3805.000000	99.740925 
3804.000000	99.743921 
3803.000000	99.751161 
3802.000000	99.758454 
3801.000000	99.759254 
3800.000000	99.752920 
3799.000000	99.746640 
3798.000000	99.744997 
3797.000000	99.745980 
3796.000000	99.746516 
3795.000000	99.746249 
3794.000000	99.747302 
3793.000000	99.751228 
3792.000000	99.757062 
3791.000000	99.762340 
3790.000000	99.765032 
3789.000000	99.764697 
3788.000000	99.762893 
3787.000000	99.762613 
3786.000000	99.766275 
3785.000000	99.773511 
3784.000000	99.781365 
3783.000000	99.786937 
3782.000000	99.789456 
3781.000000	99.789743 
3780.000000	99.788365 
3779.000000	99.784725 
3778.000000	99.778225 
3777.000000	99.769837 
3776.000000	99.761471 
3775.000000	99.754727 
3774.000000	99.750707 
3773.000000	99.750135 
3772.000000	99.752845 
3771.000000	99.757065 
3770.000000	99.759918 
3769.000000	99.759845 
3768.000000	99.758146 
3767.000000	99.756839 
3766.000000	99.756236 
3765.000000	99.755988 
3764.000000	99.757060 
3763.000000	99.761273 
3762.000000	99.768723 
3761.000000	99.776676 
3760.000000	99.781875 
3759.000000	99.783285 
3758.000000	99.782190 
3757.000000	99.779805 
3756.000000	99.775658 
3755.000000	99.769219 
3754.000000	99.761843 
3753.000000	99.756963 
3752.000000	99.757863 
3751.000000	99.763223 
3750.000000	99.766982 
3749.000000	99.764711 
3748.000000	99.756636 
3747.000000	99.745458 
3746.000000	99.735501 
3745.000000	99.730806 
3744.000000	99.729330 
3743.000000	99.727293 
3742.000000	99.727685 
3741.000000	99.731582 
3740.000000	99.734417 
3739.000000	99.734939 
3738.000000	99.736596 
3737.000000	99.742778 
3736.000000	99.752544 
3735.000000	99.760673 
3734.000000	99.762936 
3733.000000	99.760550 
3732.000000	99.758778 
3731.000000	99.761859 
3730.000000	99.769704 
3729.000000	99.778157 
3728.000000	99.782720 
3727.000000	99.783077 
3726.000000	99.783221 
3725.000000	99.786751 
3724.000000	99.792577 
3723.000000	99.795705 
3722.000000	99.792746 
3721.000000	99.785746 
3720.000000	99.779746 
3719.000000	99.777244 
3718.000000	99.776198 
3717.000000	99.773054 
3716.000000	99.766250 
3715.000000	99.756893 
3714.000000	99.747026 
3713.000000	99.738490 
3712.000000	99.733125 
3711.000000	99.732789 
3710.000000	99.738475 
3709.000000	99.748533 
3708.000000	99.758487 
3707.000000	99.763905 
3706.000000	99.763056 
3705.000000	99.757600 
3704.000000	99.751404 
3703.000000	99.748414 
3702.000000	99.750247 
3701.000000	99.755479 
3700.000000	99.761792 
3699.000000	99.767462 
3698.000000	99.770702 
3697.000000	99.769734 
3696.000000	99.764642 
3695.000000	99.758350 
3694.000000	99.754753 
3693.000000	99.755507 
3692.000000	99.759074 
3691.000000	99.762282 
3690.000000	99.762496 
3689.000000	99.759354 
3688.000000	99.755456 
3687.000000	99.754863 
3686.000000	99.759252 
3685.000000	99.765762 
3684.000000	99.769556 
3683.000000	99.768138 
3682.000000	99.762601 
3681.000000	99.755623 
3680.000000	99.748830 
3679.000000	99.742469 
3678.000000	99.737037 
3677.000000	99.733665 
3676.000000	99.732047 
3675.000000	99.729568 
3674.000000	99.726912 
3673.000000	99.728551 
3672.000000	99.734676 
3671.000000	99.741410 
3670.000000	99.745566 
3669.000000	99.746216 
3668.000000	99.746193 
3667.000000	99.747957 
3666.000000	99.749433 
3665.000000	99.748140 
3664.000000	99.744905 
3663.000000	99.741975 
3662.000000	99.739624 
3661.000000	99.735857 
3660.000000	99.729572 
3659.000000	99.723239 
3658.000000	99.721224 
3657.000000	99.724580 
3656.000000	99.728333 
3655.000000	99.726796 
3654.000000	99.719971 
3653.000000	99.711924 
3652.000000	99.707223 
3651.000000	99.708970 
3650.000000	99.714654 
3649.000000	99.716326 
3648.000000	99.710778 
3647.000000	99.703191 
3646.000000	99.699013 
3645.000000	99.699384 
3644.000000	99.702835 
3643.000000	99.707316 
3642.000000	99.710829 
3641.000000	99.712144 
3640.000000	99.712049 
3639.000000	99.713381 
3638.000000	99.718357 
3637.000000	99.725836 
3636.000000	99.731421 
3635.000000	99.730388 
3634.000000	99.721410 
3633.000000	99.707754 
3632.000000	99.695158 
3631.000000	99.688426 
3630.000000	99.688645 
3629.000000	99.691020 
3628.000000	99.689769 
3627.000000	99.687794 
3626.000000	99.691313 
3625.000000	99.699319 
3624.000000	99.706768 
3623.000000	99.710959 
3622.000000	99.712361 
3621.000000	99.712512 
3620.000000	99.711772 
3619.000000	99.709436 
3618.000000	99.706421 
3617.000000	99.705679 
3616.000000	99.708391 
3615.000000	99.712005 
3614.000000	99.712711 
3613.000000	99.708623 
3612.000000	99.700964 
3611.000000	99.692713 
3610.000000	99.686569 
3609.000000	99.684009 
3608.000000	99.684982 
3607.000000	99.688261 
3606.000000	99.692700 
3605.000000	99.697830 
3604.000000	99.703168 
3603.000000	99.707624 
3602.000000	99.709795 
3601.000000	99.709475 
3600.000000	99.708733 
3599.000000	99.710314 
3598.000000	99.714829 
3597.000000	99.720020 
3596.000000	99.722948 
3595.000000	99.722516 
3594.000000	99.720221 
3593.000000	99.718908 
3592.000000	99.720842 
3591.000000	99.726077 
3590.000000	99.732220 
3589.000000	99.735359 
3588.000000	99.732024 
3587.000000	99.722483 
3586.000000	99.712095 
3585.000000	99.707093 
3584.000000	99.709062 
3583.000000	99.714524 
3582.000000	99.718373 
3581.000000	99.717490 
3580.000000	99.712341 
3579.000000	99.705745 
3578.000000	99.700340 
3577.000000	99.697305 
3576.000000	99.697129 
3575.000000	99.700160 
3574.000000	99.705792 
3573.000000	99.711583 
3572.000000	99.714191 
3571.000000	99.711666 
3570.000000	99.705131 
3569.000000	99.698688 
3568.000000	99.696825 
3567.000000	99.700641 
3566.000000	99.707258 
3565.000000	99.713431 
3564.000000	99.717592 
3563.000000	99.719148 
3562.000000	99.718039 
3561.000000	99.715084 
3560.000000	99.712049 
3559.000000	99.710692 
3558.000000	99.711490 
3557.000000	99.713617 
3556.000000	99.716264 
3555.000000	99.719454 
3554.000000	99.723205 
3553.000000	99.726360 
3552.000000	99.727040 
3551.000000	99.724509 
3550.000000	99.720000 
3549.000000	99.715741 
3548.000000	99.713565 
3547.000000	99.714099 
3546.000000	99.716712 
3545.000000	99.720436 
3544.000000	99.724819 
3543.000000	99.729312 
3542.000000	99.732227 
3541.000000	99.731641 
3540.000000	99.727912 
3539.000000	99.724369 
3538.000000	99.724212 
3537.000000	99.726649 
3536.000000	99.727144 
3535.000000	99.722155 
3534.000000	99.712853 
3533.000000	99.703855 
3532.000000	99.699233 
3531.000000	99.700082 
3530.000000	99.704874 
3529.000000	99.711065 
3528.000000	99.716407 
3527.000000	99.719435 
3526.000000	99.719543 
3525.000000	99.717145 
3524.000000	99.713971 
3523.000000	99.712566 
3522.000000	99.714455 
3521.000000	99.718476 
3520.000000	99.721536 
3519.000000	99.721470 
3518.000000	99.719008 
3517.000000	99.716742 
3516.000000	99.716445 
3515.000000	99.717974 
3514.000000	99.720500 
3513.000000	99.723747 
3512.000000	99.727407 
3511.000000	99.729888 
3510.000000	99.728894 
3509.000000	99.723716 
3508.000000	99.716415 
3507.000000	99.710046 
3506.000000	99.705817 
3505.000000	99.702418 
3504.000000	99.698318 
3503.000000	99.694626 
3502.000000	99.695134 
3501.000000	99.702752 
3500.000000	99.715790 
3499.000000	99.728085 
3498.000000	99.733207 
3497.000000	99.729418 
3496.000000	99.721065 
3495.000000	99.714731 
3494.000000	99.713569 
3493.000000	99.715221 
3492.000000	99.715047 
3491.000000	99.710969 
3490.000000	99.705226 
3489.000000	99.701844 
3488.000000	99.702832 
3487.000000	99.706927 
3486.000000	99.711540 
3485.000000	99.715211 
3484.000000	99.717884 
3483.000000	99.719348 
3482.000000	99.718258 
3481.000000	99.713436 
3480.000000	99.706250 
3479.000000	99.700975 
3478.000000	99.701735 
3477.000000	99.708520 
3476.000000	99.716411 
3475.000000	99.719482 
3474.000000	99.716095 
3473.000000	99.710115 
3472.000000	99.706910 
3471.000000	99.708664 
3470.000000	99.713648 
3469.000000	99.718957 
3468.000000	99.722694 
3467.000000	99.723748 
3466.000000	99.721111 
3465.000000	99.714666 
3464.000000	99.706300 
3463.000000	99.699229 
3462.000000	99.695863 
3461.000000	99.696588 
3460.000000	99.700383 
3459.000000	99.705834 
3458.000000	99.711279 
3457.000000	99.714766 
3456.000000	99.714901 
3455.000000	99.712006 
3454.000000	99.708014 
3453.000000	99.704843 
3452.000000	99.702995 
3451.000000	99.701860 
3450.000000	99.701057 
3449.000000	99.700825 
3448.000000	99.700911 
3447.000000	99.699879 
3446.000000	99.696715 
3445.000000	99.693151 
3444.000000	99.692967 
3443.000000	99.697990 
3442.000000	99.705187 
3441.000000	99.709008 
3440.000000	99.706981 
3439.000000	99.701915 
3438.000000	99.698179 
3437.000000	99.696954 
3436.000000	99.696297 
3435.000000	99.695171 
3434.000000	99.695469 
3433.000000	99.699376 
3432.000000	99.705825 
3431.000000	99.710755 
3430.000000	99.710760 
3429.000000	99.705993 
3428.000000	99.699824 
3427.000000	99.696050 
3426.000000	99.696227 
3425.000000	99.699021 
3424.000000	99.701861 
3423.000000	99.703275 
3422.000000	99.703538 
3421.000000	99.703155 
3420.000000	99.701534 
3419.000000	99.697897 
3418.000000	99.693103 
3417.000000	99.689479 
3416.000000	99.688507 
3415.000000	99.689292 
3414.000000	99.689683 
3413.000000	99.688605 
3412.000000	99.687028 
3411.000000	99.686829 
3410.000000	99.688953 
3409.000000	99.692399 
3408.000000	99.694681 
3407.000000	99.693604 
3406.000000	99.689070 
3405.000000	99.683250 
3404.000000	99.678934 
3403.000000	99.677844 
3402.000000	99.680377 
3401.000000	99.686086 
3400.000000	99.693638 
3399.000000	99.700711 
3398.000000	99.705111 
3397.000000	99.706326 
3396.000000	99.705474 
3395.000000	99.703744 
3394.000000	99.701748 
3393.000000	99.700478 
3392.000000	99.701501 
3391.000000	99.705185 
3390.000000	99.709418 
3389.000000	99.711277 
3388.000000	99.709814 
3387.000000	99.706345 
3386.000000	99.702217 
3385.000000	99.697403 
3384.000000	99.691720 
3383.000000	99.686380 
3382.000000	99.683267 
3381.000000	99.682848 
3380.000000	99.683624 
3379.000000	99.683911 
3378.000000	99.683782 
3377.000000	99.684837 
3376.000000	99.688157 
3375.000000	99.692815 
3374.000000	99.696508 
3373.000000	99.697305 
3372.000000	99.694727 
3371.000000	99.689786 
3370.000000	99.684739 
3369.000000	99.682458 
3368.000000	99.684645 
3367.000000	99.689992 
3366.000000	99.694823 
3365.000000	99.696520 
3364.000000	99.696053 
3363.000000	99.696565 
3362.000000	99.699732 
3361.000000	99.704064 
3360.000000	99.706430 
3359.000000	99.704639 
3358.000000	99.698893 
3357.000000	99.691548 
3356.000000	99.685445 
3355.000000	99.681772 
3354.000000	99.679603 
3353.000000	99.678019 
3352.000000	99.678188 
3351.000000	99.682307 
3350.000000	99.690555 
3349.000000	99.700206 
3348.000000	99.707927 
3347.000000	99.712019 
3346.000000	99.712452 
3345.000000	99.710211 
3344.000000	99.707241 
3343.000000	99.705523 
3342.000000	99.704947 
3341.000000	99.703063 
3340.000000	99.698324 
3339.000000	99.692980 
3338.000000	99.691186 
3337.000000	99.694251 
3336.000000	99.699029 
3335.000000	99.701345 
3334.000000	99.700056 
3333.000000	99.697339 
3332.000000	99.695790 
3331.000000	99.695847 
3330.000000	99.695927 
3329.000000	99.694835 
3328.000000	99.693790 
3327.000000	99.695333 
3326.000000	99.699801 
3325.000000	99.703941 
3324.000000	99.704365 
3323.000000	99.701913 
3322.000000	99.700736 
3321.000000	99.702782 
3320.000000	99.705074 
3319.000000	99.703665 
3318.000000	99.699073 
3317.000000	99.695957 
3316.000000	99.697635 
3315.000000	99.702399 
3314.000000	99.705699 
3313.000000	99.705013 
3312.000000	99.701901 
3311.000000	99.699667 
3310.000000	99.699660 
3309.000000	99.700182 
3308.000000	99.698905 
3307.000000	99.695892 
3306.000000	99.693583 
3305.000000	99.693766 
3304.000000	99.695414 
3303.000000	99.696098 
3302.000000	99.694968 
3301.000000	99.693520 
3300.000000	99.693720 
3299.000000	99.696290 
3298.000000	99.700629 
3297.000000	99.705215 
3296.000000	99.707913 
3295.000000	99.707218 
3294.000000	99.704183 
3293.000000	99.702376 
3292.000000	99.704722 
3291.000000	99.710384 
3290.000000	99.715489 
3289.000000	99.716824 
3288.000000	99.714168 
3287.000000	99.709372 
3286.000000	99.704360 
3285.000000	99.700391 
3284.000000	99.698314 
3283.000000	99.698400 
3282.000000	99.699771 
3281.000000	99.700353 
3280.000000	99.697898 
3279.000000	99.691701 
3278.000000	99.683922 
3277.000000	99.678919 
3276.000000	99.680151 
3275.000000	99.687086 
3274.000000	99.695508 
3273.000000	99.701104 
3272.000000	99.702327 
3271.000000	99.699852 
3270.000000	99.694653 
3269.000000	99.687895 
3268.000000	99.682121 
3267.000000	99.680798 
3266.000000	99.685764 
3265.000000	99.695367 
3264.000000	99.705461 
3263.000000	99.712323 
3262.000000	99.714876 
3261.000000	99.714617 
3260.000000	99.713540 
3259.000000	99.712042 
3258.000000	99.709006 
3257.000000	99.703978 
3256.000000	99.698579 
3255.000000	99.695192 
3254.000000	99.694725 
3253.000000	99.696417 
3252.000000	99.699396 
3251.000000	99.703229 
3250.000000	99.706939 
3249.000000	99.708827 
3248.000000	99.707883 
3247.000000	99.704676 
3246.000000	99.700547 
3245.000000	99.696796 
3244.000000	99.695101 
3243.000000	99.697559 
3242.000000	99.704870 
3241.000000	99.714550 
3240.000000	99.721878 
3239.000000	99.723097 
3238.000000	99.717817 
3237.000000	99.708801 
3236.000000	99.699942 
3235.000000	99.694183 
3234.000000	99.692491 
3233.000000	99.694211 
3232.000000	99.698166 
3231.000000	99.703332 
3230.000000	99.708591 
3229.000000	99.712423 
3228.000000	99.713385 
3227.000000	99.710963 
3226.000000	99.705970 
3225.000000	99.700316 
3224.000000	99.696230 
3223.000000	99.695088 
3222.000000	99.696621 
3221.000000	99.699524 
3220.000000	99.702912 
3219.000000	99.706641 
3218.000000	99.710113 
3217.000000	99.711712 
3216.000000	99.710277 
3215.000000	99.706735 
3214.000000	99.703479 
3213.000000	99.702128 
3212.000000	99.702453 
3211.000000	99.703452 
3210.000000	99.704834 
3209.000000	99.707082 
3208.000000	99.710236 
3207.000000	99.712996 
3206.000000	99.713574 
3205.000000	99.711887 
3204.000000	99.710550 
3203.000000	99.712730 
3202.000000	99.718751 
3201.000000	99.725562 
3200.000000	99.729731 
3199.000000	99.730187 
3198.000000	99.728017 
3197.000000	99.725085 
3196.000000	99.723555 
3195.000000	99.725023 
3194.000000	99.728410 
3193.000000	99.729819 
3192.000000	99.726551 
3191.000000	99.720875 
3190.000000	99.717880 
3189.000000	99.719724 
3188.000000	99.723997 
3187.000000	99.727620 
3186.000000	99.729805 
3185.000000	99.730405 
3184.000000	99.728024 
3183.000000	99.721958 
3182.000000	99.714616 
3181.000000	99.709802 
3180.000000	99.708950 
3179.000000	99.710506 
3178.000000	99.712416 
3177.000000	99.713499 
3176.000000	99.712775 
3175.000000	99.709763 
3174.000000	99.706200 
3173.000000	99.705656 
3172.000000	99.709853 
3171.000000	99.715974 
3170.000000	99.719057 
3169.000000	99.717324 
3168.000000	99.714415 
3167.000000	99.715960 
3166.000000	99.724200 
3165.000000	99.735997 
3164.000000	99.745670 
3163.000000	99.749419 
3162.000000	99.747457 
3161.000000	99.742871 
3160.000000	99.739072 
3159.000000	99.737806 
3158.000000	99.738387 
3157.000000	99.738217 
3156.000000	99.734655 
3155.000000	99.727386 
3154.000000	99.719374 
3153.000000	99.715062 
3152.000000	99.716893 
3151.000000	99.723029 
3150.000000	99.728617 
3149.000000	99.729935 
3148.000000	99.727765 
3147.000000	99.726333 
3146.000000	99.728383 
3145.000000	99.731666 
3144.000000	99.731288 
3143.000000	99.725607 
3142.000000	99.718708 
3141.000000	99.716314 
3140.000000	99.719933 
3139.000000	99.725862 
3138.000000	99.729545 
3137.000000	99.729924 
3136.000000	99.729307 
3135.000000	99.729833 
3134.000000	99.730939 
3133.000000	99.730483 
3132.000000	99.727891 
3131.000000	99.725400 
3130.000000	99.725673 
3129.000000	99.728594 
3128.000000	99.731390 
3127.000000	99.732074 
3126.000000	99.731799 
3125.000000	99.732945 
3124.000000	99.735442 
3123.000000	99.736251 
3122.000000	99.732905 
3121.000000	99.726889 
3120.000000	99.722769 
3119.000000	99.723842 
3118.000000	99.728851 
3117.000000	99.733206 
3116.000000	99.733443 
3115.000000	99.730150 
3114.000000	99.726373 
3113.000000	99.723941 
3112.000000	99.722330 
3111.000000	99.720903 
3110.000000	99.720673 
3109.000000	99.722875 
3108.000000	99.726650 
3107.000000	99.729388 
3106.000000	99.729351 
3105.000000	99.727163 
3104.000000	99.724804 
3103.000000	99.723916 
3102.000000	99.725134 
3101.000000	99.728155 
3100.000000	99.731889 
3099.000000	99.734764 
3098.000000	99.735446 
3097.000000	99.733693 
3096.000000	99.730811 
3095.000000	99.729116 
3094.000000	99.730308 
3093.000000	99.733828 
3092.000000	99.736930 
3091.000000	99.736741 
3090.000000	99.732521 
3089.000000	99.726236 
3088.000000	99.721404 
3087.000000	99.721206 
3086.000000	99.726558 
3085.000000	99.735065 
3084.000000	99.742115 
3083.000000	99.743876 
3082.000000	99.739779 
3081.000000	99.732518 
3080.000000	99.726171 
3079.000000	99.724077 
3078.000000	99.727059 
3077.000000	99.732582 
3076.000000	99.736336 
3075.000000	99.735910 
3074.000000	99.732808 
3073.000000	99.730311 
3072.000000	99.729905 
3071.000000	99.730710 
3070.000000	99.731572 
3069.000000	99.731965 
3068.000000	99.731029 
3067.000000	99.727779 
3066.000000	99.723084 
3065.000000	99.719995 
3064.000000	99.720898 
3063.000000	99.724982 
3062.000000	99.729279 
3061.000000	99.731577 
3060.000000	99.731769 
3059.000000	99.731181 
3058.000000	99.731410 
3057.000000	99.733329 
3056.000000	99.736332 
3055.000000	99.738785 
3054.000000	99.739819 
3053.000000	99.740403 
3052.000000	99.742127 
3051.000000	99.745126 
3050.000000	99.747670 
3049.000000	99.747607 
3048.000000	99.743959 
3047.000000	99.737555 
3046.000000	99.730703 
3045.000000	99.726055 
3044.000000	99.725091 
3043.000000	99.727405 
3042.000000	99.731302 
3041.000000	99.734813 
3040.000000	99.736419 
3039.000000	99.735829 
3038.000000	99.734626 
3037.000000	99.735403 
3036.000000	99.739431 
3035.000000	99.745441 
3034.000000	99.751136 
3033.000000	99.755387 
3032.000000	99.758324 
3031.000000	99.759956 
3030.000000	99.759785 
3029.000000	99.757586 
3028.000000	99.753804 
3027.000000	99.749431 
3026.000000	99.746185 
3025.000000	99.746302 
3024.000000	99.750821 
3023.000000	99.757816 
3022.000000	99.763254 
3021.000000	99.764065 
3020.000000	99.760358 
3019.000000	99.755087 
3018.000000	99.752115 
3017.000000	99.753949 
3016.000000	99.759971 
3015.000000	99.766754 
3014.000000	99.771004 
3013.000000	99.772292 
3012.000000	99.772275 
3011.000000	99.771780 
3010.000000	99.770158 
3009.000000	99.767560 
3008.000000	99.766184 
3007.000000	99.768473 
3006.000000	99.774876 
3005.000000	99.783576 
3004.000000	99.791233 
3003.000000	99.793917 
3002.000000	99.789424 
3001.000000	99.780246 
3000.000000	99.772899 
2999.000000	99.772252 
2998.000000	99.776825 
2997.000000	99.781193 
2996.000000	99.782581 
2995.000000	99.783259 
2994.000000	99.786265 
2993.000000	99.790887 
2992.000000	99.793696 
2991.000000	99.792912 
2990.000000	99.790218 
2989.000000	99.788301 
2988.000000	99.787699 
2987.000000	99.786699 
2986.000000	99.783975 
2985.000000	99.780641 
2984.000000	99.779283 
2983.000000	99.781110 
2982.000000	99.784638 
2981.000000	99.787390 
2980.000000	99.788450 
2979.000000	99.788998 
2978.000000	99.790743 
2977.000000	99.794358 
2976.000000	99.799040 
2975.000000	99.802880 
2974.000000	99.803799 
2973.000000	99.800987 
2972.000000	99.795739 
2971.000000	99.790571 
2970.000000	99.787404 
2969.000000	99.786729 
2968.000000	99.788070 
2967.000000	99.790549 
2966.000000	99.793098 
2965.000000	99.794942 
2964.000000	99.796187 
2963.000000	99.797529 
2962.000000	99.799230 
2961.000000	99.800751 
2960.000000	99.801437 
2959.000000	99.801233 
2958.000000	99.800739 
2957.000000	99.800757 
2956.000000	99.801273 
2955.000000	99.800307 
2954.000000	99.794677 
2953.000000	99.783759 
2952.000000	99.772602 
2951.000000	99.769276 
2950.000000	99.777540 
2949.000000	99.792738 
2948.000000	99.805990 
2947.000000	99.811873 
2946.000000	99.811363 
2945.000000	99.808435 
2944.000000	99.805917 
2943.000000	99.804618 
2942.000000	99.804271 
2941.000000	99.803888 
2940.000000	99.801977 
2939.000000	99.797753 
2938.000000	99.792220 
2937.000000	99.787633 
2936.000000	99.785991 
2935.000000	99.788162 
2934.000000	99.793812 
2933.000000	99.801474 
2932.000000	99.808979 
2931.000000	99.814577 
2930.000000	99.817809 
2929.000000	99.819135 
2928.000000	99.819115 
2927.000000	99.818402 
2926.000000	99.817998 
2925.000000	99.818439 
2924.000000	99.818728 
2923.000000	99.817159 
2922.000000	99.813546 
2921.000000	99.809651 
2920.000000	99.806827 
2919.000000	99.804246 
2918.000000	99.800492 
2917.000000	99.796295 
2916.000000	99.794356 
2915.000000	99.796470 
2914.000000	99.801841 
2913.000000	99.808285 
2912.000000	99.813932 
2911.000000	99.817401 
2910.000000	99.817564 
2909.000000	99.814270 
2908.000000	99.808953 
2907.000000	99.803784 
2906.000000	99.800311 
2905.000000	99.799038 
2904.000000	99.799463 
2903.000000	99.799908 
2902.000000	99.798227 
2901.000000	99.793914 
2900.000000	99.789008 
2899.000000	99.785743 
2898.000000	99.783649 
2897.000000	99.780550 
2896.000000	99.776492 
2895.000000	99.774793 
2894.000000	99.778231 
2893.000000	99.785280 
2892.000000	99.791322 
2891.000000	99.792992 
2890.000000	99.790504 
2889.000000	99.786520 
2888.000000	99.783968 
2887.000000	99.784561 
2886.000000	99.787960 
2885.000000	99.791818 
2884.000000	99.793408 
2883.000000	99.791784 
2882.000000	99.788303 
2881.000000	99.785183 
2880.000000	99.784024 
2879.000000	99.785495 
2878.000000	99.789485 
2877.000000	99.794906 
2876.000000	99.799604 
2875.000000	99.801131 
2874.000000	99.798090 
2873.000000	99.791277 
2872.000000	99.783801 
2871.000000	99.779665 
2870.000000	99.781250 
2869.000000	99.787488 
2868.000000	99.794535 
2867.000000	99.798605 
2866.000000	99.798572 
2865.000000	99.796253 
2864.000000	99.794404 
2863.000000	99.794165 
2862.000000	99.794144 
2861.000000	99.792226 
2860.000000	99.788548 
2859.000000	99.786113 
2858.000000	99.787622 
2857.000000	99.792022 
2856.000000	99.795253 
2855.000000	99.794551 
2854.000000	99.790900 
2853.000000	99.786872 
2852.000000	99.783355 
2851.000000	99.779495 
2850.000000	99.775144 
2849.000000	99.771799 
2848.000000	99.770999 
2847.000000	99.772702 
2846.000000	99.775416 
2845.000000	99.777189 
2844.000000	99.776542 
2843.000000	99.773474 
2842.000000	99.769986 
2841.000000	99.768561 
2840.000000	99.769308 
2839.000000	99.769213 
2838.000000	99.765176 
2837.000000	99.757622 
2836.000000	99.750360 
2835.000000	99.746975 
2834.000000	99.747953 
2833.000000	99.751161 
2832.000000	99.754245 
2831.000000	99.756277 
2830.000000	99.757719 
2829.000000	99.759406 
2828.000000	99.761622 
2827.000000	99.763987 
2826.000000	99.766054 
2825.000000	99.767643 
2824.000000	99.768371 
2823.000000	99.767424 
2822.000000	99.764585 
2821.000000	99.761341 
2820.000000	99.760088 
2819.000000	99.761910 
2818.000000	99.765594 
2817.000000	99.768885 
2816.000000	99.770171 
2815.000000	99.769042 
2814.000000	99.766170 
2813.000000	99.763011 
2812.000000	99.760699 
2811.000000	99.758733 
2810.000000	99.755594 
2809.000000	99.751331 
2808.000000	99.748542 
2807.000000	99.749588 
2806.000000	99.753431 
2805.000000	99.756619 
2804.000000	99.757376 
2803.000000	99.757340 
2802.000000	99.758909 
2801.000000	99.761928 
2800.000000	99.763791 
2799.000000	99.762328 
2798.000000	99.757981 
2797.000000	99.753295 
2796.000000	99.750612 
2795.000000	99.750232 
2794.000000	99.750548 
2793.000000	99.749785 
2792.000000	99.747468 
2791.000000	99.744507 
2790.000000	99.742540 
2789.000000	99.743297 
2788.000000	99.747520 
2787.000000	99.753604 
2786.000000	99.758007 
2785.000000	99.758266 
2784.000000	99.755530 
2783.000000	99.753166 
2782.000000	99.753100 
2781.000000	99.754543 
2780.000000	99.755965 
2779.000000	99.756806 
2778.000000	99.757046 
2777.000000	99.756622 
2776.000000	99.755913 
2775.000000	99.755704 
2774.000000	99.756043 
2773.000000	99.756130 
2772.000000	99.755775 
2771.000000	99.755797 
2770.000000	99.756424 
2769.000000	99.756721 
2768.000000	99.756571 
2767.000000	99.757822 
2766.000000	99.761925 
2765.000000	99.767272 
2764.000000	99.770481 
2763.000000	99.769903 
2762.000000	99.766727 
2761.000000	99.763271 
2760.000000	99.761645 
2759.000000	99.763385 
2758.000000	99.768283 
2757.000000	99.773462 
2756.000000	99.775446 
2755.000000	99.773793 
2754.000000	99.771294 
2753.000000	99.770165 
2752.000000	99.769505 
2751.000000	99.767321 
2750.000000	99.763619 
2749.000000	99.760106 
2748.000000	99.757603 
2747.000000	99.755182 
2746.000000	99.751779 
2745.000000	99.747677 
2744.000000	99.744303 
2743.000000	99.743163 
2742.000000	99.744947 
2741.000000	99.749019 
2740.000000	99.753554 
2739.000000	99.756625 
2738.000000	99.757560 
2737.000000	99.757332 
2736.000000	99.757488 
2735.000000	99.758565 
2734.000000	99.759536 
2733.000000	99.758945 
2732.000000	99.756552 
2731.000000	99.753507 
2730.000000	99.750876 
2729.000000	99.748748 
2728.000000	99.747268 
2727.000000	99.747593 
2726.000000	99.750407 
2725.000000	99.753790 
2724.000000	99.754348 
2723.000000	99.751201 
2722.000000	99.747615 
2721.000000	99.747629 
2720.000000	99.751689 
2719.000000	99.756459 
2718.000000	99.758399 
2717.000000	99.756719 
2716.000000	99.753492 
2715.000000	99.752046 
2714.000000	99.754912 
2713.000000	99.761897 
2712.000000	99.769710 
2711.000000	99.774468 
2710.000000	99.775249 
2709.000000	99.774645 
2708.000000	99.775414 
2707.000000	99.777102 
2706.000000	99.776630 
2705.000000	99.771931 
2704.000000	99.764336 
2703.000000	99.757347 
2702.000000	99.753647 
2701.000000	99.753454 
2700.000000	99.755217 
2699.000000	99.757154 
2698.000000	99.758040 
2697.000000	99.757277 
2696.000000	99.755096 
2695.000000	99.752927 
2694.000000	99.752844 
2693.000000	99.755732 
2692.000000	99.759783 
2691.000000	99.761510 
2690.000000	99.759048 
2689.000000	99.754527 
2688.000000	99.752455 
2687.000000	99.755290 
2686.000000	99.760885 
2685.000000	99.764650 
2684.000000	99.763973 
2683.000000	99.760062 
2682.000000	99.755988 
2681.000000	99.754015 
2680.000000	99.754753 
2679.000000	99.757280 
2678.000000	99.759182 
2677.000000	99.757788 
2676.000000	99.753032 
2675.000000	99.748640 
2674.000000	99.748761 
2673.000000	99.753255 
2672.000000	99.757685 
2671.000000	99.758263 
2670.000000	99.755269 
2669.000000	99.751042 
2668.000000	99.746430 
2667.000000	99.741034 
2666.000000	99.736068 
2665.000000	99.734748 
2664.000000	99.739187 
2663.000000	99.747845 
2662.000000	99.756532 
2661.000000	99.761455 
2660.000000	99.761335 
2659.000000	99.757479 
2658.000000	99.752582 
2657.000000	99.749236 
2656.000000	99.748931 
2655.000000	99.751751 
2654.000000	99.756299 
2653.000000	99.759798 
2652.000000	99.759296 
2651.000000	99.754050 
2650.000000	99.746750 
2649.000000	99.741496 
2648.000000	99.740374 
2647.000000	99.742540 
2646.000000	99.746316 
2645.000000	99.750862 
2644.000000	99.755572 
2643.000000	99.759411 
2642.000000	99.762029 
2641.000000	99.764606 
2640.000000	99.768330 
2639.000000	99.772577 
2638.000000	99.775777 
2637.000000	99.777482 
2636.000000	99.777964 
2635.000000	99.776152 
2634.000000	99.770271 
2633.000000	99.761378 
2632.000000	99.754281 
2631.000000	99.753029 
2630.000000	99.756302 
2629.000000	99.758957 
2628.000000	99.757854 
2627.000000	99.754607 
2626.000000	99.752628 
2625.000000	99.753220 
2624.000000	99.755284 
2623.000000	99.757520 
2622.000000	99.759715 
2621.000000	99.762253 
2620.000000	99.765115 
2619.000000	99.767188 
2618.000000	99.766395 
2617.000000	99.761339 
2616.000000	99.753509 
2615.000000	99.747152 
2614.000000	99.745882 
2613.000000	99.749402 
2612.000000	99.754200 
2611.000000	99.757371 
2610.000000	99.759076 
2609.000000	99.761288 
2608.000000	99.764917 
2607.000000	99.768636 
2606.000000	99.770330 
2605.000000	99.769339 
2604.000000	99.766987 
2603.000000	99.764826 
2602.000000	99.762963 
2601.000000	99.760931 
2600.000000	99.759848 
2599.000000	99.762079 
2598.000000	99.768028 
2597.000000	99.774504 
2596.000000	99.777397 
2595.000000	99.775176 
2594.000000	99.768995 
2593.000000	99.760850 
2592.000000	99.753316 
2591.000000	99.749795 
2590.000000	99.752199 
2589.000000	99.758165 
2588.000000	99.762694 
2587.000000	99.762975 
2586.000000	99.759897 
2585.000000	99.754862 
2584.000000	99.747795 
2583.000000	99.739458 
2582.000000	99.733289 
2581.000000	99.732612 
2580.000000	99.736785 
2579.000000	99.741753 
2578.000000	99.744076 
2577.000000	99.743602 
2576.000000	99.742957 
2575.000000	99.745345 
2574.000000	99.752064 
2573.000000	99.761032 
2572.000000	99.768048 
2571.000000	99.770082 
2570.000000	99.767028 
2569.000000	99.760627 
2568.000000	99.753357 
2567.000000	99.748600 
2566.000000	99.749454 
2565.000000	99.755654 
2564.000000	99.763021 
2563.000000	99.767252 
2562.000000	99.766789 
2561.000000	99.761262 
2560.000000	99.750269 
2559.000000	99.736336 
2558.000000	99.726195 
2557.000000	99.724680 
2556.000000	99.728476 
2555.000000	99.730450 
2554.000000	99.729902 
2553.000000	99.733658 
2552.000000	99.745919 
2551.000000	99.761697 
2550.000000	99.772719 
2549.000000	99.776151 
2548.000000	99.774523 
2547.000000	99.770160 
2546.000000	99.763775 
2545.000000	99.757200 
2544.000000	99.753522 
2543.000000	99.754119 
2542.000000	99.757717 
2541.000000	99.762226 
2540.000000	99.765660 
2539.000000	99.765720 
2538.000000	99.760770 
2537.000000	99.751632 
2536.000000	99.741192 
2535.000000	99.732431 
2534.000000	99.727890 
2533.000000	99.729681 
2532.000000	99.737486 
2531.000000	99.746957 
2530.000000	99.752961 
2529.000000	99.755098 
2528.000000	99.757691 
2527.000000	99.763508 
2526.000000	99.769847 
2525.000000	99.772280 
2524.000000	99.770374 
2523.000000	99.767747 
2522.000000	99.767549 
2521.000000	99.769752 
2520.000000	99.772333 
2519.000000	99.773371 
2518.000000	99.772048 
2517.000000	99.768912 
2516.000000	99.765440 
2515.000000	99.762689 
2514.000000	99.760461 
2513.000000	99.758106 
2512.000000	99.755427 
2511.000000	99.752118 
2510.000000	99.747556 
2509.000000	99.742734 
2508.000000	99.741473 
2507.000000	99.747071 
2506.000000	99.757305 
2505.000000	99.764967 
2504.000000	99.764757 
2503.000000	99.758297 
2502.000000	99.751281 
2501.000000	99.747447 
2500.000000	99.747153 
2499.000000	99.750213 
2498.000000	99.756733 
2497.000000	99.764692 
2496.000000	99.769657 
2495.000000	99.768817 
2494.000000	99.763942 
2493.000000	99.758801 
2492.000000	99.754794 
2491.000000	99.751137 
2490.000000	99.748655 
2489.000000	99.750484 
2488.000000	99.757695 
2487.000000	99.765936 
2486.000000	99.768578 
2485.000000	99.763414 
2484.000000	99.755171 
2483.000000	99.750984 
2482.000000	99.754007 
2481.000000	99.761609 
2480.000000	99.768939 
2479.000000	99.773098 
2478.000000	99.773778 
2477.000000	99.771269 
2476.000000	99.765546 
2475.000000	99.757659 
2474.000000	99.750720 
2473.000000	99.748082 
2472.000000	99.750433 
2471.000000	99.755512 
2470.000000	99.760806 
2469.000000	99.765457 
2468.000000	99.768997 
2467.000000	99.769482 
2466.000000	99.764849 
2465.000000	99.756571 
2464.000000	99.750346 
2463.000000	99.751362 
2462.000000	99.758622 
2461.000000	99.764955 
2460.000000	99.763524 
2459.000000	99.754302 
2458.000000	99.743951 
2457.000000	99.739549 
2456.000000	99.742722 
2455.000000	99.749455 
2454.000000	99.754585 
2453.000000	99.755811 
2452.000000	99.753869 
2451.000000	99.750172 
2450.000000	99.745321 
2449.000000	99.739814 
2448.000000	99.735211 
2447.000000	99.733733 
2446.000000	99.736699 
2445.000000	99.743654 
2444.000000	99.752857 
2443.000000	99.762033 
2442.000000	99.768699 
2441.000000	99.770914 
2440.000000	99.768751 
2439.000000	99.764849 
2438.000000	99.762699 
2437.000000	99.763991 
2436.000000	99.767475 
2435.000000	99.769776 
2434.000000	99.767048 
2433.000000	99.757171 
2432.000000	99.742204 
2431.000000	99.728620 
2430.000000	99.723272 
2429.000000	99.728024 
2428.000000	99.738950 
2427.000000	99.750823 
2426.000000	99.760815 
2425.000000	99.767280 
2424.000000	99.767540 
2423.000000	99.759855 
2422.000000	99.747209 
2421.000000	99.736467 
2420.000000	99.732611 
2419.000000	99.734966 
2418.000000	99.739559 
2417.000000	99.743741 
2416.000000	99.747388 
2415.000000	99.750689 
2414.000000	99.752708 
2413.000000	99.752668 
2412.000000	99.751605 
2411.000000	99.751673 
2410.000000	99.753680 
2409.000000	99.756060 
2408.000000	99.756953 
2407.000000	99.756997 
2406.000000	99.758907 
2405.000000	99.763956 
2404.000000	99.769894 
2403.000000	99.773119 
2402.000000	99.772125 
2401.000000	99.767970 
2400.000000	99.762348 
2399.000000	99.756665 
2398.000000	99.752442 
2397.000000	99.750728 
2396.000000	99.750802 
2395.000000	99.750885 
2394.000000	99.750497 
2393.000000	99.750774 
2392.000000	99.752091 
2391.000000	99.753052 
2390.000000	99.752758 
2389.000000	99.752646 
2388.000000	99.754590 
2387.000000	99.757978 
2386.000000	99.760160 
2385.000000	99.759526 
2384.000000	99.757086 
2383.000000	99.755295 
2382.000000	99.756407 
2381.000000	99.761683 
2380.000000	99.770643 
2379.000000	99.780394 
2378.000000	99.786612 
2377.000000	99.786325 
2376.000000	99.779932 
2375.000000	99.770627 
2374.000000	99.762247 
2373.000000	99.757757 
2372.000000	99.758993 
2371.000000	99.766259 
2370.000000	99.777342 
2369.000000	99.787035 
2368.000000	99.789037 
2367.000000	99.780398 
2366.000000	99.765151 
2365.000000	99.752232 
2364.000000	99.747796 
2363.000000	99.750298 
2362.000000	99.755096 
2361.000000	99.760642 
2360.000000	99.768793 
2359.000000	99.780257 
2358.000000	99.790555 
2357.000000	99.794387 
2356.000000	99.790593 
2355.000000	99.782333 
2354.000000	99.774534 
2353.000000	99.769249 
2352.000000	99.766016 
2351.000000	99.763221 
2350.000000	99.761837 
2349.000000	99.765670 
2348.000000	99.775708 
2347.000000	99.788559 
2346.000000	99.796808 
2345.000000	99.795907 
2344.000000	99.788761 
2343.000000	99.782149 
2342.000000	99.781903 
2341.000000	99.786726 
2340.000000	99.792401 
2339.000000	99.794397 
2338.000000	99.790749 
2337.000000	99.783383 
2336.000000	99.776275 
2335.000000	99.772396 
2334.000000	99.771818 
2333.000000	99.773492 
2332.000000	99.775975 
2331.000000	99.777232 
2330.000000	99.774357 
2329.000000	99.768303 
2328.000000	99.762096 
2327.000000	99.761410 
2326.000000	99.766964 
2325.000000	99.775270 
2324.000000	99.779635 
2323.000000	99.775748 
2322.000000	99.766268 
2321.000000	99.757859 
2320.000000	99.756247 
2319.000000	99.760841 
2318.000000	99.767196 
2317.000000	99.771648 
2316.000000	99.773172 
2315.000000	99.772984 
2314.000000	99.771857 
2313.000000	99.771236 
2312.000000	99.771704 
2311.000000	99.774277 
2310.000000	99.778817 
2309.000000	99.785665 
2308.000000	99.793235 
2307.000000	99.798723 
2306.000000	99.798593 
2305.000000	99.792459 
2304.000000	99.782602 
2303.000000	99.772079 
2302.000000	99.762235 
2301.000000	99.754443 
2300.000000	99.750876 
2299.000000	99.753976 
2298.000000	99.763392 
2297.000000	99.776517 
2296.000000	99.789856 
2295.000000	99.800945 
2294.000000	99.807105 
2293.000000	99.805976 
2292.000000	99.797476 
2291.000000	99.786271 
2290.000000	99.779438 
2289.000000	99.780552 
2288.000000	99.785698 
2287.000000	99.786858 
2286.000000	99.779751 
2285.000000	99.767348 
2284.000000	99.755669 
2283.000000	99.747455 
2282.000000	99.741402 
2281.000000	99.735904 
2280.000000	99.731716 
2279.000000	99.730773 
2278.000000	99.733967 
2277.000000	99.739872 
2276.000000	99.745232 
2275.000000	99.747496 
2274.000000	99.747482 
2273.000000	99.747956 
2272.000000	99.748100 
2271.000000	99.742280 
2270.000000	99.727367 
2269.000000	99.709822 
2268.000000	99.701216 
2267.000000	99.707044 
2266.000000	99.723047 
2265.000000	99.741242 
2264.000000	99.754942 
2263.000000	99.759200 
2262.000000	99.753436 
2261.000000	99.745892 
2260.000000	99.748787 
2259.000000	99.764585 
2258.000000	99.781528 
2257.000000	99.786780 
2256.000000	99.780161 
2255.000000	99.770000 
2254.000000	99.759977 
2253.000000	99.747483 
2252.000000	99.733323 
2251.000000	99.725069 
2250.000000	99.728752 
2249.000000	99.742111 
2248.000000	99.757907 
2247.000000	99.770815 
2246.000000	99.779306 
2245.000000	99.783608 
2244.000000	99.783796 
2243.000000	99.778980 
2242.000000	99.767983 
2241.000000	99.752101 
2240.000000	99.736635 
2239.000000	99.727344 
2238.000000	99.725045 
2237.000000	99.725169 
2236.000000	99.722670 
2235.000000	99.715890 
2234.000000	99.706132 
2233.000000	99.695983 
2232.000000	99.689014 
2231.000000	99.689688 
2230.000000	99.701908 
2229.000000	99.726179 
2228.000000	99.756835 
2227.000000	99.782692 
2226.000000	99.793578 
2225.000000	99.788336 
2224.000000	99.774697 
2223.000000	99.759753 
2222.000000	99.743561 
2221.000000	99.724739 
2220.000000	99.708891 
2219.000000	99.706461 
2218.000000	99.722644 
2217.000000	99.752539 
2216.000000	99.785693 
2215.000000	99.812429 
2214.000000	99.826338 
2213.000000	99.825033 
2212.000000	99.810738 
2211.000000	99.789550 
2210.000000	99.770065 
2209.000000	99.761350 
2208.000000	99.767325 
2207.000000	99.780574 
2206.000000	99.785873 
2205.000000	99.774318 
2204.000000	99.752003 
2203.000000	99.731790 
2202.000000	99.720496 
2201.000000	99.717776 
2200.000000	99.721566 
2199.000000	99.727286 
2198.000000	99.726161 
2197.000000	99.714663 
2196.000000	99.704908 
2195.000000	99.715559 
2194.000000	99.750117 
2193.000000	99.791136 
2192.000000	99.817473 
2191.000000	99.820761 
2190.000000	99.804563 
2189.000000	99.777449 
2188.000000	99.751036 
2187.000000	99.736860 
2186.000000	99.738979 
2185.000000	99.752199 
2184.000000	99.768975 
2183.000000	99.783516 
2182.000000	99.789549 
2181.000000	99.783536 
2180.000000	99.773171 
2179.000000	99.772722 
2178.000000	99.784461 
2177.000000	99.792463 
2176.000000	99.781404 
2175.000000	99.755846 
2174.000000	99.734202 
2173.000000	99.728486 
2172.000000	99.736506 
2171.000000	99.749666 
2170.000000	99.760901 
2169.000000	99.766917 
2168.000000	99.768678 
2167.000000	99.769278 
2166.000000	99.768986 
2165.000000	99.765160 
2164.000000	99.758854 
2163.000000	99.756281 
2162.000000	99.760440 
2161.000000	99.766871 
2160.000000	99.771511 
2159.000000	99.776279 
2158.000000	99.782275 
2157.000000	99.786197 
2156.000000	99.789191 
2155.000000	99.797994 
2154.000000	99.810458 
2153.000000	99.810701 
2152.000000	99.788171 
2151.000000	99.754706 
2150.000000	99.733511 
2149.000000	99.735533 
2148.000000	99.753666 
2147.000000	99.774619 
2146.000000	99.786828 
2145.000000	99.781632 
2144.000000	99.759423 
2143.000000	99.734278 
2142.000000	99.722831 
2141.000000	99.727620 
2140.000000	99.738025 
2139.000000	99.746350 
2138.000000	99.753832 
2137.000000	99.760927 
2136.000000	99.762514 
2135.000000	99.756829 
2134.000000	99.751149 
2133.000000	99.753153 
2132.000000	99.761268 
2131.000000	99.767636 
2130.000000	99.767024 
2129.000000	99.760051 
2128.000000	99.750735 
2127.000000	99.743374 
2126.000000	99.740142 
2125.000000	99.740392 
2124.000000	99.743511 
2123.000000	99.751696 
2122.000000	99.766480 
2121.000000	99.782704 
2120.000000	99.790831 
2119.000000	99.787077 
2118.000000	99.777383 
2117.000000	99.769443 
2116.000000	99.764498 
2115.000000	99.759640 
2114.000000	99.754582 
2113.000000	99.751797 
2112.000000	99.751351 
2111.000000	99.749533 
2110.000000	99.743148 
2109.000000	99.733550 
2108.000000	99.726345 
2107.000000	99.727012 
2106.000000	99.734958 
2105.000000	99.741529 
2104.000000	99.737248 
2103.000000	99.723009 
2102.000000	99.711107 
2101.000000	99.712353 
2100.000000	99.724440 
2099.000000	99.736174 
2098.000000	99.740847 
2097.000000	99.741123 
2096.000000	99.741433 
2095.000000	99.740233 
2094.000000	99.731778 
2093.000000	99.713686 
2092.000000	99.691436 
2091.000000	99.675819 
2090.000000	99.675357 
2089.000000	99.689249 
2088.000000	99.707667 
2087.000000	99.720157 
2086.000000	99.723195 
2085.000000	99.719577 
2084.000000	99.713262 
2083.000000	99.707177 
2082.000000	99.704246 
2081.000000	99.706681 
2080.000000	99.713828 
2079.000000	99.723238 
2078.000000	99.734049 
2077.000000	99.747231 
2076.000000	99.762598 
2075.000000	99.777938 
2074.000000	99.790982 
2073.000000	99.799803 
2072.000000	99.801378 
2071.000000	99.793157 
2070.000000	99.777917 
2069.000000	99.764477 
2068.000000	99.760402 
2067.000000	99.764446 
2066.000000	99.768102 
2065.000000	99.764320 
2064.000000	99.753651 
2063.000000	99.742060 
2062.000000	99.734722 
2061.000000	99.732982 
2060.000000	99.735906 
2059.000000	99.742777 
2058.000000	99.753043 
2057.000000	99.764574 
2056.000000	99.773977 
2055.000000	99.779551 
2054.000000	99.782749 
2053.000000	99.785802 
2052.000000	99.789262 
2051.000000	99.793217 
2050.000000	99.798970 
2049.000000	99.805945 
2048.000000	99.807246 
2047.000000	99.793622 
2046.000000	99.764972 
2045.000000	99.734760 
2044.000000	99.719222 
2043.000000	99.723258 
2042.000000	99.739186 
2041.000000	99.756856 
2040.000000	99.771403 
2039.000000	99.781911 
2038.000000	99.787517 
2037.000000	99.788145 
2036.000000	99.786992 
2035.000000	99.788443 
2034.000000	99.792708 
2033.000000	99.794260 
2032.000000	99.787058 
2031.000000	99.771331 
2030.000000	99.754591 
2029.000000	99.745405 
2028.000000	99.745433 
2027.000000	99.748420 
2026.000000	99.748306 
2025.000000	99.747059 
2024.000000	99.751960 
2023.000000	99.764295 
2022.000000	99.773778 
2021.000000	99.767562 
2020.000000	99.745451 
2019.000000	99.723605 
2018.000000	99.720882 
2017.000000	99.740308 
2016.000000	99.765260 
2015.000000	99.777007 
2014.000000	99.774093 
2013.000000	99.771266 
2012.000000	99.780076 
2011.000000	99.795020 
2010.000000	99.802591 
2009.000000	99.800434 
2008.000000	99.799863 
2007.000000	99.808035 
2006.000000	99.816472 
2005.000000	99.813594 
2004.000000	99.802441 
2003.000000	99.796635 
2002.000000	99.801152 
2001.000000	99.804907 
2000.000000	99.793845 
1999.000000	99.767122 
1998.000000	99.738250 
1997.000000	99.723824 
1996.000000	99.731506 
1995.000000	99.755686 
1994.000000	99.782194 
1993.000000	99.798399 
1992.000000	99.801629 
1991.000000	99.797563 
1990.000000	99.791221 
1989.000000	99.784154 
1988.000000	99.779454 
1987.000000	99.781366 
1986.000000	99.786819 
1985.000000	99.784294 
1984.000000	99.767616 
1983.000000	99.747146 
1982.000000	99.740295 
1981.000000	99.751661 
1980.000000	99.768505 
1979.000000	99.776850 
1978.000000	99.776384 
1977.000000	99.777346 
1976.000000	99.786597 
1975.000000	99.801644 
1974.000000	99.816747 
1973.000000	99.829774 
1972.000000	99.841230 
1971.000000	99.847820 
1970.000000	99.840268 
1969.000000	99.812182 
1968.000000	99.772525 
1967.000000	99.743692 
1966.000000	99.740990 
1965.000000	99.757119 
1964.000000	99.773060 
1963.000000	99.779867 
1962.000000	99.782221 
1961.000000	99.783314 
1960.000000	99.776872 
1959.000000	99.758745 
1958.000000	99.738317 
1957.000000	99.730166 
1956.000000	99.737542 
1955.000000	99.751142 
1954.000000	99.762099 
1953.000000	99.768985 
1952.000000	99.771857 
1951.000000	99.767042 
1950.000000	99.752924 
1949.000000	99.736411 
1948.000000	99.727571 
1947.000000	99.727670 
1946.000000	99.726403 
1945.000000	99.712843 
1944.000000	99.688337 
1943.000000	99.667940 
1942.000000	99.667848 
1941.000000	99.689856 
1940.000000	99.720386 
1939.000000	99.744435 
1938.000000	99.757661 
1937.000000	99.765930 
1936.000000	99.774833 
1935.000000	99.781375 
1934.000000	99.778321 
1933.000000	99.765723 
1932.000000	99.753804 
1931.000000	99.752558 
1930.000000	99.761815 
1929.000000	99.772896 
1928.000000	99.778146 
1927.000000	99.775928 
1926.000000	99.767685 
1925.000000	99.755507 
1924.000000	99.743110 
1923.000000	99.736346 
1922.000000	99.738459 
1921.000000	99.746117 
1920.000000	99.752837 
1919.000000	99.755598 
1918.000000	99.756448 
1917.000000	99.757996 
1916.000000	99.758607 
1915.000000	99.753754 
1914.000000	99.741869 
1913.000000	99.728336 
1912.000000	99.722018 
1911.000000	99.726489 
1910.000000	99.735655 
1909.000000	99.739991 
1908.000000	99.737683 
1907.000000	99.735925 
1906.000000	99.740686 
1905.000000	99.749664 
1904.000000	99.755811 
1903.000000	99.755618 
1902.000000	99.750468 
1901.000000	99.742460 
1900.000000	99.733562 
1899.000000	99.727738 
1898.000000	99.729073 
1897.000000	99.736440 
1896.000000	99.742308 
1895.000000	99.740183 
1894.000000	99.731973 
1893.000000	99.725590 
1892.000000	99.726132 
1891.000000	99.731384 
1890.000000	99.734727 
1889.000000	99.731812 
1888.000000	99.724780 
1887.000000	99.718676 
1886.000000	99.715696 
1885.000000	99.714754 
1884.000000	99.714711 
1883.000000	99.716365 
1882.000000	99.720799 
1881.000000	99.727063 
1880.000000	99.733396 
1879.000000	99.739505 
1878.000000	99.746069 
1877.000000	99.753067 
1876.000000	99.759184 
1875.000000	99.762036 
1874.000000	99.758857 
1873.000000	99.748733 
1872.000000	99.735474 
1871.000000	99.726344 
1870.000000	99.725262 
1869.000000	99.727386 
1868.000000	99.725948 
1867.000000	99.723983 
1866.000000	99.729016 
1865.000000	99.739290 
1864.000000	99.743544 
1863.000000	99.734026 
1862.000000	99.716430 
1861.000000	99.704757 
1860.000000	99.707554 
1859.000000	99.721622 
1858.000000	99.737368 
1857.000000	99.746647 
1856.000000	99.747019 
1855.000000	99.742131 
1854.000000	99.738374 
1853.000000	99.739194 
1852.000000	99.742438 
1851.000000	99.744366 
1850.000000	99.744560 
1849.000000	99.746752 
1848.000000	99.753943 
1847.000000	99.764534 
1846.000000	99.773300 
1845.000000	99.775275 
1844.000000	99.770075 
1843.000000	99.763596 
1842.000000	99.762135 
1841.000000	99.765489 
1840.000000	99.769073 
1839.000000	99.768524 
1838.000000	99.761978 
1837.000000	99.750759 
1836.000000	99.738170 
1835.000000	99.728632 
1834.000000	99.725939 
1833.000000	99.730118 
1832.000000	99.736028 
1831.000000	99.736292 
1830.000000	99.728063 
1829.000000	99.718021 
1828.000000	99.714495 
1827.000000	99.717178 
1826.000000	99.720926 
1825.000000	99.723915 
1824.000000	99.727641 
1823.000000	99.731308 
1822.000000	99.730540 
1821.000000	99.723461 
1820.000000	99.715130 
1819.000000	99.712864 
1818.000000	99.718190 
1817.000000	99.725648 
1816.000000	99.729522 
1815.000000	99.730308 
1814.000000	99.732204 
1813.000000	99.736984 
1812.000000	99.742830 
1811.000000	99.747900 
1810.000000	99.753506 
1809.000000	99.760722 
1808.000000	99.766384 
1807.000000	99.765974 
1806.000000	99.759029 
1805.000000	99.750197 
1804.000000	99.744718 
1803.000000	99.742928 
1802.000000	99.739218 
1801.000000	99.728003 
1800.000000	99.712268 
1799.000000	99.701960 
1798.000000	99.703852 
1797.000000	99.715191 
1796.000000	99.728323 
1795.000000	99.738541 
1794.000000	99.745595 
1793.000000	99.749277 
1792.000000	99.747604 
1791.000000	99.741301 
1790.000000	99.735310 
1789.000000	99.732525 
1788.000000	99.732791 
1787.000000	99.735792 
1786.000000	99.741152 
1785.000000	99.746390 
1784.000000	99.747864 
1783.000000	99.744826 
1782.000000	99.739307 
1781.000000	99.732870 
1780.000000	99.726553 
1779.000000	99.721851 
1778.000000	99.721416 
1777.000000	99.725574 
1776.000000	99.730619 
1775.000000	99.731364 
1774.000000	99.725701 
1773.000000	99.717375 
1772.000000	99.712566 
1771.000000	99.713482 
1770.000000	99.717125 
1769.000000	99.719241 
1768.000000	99.718476 
1767.000000	99.716997 
1766.000000	99.718334 
1765.000000	99.724088 
1764.000000	99.732239 
1763.000000	99.737938 
1762.000000	99.737191 
1761.000000	99.731924 
1760.000000	99.728494 
1759.000000	99.729773 
1758.000000	99.734898 
1757.000000	99.741123 
1756.000000	99.745005 
1755.000000	99.744131 
1754.000000	99.739109 
1753.000000	99.734567 
1752.000000	99.736745 
1751.000000	99.745685 
1750.000000	99.753055 
1749.000000	99.752881 
1748.000000	99.747396 
1747.000000	99.742463 
1746.000000	99.740500 
1745.000000	99.740363 
1744.000000	99.740659 
1743.000000	99.740586 
1742.000000	99.740321 
1741.000000	99.740374 
1740.000000	99.740349 
1739.000000	99.738989 
1738.000000	99.736439 
1737.000000	99.733349 
1736.000000	99.730572 
1735.000000	99.730920 
1734.000000	99.734631 
1733.000000	99.738385 
1732.000000	99.741955 
1731.000000	99.743446 
1730.000000	99.741595 
1729.000000	99.738550 
1728.000000	99.736979 
1727.000000	99.737091 
1726.000000	99.737146 
1725.000000	99.737008 
1724.000000	99.737963 
1723.000000	99.739357 
1722.000000	99.739420 
1721.000000	99.737702 
1720.000000	99.736390 
1719.000000	99.738497 
1718.000000	99.743057 
1717.000000	99.744835 
1716.000000	99.743266 
1715.000000	99.741986 
1714.000000	99.741274 
1713.000000	99.739041 
1712.000000	99.734938 
1711.000000	99.731819 
1710.000000	99.732471 
1709.000000	99.736287 
1708.000000	99.740652 
1707.000000	99.743507 
1706.000000	99.743161 
1705.000000	99.738661 
1704.000000	99.732303 
1703.000000	99.727835 
1702.000000	99.726607 
1701.000000	99.726812 
1700.000000	99.721783 
1699.000000	99.713948 
1698.000000	99.714140 
1697.000000	99.721097 
1696.000000	99.725420 
1695.000000	99.720262 
1694.000000	99.711233 
1693.000000	99.705817 
1692.000000	99.704712 
1691.000000	99.705644 
1690.000000	99.705345 
1689.000000	99.702038 
1688.000000	99.698521 
1687.000000	99.698801 
1686.000000	99.704462 
1685.000000	99.713289 
1684.000000	99.715858 
1683.000000	99.712194 
1682.000000	99.712039 
1681.000000	99.713058 
1680.000000	99.711852 
1679.000000	99.708956 
1678.000000	99.705396 
1677.000000	99.701739 
1676.000000	99.698653 
1675.000000	99.696105 
1674.000000	99.694028 
1673.000000	99.693562 
1672.000000	99.695223 
1671.000000	99.698577 
1670.000000	99.702147 
1669.000000	99.703234 
1668.000000	99.702232 
1667.000000	99.700100 
1666.000000	99.695810 
1665.000000	99.689855 
1664.000000	99.685185 
1663.000000	99.684148 
1662.000000	99.685529 
1661.000000	99.686834 
1660.000000	99.688283 
1659.000000	99.690890 
1658.000000	99.693949 
1657.000000	99.695274 
1656.000000	99.694126 
1655.000000	99.692611 
1654.000000	99.694954 
1653.000000	99.696495 
1652.000000	99.693449 
1651.000000	99.694639 
1650.000000	99.696216 
1649.000000	99.694685 
1648.000000	99.691577 
1647.000000	99.689149 
1646.000000	99.688651 
1645.000000	99.691410 
1644.000000	99.695127 
1643.000000	99.696843 
1642.000000	99.695827 
1641.000000	99.692576 
1640.000000	99.689368 
1639.000000	99.688584 
1638.000000	99.691081 
1637.000000	99.696429 
1636.000000	99.702338 
1635.000000	99.705918 
1634.000000	99.707279 
1633.000000	99.706158 
1632.000000	99.700761 
1631.000000	99.692746 
1630.000000	99.685135 
1629.000000	99.679542 
1628.000000	99.676481 
1627.000000	99.677099 
1626.000000	99.681940 
1625.000000	99.689224 
1624.000000	99.696022 
1623.000000	99.699486 
1622.000000	99.699112 
1621.000000	99.696467 
1620.000000	99.692726 
1619.000000	99.688507 
1618.000000	99.685067 
1617.000000	99.682984 
1616.000000	99.682479 
1615.000000	99.685743 
1614.000000	99.692541 
1613.000000	99.699739 
1612.000000	99.705287 
1611.000000	99.708189 
1610.000000	99.707369 
1609.000000	99.703040 
1608.000000	99.698149 
1607.000000	99.696039 
1606.000000	99.696940 
1605.000000	99.698510 
1604.000000	99.699732 
1603.000000	99.700964 
1602.000000	99.702262 
1601.000000	99.703300 
1600.000000	99.704573 
1599.000000	99.707232 
1598.000000	99.711224 
1597.000000	99.714841 
1596.000000	99.716452 
1595.000000	99.716402 
1594.000000	99.716821 
1593.000000	99.719307 
1592.000000	99.723206 
1591.000000	99.725970 
1590.000000	99.725362 
1589.000000	99.721914 
1588.000000	99.719133 
1587.000000	99.720285 
1586.000000	99.725212 
1585.000000	99.730635 
1584.000000	99.734067 
1583.000000	99.735671 
1582.000000	99.735883 
1581.000000	99.734633 
1580.000000	99.731782 
1579.000000	99.726897 
1578.000000	99.719035 
1577.000000	99.709156 
1576.000000	99.701406 
1575.000000	99.701184 
1574.000000	99.708504 
1573.000000	99.717255 
1572.000000	99.723748 
1571.000000	99.728408 
1570.000000	99.731667 
1569.000000	99.732525 
1568.000000	99.732283 
1567.000000	99.731943 
1566.000000	99.730148 
1565.000000	99.726335 
1564.000000	99.721468 
1563.000000	99.716683 
1562.000000	99.711766 
1561.000000	99.706473 
1560.000000	99.704171 
1559.000000	99.703622 
1558.000000	99.704439 
1557.000000	99.715691 
1556.000000	99.728936 
1555.000000	99.736214 
1554.000000	99.736290 
1553.000000	99.731529 
1552.000000	99.726270 
1551.000000	99.722752 
1550.000000	99.721272 
1549.000000	99.721019 
1548.000000	99.720355 
1547.000000	99.717610 
1546.000000	99.711691 
1545.000000	99.703784 
1544.000000	99.697606 
1543.000000	99.697520 
1542.000000	99.704997 
1541.000000	99.716394 
1540.000000	99.722220 
1539.000000	99.720626 
1538.000000	99.720835 
1537.000000	99.725270 
1536.000000	99.730875 
1535.000000	99.735765 
1534.000000	99.737067 
1533.000000	99.732229 
1532.000000	99.725023 
1531.000000	99.719827 
1530.000000	99.716416 
1529.000000	99.713520 
1528.000000	99.711038 
1527.000000	99.710786 
1526.000000	99.714329 
1525.000000	99.720297 
1524.000000	99.725699 
1523.000000	99.728993 
1522.000000	99.730781 
1521.000000	99.731231 
1520.000000	99.730516 
1519.000000	99.728099 
1518.000000	99.722352 
1517.000000	99.714796 
1516.000000	99.709232 
1515.000000	99.708015 
1514.000000	99.710087 
1513.000000	99.713836 
1512.000000	99.718297 
1511.000000	99.720790 
1510.000000	99.719156 
1509.000000	99.714608 
1508.000000	99.713862 
1507.000000	99.721574 
1506.000000	99.731377 
1505.000000	99.735978 
1504.000000	99.734683 
1503.000000	99.731605 
1502.000000	99.730559 
1501.000000	99.731737 
1500.000000	99.732221 
1499.000000	99.729428 
1498.000000	99.723536 
1497.000000	99.717029 
1496.000000	99.711982 
1495.000000	99.709947 
1494.000000	99.711487 
1493.000000	99.715281 
1492.000000	99.719935 
1491.000000	99.724443 
1490.000000	99.727413 
1489.000000	99.728433 
1488.000000	99.729053 
1487.000000	99.730376 
1486.000000	99.731711 
1485.000000	99.730303 
1484.000000	99.725421 
1483.000000	99.720357 
1482.000000	99.718758 
1481.000000	99.720907 
1480.000000	99.723455 
1479.000000	99.724051 
1478.000000	99.722981 
1477.000000	99.721460 
1476.000000	99.720317 
1475.000000	99.721761 
1474.000000	99.728499 
1473.000000	99.738193 
1472.000000	99.743590 
1471.000000	99.742224 
1470.000000	99.738420 
1469.000000	99.735450 
1468.000000	99.733581 
1467.000000	99.731790 
1466.000000	99.729799 
1465.000000	99.728470 
1464.000000	99.729244 
1463.000000	99.731955 
1462.000000	99.734656 
1461.000000	99.735873 
1460.000000	99.735423 
1459.000000	99.733761 
1458.000000	99.730758 
1457.000000	99.725687 
1456.000000	99.720844 
1455.000000	99.719636 
1454.000000	99.720378 
1453.000000	99.721518 
1452.000000	99.723442 
1451.000000	99.726322 
1450.000000	99.729491 
1449.000000	99.731962 
1448.000000	99.733149 
1447.000000	99.733623 
1446.000000	99.733551 
1445.000000	99.731381 
1444.000000	99.726580 
1443.000000	99.721000 
1442.000000	99.718339 
1441.000000	99.720472 
1440.000000	99.726123 
1439.000000	99.732945 
1438.000000	99.739981 
1437.000000	99.745826 
1436.000000	99.747135 
1435.000000	99.744134 
1434.000000	99.740252 
1433.000000	99.737353 
1432.000000	99.735119 
1431.000000	99.732290 
1430.000000	99.728234 
1429.000000	99.723824 
1428.000000	99.719713 
1427.000000	99.716396 
1426.000000	99.714850 
1425.000000	99.716131 
1424.000000	99.719998 
1423.000000	99.723713 
1422.000000	99.725070 
1421.000000	99.724330 
1420.000000	99.723506 
1419.000000	99.723470 
1418.000000	99.724065 
1417.000000	99.725402 
1416.000000	99.725875 
1415.000000	99.724517 
1414.000000	99.722890 
1413.000000	99.723201 
1412.000000	99.725825 
1411.000000	99.728789 
1410.000000	99.730092 
1409.000000	99.729645 
1408.000000	99.728353 
1407.000000	99.727474 
1406.000000	99.728211 
1405.000000	99.730668 
1404.000000	99.734007 
1403.000000	99.737349 
1402.000000	99.740917 
1401.000000	99.745071 
1400.000000	99.748581 
1399.000000	99.749313 
1398.000000	99.747630 
1397.000000	99.746225 
1396.000000	99.746222 
1395.000000	99.746882 
1394.000000	99.747769 
1393.000000	99.749697 
1392.000000	99.752925 
1391.000000	99.756344 
1390.000000	99.759225 
1389.000000	99.761357 
1388.000000	99.761763 
1387.000000	99.759418 
1386.000000	99.755990 
1385.000000	99.754580 
1384.000000	99.755768 
1383.000000	99.756990 
1382.000000	99.755778 
1381.000000	99.752632 
1380.000000	99.750283 
1379.000000	99.750915 
1378.000000	99.754287 
1377.000000	99.758030 
1376.000000	99.758869 
1375.000000	99.754373 
1374.000000	99.745434 
1373.000000	99.736997 
1372.000000	99.733482 
1371.000000	99.734738 
1370.000000	99.737542 
1369.000000	99.738965 
1368.000000	99.738623 
1367.000000	99.737854 
1366.000000	99.737690 
1365.000000	99.737943 
1364.000000	99.737597 
1363.000000	99.735615 
1362.000000	99.732237 
1361.000000	99.729289 
1360.000000	99.728598 
1359.000000	99.730858 
1358.000000	99.735531 
1357.000000	99.741043 
1356.000000	99.745395 
1355.000000	99.747118 
1354.000000	99.746224 
1353.000000	99.744291 
1352.000000	99.742994 
1351.000000	99.742800 
1350.000000	99.742726 
1349.000000	99.741346 
1348.000000	99.738411 
1347.000000	99.734785 
1346.000000	99.731604 
1345.000000	99.729485 
1344.000000	99.728481 
1343.000000	99.728428 
1342.000000	99.729423 
1341.000000	99.731741 
1340.000000	99.735065 
1339.000000	99.738028 
1338.000000	99.739403 
1337.000000	99.739563 
1336.000000	99.739832 
1335.000000	99.740434 
1334.000000	99.740180 
1333.000000	99.738689 
1332.000000	99.737859 
1331.000000	99.739819 
1330.000000	99.743949 
1329.000000	99.747573 
1328.000000	99.749303 
1327.000000	99.749776 
1326.000000	99.748971 
1325.000000	99.745374 
1324.000000	99.739136 
1323.000000	99.733805 
1322.000000	99.733005 
1321.000000	99.736301 
1320.000000	99.740274 
1319.000000	99.742939 
1318.000000	99.744952 
1317.000000	99.746555 
1316.000000	99.746034 
1315.000000	99.742246 
1314.000000	99.736639 
1313.000000	99.731559 
1312.000000	99.727867 
1311.000000	99.725460 
1310.000000	99.724757 
1309.000000	99.725963 
1308.000000	99.727549 
1307.000000	99.727245 
1306.000000	99.724555 
1305.000000	99.721227 
1304.000000	99.719376 
1303.000000	99.719912 
1302.000000	99.722611 
1301.000000	99.726529 
1300.000000	99.730336 
1299.000000	99.733132 
1298.000000	99.735217 
1297.000000	99.737379 
1296.000000	99.739441 
1295.000000	99.740230 
1294.000000	99.739001 
1293.000000	99.736130 
1292.000000	99.732290 
1291.000000	99.727884 
1290.000000	99.723608 
1289.000000	99.720723 
1288.000000	99.720003 
1287.000000	99.720541 
1286.000000	99.720184 
1285.000000	99.717381 
1284.000000	99.712566 
1283.000000	99.707691 
1282.000000	99.704422 
1281.000000	99.702875 
1280.000000	99.702282 
1279.000000	99.702397 
1278.000000	99.703304 
1277.000000	99.704037 
1276.000000	99.702811 
1275.000000	99.699493 
1274.000000	99.696679 
1273.000000	99.697022 
1272.000000	99.700026 
1271.000000	99.702794 
1270.000000	99.703658 
1269.000000	99.703524 
1268.000000	99.703604 
1267.000000	99.703574 
1266.000000	99.702676 
1265.000000	99.701296 
1264.000000	99.700259 
1263.000000	99.699267 
1262.000000	99.697180 
1261.000000	99.693740 
1260.000000	99.690354 
1259.000000	99.688896 
1258.000000	99.689868 
1257.000000	99.691889 
1256.000000	99.693042 
1255.000000	99.692833 
1254.000000	99.692649 
1253.000000	99.694099 
1252.000000	99.697288 
1251.000000	99.701129 
1250.000000	99.704634 
1249.000000	99.706872 
1248.000000	99.706138 
1247.000000	99.700798 
1246.000000	99.691360 
1245.000000	99.680406 
1244.000000	99.669920 
1243.000000	99.659957 
1242.000000	99.650655 
1241.000000	99.644131 
1240.000000	99.642728 
1239.000000	99.645731 
1238.000000	99.649378 
1237.000000	99.650549 
1236.000000	99.649479 
1235.000000	99.648399 
1234.000000	99.648290 
1233.000000	99.647726 
1232.000000	99.644665 
1231.000000	99.638720 
1230.000000	99.631629 
1229.000000	99.625979 
1228.000000	99.623574 
1227.000000	99.624264 
1226.000000	99.625466 
1225.000000	99.623187 
1224.000000	99.614881 
1223.000000	99.601964 
1222.000000	99.588783 
1221.000000	99.578435 
1220.000000	99.570204 
1219.000000	99.561579 
1218.000000	99.551708 
1217.000000	99.541655 
1216.000000	99.531891 
1215.000000	99.521175 
1214.000000	99.508095 
1213.000000	99.492539 
1212.000000	99.475434 
1211.000000	99.458132 
1210.000000	99.442322 
1209.000000	99.429332 
1208.000000	99.418778 
1207.000000	99.408499 
1206.000000	99.396473 
1205.000000	99.382531 
1204.000000	99.367998 
1203.000000	99.354314 
1202.000000	99.342445 
1201.000000	99.332866 
1200.000000	99.325142 
1199.000000	99.317468 
1198.000000	99.307328 
1197.000000	99.293138 
1196.000000	99.275396 
1195.000000	99.256422 
1194.000000	99.238810 
1193.000000	99.223525 
1192.000000	99.209141 
1191.000000	99.193126 
1190.000000	99.174258 
1189.000000	99.153967 
1188.000000	99.135384 
1187.000000	99.121180 
1186.000000	99.111854 
1185.000000	99.105270 
1184.000000	99.097648 
1183.000000	99.085935 
1182.000000	99.070371 
1181.000000	99.054586 
1180.000000	99.042218 
1179.000000	99.033220 
1178.000000	99.024124 
1177.000000	99.011913 
1176.000000	98.996561 
1175.000000	98.979263 
1174.000000	98.959433 
1173.000000	98.935092 
1172.000000	98.906372 
1171.000000	98.877332 
1170.000000	98.853306 
1169.000000	98.836510 
1168.000000	98.824638 
1167.000000	98.813656 
1166.000000	98.801859 
1165.000000	98.791436 
1164.000000	98.786331 
1163.000000	98.788769 
1162.000000	98.798073 
1161.000000	98.812417 
1160.000000	98.830117 
1159.000000	98.847831 
1158.000000	98.858634 
1157.000000	98.854874 
1156.000000	98.834775 
1155.000000	98.805589 
1154.000000	98.778418 
1153.000000	98.759137 
1152.000000	98.744912 
1151.000000	98.729438 
1150.000000	98.710269 
1149.000000	98.690271 
1148.000000	98.672963 
1147.000000	98.658295 
1146.000000	98.643499 
1145.000000	98.626740 
1144.000000	98.608548 
1143.000000	98.590011 
1142.000000	98.571192 
1141.000000	98.552020 
1140.000000	98.533598 
1139.000000	98.517199 
1138.000000	98.502129 
1137.000000	98.485886 
1136.000000	98.466933 
1135.000000	98.446484 
1134.000000	98.426707 
1133.000000	98.407487 
1132.000000	98.386179 
1131.000000	98.361321 
1130.000000	98.335954 
1129.000000	98.315392 
1128.000000	98.300464 
1127.000000	98.284053 
1126.000000	98.256954 
1125.000000	98.218188 
1124.000000	98.177700 
1123.000000	98.147382 
1122.000000	98.130375 
1121.000000	98.120349 
1120.000000	98.109379 
1119.000000	98.093592 
1118.000000	98.072398 
1117.000000	98.046862 
1116.000000	98.020668 
1115.000000	97.999501 
1114.000000	97.986112 
1113.000000	97.976702 
1112.000000	97.964370 
1111.000000	97.946035 
1110.000000	97.924785 
1109.000000	97.906057 
1108.000000	97.892981 
1107.000000	97.884897 
1106.000000	97.878323 
1105.000000	97.868881 
1104.000000	97.854006 
1103.000000	97.835103 
1102.000000	97.816454 
1101.000000	97.801047 
1100.000000	97.787953 
1099.000000	97.774784 
1098.000000	97.761921 
1097.000000	97.752226 
1096.000000	97.746294 
1095.000000	97.740277 
1094.000000	97.730282 
1093.000000	97.717378 
1092.000000	97.705601 
1091.000000	97.695619 
1090.000000	97.683487 
1089.000000	97.666344 
1088.000000	97.646678 
1087.000000	97.629672 
1086.000000	97.618501 
1085.000000	97.613658 
1084.000000	97.614641 
1083.000000	97.619674 
1082.000000	97.624766 
1081.000000	97.625509 
1080.000000	97.619959 
1079.000000	97.608976 
1078.000000	97.594614 
1077.000000	97.579076 
1076.000000	97.564069 
1075.000000	97.549643 
1074.000000	97.533890 
1073.000000	97.514427 
1072.000000	97.489669 
1071.000000	97.458944 
1070.000000	97.423445 
1069.000000	97.387481 
1068.000000	97.355992 
1067.000000	97.328899 
1066.000000	97.299981 
1065.000000	97.263802 
1064.000000	97.222203 
1063.000000	97.181563 
1062.000000	97.145206 
1061.000000	97.111194 
1060.000000	97.076514 
1059.000000	97.040404 
1058.000000	97.003793 
1057.000000	96.967984 
1056.000000	96.933852 
1055.000000	96.900399 
1054.000000	96.864201 
1053.000000	96.822012 
1052.000000	96.773825 
1051.000000	96.722178 
1050.000000	96.669419 
1049.000000	96.617200 
1048.000000	96.567169 
1047.000000	96.520117 
1046.000000	96.475902 
1045.000000	96.435392 
1044.000000	96.399679 
1043.000000	96.365683 
1042.000000	96.326544 
1041.000000	96.280069 
1040.000000	96.233269 
1039.000000	96.193711 
1038.000000	96.159293 
1037.000000	96.122595 
1036.000000	96.083410 
1035.000000	96.049951 
1034.000000	96.027613 
1033.000000	96.013032 
1032.000000	96.000395 
1031.000000	95.988085 
1030.000000	95.977515 
1029.000000	95.970120 
1028.000000	95.967306 
1027.000000	95.969542 
1026.000000	95.973971 
1025.000000	95.976012 
1024.000000	95.974198 
1023.000000	95.970774 
1022.000000	95.967751 
1021.000000	95.965661 
1020.000000	95.965727 
1019.000000	95.968981 
1018.000000	95.972818 
1017.000000	95.972586 
1016.000000	95.967448 
1015.000000	95.961230 
1014.000000	95.956898 
1013.000000	95.953565 
1012.000000	95.949383 
1011.000000	95.943775 
1010.000000	95.936441 
1009.000000	95.928010 
1008.000000	95.922381 
1007.000000	95.924458 
1006.000000	95.934226 
1005.000000	95.946533 
1004.000000	95.957996 
1003.000000	95.970818 
1002.000000	95.988310 
1001.000000	96.009492 
1000.000000	96.029681 
999.000000	 96.044453 
998.000000	 96.052600 
997.000000	 96.057767 
996.000000	 96.067690 
995.000000	 96.088769 
994.000000	 96.119705 
993.000000	 96.152379 
992.000000	 96.179903 
991.000000	 96.202001 
990.000000	 96.222187 
989.000000	 96.242400 
988.000000	 96.262225 
987.000000	 96.282117 
986.000000	 96.305491 
985.000000	 96.336840 
984.000000	 96.377271 
983.000000	 96.421926 
982.000000	 96.463378 
981.000000	 96.498669 
980.000000	 96.531754 
979.000000	 96.568406 
978.000000	 96.610727 
977.000000	 96.657510 
976.000000	 96.706875 
975.000000	 96.756331 
974.000000	 96.803198 
973.000000	 96.848033 
972.000000	 96.895431 
971.000000	 96.948420 
970.000000	 97.004154 
969.000000	 97.057961 
968.000000	 97.108922 
967.000000	 97.157664 
966.000000	 97.201441 
965.000000	 97.236628 
964.000000	 97.265127 
963.000000	 97.293611 
962.000000	 97.326616 
961.000000	 97.364215 
960.000000	 97.405785 
959.000000	 97.451046 
958.000000	 97.496668 
957.000000	 97.536428 
956.000000	 97.566798 
955.000000	 97.590005 
954.000000	 97.610579 
953.000000	 97.631080 
952.000000	 97.651916 
951.000000	 97.672952 
950.000000	 97.694042 
949.000000	 97.715202 
948.000000	 97.736460 
947.000000	 97.756163 
946.000000	 97.770016 
945.000000	 97.774246 
944.000000	 97.770350 
943.000000	 97.765331 
942.000000	 97.766721 
941.000000	 97.777486 
940.000000	 97.794237 
939.000000	 97.808927 
938.000000	 97.814414 
937.000000	 97.811542 
936.000000	 97.809858 
935.000000	 97.818478 
934.000000	 97.836838 
933.000000	 97.857000 
932.000000	 97.873691 
931.000000	 97.888172 
930.000000	 97.902775 
929.000000	 97.916030 
928.000000	 97.924333 
927.000000	 97.925541 
926.000000	 97.920355 
925.000000	 97.912934 
924.000000	 97.910515 
923.000000	 97.919026 
922.000000	 97.937206 
921.000000	 97.956826 
920.000000	 97.969472 
919.000000	 97.971855 
918.000000	 97.965631 
917.000000	 97.955425 
916.000000	 97.947247 
915.000000	 97.945353 
914.000000	 97.949141 
913.000000	 97.955307 
912.000000	 97.963470 
911.000000	 97.976934 
910.000000	 97.997698 
909.000000	 98.024252 
908.000000	 98.055103 
907.000000	 98.090408 
906.000000	 98.128093 
905.000000	 98.161920 
904.000000	 98.186762 
903.000000	 98.204712 
902.000000	 98.224014 
901.000000	 98.252160 
900.000000	 98.290088 
899.000000	 98.331345 
898.000000	 98.366558 
897.000000	 98.391063 
896.000000	 98.408919 
895.000000	 98.427746 
894.000000	 98.449849 
893.000000	 98.471503 
892.000000	 98.491357 
891.000000	 98.514693 
890.000000	 98.545985 
889.000000	 98.580584 
888.000000	 98.608546 
887.000000	 98.625726 
886.000000	 98.636972 
885.000000	 98.648399 
884.000000	 98.660895 
883.000000	 98.672697 
882.000000	 98.684175 
881.000000	 98.696757 
880.000000	 98.709637 
879.000000	 98.721498 
878.000000	 98.734469 
877.000000	 98.751826 
876.000000	 98.771106 
875.000000	 98.784170 
874.000000	 98.787152 
873.000000	 98.787261 
872.000000	 98.795693 
871.000000	 98.815080 
870.000000	 98.837737 
869.000000	 98.855964 
868.000000	 98.869811 
867.000000	 98.883434 
866.000000	 98.897783 
865.000000	 98.909912 
864.000000	 98.917693 
863.000000	 98.922198 
862.000000	 98.925915 
861.000000	 98.931088 
860.000000	 98.939853 
859.000000	 98.953284 
858.000000	 98.968733 
857.000000	 98.979851 
856.000000	 98.981909 
855.000000	 98.977775 
854.000000	 98.976827 
853.000000	 98.986093 
852.000000	 99.003010 
851.000000	 99.018535 
850.000000	 99.027027 
849.000000	 99.030796 
848.000000	 99.034805 
847.000000	 99.040368 
846.000000	 99.046033 
845.000000	 99.051314 
844.000000	 99.055622 
843.000000	 99.055334 
842.000000	 99.046708 
841.000000	 99.031573 
840.000000	 99.016008 
839.000000	 99.003093 
838.000000	 98.990750 
837.000000	 98.977246 
836.000000	 98.964554 
835.000000	 98.954613 
834.000000	 98.946530 
833.000000	 98.940219 
832.000000	 98.938987 
831.000000	 98.944455 
830.000000	 98.951687 
829.000000	 98.954528 
828.000000	 98.954725 
827.000000	 98.960189 
826.000000	 98.972870 
825.000000	 98.983100 
824.000000	 98.979842 
823.000000	 98.964714 
822.000000	 98.951992 
821.000000	 98.953933 
820.000000	 98.968253 
819.000000	 98.981187 
818.000000	 98.982057 
817.000000	 98.973169 
816.000000	 98.964178 
815.000000	 98.958588 
814.000000	 98.949852 
813.000000	 98.931214 
812.000000	 98.904223 
811.000000	 98.873616 
810.000000	 98.837167 
809.000000	 98.786271 
808.000000	 98.716547 
807.000000	 98.633387 
806.000000	 98.545651 
805.000000	 98.457479 
804.000000	 98.369283 
803.000000	 98.284757 
802.000000	 98.212746 
801.000000	 98.161083 
800.000000	 98.130548 
799.000000	 98.116413 
798.000000	 98.115423 
797.000000	 98.129282 
796.000000	 98.159627 
795.000000	 98.201016 
794.000000	 98.242057 
793.000000	 98.273563 
792.000000	 98.292928 
791.000000	 98.301356 
790.000000	 98.301392 
789.000000	 98.297499 
788.000000	 98.293463 
787.000000	 98.286446 
786.000000	 98.267725 
785.000000	 98.232877 
784.000000	 98.188870 
783.000000	 98.148686 
782.000000	 98.121102 
781.000000	 98.107091 
780.000000	 98.102351 
779.000000	 98.100325 
778.000000	 98.096462 
777.000000	 98.093697 
776.000000	 98.101461 
775.000000	 98.125596 
774.000000	 98.161089 
773.000000	 98.197713 
772.000000	 98.230423 
771.000000	 98.261198 
770.000000	 98.293106 
769.000000	 98.325350 
768.000000	 98.352333 
767.000000	 98.366497 
766.000000	 98.365868 
765.000000	 98.360280 
764.000000	 98.365087 
763.000000	 98.385273 
762.000000	 98.409332 
761.000000	 98.421400 
760.000000	 98.415517 
759.000000	 98.396881 
758.000000	 98.376429 
757.000000	 98.367485 
756.000000	 98.378725 
755.000000	 98.402788 
754.000000	 98.418562 
753.000000	 98.413839 
752.000000	 98.401029 
751.000000	 98.402026 
750.000000	 98.421693 
749.000000	 98.445636 
748.000000	 98.461157 
747.000000	 98.469631 
746.000000	 98.478309 
745.000000	 98.489631 
744.000000	 98.501525 
743.000000	 98.512408 
742.000000	 98.523666 
741.000000	 98.540056 
740.000000	 98.566408 
739.000000	 98.600291 
738.000000	 98.630563 
737.000000	 98.647373 
736.000000	 98.650273 
735.000000	 98.643427 
734.000000	 98.630121 
733.000000	 98.618881 
732.000000	 98.626373 
731.000000	 98.660772 
730.000000	 98.705499 
729.000000	 98.733111 
728.000000	 98.735271 
727.000000	 98.727030 
726.000000	 98.721803 
725.000000	 98.715664 
724.000000	 98.699529 
723.000000	 98.674861 
722.000000	 98.651680 
721.000000	 98.639286 
720.000000	 98.643152 
719.000000	 98.663382 
718.000000	 98.692184 
717.000000	 98.718202 
716.000000	 98.734842 
715.000000	 98.740423 
714.000000	 98.733847 
713.000000	 98.719503 
712.000000	 98.713946 
711.000000	 98.733395 
710.000000	 98.770797 
709.000000	 98.797560 
708.000000	 98.793647 
707.000000	 98.766337 
706.000000	 98.734862 
705.000000	 98.708249 
704.000000	 98.686222 
703.000000	 98.670428 
702.000000	 98.662089 
701.000000	 98.653431 
700.000000	 98.631511 
699.000000	 98.589790 
698.000000	 98.532463 
697.000000	 98.471554 
696.000000	 98.423232 
695.000000	 98.400986 
694.000000	 98.406870 
693.000000	 98.432612 
692.000000	 98.470363 
691.000000	 98.515735 
690.000000	 98.559870 
689.000000	 98.590237 
688.000000	 98.605244 
687.000000	 98.617745 
686.000000	 98.636460 
685.000000	 98.653861 
684.000000	 98.659344 
683.000000	 98.653479 
682.000000	 98.642596 
681.000000	 98.630178 
680.000000	 98.620709 
679.000000	 98.621035 
678.000000	 98.629262 
677.000000	 98.632832 
676.000000	 98.626939 
675.000000	 98.622601 
674.000000	 98.626920 
673.000000	 98.628236 
672.000000	 98.612029 
671.000000	 98.583365 
670.000000	 98.563766 
669.000000	 98.575283 
668.000000	 98.612112 
667.000000	 98.643593 
666.000000	 98.662975 
665.000000	 98.672342 
664.000000	 98.669874 
663.000000	 98.667660 
662.000000	 98.676989 
661.000000	 98.689414 
660.000000	 98.688057 
659.000000	 98.673926 
658.000000	 98.663711 
657.000000	 98.663194 
656.000000	 98.660684 
655.000000	 98.648111 
654.000000	 98.635055 
653.000000	 98.637296 
652.000000	 98.658237 
651.000000	 98.682707 
650.000000	 98.686220 

