4000.000000	99.643080 
3999.000000	99.641664 
3998.000000	99.641609 
3997.000000	99.644196 
3996.000000	99.648353 
3995.000000	99.651415 
3994.000000	99.651796 
3993.000000	99.650407 
3992.000000	99.649113 
3991.000000	99.648298 
3990.000000	99.646610 
3989.000000	99.642924 
3988.000000	99.637896 
3987.000000	99.633553 
3986.000000	99.631759 
3985.000000	99.633091 
3984.000000	99.636618 
3983.000000	99.640722 
3982.000000	99.644426 
3981.000000	99.647982 
3980.000000	99.652061 
3979.000000	99.656521 
3978.000000	99.660333 
3977.000000	99.662567 
3976.000000	99.663022 
3975.000000	99.661762 
3974.000000	99.658494 
3973.000000	99.652879 
3972.000000	99.645608 
3971.000000	99.638897 
3970.000000	99.635662 
3969.000000	99.637696 
3968.000000	99.644091 
3967.000000	99.651469 
3966.000000	99.656043 
3965.000000	99.656058 
3964.000000	99.652606 
3963.000000	99.648604 
3962.000000	99.646887 
3961.000000	99.648427 
3960.000000	99.651668 
3959.000000	99.653505 
3958.000000	99.651745 
3957.000000	99.647115 
3956.000000	99.642511 
3955.000000	99.640295 
3954.000000	99.640451 
3953.000000	99.641452 
3952.000000	99.641938 
3951.000000	99.641357 
3950.000000	99.639663 
3949.000000	99.636966 
3948.000000	99.633840 
3947.000000	99.631772 
3946.000000	99.632725 
3945.000000	99.637244 
3944.000000	99.642818 
3943.000000	99.645078 
3942.000000	99.641852 
3941.000000	99.635870 
3940.000000	99.631884 
3939.000000	99.631458 
3938.000000	99.632331 
3937.000000	99.632146 
3936.000000	99.630843 
3935.000000	99.629788 
3934.000000	99.629767 
3933.000000	99.630836 
3932.000000	99.633001 
3931.000000	99.636004 
3930.000000	99.638961 
3929.000000	99.640518 
3928.000000	99.640148 
3927.000000	99.638803 
3926.000000	99.637685 
3925.000000	99.636871 
3924.000000	99.635875 
3923.000000	99.635032 
3922.000000	99.634364 
3921.000000	99.632567 
3920.000000	99.629340 
3919.000000	99.626937 
3918.000000	99.627184 
3917.000000	99.628811 
3916.000000	99.629574 
3915.000000	99.629876 
3914.000000	99.631654 
3913.000000	99.634808 
3912.000000	99.636982 
3911.000000	99.636385 
3910.000000	99.633145 
3909.000000	99.629109 
3908.000000	99.626349 
3907.000000	99.626672 
3906.000000	99.630288 
3905.000000	99.635073 
3904.000000	99.637457 
3903.000000	99.636419 
3902.000000	99.635181 
3901.000000	99.636109 
3900.000000	99.636697 
3899.000000	99.633251 
3898.000000	99.626385 
3897.000000	99.619823 
3896.000000	99.615398 
3895.000000	99.613070 
3894.000000	99.614751 
3893.000000	99.622836 
3892.000000	99.633702 
3891.000000	99.638828 
3890.000000	99.636055 
3889.000000	99.633650 
3888.000000	99.637583 
3887.000000	99.644779 
3886.000000	99.647615 
3885.000000	99.641436 
3884.000000	99.631912 
3883.000000	99.629310 
3882.000000	99.634213 
3881.000000	99.638680 
3880.000000	99.636179 
3879.000000	99.628152 
3878.000000	99.623286 
3877.000000	99.626567 
3876.000000	99.633917 
3875.000000	99.638086 
3874.000000	99.634463 
3873.000000	99.626090 
3872.000000	99.620983 
3871.000000	99.620926 
3870.000000	99.618981 
3869.000000	99.612072 
3868.000000	99.609891 
3867.000000	99.620580 
3866.000000	99.635885 
3865.000000	99.643739 
3864.000000	99.642537 
3863.000000	99.638404 
3862.000000	99.636185 
3861.000000	99.634982 
3860.000000	99.631320 
3859.000000	99.623208 
3858.000000	99.609423 
3857.000000	99.591987 
3856.000000	99.578504 
3855.000000	99.579729 
3854.000000	99.593773 
3853.000000	99.599964 
3852.000000	99.594070 
3851.000000	99.599178 
3850.000000	99.618497 
3849.000000	99.634104 
3848.000000	99.639581 
3847.000000	99.640302 
3846.000000	99.641124 
3845.000000	99.642326 
3844.000000	99.642139 
3843.000000	99.639308 
3842.000000	99.634359 
3841.000000	99.629837 
3840.000000	99.627575 
3839.000000	99.627057 
3838.000000	99.625837 
3837.000000	99.623069 
3836.000000	99.620753 
3835.000000	99.621155 
3834.000000	99.623769 
3833.000000	99.626999 
3832.000000	99.629574 
3831.000000	99.630932 
3830.000000	99.632385 
3829.000000	99.635766 
3828.000000	99.640067 
3827.000000	99.641039 
3826.000000	99.635232 
3825.000000	99.626017 
3824.000000	99.622259 
3823.000000	99.629598 
3822.000000	99.642961 
3821.000000	99.647632 
3820.000000	99.637245 
3819.000000	99.627076 
3818.000000	99.629258 
3817.000000	99.636355 
3816.000000	99.636996 
3815.000000	99.629215 
3814.000000	99.623554 
3813.000000	99.627097 
3812.000000	99.631276 
3811.000000	99.627427 
3810.000000	99.619782 
3809.000000	99.617951 
3808.000000	99.624267 
3807.000000	99.629636 
3806.000000	99.625827 
3805.000000	99.618892 
3804.000000	99.618852 
3803.000000	99.624895 
3802.000000	99.628063 
3801.000000	99.619301 
3800.000000	99.603693 
3799.000000	99.598627 
3798.000000	99.606153 
3797.000000	99.613857 
3796.000000	99.615314 
3795.000000	99.614230 
3794.000000	99.617526 
3793.000000	99.626099 
3792.000000	99.634664 
3791.000000	99.638613 
3790.000000	99.637697 
3789.000000	99.634495 
3788.000000	99.632786 
3787.000000	99.635586 
3786.000000	99.642681 
3785.000000	99.650019 
3784.000000	99.653793 
3783.000000	99.654455 
3782.000000	99.654976 
3781.000000	99.655998 
3780.000000	99.654936 
3779.000000	99.649351 
3778.000000	99.640803 
3777.000000	99.634131 
3776.000000	99.631085 
3775.000000	99.629407 
3774.000000	99.628212 
3773.000000	99.630021 
3772.000000	99.635840 
3771.000000	99.640920 
3770.000000	99.638408 
3769.000000	99.629029 
3768.000000	99.622580 
3767.000000	99.626079 
3766.000000	99.635122 
3765.000000	99.640769 
3764.000000	99.640394 
3763.000000	99.638933 
3762.000000	99.640573 
3761.000000	99.644231 
3760.000000	99.647101 
3759.000000	99.647294 
3758.000000	99.643666 
3757.000000	99.636476 
3756.000000	99.627576 
3755.000000	99.620041 
3754.000000	99.615771 
3753.000000	99.615222 
3752.000000	99.617824 
3751.000000	99.619235 
3750.000000	99.612880 
3749.000000	99.599443 
3748.000000	99.587736 
3747.000000	99.584789 
3746.000000	99.591437 
3745.000000	99.601548 
3744.000000	99.602148 
3743.000000	99.594166 
3742.000000	99.596856 
3741.000000	99.609376 
3740.000000	99.614186 
3739.000000	99.609191 
3738.000000	99.604314 
3737.000000	99.605645 
3736.000000	99.610029 
3735.000000	99.613187 
3734.000000	99.616727 
3733.000000	99.623016 
3732.000000	99.628906 
3731.000000	99.631362 
3730.000000	99.633049 
3729.000000	99.636595 
3728.000000	99.640606 
3727.000000	99.643206 
3726.000000	99.644687 
3725.000000	99.646520 
3724.000000	99.648692 
3723.000000	99.648343 
3722.000000	99.644354 
3721.000000	99.640264 
3720.000000	99.640427 
3719.000000	99.644473 
3718.000000	99.647041 
3717.000000	99.643137 
3716.000000	99.632780 
3715.000000	99.620549 
3714.000000	99.611109 
3713.000000	99.607004 
3712.000000	99.607569 
3711.000000	99.609942 
3710.000000	99.613922 
3709.000000	99.621128 
3708.000000	99.628710 
3707.000000	99.630886 
3706.000000	99.625595 
3705.000000	99.616739 
3704.000000	99.610565 
3703.000000	99.611005 
3702.000000	99.616945 
3701.000000	99.624048 
3700.000000	99.630184 
3699.000000	99.635725 
3698.000000	99.639081 
3697.000000	99.637223 
3696.000000	99.630472 
3695.000000	99.623274 
3694.000000	99.619132 
3693.000000	99.616960 
3692.000000	99.614375 
3691.000000	99.611425 
3690.000000	99.608577 
3689.000000	99.604019 
3688.000000	99.597894 
3687.000000	99.596816 
3686.000000	99.605439 
3685.000000	99.618167 
3684.000000	99.625914 
3683.000000	99.626023 
3682.000000	99.622188 
3681.000000	99.617615 
3680.000000	99.610882 
3679.000000	99.600704 
3678.000000	99.591633 
3677.000000	99.589832 
3676.000000	99.592899 
3675.000000	99.589437 
3674.000000	99.581212 
3673.000000	99.583265 
3672.000000	99.594773 
3671.000000	99.604827 
3670.000000	99.608586 
3669.000000	99.605516 
3668.000000	99.602753 
3667.000000	99.606183 
3666.000000	99.610992 
3665.000000	99.612593 
3664.000000	99.612335 
3663.000000	99.612604 
3662.000000	99.613168 
3661.000000	99.612265 
3660.000000	99.609718 
3659.000000	99.608180 
3658.000000	99.610076 
3657.000000	99.613341 
3656.000000	99.612477 
3655.000000	99.607089 
3654.000000	99.604581 
3653.000000	99.608958 
3652.000000	99.617526 
3651.000000	99.626494 
3650.000000	99.630222 
3649.000000	99.622135 
3648.000000	99.605970 
3647.000000	99.594144 
3646.000000	99.592952 
3645.000000	99.599584 
3644.000000	99.608483 
3643.000000	99.615503 
3642.000000	99.618957 
3641.000000	99.620056 
3640.000000	99.621982 
3639.000000	99.627253 
3638.000000	99.635274 
3637.000000	99.643694 
3636.000000	99.649880 
3635.000000	99.650416 
3634.000000	99.642517 
3633.000000	99.628069 
3632.000000	99.614839 
3631.000000	99.610808 
3630.000000	99.617420 
3629.000000	99.624233 
3628.000000	99.619653 
3627.000000	99.612865 
3626.000000	99.617159 
3625.000000	99.626277 
3624.000000	99.630408 
3623.000000	99.629403 
3622.000000	99.627764 
3621.000000	99.628289 
3620.000000	99.629733 
3619.000000	99.628946 
3618.000000	99.626186 
3617.000000	99.626228 
3616.000000	99.630933 
3615.000000	99.635822 
3614.000000	99.635373 
3613.000000	99.628001 
3612.000000	99.617424 
3611.000000	99.609568 
3610.000000	99.607538 
3609.000000	99.610128 
3608.000000	99.613968 
3607.000000	99.616567 
3606.000000	99.617970 
3605.000000	99.618905 
3604.000000	99.619253 
3603.000000	99.619262 
3602.000000	99.619540 
3601.000000	99.620271 
3600.000000	99.621834 
3599.000000	99.625269 
3598.000000	99.630659 
3597.000000	99.636050 
3596.000000	99.639139 
3595.000000	99.638490 
3594.000000	99.634260 
3593.000000	99.629176 
3592.000000	99.628021 
3591.000000	99.633971 
3590.000000	99.646100 
3589.000000	99.658492 
3588.000000	99.662187 
3587.000000	99.652761 
3586.000000	99.637392 
3585.000000	99.627688 
3584.000000	99.626671 
3583.000000	99.629453 
3582.000000	99.631421 
3581.000000	99.631051 
3580.000000	99.628400 
3579.000000	99.623851 
3578.000000	99.618217 
3577.000000	99.613049 
3576.000000	99.610543 
3575.000000	99.612123 
3574.000000	99.617150 
3573.000000	99.623125 
3572.000000	99.627476 
3571.000000	99.629139 
3570.000000	99.628761 
3569.000000	99.627664 
3568.000000	99.626151 
3567.000000	99.623428 
3566.000000	99.620355 
3565.000000	99.620258 
3564.000000	99.623685 
3563.000000	99.626921 
3562.000000	99.627324 
3561.000000	99.625872 
3560.000000	99.624856 
3559.000000	99.625287 
3558.000000	99.626498 
3557.000000	99.627372 
3556.000000	99.627739 
3555.000000	99.628592 
3554.000000	99.630553 
3553.000000	99.632346 
3552.000000	99.631519 
3551.000000	99.627175 
3550.000000	99.620993 
3549.000000	99.615598 
3548.000000	99.612962 
3547.000000	99.613823 
3546.000000	99.617164 
3545.000000	99.620888 
3544.000000	99.623634 
3543.000000	99.625250 
3542.000000	99.625725 
3541.000000	99.624749 
3540.000000	99.622670 
3539.000000	99.621232 
3538.000000	99.622353 
3537.000000	99.626001 
3536.000000	99.629640 
3535.000000	99.630422 
3534.000000	99.627624 
3533.000000	99.622981 
3532.000000	99.619198 
3531.000000	99.618061 
3530.000000	99.619228 
3529.000000	99.620568 
3528.000000	99.620454 
3527.000000	99.619493 
3526.000000	99.619404 
3525.000000	99.620232 
3524.000000	99.620066 
3523.000000	99.617868 
3522.000000	99.615435 
3521.000000	99.615499 
3520.000000	99.618416 
3519.000000	99.621737 
3518.000000	99.622776 
3517.000000	99.620975 
3516.000000	99.617860 
3515.000000	99.615512 
3514.000000	99.615416 
3513.000000	99.617887 
3512.000000	99.621664 
3511.000000	99.624220 
3510.000000	99.623730 
3509.000000	99.620984 
3508.000000	99.618890 
3507.000000	99.619496 
3506.000000	99.621634 
3505.000000	99.621777 
3504.000000	99.617495 
3503.000000	99.610371 
3502.000000	99.605525 
3501.000000	99.607388 
3500.000000	99.615304 
3499.000000	99.623524 
3498.000000	99.625969 
3497.000000	99.621561 
3496.000000	99.615216 
3495.000000	99.613128 
3494.000000	99.616828 
3493.000000	99.622118 
3492.000000	99.623638 
3491.000000	99.619766 
3490.000000	99.613213 
3489.000000	99.607819 
3488.000000	99.605529 
3487.000000	99.606083 
3486.000000	99.608400 
3485.000000	99.611610 
3484.000000	99.615231 
3483.000000	99.618877 
3482.000000	99.621566 
3481.000000	99.621496 
3480.000000	99.617519 
3479.000000	99.611218 
3478.000000	99.606626 
3477.000000	99.606724 
3476.000000	99.610289 
3475.000000	99.613040 
3474.000000	99.612269 
3473.000000	99.609419 
3472.000000	99.607698 
3471.000000	99.608282 
3470.000000	99.609717 
3469.000000	99.610321 
3468.000000	99.609914 
3467.000000	99.609388 
3466.000000	99.609602 
3465.000000	99.610859 
3464.000000	99.612652 
3463.000000	99.613608 
3462.000000	99.612153 
3461.000000	99.607754 
3460.000000	99.601575 
3459.000000	99.595995 
3458.000000	99.593439 
3457.000000	99.595131 
3456.000000	99.600225 
3455.000000	99.606084 
3454.000000	99.609950 
3453.000000	99.610616 
3452.000000	99.608739 
3451.000000	99.606027 
3450.000000	99.604297 
3449.000000	99.604605 
3448.000000	99.606611 
3447.000000	99.608722 
3446.000000	99.609619 
3445.000000	99.609622 
3444.000000	99.609943 
3443.000000	99.610895 
3442.000000	99.611456 
3441.000000	99.610668 
3440.000000	99.609017 
3439.000000	99.607851 
3438.000000	99.607570 
3437.000000	99.607033 
3436.000000	99.605072 
3435.000000	99.602346 
3434.000000	99.601153 
3433.000000	99.603123 
3432.000000	99.607315 
3431.000000	99.610821 
3430.000000	99.611152 
3429.000000	99.608015 
3428.000000	99.603300 
3427.000000	99.599600 
3426.000000	99.598572 
3425.000000	99.600190 
3424.000000	99.603176 
3423.000000	99.605985 
3422.000000	99.607404 
3421.000000	99.606654 
3420.000000	99.603584 
3419.000000	99.599160 
3418.000000	99.595377 
3417.000000	99.593972 
3416.000000	99.594895 
3415.000000	99.596253 
3414.000000	99.596079 
3413.000000	99.594229 
3412.000000	99.592464 
3411.000000	99.592737 
3410.000000	99.595602 
3409.000000	99.600029 
3408.000000	99.604214 
3407.000000	99.606488 
3406.000000	99.606028 
3405.000000	99.603334 
3404.000000	99.599998 
3403.000000	99.597609 
3402.000000	99.596734 
3401.000000	99.597003 
3400.000000	99.597968 
3399.000000	99.599602 
3398.000000	99.602108 
3397.000000	99.605457 
3396.000000	99.609049 
3395.000000	99.611737 
3394.000000	99.612524 
3393.000000	99.611532 
3392.000000	99.609993 
3391.000000	99.608950 
3390.000000	99.608126 
3389.000000	99.606409 
3388.000000	99.603282 
3387.000000	99.599523 
3386.000000	99.596660 
3385.000000	99.595957 
3384.000000	99.597544 
3383.000000	99.600064 
3382.000000	99.601386 
3381.000000	99.600164 
3380.000000	99.596745 
3379.000000	99.592497 
3378.000000	99.588742 
3377.000000	99.586703 
3376.000000	99.587690 
3375.000000	99.592126 
3374.000000	99.598377 
3373.000000	99.603462 
3372.000000	99.605371 
3371.000000	99.604389 
3370.000000	99.602253 
3369.000000	99.600625 
3368.000000	99.600330 
3367.000000	99.601190 
3366.000000	99.602066 
3365.000000	99.601542 
3364.000000	99.599171 
3363.000000	99.596041 
3362.000000	99.593909 
3361.000000	99.593788 
3360.000000	99.595290 
3359.000000	99.597065 
3358.000000	99.597857 
3357.000000	99.597449 
3356.000000	99.596689 
3355.000000	99.596321 
3354.000000	99.595861 
3353.000000	99.594141 
3352.000000	99.591102 
3351.000000	99.588565 
3350.000000	99.588890 
3349.000000	99.593001 
3348.000000	99.599684 
3347.000000	99.606395 
3346.000000	99.610708 
3345.000000	99.611625 
3344.000000	99.609964 
3343.000000	99.607251 
3342.000000	99.604101 
3341.000000	99.600151 
3340.000000	99.595601 
3339.000000	99.591811 
3338.000000	99.589695 
3337.000000	99.588273 
3336.000000	99.586008 
3335.000000	99.583389 
3334.000000	99.582964 
3333.000000	99.586419 
3332.000000	99.592374 
3331.000000	99.597520 
3330.000000	99.599571 
3329.000000	99.598812 
3328.000000	99.597192 
3327.000000	99.596333 
3326.000000	99.596309 
3325.000000	99.596151 
3324.000000	99.595528 
3323.000000	99.595728 
3322.000000	99.598404 
3321.000000	99.603100 
3320.000000	99.606588 
3319.000000	99.605519 
3318.000000	99.600057 
3317.000000	99.594384 
3316.000000	99.593093 
3315.000000	99.596959 
3314.000000	99.602460 
3313.000000	99.605440 
3312.000000	99.604881 
3311.000000	99.602886 
3310.000000	99.601545 
3309.000000	99.600793 
3308.000000	99.599584 
3307.000000	99.598086 
3306.000000	99.597575 
3305.000000	99.598298 
3304.000000	99.598627 
3303.000000	99.596924 
3302.000000	99.593717 
3301.000000	99.591407 
3300.000000	99.591869 
3299.000000	99.594732 
3298.000000	99.597903 
3297.000000	99.599335 
3296.000000	99.598346 
3295.000000	99.595741 
3294.000000	99.593120 
3293.000000	99.591999 
3292.000000	99.593119 
3291.000000	99.596103 
3290.000000	99.599623 
3289.000000	99.602069 
3288.000000	99.602533 
3287.000000	99.601474 
3286.000000	99.600339 
3285.000000	99.600295 
3284.000000	99.601255 
3283.000000	99.602206 
3282.000000	99.602292 
3281.000000	99.601302 
3280.000000	99.599202 
3279.000000	99.595793 
3278.000000	99.591302 
3277.000000	99.587067 
3276.000000	99.585044 
3275.000000	99.586367 
3274.000000	99.590308 
3273.000000	99.594473 
3272.000000	99.595975 
3271.000000	99.593074 
3270.000000	99.586632 
3269.000000	99.580122 
3268.000000	99.577449 
3267.000000	99.580160 
3266.000000	99.586704 
3265.000000	99.594307 
3264.000000	99.601085 
3263.000000	99.606244 
3262.000000	99.609249 
3261.000000	99.609792 
3260.000000	99.608370 
3259.000000	99.606032 
3258.000000	99.603331 
3257.000000	99.599797 
3256.000000	99.594593 
3255.000000	99.587764 
3254.000000	99.581098 
3253.000000	99.577642 
3252.000000	99.579489 
3251.000000	99.585338 
3250.000000	99.590794 
3249.000000	99.592125 
3248.000000	99.589729 
3247.000000	99.587130 
3246.000000	99.586691 
3245.000000	99.587434 
3244.000000	99.587482 
3243.000000	99.587441 
3242.000000	99.590109 
3241.000000	99.597019 
3240.000000	99.606062 
3239.000000	99.612787 
3238.000000	99.613960 
3237.000000	99.609960 
3236.000000	99.603947 
3235.000000	99.598974 
3234.000000	99.596051 
3233.000000	99.594863 
3232.000000	99.595525 
3231.000000	99.598675 
3230.000000	99.603804 
3229.000000	99.608420 
3228.000000	99.609576 
3227.000000	99.606201 
3226.000000	99.599902 
3225.000000	99.593759 
3224.000000	99.590311 
3223.000000	99.590001 
3222.000000	99.591140 
3221.000000	99.591735 
3220.000000	99.591647 
3219.000000	99.592563 
3218.000000	99.595629 
3217.000000	99.599697 
3216.000000	99.602347 
3215.000000	99.602219 
3214.000000	99.599828 
3213.000000	99.596526 
3212.000000	99.593600 
3211.000000	99.592327 
3210.000000	99.593766 
3209.000000	99.597676 
3208.000000	99.601981 
3207.000000	99.604161 
3206.000000	99.603551 
3205.000000	99.602089 
3204.000000	99.602526 
3203.000000	99.605821 
3202.000000	99.610506 
3201.000000	99.614604 
3200.000000	99.617547 
3199.000000	99.619690 
3198.000000	99.620544 
3197.000000	99.618877 
3196.000000	99.614793 
3195.000000	99.610351 
3194.000000	99.607198 
3193.000000	99.604614 
3192.000000	99.601231 
3191.000000	99.598071 
3190.000000	99.598115 
3189.000000	99.602572 
3188.000000	99.609020 
3187.000000	99.613857 
3186.000000	99.615546 
3185.000000	99.614763 
3184.000000	99.612469 
3183.000000	99.609204 
3182.000000	99.605848 
3181.000000	99.603640 
3180.000000	99.603093 
3179.000000	99.603557 
3178.000000	99.603912 
3177.000000	99.603107 
3176.000000	99.600245 
3175.000000	99.595421 
3174.000000	99.590975 
3173.000000	99.590709 
3172.000000	99.596441 
3171.000000	99.605397 
3170.000000	99.612212 
3169.000000	99.613953 
3168.000000	99.612527 
3167.000000	99.611818 
3166.000000	99.613251 
3165.000000	99.614965 
3164.000000	99.614801 
3163.000000	99.612929 
3162.000000	99.611308 
3161.000000	99.611450 
3160.000000	99.613242 
3159.000000	99.615416 
3158.000000	99.616441 
3157.000000	99.615257 
3156.000000	99.611943 
3155.000000	99.607844 
3154.000000	99.604705 
3153.000000	99.603588 
3152.000000	99.604640 
3151.000000	99.607372 
3150.000000	99.610655 
3149.000000	99.612928 
3148.000000	99.613428 
3147.000000	99.613136 
3146.000000	99.613573 
3145.000000	99.614575 
3144.000000	99.614379 
3143.000000	99.612402 
3142.000000	99.610713 
3141.000000	99.611598 
3140.000000	99.614297 
3139.000000	99.615484 
3138.000000	99.613158 
3137.000000	99.609082 
3136.000000	99.606888 
3135.000000	99.608297 
3134.000000	99.611666 
3133.000000	99.613908 
3132.000000	99.613415 
3131.000000	99.611129 
3130.000000	99.609098 
3129.000000	99.608294 
3128.000000	99.608054 
3127.000000	99.607526 
3126.000000	99.607104 
3125.000000	99.607824 
3124.000000	99.609562 
3123.000000	99.610589 
3122.000000	99.609298 
3121.000000	99.606126 
3120.000000	99.603425 
3119.000000	99.603263 
3118.000000	99.605264 
3117.000000	99.606716 
3116.000000	99.605079 
3115.000000	99.600507 
3114.000000	99.595643 
3113.000000	99.592851 
3112.000000	99.592178 
3111.000000	99.592359 
3110.000000	99.593034 
3109.000000	99.594788 
3108.000000	99.597217 
3107.000000	99.598344 
3106.000000	99.596641 
3105.000000	99.592935 
3104.000000	99.589803 
3103.000000	99.589618 
3102.000000	99.593452 
3101.000000	99.600893 
3100.000000	99.609844 
3099.000000	99.616858 
3098.000000	99.619056 
3097.000000	99.616446 
3096.000000	99.611882 
3095.000000	99.608365 
3094.000000	99.606791 
3093.000000	99.606493 
3092.000000	99.606856 
3091.000000	99.607335 
3090.000000	99.606550 
3089.000000	99.603142 
3088.000000	99.598082 
3087.000000	99.594812 
3086.000000	99.595905 
3085.000000	99.600080 
3084.000000	99.603623 
3083.000000	99.604452 
3082.000000	99.603690 
3081.000000	99.603346 
3080.000000	99.603851 
3079.000000	99.604439 
3078.000000	99.604722 
3077.000000	99.604794 
3076.000000	99.604441 
3075.000000	99.603433 
3074.000000	99.602404 
3073.000000	99.602383 
3072.000000	99.603477 
3071.000000	99.604909 
3070.000000	99.606236 
3069.000000	99.607375 
3068.000000	99.607217 
3067.000000	99.603723 
3066.000000	99.596578 
3065.000000	99.589013 
3064.000000	99.585477 
3063.000000	99.587354 
3062.000000	99.591895 
3061.000000	99.595499 
3060.000000	99.597153 
3059.000000	99.598284 
3058.000000	99.600147 
3057.000000	99.602375 
3056.000000	99.603958 
3055.000000	99.604674 
3054.000000	99.605077 
3053.000000	99.605493 
3052.000000	99.605677 
3051.000000	99.605522 
3050.000000	99.605545 
3049.000000	99.606129 
3048.000000	99.606368 
3047.000000	99.604359 
3046.000000	99.599204 
3045.000000	99.592540 
3044.000000	99.587467 
3043.000000	99.585774 
3042.000000	99.586643 
3041.000000	99.588165 
3040.000000	99.589519 
3039.000000	99.591184 
3038.000000	99.593510 
3037.000000	99.595984 
3036.000000	99.598078 
3035.000000	99.600068 
3034.000000	99.602466 
3033.000000	99.604853 
3032.000000	99.605865 
3031.000000	99.604546 
3030.000000	99.601414 
3029.000000	99.597834 
3028.000000	99.594506 
3027.000000	99.591111 
3026.000000	99.587527 
3025.000000	99.584758 
3024.000000	99.583908 
3023.000000	99.584345 
3022.000000	99.583762 
3021.000000	99.580605 
3020.000000	99.576107 
3019.000000	99.573407 
3018.000000	99.574559 
3017.000000	99.578606 
3016.000000	99.582408 
3015.000000	99.583108 
3014.000000	99.579926 
3013.000000	99.574114 
3012.000000	99.567407 
3011.000000	99.560483 
3010.000000	99.553016 
3009.000000	99.545245 
3008.000000	99.539056 
3007.000000	99.536856 
3006.000000	99.539267 
3005.000000	99.544186 
3004.000000	99.548174 
3003.000000	99.548631 
3002.000000	99.544955 
3001.000000	99.538491 
3000.000000	99.531713 
2999.000000	99.526818 
2998.000000	99.524466 
2997.000000	99.524006 
2996.000000	99.524991 
2995.000000	99.527728 
2994.000000	99.531634 
2993.000000	99.533775 
2992.000000	99.530643 
2991.000000	99.521925 
2990.000000	99.511615 
2989.000000	99.504424 
2988.000000	99.501351 
2987.000000	99.499601 
2986.000000	99.496642 
2985.000000	99.493300 
2984.000000	99.492275 
2983.000000	99.494414 
2982.000000	99.497542 
2981.000000	99.498954 
2980.000000	99.498135 
2979.000000	99.496510 
2978.000000	99.495163 
2977.000000	99.493748 
2976.000000	99.491503 
2975.000000	99.488460 
2974.000000	99.485191 
2973.000000	99.481857 
2972.000000	99.478001 
2971.000000	99.473084 
2970.000000	99.466887 
2969.000000	99.459636 
2968.000000	99.452158 
2967.000000	99.445734 
2966.000000	99.441256 
2965.000000	99.438426 
2964.000000	99.436176 
2963.000000	99.434006 
2962.000000	99.432520 
2961.000000	99.432384 
2960.000000	99.433154 
2959.000000	99.433641 
2958.000000	99.433367 
2957.000000	99.433061 
2956.000000	99.433370 
2955.000000	99.433504 
2954.000000	99.431964 
2953.000000	99.428971 
2952.000000	99.427499 
2951.000000	99.430785 
2950.000000	99.438419 
2949.000000	99.445661 
2948.000000	99.447403 
2947.000000	99.442639 
2946.000000	99.434575 
2945.000000	99.426726 
2944.000000	99.419943 
2943.000000	99.413141 
2942.000000	99.405473 
2941.000000	99.396759 
2940.000000	99.386559 
2939.000000	99.374097 
2938.000000	99.359211 
2937.000000	99.342743 
2936.000000	99.326003 
2935.000000	99.310338 
2934.000000	99.296928 
2933.000000	99.286149 
2932.000000	99.276964 
2931.000000	99.267532 
2930.000000	99.256614 
2929.000000	99.244158 
2928.000000	99.230923 
2927.000000	99.218358 
2926.000000	99.208678 
2925.000000	99.203859 
2924.000000	99.204102 
2923.000000	99.208073 
2922.000000	99.214892 
2921.000000	99.224903 
2920.000000	99.238079 
2919.000000	99.252842 
2918.000000	99.267437 
2917.000000	99.281713 
2916.000000	99.296555 
2915.000000	99.312127 
2914.000000	99.327777 
2913.000000	99.343244 
2912.000000	99.358613 
2911.000000	99.373016 
2910.000000	99.384648 
2909.000000	99.392619 
2908.000000	99.397992 
2907.000000	99.402574 
2906.000000	99.407277 
2905.000000	99.411920 
2904.000000	99.415750 
2903.000000	99.417696 
2902.000000	99.417007 
2901.000000	99.414696 
2900.000000	99.413757 
2899.000000	99.416906 
2898.000000	99.423841 
2897.000000	99.431475 
2896.000000	99.437287 
2895.000000	99.441825 
2894.000000	99.447491 
2893.000000	99.455149 
2892.000000	99.462717 
2891.000000	99.467385 
2890.000000	99.468784 
2889.000000	99.469298 
2888.000000	99.471225 
2887.000000	99.474420 
2886.000000	99.477219 
2885.000000	99.478969 
2884.000000	99.480558 
2883.000000	99.482699 
2882.000000	99.484908 
2881.000000	99.486619 
2880.000000	99.488340 
2879.000000	99.490997 
2878.000000	99.494631 
2877.000000	99.498241 
2876.000000	99.500405 
2875.000000	99.499640 
2874.000000	99.494984 
2873.000000	99.487294 
2872.000000	99.479775 
2871.000000	99.476099 
2870.000000	99.477514 
2869.000000	99.481906 
2868.000000	99.485689 
2867.000000	99.486498 
2866.000000	99.484519 
2865.000000	99.481728 
2864.000000	99.479588 
2863.000000	99.476978 
2862.000000	99.470738 
2861.000000	99.459006 
2860.000000	99.443916 
2859.000000	99.430139 
2858.000000	99.420655 
2857.000000	99.414678 
2856.000000	99.409708 
2855.000000	99.404794 
2854.000000	99.401327 
2853.000000	99.401291 
2852.000000	99.405507 
2851.000000	99.413479 
2850.000000	99.424387 
2849.000000	99.437802 
2848.000000	99.453339 
2847.000000	99.469881 
2846.000000	99.485588 
2845.000000	99.498959 
2844.000000	99.509709 
2843.000000	99.518467 
2842.000000	99.525971 
2841.000000	99.532817 
2840.000000	99.539493 
2839.000000	99.545922 
2838.000000	99.551067 
2837.000000	99.553669 
2836.000000	99.553629 
2835.000000	99.552453 
2834.000000	99.552342 
2833.000000	99.554963 
2832.000000	99.560564 
2831.000000	99.567647 
2830.000000	99.573785 
2829.000000	99.577613 
2828.000000	99.580132 
2827.000000	99.583333 
2826.000000	99.587470 
2825.000000	99.590494 
2824.000000	99.590540 
2823.000000	99.588336 
2822.000000	99.586569 
2821.000000	99.587249 
2820.000000	99.590159 
2819.000000	99.593696 
2818.000000	99.596690 
2817.000000	99.599235 
2816.000000	99.601897 
2815.000000	99.604396 
2814.000000	99.605441 
2813.000000	99.604055 
2812.000000	99.600723 
2811.000000	99.596859 
2810.000000	99.593449 
2809.000000	99.590816 
2808.000000	99.589474 
2807.000000	99.590297 
2806.000000	99.593500 
2805.000000	99.597986 
2804.000000	99.602072 
2803.000000	99.604693 
2802.000000	99.605858 
2801.000000	99.606258 
2800.000000	99.606459 
2799.000000	99.606249 
2798.000000	99.604993 
2797.000000	99.602918 
2796.000000	99.601564 
2795.000000	99.602107 
2794.000000	99.603533 
2793.000000	99.603481 
2792.000000	99.600944 
2791.000000	99.597208 
2790.000000	99.594146 
2789.000000	99.592765 
2788.000000	99.593542 
2787.000000	99.596688 
2786.000000	99.601327 
2785.000000	99.605589 
2784.000000	99.608488 
2783.000000	99.610703 
2782.000000	99.612650 
2781.000000	99.612900 
2780.000000	99.609984 
2779.000000	99.605132 
2778.000000	99.601634 
2777.000000	99.601485 
2776.000000	99.603729 
2775.000000	99.606011 
2774.000000	99.606615 
2773.000000	99.604990 
2772.000000	99.601562 
2771.000000	99.597679 
2770.000000	99.595182 
2769.000000	99.595500 
2768.000000	99.599079 
2767.000000	99.605186 
2766.000000	99.611674 
2765.000000	99.615480 
2764.000000	99.614677 
2763.000000	99.610451 
2762.000000	99.606374 
2761.000000	99.605405 
2760.000000	99.607905 
2759.000000	99.612301 
2758.000000	99.616736 
2757.000000	99.619892 
2756.000000	99.621184 
2755.000000	99.620822 
2754.000000	99.619406 
2753.000000	99.617217 
2752.000000	99.614254 
2751.000000	99.610984 
2750.000000	99.608405 
2749.000000	99.607095 
2748.000000	99.606708 
2747.000000	99.606604 
2746.000000	99.606495 
2745.000000	99.606289 
2744.000000	99.605911 
2743.000000	99.605591 
2742.000000	99.605785 
2741.000000	99.606494 
2740.000000	99.607157 
2739.000000	99.607537 
2738.000000	99.608168 
2737.000000	99.609496 
2736.000000	99.611029 
2735.000000	99.611813 
2734.000000	99.611355 
2733.000000	99.609678 
2732.000000	99.606957 
2731.000000	99.603715 
2730.000000	99.601082 
2729.000000	99.600171 
2728.000000	99.601205 
2727.000000	99.603583 
2726.000000	99.606541 
2725.000000	99.609394 
2724.000000	99.611529 
2723.000000	99.612833 
2722.000000	99.613926 
2721.000000	99.615354 
2720.000000	99.616666 
2719.000000	99.616872 
2718.000000	99.615681 
2717.000000	99.613706 
2716.000000	99.611731 
2715.000000	99.610570 
2714.000000	99.611410 
2713.000000	99.614921 
2712.000000	99.619629 
2711.000000	99.622422 
2710.000000	99.621735 
2709.000000	99.619541 
2708.000000	99.619103 
2707.000000	99.621049 
2706.000000	99.622740 
2705.000000	99.621523 
2704.000000	99.617635 
2703.000000	99.613574 
2702.000000	99.611412 
2701.000000	99.611250 
2700.000000	99.611824 
2699.000000	99.611899 
2698.000000	99.611064 
2697.000000	99.609667 
2696.000000	99.608426 
2695.000000	99.608168 
2694.000000	99.609597 
2693.000000	99.612615 
2692.000000	99.615594 
2691.000000	99.616042 
2690.000000	99.613003 
2689.000000	99.608740 
2688.000000	99.606949 
2687.000000	99.608907 
2686.000000	99.612104 
2685.000000	99.613224 
2684.000000	99.611822 
2683.000000	99.610358 
2682.000000	99.611090 
2681.000000	99.613826 
2680.000000	99.616518 
2679.000000	99.617175 
2678.000000	99.615246 
2677.000000	99.612051 
2676.000000	99.610103 
2675.000000	99.611181 
2674.000000	99.614549 
2673.000000	99.617423 
2672.000000	99.617550 
2671.000000	99.615002 
2670.000000	99.611241 
2669.000000	99.607166 
2668.000000	99.602845 
2667.000000	99.598911 
2666.000000	99.597164 
2665.000000	99.599170 
2664.000000	99.604485 
2663.000000	99.610666 
2662.000000	99.615176 
2661.000000	99.617171 
2660.000000	99.617361 
2659.000000	99.616408 
2658.000000	99.614065 
2657.000000	99.610271 
2656.000000	99.606634 
2655.000000	99.605810 
2654.000000	99.608853 
2653.000000	99.613553 
2652.000000	99.616069 
2651.000000	99.614377 
2650.000000	99.609913 
2649.000000	99.605837 
2648.000000	99.604072 
2647.000000	99.604223 
2646.000000	99.604992 
2645.000000	99.605899 
2644.000000	99.607223 
2643.000000	99.608732 
2642.000000	99.609417 
2641.000000	99.608837 
2640.000000	99.608211 
2639.000000	99.609655 
2638.000000	99.614353 
2637.000000	99.621484 
2636.000000	99.628386 
2635.000000	99.631644 
2634.000000	99.629064 
2633.000000	99.621698 
2632.000000	99.613513 
2631.000000	99.607910 
2630.000000	99.604653 
2629.000000	99.601222 
2628.000000	99.596969 
2627.000000	99.594442 
2626.000000	99.596207 
2625.000000	99.601691 
2624.000000	99.607856 
2623.000000	99.611891 
2622.000000	99.612525 
2621.000000	99.610007 
2620.000000	99.606134 
2619.000000	99.603565 
2618.000000	99.603634 
2617.000000	99.604995 
2616.000000	99.605433 
2615.000000	99.604694 
2614.000000	99.604389 
2613.000000	99.605349 
2612.000000	99.606533 
2611.000000	99.606937 
2610.000000	99.607406 
2609.000000	99.609713 
2608.000000	99.614401 
2607.000000	99.620219 
2606.000000	99.625430 
2605.000000	99.628982 
2604.000000	99.630266 
2603.000000	99.628338 
2602.000000	99.622255 
2601.000000	99.612722 
2600.000000	99.603060 
2599.000000	99.597635 
2598.000000	99.598737 
2597.000000	99.604873 
2596.000000	99.611852 
2595.000000	99.615279 
2594.000000	99.612886 
2593.000000	99.606162 
2592.000000	99.600066 
2591.000000	99.599535 
2590.000000	99.605081 
2589.000000	99.612544 
2588.000000	99.617780 
2587.000000	99.620376 
2586.000000	99.621866 
2585.000000	99.622111 
2584.000000	99.619770 
2583.000000	99.615590 
2582.000000	99.612531 
2581.000000	99.611998 
2580.000000	99.611750 
2579.000000	99.608507 
2578.000000	99.601730 
2577.000000	99.594387 
2576.000000	99.590697 
2575.000000	99.593062 
2574.000000	99.599953 
2573.000000	99.606475 
2572.000000	99.608195 
2571.000000	99.604979 
2570.000000	99.600387 
2569.000000	99.597451 
2568.000000	99.596355 
2567.000000	99.596283 
2566.000000	99.597553 
2565.000000	99.600717 
2564.000000	99.604768 
2563.000000	99.607578 
2562.000000	99.607806 
2561.000000	99.605886 
2560.000000	99.603785 
2559.000000	99.603868 
2558.000000	99.606647 
2557.000000	99.609174 
2556.000000	99.607474 
2555.000000	99.601766 
2554.000000	99.597594 
2553.000000	99.599933 
2552.000000	99.607485 
2551.000000	99.614869 
2550.000000	99.619208 
2549.000000	99.621568 
2548.000000	99.622382 
2547.000000	99.619266 
2546.000000	99.611057 
2545.000000	99.601358 
2544.000000	99.595584 
2543.000000	99.595502 
2542.000000	99.598571 
2541.000000	99.601821 
2540.000000	99.604284 
2539.000000	99.605708 
2538.000000	99.604904 
2537.000000	99.600442 
2536.000000	99.592530 
2535.000000	99.583790 
2534.000000	99.578206 
2533.000000	99.578689 
2532.000000	99.584840 
2531.000000	99.593263 
2530.000000	99.600695 
2529.000000	99.606496 
2528.000000	99.611460 
2527.000000	99.615170 
2526.000000	99.616374 
2525.000000	99.615841 
2524.000000	99.616574 
2523.000000	99.619993 
2522.000000	99.623341 
2521.000000	99.622431 
2520.000000	99.616414 
2519.000000	99.608591 
2518.000000	99.602892 
2517.000000	99.600661 
2516.000000	99.600768 
2515.000000	99.601799 
2514.000000	99.603620 
2513.000000	99.606802 
2512.000000	99.610476 
2511.000000	99.611376 
2510.000000	99.606726 
2509.000000	99.598909 
2508.000000	99.595429 
2507.000000	99.601877 
2506.000000	99.615143 
2505.000000	99.625404 
2504.000000	99.625187 
2503.000000	99.615393 
2502.000000	99.602879 
2501.000000	99.594362 
2500.000000	99.593095 
2499.000000	99.598930 
2498.000000	99.609327 
2497.000000	99.620602 
2496.000000	99.629482 
2495.000000	99.633805 
2494.000000	99.632104 
2493.000000	99.623864 
2492.000000	99.610949 
2491.000000	99.597731 
2490.000000	99.588627 
2489.000000	99.585380 
2488.000000	99.586708 
2487.000000	99.589876 
2486.000000	99.592623 
2485.000000	99.594792 
2484.000000	99.598391 
2483.000000	99.604739 
2482.000000	99.611248 
2481.000000	99.613054 
2480.000000	99.609038 
2479.000000	99.604211 
2478.000000	99.604116 
2477.000000	99.608240 
2476.000000	99.611363 
2475.000000	99.610541 
2474.000000	99.607946 
2473.000000	99.606949 
2472.000000	99.608237 
2471.000000	99.610635 
2470.000000	99.613258 
2469.000000	99.615181 
2468.000000	99.614582 
2467.000000	99.610349 
2466.000000	99.604299 
2465.000000	99.600415 
2464.000000	99.601367 
2463.000000	99.606015 
2462.000000	99.610201 
2461.000000	99.610070 
2460.000000	99.605251 
2459.000000	99.599200 
2458.000000	99.596170 
2457.000000	99.597629 
2456.000000	99.601690 
2455.000000	99.605461 
2454.000000	99.607022 
2453.000000	99.605384 
2452.000000	99.600211 
2451.000000	99.592607 
2450.000000	99.585396 
2449.000000	99.581541 
2448.000000	99.582216 
2447.000000	99.586676 
2446.000000	99.593401 
2445.000000	99.600757 
2444.000000	99.607092 
2443.000000	99.611283 
2442.000000	99.613511 
2441.000000	99.615010 
2440.000000	99.616659 
2439.000000	99.617906 
2438.000000	99.617285 
2437.000000	99.614035 
2436.000000	99.608904 
2435.000000	99.603015 
2434.000000	99.596257 
2433.000000	99.587832 
2432.000000	99.578775 
2431.000000	99.572720 
2430.000000	99.572799 
2429.000000	99.578201 
2428.000000	99.585274 
2427.000000	99.591805 
2426.000000	99.598294 
2425.000000	99.604520 
2424.000000	99.607173 
2423.000000	99.603052 
2422.000000	99.593852 
2421.000000	99.585731 
2420.000000	99.583698 
2419.000000	99.587555 
2418.000000	99.593485 
2417.000000	99.598246 
2416.000000	99.601043 
2415.000000	99.602348 
2414.000000	99.602483 
2413.000000	99.601669 
2412.000000	99.600474 
2411.000000	99.599341 
2410.000000	99.597890 
2409.000000	99.595546 
2408.000000	99.593162 
2407.000000	99.593237 
2406.000000	99.597556 
2405.000000	99.604599 
2404.000000	99.610108 
2403.000000	99.610682 
2402.000000	99.606523 
2401.000000	99.600588 
2400.000000	99.595647 
2399.000000	99.592528 
2398.000000	99.590640 
2397.000000	99.589335 
2396.000000	99.588649 
2395.000000	99.589157 
2394.000000	99.591295 
2393.000000	99.594744 
2392.000000	99.598624 
2391.000000	99.602494 
2390.000000	99.606813 
2389.000000	99.611929 
2388.000000	99.616807 
2387.000000	99.619543 
2386.000000	99.619451 
2385.000000	99.618152 
2384.000000	99.618193 
2383.000000	99.620832 
2382.000000	99.625428 
2381.000000	99.630455 
2380.000000	99.634333 
2379.000000	99.635446 
2378.000000	99.632612 
2377.000000	99.626583 
2376.000000	99.620670 
2375.000000	99.618586 
2374.000000	99.621207 
2373.000000	99.626014 
2372.000000	99.630276 
2371.000000	99.634062 
2370.000000	99.638977 
2369.000000	99.644097 
2368.000000	99.644806 
2367.000000	99.637149 
2366.000000	99.623425 
2365.000000	99.612148 
2364.000000	99.611066 
2363.000000	99.619866 
2362.000000	99.630885 
2361.000000	99.636931 
2360.000000	99.637068 
2359.000000	99.635283 
2358.000000	99.634956 
2357.000000	99.636501 
2356.000000	99.639404 
2355.000000	99.642654 
2354.000000	99.644134 
2353.000000	99.641507 
2352.000000	99.635258 
2351.000000	99.629171 
2350.000000	99.626763 
2349.000000	99.629171 
2348.000000	99.634789 
2347.000000	99.640360 
2346.000000	99.642351 
2345.000000	99.638394 
2344.000000	99.630173 
2343.000000	99.622774 
2342.000000	99.621447 
2341.000000	99.626393 
2340.000000	99.632859 
2339.000000	99.636921 
2338.000000	99.638567 
2337.000000	99.640191 
2336.000000	99.642434 
2335.000000	99.643969 
2334.000000	99.643414 
2333.000000	99.641433 
2332.000000	99.639001 
2331.000000	99.636256 
2330.000000	99.632018 
2329.000000	99.627181 
2328.000000	99.624409 
2327.000000	99.626102 
2326.000000	99.630917 
2325.000000	99.633967 
2324.000000	99.631544 
2323.000000	99.625171 
2322.000000	99.621528 
2321.000000	99.625860 
2320.000000	99.636351 
2319.000000	99.645905 
2318.000000	99.648533 
2317.000000	99.644445 
2316.000000	99.637924 
2315.000000	99.633575 
2314.000000	99.633134 
2313.000000	99.636541 
2312.000000	99.642696 
2311.000000	99.650705 
2310.000000	99.659281 
2309.000000	99.666778 
2308.000000	99.670628 
2307.000000	99.668630 
2306.000000	99.660493 
2305.000000	99.648794 
2304.000000	99.636895 
2303.000000	99.626730 
2302.000000	99.618574 
2301.000000	99.612913 
2300.000000	99.610131 
2299.000000	99.609016 
2298.000000	99.607085 
2297.000000	99.604323 
2296.000000	99.604345 
2295.000000	99.610153 
2294.000000	99.619197 
2293.000000	99.625215 
2292.000000	99.624818 
2291.000000	99.620229 
2290.000000	99.615342 
2289.000000	99.611392 
2288.000000	99.607440 
2287.000000	99.602774 
2286.000000	99.597269 
2285.000000	99.590845 
2284.000000	99.584564 
2283.000000	99.580840 
2282.000000	99.580340 
2281.000000	99.579491 
2280.000000	99.574200 
2279.000000	99.566459 
2278.000000	99.564258 
2277.000000	99.573059 
2276.000000	99.588809 
2275.000000	99.601388 
2274.000000	99.603919 
2273.000000	99.597114 
2272.000000	99.585467 
2271.000000	99.572462 
2270.000000	99.560965 
2269.000000	99.555748 
2268.000000	99.561758 
2267.000000	99.578750 
2266.000000	99.599192 
2265.000000	99.613151 
2264.000000	99.615561 
2263.000000	99.609024 
2262.000000	99.600904 
2261.000000	99.598215 
2260.000000	99.603284 
2259.000000	99.611984 
2258.000000	99.616589 
2257.000000	99.612500 
2256.000000	99.602613 
2255.000000	99.593780 
2254.000000	99.589180 
2253.000000	99.586134 
2252.000000	99.581593 
2251.000000	99.577245 
2250.000000	99.577638 
2249.000000	99.584811 
2248.000000	99.596296 
2247.000000	99.607476 
2246.000000	99.614072 
2245.000000	99.613094 
2244.000000	99.603794 
2243.000000	99.588922 
2242.000000	99.574338 
2241.000000	99.565873 
2240.000000	99.565331 
2239.000000	99.569068 
2238.000000	99.570727 
2237.000000	99.565786 
2236.000000	99.553935 
2235.000000	99.537859 
2234.000000	99.521380 
2233.000000	99.509325 
2232.000000	99.507012 
2231.000000	99.517032 
2230.000000	99.536222 
2229.000000	99.557417 
2228.000000	99.574792 
2227.000000	99.586538 
2226.000000	99.592758 
2225.000000	99.593291 
2224.000000	99.588581 
2223.000000	99.580908 
2222.000000	99.573454 
2221.000000	99.568741 
2220.000000	99.568111 
2219.000000	99.571470 
2218.000000	99.577228 
2217.000000	99.583827 
2216.000000	99.591653 
2215.000000	99.601668 
2214.000000	99.611414 
2213.000000	99.614608 
2212.000000	99.607178 
2211.000000	99.593403 
2210.000000	99.584259 
2209.000000	99.588390 
2208.000000	99.603933 
2207.000000	99.619208 
2206.000000	99.622198 
2205.000000	99.610158 
2204.000000	99.590120 
2203.000000	99.570815 
2202.000000	99.556403 
2201.000000	99.547838 
2200.000000	99.545534 
2199.000000	99.547250 
2198.000000	99.546613 
2197.000000	99.539230 
2196.000000	99.529916 
2195.000000	99.529170 
2194.000000	99.541726 
2193.000000	99.561521 
2192.000000	99.577701 
2191.000000	99.582295 
2190.000000	99.572974 
2189.000000	99.554027 
2188.000000	99.535972 
2187.000000	99.529422 
2186.000000	99.537014 
2185.000000	99.553269 
2184.000000	99.571762 
2183.000000	99.588321 
2182.000000	99.598180 
2181.000000	99.597514 
2180.000000	99.590056 
2179.000000	99.585338 
2178.000000	99.587179 
2177.000000	99.589045 
2176.000000	99.583493 
2175.000000	99.571158 
2174.000000	99.557228 
2173.000000	99.544314 
2172.000000	99.532980 
2171.000000	99.525246 
2170.000000	99.523558 
2169.000000	99.529042 
2168.000000	99.542771 
2167.000000	99.564455 
2166.000000	99.587369 
2165.000000	99.600360 
2164.000000	99.599681 
2163.000000	99.593983 
2162.000000	99.593255 
2161.000000	99.597984 
2160.000000	99.602873 
2159.000000	99.604571 
2158.000000	99.600579 
2157.000000	99.588906 
2156.000000	99.575618 
2155.000000	99.573669 
2154.000000	99.586777 
2153.000000	99.601464 
2152.000000	99.602766 
2151.000000	99.592900 
2150.000000	99.586973 
2149.000000	99.594574 
2148.000000	99.612379 
2147.000000	99.630546 
2146.000000	99.638481 
2145.000000	99.628486 
2144.000000	99.603383 
2143.000000	99.578700 
2142.000000	99.569112 
2141.000000	99.573234 
2140.000000	99.578022 
2139.000000	99.576332 
2138.000000	99.572074 
2137.000000	99.569477 
2136.000000	99.567088 
2135.000000	99.564481 
2134.000000	99.566356 
2133.000000	99.575490 
2132.000000	99.586717 
2131.000000	99.591629 
2130.000000	99.586337 
2129.000000	99.573444 
2128.000000	99.559512 
2127.000000	99.551083 
2126.000000	99.550116 
2125.000000	99.552790 
2124.000000	99.555439 
2123.000000	99.560638 
2122.000000	99.572751 
2121.000000	99.587994 
2120.000000	99.595403 
2119.000000	99.589897 
2118.000000	99.578959 
2117.000000	99.573244 
2116.000000	99.575009 
2115.000000	99.579548 
2114.000000	99.583865 
2113.000000	99.588356 
2112.000000	99.591831 
2111.000000	99.590702 
2110.000000	99.584136 
2109.000000	99.576520 
2108.000000	99.573155 
2107.000000	99.574721 
2106.000000	99.576418 
2105.000000	99.571895 
2104.000000	99.558863 
2103.000000	99.542098 
2102.000000	99.530251 
2101.000000	99.528298 
2100.000000	99.533542 
2099.000000	99.539985 
2098.000000	99.545508 
2097.000000	99.552858 
2096.000000	99.563843 
2095.000000	99.574355 
2094.000000	99.576264 
2093.000000	99.564889 
2092.000000	99.545085 
2091.000000	99.529068 
2090.000000	99.526246 
2089.000000	99.534172 
2088.000000	99.541067 
2087.000000	99.538513 
2086.000000	99.529878 
2085.000000	99.524980 
2084.000000	99.528510 
2083.000000	99.536440 
2082.000000	99.543122 
2081.000000	99.548396 
2080.000000	99.556104 
2079.000000	99.567364 
2078.000000	99.578209 
2077.000000	99.584649 
2076.000000	99.588239 
2075.000000	99.594055 
2074.000000	99.603053 
2073.000000	99.609462 
2072.000000	99.607460 
2071.000000	99.598236 
2070.000000	99.587896 
2069.000000	99.580006 
2068.000000	99.573648 
2067.000000	99.568244 
2066.000000	99.565958 
2065.000000	99.567642 
2064.000000	99.569869 
2063.000000	99.569074 
2062.000000	99.566741 
2061.000000	99.567683 
2060.000000	99.573799 
2059.000000	99.581762 
2058.000000	99.586928 
2057.000000	99.587783 
2056.000000	99.585827 
2055.000000	99.582172 
2054.000000	99.576037 
2053.000000	99.567621 
2052.000000	99.561170 
2051.000000	99.562499 
2050.000000	99.572173 
2049.000000	99.582273 
2048.000000	99.582653 
2047.000000	99.570888 
2046.000000	99.554044 
2045.000000	99.541567 
2044.000000	99.538650 
2043.000000	99.544747 
2042.000000	99.554740 
2041.000000	99.561557 
2040.000000	99.561507 
2039.000000	99.557668 
2038.000000	99.555535 
2037.000000	99.555847 
2036.000000	99.554728 
2035.000000	99.550504 
2034.000000	99.545909 
2033.000000	99.542457 
2032.000000	99.537360 
2031.000000	99.528776 
2030.000000	99.520347 
2029.000000	99.517073 
2028.000000	99.518445 
2027.000000	99.519366 
2026.000000	99.517560 
2025.000000	99.517259 
2024.000000	99.523778 
2023.000000	99.534812 
2022.000000	99.539733 
2021.000000	99.530212 
2020.000000	99.511705 
2019.000000	99.500169 
2018.000000	99.505176 
2017.000000	99.519229 
2016.000000	99.527694 
2015.000000	99.526436 
2014.000000	99.523032 
2013.000000	99.523557 
2012.000000	99.525875 
2011.000000	99.526210 
2010.000000	99.525726 
2009.000000	99.528096 
2008.000000	99.534749 
2007.000000	99.544679 
2006.000000	99.555173 
2005.000000	99.561445 
2004.000000	99.559773 
2003.000000	99.552603 
2002.000000	99.547221 
2001.000000	99.547292 
2000.000000	99.548914 
1999.000000	99.546559 
1998.000000	99.540276 
1997.000000	99.535350 
1996.000000	99.536258 
1995.000000	99.542999 
1994.000000	99.552076 
1993.000000	99.558944 
1992.000000	99.560268 
1991.000000	99.555761 
1990.000000	99.547957 
1989.000000	99.540653 
1988.000000	99.538033 
1987.000000	99.542900 
1986.000000	99.553027 
1985.000000	99.560868 
1984.000000	99.560893 
1983.000000	99.556888 
1982.000000	99.557701 
1981.000000	99.564793 
1980.000000	99.569147 
1979.000000	99.562892 
1978.000000	99.549801 
1977.000000	99.539661 
1976.000000	99.534267 
1975.000000	99.526566 
1974.000000	99.514006 
1973.000000	99.505765 
1972.000000	99.513005 
1971.000000	99.534706 
1970.000000	99.556497 
1969.000000	99.563623 
1968.000000	99.554112 
1967.000000	99.538897 
1966.000000	99.529504 
1965.000000	99.528037 
1964.000000	99.529932 
1963.000000	99.532202 
1962.000000	99.535199 
1961.000000	99.538818 
1960.000000	99.541971 
1959.000000	99.545820 
1958.000000	99.553147 
1957.000000	99.563140 
1956.000000	99.570544 
1955.000000	99.572022 
1954.000000	99.570353 
1953.000000	99.570080 
1952.000000	99.570601 
1951.000000	99.566898 
1950.000000	99.556461 
1949.000000	99.542652 
1948.000000	99.531612 
1947.000000	99.526462 
1946.000000	99.524119 
1945.000000	99.517690 
1944.000000	99.503672 
1943.000000	99.487802 
1942.000000	99.481209 
1941.000000	99.488166 
1940.000000	99.501082 
1939.000000	99.510310 
1938.000000	99.515193 
1937.000000	99.522615 
1936.000000	99.536153 
1935.000000	99.550412 
1934.000000	99.557821 
1933.000000	99.558429 
1932.000000	99.559431 
1931.000000	99.566192 
1930.000000	99.576337 
1929.000000	99.582894 
1928.000000	99.582753 
1927.000000	99.578792 
1926.000000	99.575121 
1925.000000	99.572161 
1924.000000	99.567706 
1923.000000	99.562539 
1922.000000	99.561091 
1921.000000	99.565689 
1920.000000	99.572077 
1919.000000	99.572128 
1918.000000	99.561088 
1917.000000	99.543079 
1916.000000	99.527743 
1915.000000	99.521087 
1914.000000	99.522612 
1913.000000	99.529299 
1912.000000	99.538691 
1911.000000	99.548776 
1910.000000	99.556264 
1909.000000	99.558108 
1908.000000	99.556155 
1907.000000	99.555752 
1906.000000	99.559596 
1905.000000	99.564630 
1904.000000	99.565920 
1903.000000	99.562701 
1902.000000	99.557338 
1901.000000	99.551662 
1900.000000	99.547159 
1899.000000	99.545962 
1898.000000	99.549349 
1897.000000	99.555556 
1896.000000	99.560789 
1895.000000	99.562870 
1894.000000	99.561809 
1893.000000	99.558307 
1892.000000	99.553740 
1891.000000	99.550340 
1890.000000	99.548827 
1889.000000	99.546929 
1888.000000	99.543299 
1887.000000	99.540583 
1886.000000	99.541824 
1885.000000	99.546138 
1884.000000	99.549780 
1883.000000	99.551011 
1882.000000	99.550945 
1881.000000	99.550610 
1880.000000	99.550944 
1879.000000	99.554111 
1878.000000	99.562138 
1877.000000	99.573832 
1876.000000	99.584247 
1875.000000	99.588603 
1874.000000	99.585704 
1873.000000	99.577690 
1872.000000	99.568641 
1871.000000	99.562803 
1870.000000	99.561359 
1869.000000	99.560291 
1868.000000	99.555809 
1867.000000	99.550941 
1866.000000	99.549716 
1865.000000	99.549422 
1864.000000	99.543737 
1863.000000	99.531381 
1862.000000	99.518834 
1861.000000	99.513803 
1860.000000	99.518194 
1859.000000	99.528494 
1858.000000	99.540029 
1857.000000	99.549264 
1856.000000	99.554933 
1855.000000	99.558814 
1854.000000	99.563516 
1853.000000	99.568115 
1852.000000	99.569270 
1851.000000	99.565744 
1850.000000	99.560817 
1849.000000	99.560344 
1848.000000	99.566709 
1847.000000	99.576240 
1846.000000	99.582144 
1845.000000	99.580512 
1844.000000	99.574593 
1843.000000	99.572504 
1842.000000	99.577311 
1841.000000	99.583497 
1840.000000	99.585228 
1839.000000	99.581645 
1838.000000	99.576056 
1837.000000	99.571654 
1836.000000	99.568982 
1835.000000	99.567814 
1834.000000	99.568110 
1833.000000	99.569248 
1832.000000	99.569840 
1831.000000	99.568075 
1830.000000	99.563813 
1829.000000	99.560488 
1828.000000	99.560993 
1827.000000	99.563430 
1826.000000	99.564366 
1825.000000	99.563132 
1824.000000	99.561112 
1823.000000	99.558708 
1822.000000	99.553897 
1821.000000	99.545780 
1820.000000	99.538071 
1819.000000	99.536485 
1818.000000	99.542956 
1817.000000	99.552297 
1816.000000	99.557660 
1815.000000	99.559106 
1814.000000	99.561532 
1813.000000	99.567129 
1812.000000	99.572551 
1811.000000	99.574632 
1810.000000	99.575543 
1809.000000	99.577072 
1808.000000	99.576332 
1807.000000	99.570725 
1806.000000	99.562605 
1805.000000	99.556781 
1804.000000	99.555598 
1803.000000	99.557947 
1802.000000	99.560020 
1801.000000	99.558096 
1800.000000	99.552021 
1799.000000	99.546338 
1798.000000	99.546234 
1797.000000	99.551348 
1796.000000	99.557133 
1795.000000	99.560386 
1794.000000	99.561320 
1793.000000	99.561354 
1792.000000	99.560332 
1791.000000	99.558860 
1790.000000	99.559457 
1789.000000	99.561817 
1788.000000	99.563810 
1787.000000	99.565105 
1786.000000	99.567413 
1785.000000	99.570931 
1784.000000	99.573120 
1783.000000	99.571897 
1782.000000	99.566233 
1781.000000	99.557615 
1780.000000	99.549425 
1779.000000	99.544159 
1778.000000	99.542927 
1777.000000	99.544856 
1776.000000	99.548855 
1775.000000	99.552848 
1774.000000	99.554411 
1773.000000	99.553785 
1772.000000	99.553669 
1771.000000	99.555507 
1770.000000	99.557668 
1769.000000	99.556828 
1768.000000	99.551834 
1767.000000	99.545162 
1766.000000	99.540288 
1765.000000	99.538416 
1764.000000	99.538408 
1763.000000	99.538641 
1762.000000	99.537381 
1761.000000	99.534560 
1760.000000	99.531331 
1759.000000	99.528201 
1758.000000	99.526012 
1757.000000	99.525813 
1756.000000	99.527956 
1755.000000	99.529722 
1754.000000	99.527676 
1753.000000	99.521845 
1752.000000	99.515626 
1751.000000	99.510120 
1750.000000	99.503531 
1749.000000	99.495423 
1748.000000	99.488203 
1747.000000	99.484588 
1746.000000	99.483449 
1745.000000	99.482757 
1744.000000	99.481743 
1743.000000	99.480690 
1742.000000	99.480409 
1741.000000	99.480696 
1740.000000	99.480415 
1739.000000	99.480580 
1738.000000	99.484200 
1737.000000	99.490830 
1736.000000	99.497891 
1735.000000	99.504587 
1734.000000	99.508843 
1733.000000	99.510291 
1732.000000	99.512714 
1731.000000	99.514034 
1730.000000	99.512510 
1729.000000	99.509821 
1728.000000	99.508632 
1727.000000	99.509732 
1726.000000	99.512455 
1725.000000	99.517270 
1724.000000	99.523007 
1723.000000	99.526688 
1722.000000	99.527116 
1721.000000	99.524762 
1720.000000	99.521472 
1719.000000	99.520277 
1718.000000	99.522794 
1717.000000	99.524883 
1716.000000	99.522862 
1715.000000	99.519974 
1714.000000	99.520360 
1713.000000	99.522892 
1712.000000	99.523355 
1711.000000	99.521066 
1710.000000	99.519000 
1709.000000	99.519331 
1708.000000	99.521486 
1707.000000	99.523846 
1706.000000	99.526245 
1705.000000	99.528562 
1704.000000	99.530224 
1703.000000	99.530745 
1702.000000	99.530664 
1701.000000	99.531196 
1700.000000	99.529146 
1699.000000	99.526533 
1698.000000	99.529521 
1697.000000	99.533857 
1696.000000	99.534906 
1695.000000	99.532472 
1694.000000	99.530903 
1693.000000	99.530375 
1692.000000	99.528559 
1691.000000	99.527079 
1690.000000	99.528173 
1689.000000	99.531598 
1688.000000	99.537067 
1687.000000	99.543483 
1686.000000	99.550793 
1685.000000	99.557903 
1684.000000	99.557730 
1683.000000	99.551416 
1682.000000	99.546332 
1681.000000	99.540131 
1680.000000	99.533991 
1679.000000	99.531128 
1678.000000	99.531011 
1677.000000	99.530903 
1676.000000	99.530392 
1675.000000	99.530566 
1674.000000	99.532034 
1673.000000	99.535595 
1672.000000	99.540069 
1671.000000	99.543976 
1670.000000	99.544907 
1669.000000	99.540881 
1668.000000	99.536421 
1667.000000	99.535188 
1666.000000	99.535366 
1665.000000	99.534895 
1664.000000	99.533954 
1663.000000	99.534161 
1662.000000	99.535214 
1661.000000	99.536048 
1660.000000	99.537473 
1659.000000	99.539745 
1658.000000	99.541766 
1657.000000	99.542565 
1656.000000	99.542227 
1655.000000	99.542032 
1654.000000	99.543917 
1653.000000	99.542330 
1652.000000	99.537793 
1651.000000	99.541281 
1650.000000	99.545104 
1649.000000	99.545711 
1648.000000	99.545886 
1647.000000	99.546522 
1646.000000	99.545727 
1645.000000	99.544995 
1644.000000	99.544931 
1643.000000	99.545340 
1642.000000	99.546008 
1641.000000	99.546195 
1640.000000	99.545732 
1639.000000	99.544705 
1638.000000	99.544349 
1637.000000	99.546631 
1636.000000	99.551699 
1635.000000	99.555697 
1634.000000	99.557038 
1633.000000	99.555366 
1632.000000	99.549180 
1631.000000	99.540924 
1630.000000	99.534304 
1629.000000	99.531438 
1628.000000	99.532125 
1627.000000	99.534853 
1626.000000	99.536737 
1625.000000	99.535575 
1624.000000	99.532221 
1623.000000	99.529889 
1622.000000	99.530866 
1621.000000	99.534432 
1620.000000	99.538319 
1619.000000	99.540782 
1618.000000	99.542037 
1617.000000	99.542594 
1616.000000	99.543827 
1615.000000	99.547509 
1614.000000	99.551573 
1613.000000	99.553592 
1612.000000	99.555129 
1611.000000	99.558274 
1610.000000	99.560877 
1609.000000	99.559517 
1608.000000	99.555004 
1607.000000	99.550853 
1606.000000	99.548055 
1605.000000	99.546177 
1604.000000	99.546414 
1603.000000	99.549011 
1602.000000	99.552109 
1601.000000	99.554034 
1600.000000	99.555397 
1599.000000	99.557294 
1598.000000	99.559296 
1597.000000	99.560525 
1596.000000	99.560731 
1595.000000	99.559777 
1594.000000	99.557211 
1593.000000	99.553614 
1592.000000	99.551243 
1591.000000	99.551698 
1590.000000	99.553803 
1589.000000	99.555456 
1588.000000	99.556576 
1587.000000	99.558229 
1586.000000	99.559791 
1585.000000	99.559245 
1584.000000	99.557304 
1583.000000	99.556115 
1582.000000	99.555466 
1581.000000	99.554301 
1580.000000	99.553006 
1579.000000	99.551805 
1578.000000	99.549668 
1577.000000	99.546135 
1576.000000	99.541755 
1575.000000	99.539190 
1574.000000	99.539518 
1573.000000	99.540264 
1572.000000	99.540659 
1571.000000	99.542240 
1570.000000	99.544734 
1569.000000	99.545961 
1568.000000	99.547216 
1567.000000	99.548228 
1566.000000	99.545949 
1565.000000	99.540166 
1564.000000	99.534426 
1563.000000	99.531058 
1562.000000	99.528231 
1561.000000	99.524530 
1560.000000	99.524463 
1559.000000	99.524793 
1558.000000	99.520790 
1557.000000	99.522420 
1556.000000	99.524889 
1555.000000	99.524467 
1554.000000	99.522895 
1553.000000	99.523121 
1552.000000	99.524407 
1551.000000	99.523577 
1550.000000	99.521635 
1549.000000	99.522384 
1548.000000	99.526938 
1547.000000	99.531247 
1546.000000	99.529907 
1545.000000	99.522255 
1544.000000	99.513509 
1543.000000	99.510391 
1542.000000	99.516334 
1541.000000	99.528898 
1540.000000	99.538382 
1539.000000	99.539995 
1538.000000	99.539807 
1537.000000	99.540232 
1536.000000	99.540115 
1535.000000	99.540778 
1534.000000	99.541706 
1533.000000	99.539985 
1532.000000	99.536396 
1531.000000	99.534046 
1530.000000	99.533821 
1529.000000	99.534010 
1528.000000	99.532567 
1527.000000	99.530368 
1526.000000	99.530826 
1525.000000	99.536375 
1524.000000	99.545842 
1523.000000	99.556430 
1522.000000	99.565154 
1521.000000	99.567727 
1520.000000	99.564213 
1519.000000	99.557676 
1518.000000	99.548870 
1517.000000	99.539844 
1516.000000	99.533329 
1515.000000	99.530307 
1514.000000	99.529195 
1513.000000	99.529356 
1512.000000	99.531129 
1511.000000	99.533191 
1510.000000	99.533788 
1509.000000	99.532986 
1508.000000	99.534693 
1507.000000	99.541043 
1506.000000	99.547861 
1505.000000	99.551414 
1504.000000	99.550990 
1503.000000	99.548295 
1502.000000	99.546262 
1501.000000	99.545607 
1500.000000	99.543806 
1499.000000	99.538658 
1498.000000	99.532221 
1497.000000	99.528539 
1496.000000	99.528084 
1495.000000	99.530883 
1494.000000	99.537537 
1493.000000	99.545917 
1492.000000	99.552407 
1491.000000	99.554532 
1490.000000	99.552694 
1489.000000	99.549275 
1488.000000	99.545228 
1487.000000	99.540899 
1486.000000	99.537022 
1485.000000	99.532319 
1484.000000	99.527025 
1483.000000	99.523287 
1482.000000	99.523209 
1481.000000	99.526174 
1480.000000	99.528157 
1479.000000	99.526437 
1478.000000	99.521836 
1477.000000	99.517078 
1476.000000	99.513523 
1475.000000	99.511933 
1474.000000	99.512016 
1473.000000	99.511545 
1472.000000	99.508146 
1471.000000	99.502744 
1470.000000	99.497546 
1469.000000	99.492129 
1468.000000	99.485889 
1467.000000	99.480314 
1466.000000	99.478059 
1465.000000	99.480287 
1464.000000	99.485575 
1463.000000	99.490577 
1462.000000	99.493239 
1461.000000	99.493260 
1460.000000	99.491155 
1459.000000	99.487098 
1458.000000	99.480663 
1457.000000	99.472144 
1456.000000	99.465679 
1455.000000	99.465241 
1454.000000	99.468250 
1453.000000	99.473634 
1452.000000	99.482119 
1451.000000	99.491734 
1450.000000	99.498826 
1449.000000	99.500937 
1448.000000	99.497990 
1447.000000	99.493331 
1446.000000	99.490681 
1445.000000	99.491723 
1444.000000	99.495779 
1443.000000	99.499917 
1442.000000	99.502602 
1441.000000	99.504370 
1440.000000	99.505826 
1439.000000	99.505799 
1438.000000	99.504419 
1437.000000	99.503686 
1436.000000	99.504442 
1435.000000	99.505929 
1434.000000	99.506653 
1433.000000	99.505884 
1432.000000	99.504300 
1431.000000	99.502474 
1430.000000	99.500735 
1429.000000	99.500153 
1428.000000	99.500923 
1427.000000	99.502239 
1426.000000	99.502333 
1425.000000	99.501249 
1424.000000	99.500872 
1423.000000	99.501063 
1422.000000	99.500228 
1421.000000	99.497414 
1420.000000	99.493592 
1419.000000	99.489759 
1418.000000	99.487715 
1417.000000	99.488534 
1416.000000	99.488874 
1415.000000	99.486049 
1414.000000	99.481490 
1413.000000	99.478726 
1412.000000	99.479231 
1411.000000	99.480708 
1410.000000	99.480628 
1409.000000	99.478851 
1408.000000	99.476124 
1407.000000	99.473679 
1406.000000	99.472443 
1405.000000	99.472716 
1404.000000	99.474599 
1403.000000	99.478050 
1402.000000	99.483818 
1401.000000	99.492232 
1400.000000	99.501523 
1399.000000	99.507792 
1398.000000	99.508643 
1397.000000	99.504142 
1396.000000	99.494501 
1395.000000	99.482314 
1394.000000	99.474368 
1393.000000	99.476776 
1392.000000	99.487766 
1391.000000	99.499862 
1390.000000	99.507510 
1389.000000	99.509209 
1388.000000	99.505357 
1387.000000	99.497600 
1386.000000	99.489907 
1385.000000	99.485949 
1384.000000	99.485465 
1383.000000	99.484970 
1382.000000	99.482013 
1381.000000	99.477292 
1380.000000	99.473407 
1379.000000	99.472563 
1378.000000	99.475067 
1377.000000	99.479354 
1376.000000	99.482993 
1375.000000	99.484311 
1374.000000	99.483957 
1373.000000	99.484967 
1372.000000	99.489110 
1371.000000	99.494667 
1370.000000	99.498423 
1369.000000	99.498971 
1368.000000	99.497640 
1367.000000	99.496181 
1366.000000	99.495592 
1365.000000	99.496336 
1364.000000	99.498445 
1363.000000	99.500800 
1362.000000	99.501682 
1361.000000	99.500559 
1360.000000	99.498590 
1359.000000	99.497829 
1358.000000	99.500033 
1357.000000	99.505205 
1356.000000	99.511075 
1355.000000	99.514891 
1354.000000	99.516370 
1353.000000	99.517367 
1352.000000	99.518371 
1351.000000	99.517976 
1350.000000	99.515354 
1349.000000	99.512422 
1348.000000	99.511813 
1347.000000	99.513003 
1346.000000	99.513548 
1345.000000	99.512737 
1344.000000	99.512006 
1343.000000	99.511874 
1342.000000	99.511304 
1341.000000	99.510203 
1340.000000	99.510340 
1339.000000	99.512699 
1338.000000	99.515985 
1337.000000	99.518765 
1336.000000	99.520884 
1335.000000	99.522106 
1334.000000	99.521543 
1333.000000	99.519382 
1332.000000	99.517630 
1331.000000	99.517861 
1330.000000	99.519299 
1329.000000	99.520336 
1328.000000	99.520660 
1327.000000	99.520631 
1326.000000	99.519693 
1325.000000	99.517460 
1324.000000	99.515352 
1323.000000	99.515160 
1322.000000	99.516899 
1321.000000	99.519261 
1320.000000	99.521707 
1319.000000	99.524574 
1318.000000	99.527368 
1317.000000	99.528363 
1316.000000	99.526369 
1315.000000	99.522129 
1314.000000	99.517699 
1313.000000	99.514808 
1312.000000	99.513790 
1311.000000	99.513772 
1310.000000	99.513720 
1309.000000	99.513405 
1308.000000	99.513342 
1307.000000	99.513902 
1306.000000	99.514504 
1305.000000	99.514166 
1304.000000	99.512749 
1303.000000	99.511211 
1302.000000	99.510727 
1301.000000	99.511528 
1300.000000	99.512864 
1299.000000	99.514131 
1298.000000	99.515905 
1297.000000	99.519276 
1296.000000	99.524028 
1295.000000	99.527963 
1294.000000	99.528596 
1293.000000	99.525447 
1292.000000	99.520284 
1291.000000	99.515546 
1290.000000	99.512918 
1289.000000	99.512880 
1288.000000	99.514582 
1287.000000	99.516065 
1286.000000	99.515562 
1285.000000	99.513126 
1284.000000	99.510515 
1283.000000	99.509235 
1282.000000	99.509069 
1281.000000	99.508689 
1280.000000	99.507280 
1279.000000	99.505070 
1278.000000	99.502679 
1277.000000	99.500625 
1276.000000	99.499364 
1275.000000	99.499135 
1274.000000	99.499422 
1273.000000	99.499084 
1272.000000	99.497449 
1271.000000	99.495180 
1270.000000	99.493653 
1269.000000	99.493436 
1268.000000	99.493716 
1267.000000	99.493241 
1266.000000	99.491567 
1265.000000	99.489172 
1264.000000	99.486599 
1263.000000	99.484005 
1262.000000	99.481452 
1261.000000	99.479137 
1260.000000	99.477222 
1259.000000	99.475634 
1258.000000	99.474241 
1257.000000	99.473212 
1256.000000	99.473164 
1255.000000	99.474954 
1254.000000	99.478882 
1253.000000	99.483798 
1252.000000	99.487387 
1251.000000	99.488046 
1250.000000	99.486429 
1249.000000	99.484674 
1248.000000	99.484183 
1247.000000	99.484599 
1246.000000	99.484561 
1245.000000	99.482563 
1244.000000	99.477412 
1243.000000	99.469425 
1242.000000	99.461488 
1241.000000	99.457439 
1240.000000	99.458582 
1239.000000	99.462619 
1238.000000	99.466526 
1237.000000	99.469452 
1236.000000	99.472029 
1235.000000	99.474062 
1234.000000	99.474397 
1233.000000	99.472491 
1232.000000	99.468679 
1231.000000	99.463167 
1230.000000	99.456216 
1229.000000	99.449490 
1228.000000	99.445888 
1227.000000	99.447163 
1226.000000	99.451964 
1225.000000	99.456792 
1224.000000	99.458935 
1223.000000	99.458315 
1222.000000	99.456673 
1221.000000	99.455484 
1220.000000	99.455254 
1219.000000	99.456530 
1218.000000	99.460135 
1217.000000	99.465291 
1216.000000	99.468474 
1215.000000	99.466131 
1214.000000	99.458747 
1213.000000	99.450531 
1212.000000	99.444671 
1211.000000	99.440706 
1210.000000	99.437268 
1209.000000	99.435117 
1208.000000	99.435606 
1207.000000	99.437625 
1206.000000	99.438364 
1205.000000	99.436691 
1204.000000	99.434002 
1203.000000	99.431967 
1202.000000	99.430984 
1201.000000	99.430718 
1200.000000	99.430625 
1199.000000	99.429846 
1198.000000	99.427779 
1197.000000	99.424843 
1196.000000	99.421610 
1195.000000	99.417520 
1194.000000	99.411795 
1193.000000	99.405462 
1192.000000	99.400795 
1191.000000	99.398403 
1190.000000	99.396355 
1189.000000	99.392855 
1188.000000	99.388542 
1187.000000	99.385367 
1186.000000	99.384143 
1185.000000	99.383960 
1184.000000	99.383243 
1183.000000	99.380724 
1182.000000	99.376272 
1181.000000	99.371525 
1180.000000	99.368883 
1179.000000	99.368863 
1178.000000	99.369047 
1177.000000	99.366700 
1176.000000	99.361808 
1175.000000	99.356253 
1174.000000	99.350428 
1173.000000	99.342609 
1172.000000	99.332329 
1171.000000	99.322722 
1170.000000	99.317774 
1169.000000	99.317613 
1168.000000	99.317968 
1167.000000	99.314733 
1166.000000	99.308281 
1165.000000	99.302818 
1164.000000	99.302046 
1163.000000	99.306055 
1162.000000	99.312078 
1161.000000	99.317497 
1160.000000	99.321900 
1159.000000	99.326446 
1158.000000	99.331322 
1157.000000	99.333984 
1156.000000	99.330663 
1155.000000	99.320638 
1154.000000	99.308776 
1153.000000	99.302293 
1152.000000	99.304106 
1151.000000	99.309932 
1150.000000	99.312589 
1149.000000	99.308758 
1148.000000	99.300963 
1147.000000	99.293707 
1146.000000	99.289025 
1145.000000	99.285739 
1144.000000	99.281686 
1143.000000	99.275844 
1142.000000	99.268970 
1141.000000	99.263173 
1140.000000	99.260857 
1139.000000	99.263099 
1138.000000	99.268325 
1137.000000	99.272745 
1136.000000	99.272818 
1135.000000	99.267775 
1134.000000	99.259632 
1133.000000	99.250564 
1132.000000	99.240983 
1131.000000	99.230991 
1130.000000	99.222936 
1129.000000	99.220314 
1128.000000	99.223030 
1127.000000	99.225257 
1126.000000	99.220363 
1125.000000	99.208313 
1124.000000	99.196412 
1123.000000	99.191733 
1122.000000	99.193732 
1121.000000	99.195402 
1120.000000	99.191040 
1119.000000	99.181404 
1118.000000	99.171401 
1117.000000	99.164551 
1116.000000	99.160799 
1115.000000	99.158521 
1114.000000	99.156683 
1113.000000	99.154914 
1112.000000	99.152907 
1111.000000	99.150422 
1110.000000	99.147078 
1109.000000	99.141962 
1108.000000	99.134617 
1107.000000	99.127051 
1106.000000	99.123053 
1105.000000	99.123734 
1104.000000	99.124898 
1103.000000	99.121085 
1102.000000	99.111920 
1101.000000	99.102354 
1100.000000	99.096474 
1099.000000	99.093759 
1098.000000	99.092003 
1097.000000	99.091028 
1096.000000	99.091679 
1095.000000	99.092867 
1094.000000	99.092247 
1093.000000	99.089014 
1092.000000	99.083852 
1091.000000	99.076619 
1090.000000	99.066457 
1089.000000	99.054405 
1088.000000	99.043898 
1087.000000	99.037823 
1086.000000	99.036160 
1085.000000	99.036944 
1084.000000	99.038324 
1083.000000	99.039031 
1082.000000	99.037908 
1081.000000	99.034068 
1080.000000	99.027303 
1079.000000	99.018045 
1078.000000	99.007359 
1077.000000	98.997122 
1076.000000	98.989607 
1075.000000	98.986288 
1074.000000	98.986901 
1073.000000	98.989422 
1072.000000	98.990642 
1071.000000	98.987312 
1070.000000	98.978067 
1069.000000	98.964777 
1068.000000	98.951412 
1067.000000	98.941181 
1066.000000	98.934833 
1065.000000	98.931441 
1064.000000	98.929866 
1063.000000	98.928793 
1062.000000	98.926041 
1061.000000	98.919085 
1060.000000	98.906943 
1059.000000	98.891487 
1058.000000	98.876462 
1057.000000	98.864831 
1056.000000	98.857171 
1055.000000	98.852617 
1054.000000	98.850578 
1053.000000	98.850518 
1052.000000	98.850394 
1051.000000	98.847183 
1050.000000	98.839895 
1049.000000	98.830610 
1048.000000	98.821544 
1047.000000	98.812891 
1046.000000	98.804663 
1045.000000	98.798364 
1044.000000	98.794638 
1043.000000	98.790831 
1042.000000	98.783933 
1041.000000	98.775607 
1040.000000	98.771134 
1039.000000	98.772551 
1038.000000	98.775495 
1037.000000	98.774432 
1036.000000	98.769044 
1035.000000	98.763692 
1034.000000	98.762057 
1033.000000	98.764149 
1032.000000	98.767609 
1031.000000	98.770059 
1030.000000	98.770627 
1029.000000	98.770804 
1028.000000	98.773656 
1027.000000	98.780848 
1026.000000	98.790222 
1025.000000	98.797231 
1024.000000	98.798870 
1023.000000	98.795882 
1022.000000	98.791683 
1021.000000	98.789878 
1020.000000	98.792387 
1019.000000	98.798653 
1018.000000	98.806108 
1017.000000	98.812002 
1016.000000	98.815422 
1015.000000	98.817716 
1014.000000	98.820731 
1013.000000	98.824349 
1012.000000	98.825841 
1011.000000	98.822369 
1010.000000	98.814681 
1009.000000	98.807828 
1008.000000	98.807319 
1007.000000	98.814549 
1006.000000	98.826209 
1005.000000	98.837473 
1004.000000	98.845033 
1003.000000	98.848195 
1002.000000	98.849193 
1001.000000	98.852243 
1000.000000	98.859973 
999.000000	 98.869961 
998.000000	 98.876649 
997.000000	 98.877819 
996.000000	 98.877774 
995.000000	 98.882774 
994.000000	 98.894286 
993.000000	 98.907981 
992.000000	 98.918584 
991.000000	 98.924218 
990.000000	 98.926422 
989.000000	 98.927486 
988.000000	 98.928475 
987.000000	 98.929523 
986.000000	 98.931441 
985.000000	 98.936211 
984.000000	 98.945140 
983.000000	 98.956762 
982.000000	 98.967631 
981.000000	 98.975447 
980.000000	 98.980651 
979.000000	 98.985162 
978.000000	 98.990908 
977.000000	 98.999620 
976.000000	 99.012171 
975.000000	 99.027068 
974.000000	 99.040872 
973.000000	 99.051346 
972.000000	 99.059524 
971.000000	 99.068023 
970.000000	 99.078255 
969.000000	 99.089921 
968.000000	 99.102000 
967.000000	 99.113084 
966.000000	 99.121659 
965.000000	 99.127284 
964.000000	 99.131095 
963.000000	 99.134508 
962.000000	 99.138250 
961.000000	 99.143227 
960.000000	 99.150930 
959.000000	 99.161438 
958.000000	 99.171829 
957.000000	 99.178421 
956.000000	 99.180565 
955.000000	 99.181090 
954.000000	 99.183258 
953.000000	 99.188393 
952.000000	 99.196146 
951.000000	 99.205341 
950.000000	 99.214073 
949.000000	 99.220195 
948.000000	 99.222474 
947.000000	 99.220854 
946.000000	 99.215519 
945.000000	 99.206698 
944.000000	 99.196084 
943.000000	 99.187715 
942.000000	 99.185960 
941.000000	 99.191799 
940.000000	 99.201178 
939.000000	 99.207669 
938.000000	 99.207585 
937.000000	 99.203063 
936.000000	 99.200069 
935.000000	 99.203170 
934.000000	 99.212078 
933.000000	 99.222968 
932.000000	 99.232525 
931.000000	 99.240248 
930.000000	 99.247090 
929.000000	 99.252506 
928.000000	 99.253531 
927.000000	 99.247533 
926.000000	 99.236192 
925.000000	 99.225968 
924.000000	 99.223497 
923.000000	 99.230166 
922.000000	 99.241366 
921.000000	 99.250767 
920.000000	 99.254638 
919.000000	 99.252608 
918.000000	 99.246274 
917.000000	 99.238066 
916.000000	 99.230468 
915.000000	 99.225086 
914.000000	 99.222331 
913.000000	 99.222132 
912.000000	 99.224393 
911.000000	 99.228636 
910.000000	 99.234274 
909.000000	 99.241767 
908.000000	 99.252258 
907.000000	 99.264972 
906.000000	 99.276005 
905.000000	 99.281327 
904.000000	 99.280863 
903.000000	 99.278780 
902.000000	 99.280172 
901.000000	 99.287961 
900.000000	 99.301666 
899.000000	 99.317068 
898.000000	 99.327397 
897.000000	 99.327584 
896.000000	 99.318751 
895.000000	 99.307465 
894.000000	 99.299532 
893.000000	 99.295309 
892.000000	 99.292115 
891.000000	 99.289981 
890.000000	 99.292667 
889.000000	 99.302611 
888.000000	 99.316807 
887.000000	 99.329248 
886.000000	 99.336977 
885.000000	 99.342293 
884.000000	 99.348780 
883.000000	 99.356533 
882.000000	 99.362205 
881.000000	 99.362993 
880.000000	 99.359391 
879.000000	 99.354352 
878.000000	 99.351099 
877.000000	 99.351967 
876.000000	 99.357834 
875.000000	 99.367152 
874.000000	 99.375849 
873.000000	 99.379662 
872.000000	 99.377283 
871.000000	 99.371007 
870.000000	 99.364475 
869.000000	 99.360569 
868.000000	 99.361418 
867.000000	 99.368410 
866.000000	 99.380309 
865.000000	 99.392297 
864.000000	 99.399494 
863.000000	 99.401922 
862.000000	 99.403880 
861.000000	 99.407529 
860.000000	 99.409720 
859.000000	 99.407192 
858.000000	 99.402411 
857.000000	 99.400791 
856.000000	 99.403513 
855.000000	 99.407009 
854.000000	 99.408955 
853.000000	 99.410341 
852.000000	 99.411253 
851.000000	 99.409651 
850.000000	 99.406291 
849.000000	 99.406147 
848.000000	 99.411623 
847.000000	 99.418128 
846.000000	 99.420350 
845.000000	 99.419740 
844.000000	 99.421119 
843.000000	 99.424267 
842.000000	 99.424315 
841.000000	 99.419254 
840.000000	 99.411495 
839.000000	 99.402328 
838.000000	 99.390809 
837.000000	 99.379318 
836.000000	 99.374561 
835.000000	 99.379815 
834.000000	 99.389861 
833.000000	 99.396945 
832.000000	 99.398899 
831.000000	 99.397940 
830.000000	 99.394221 
829.000000	 99.385709 
828.000000	 99.374546 
827.000000	 99.368874 
826.000000	 99.375260 
825.000000	 99.390794 
824.000000	 99.405270 
823.000000	 99.411234 
822.000000	 99.410088 
821.000000	 99.407588 
820.000000	 99.405693 
819.000000	 99.401894 
818.000000	 99.396054 
817.000000	 99.393887 
816.000000	 99.400734 
815.000000	 99.413547 
814.000000	 99.422992 
813.000000	 99.423805 
812.000000	 99.419242 
811.000000	 99.413842 
810.000000	 99.405542 
809.000000	 99.388269 
808.000000	 99.360680 
807.000000	 99.329102 
806.000000	 99.301761 
805.000000	 99.282104 
804.000000	 99.268258 
803.000000	 99.257336 
802.000000	 99.248976 
801.000000	 99.244914 
800.000000	 99.246081 
799.000000	 99.251277 
798.000000	 99.258994 
797.000000	 99.268781 
796.000000	 99.278965 
795.000000	 99.284532 
794.000000	 99.280919 
793.000000	 99.270467 
792.000000	 99.262182 
791.000000	 99.263752 
790.000000	 99.275360 
789.000000	 99.291238 
788.000000	 99.304135 
787.000000	 99.307460 
786.000000	 99.297300 
785.000000	 99.275754 
784.000000	 99.250766 
783.000000	 99.230370 
782.000000	 99.217630 
781.000000	 99.211319 
780.000000	 99.208602 
779.000000	 99.205468 
778.000000	 99.198430 
777.000000	 99.189566 
776.000000	 99.187464 
775.000000	 99.198694 
774.000000	 99.219031 
773.000000	 99.237000 
772.000000	 99.246020 
771.000000	 99.249789 
770.000000	 99.255703 
769.000000	 99.266106 
768.000000	 99.276925 
767.000000	 99.282712 
766.000000	 99.282131 
765.000000	 99.279816 
764.000000	 99.283062 
763.000000	 99.295091 
762.000000	 99.310806 
761.000000	 99.320180 
760.000000	 99.316693 
759.000000	 99.302947 
758.000000	 99.288621 
757.000000	 99.282321 
756.000000	 99.283506 
755.000000	 99.282152 
754.000000	 99.269152 
753.000000	 99.248605 
752.000000	 99.236984 
751.000000	 99.247426 
750.000000	 99.276075 
749.000000	 99.305878 
748.000000	 99.321967 
747.000000	 99.321029 
746.000000	 99.308931 
745.000000	 99.294467 
744.000000	 99.285393 
743.000000	 99.285799 
742.000000	 99.294694 
741.000000	 99.308290 
740.000000	 99.323909 
739.000000	 99.340253 
738.000000	 99.354679 
737.000000	 99.362728 
736.000000	 99.360688 
735.000000	 99.347856 
734.000000	 99.327740 
733.000000	 99.308569 
732.000000	 99.300265 
731.000000	 99.306939 
730.000000	 99.322525 
729.000000	 99.336836 
728.000000	 99.345464 
727.000000	 99.350745 
726.000000	 99.354248 
725.000000	 99.353182 
724.000000	 99.345100 
723.000000	 99.332270 
722.000000	 99.319846 
721.000000	 99.312345 
720.000000	 99.312696 
719.000000	 99.321421 
718.000000	 99.335036 
717.000000	 99.347274 
716.000000	 99.352868 
715.000000	 99.349576 
714.000000	 99.338366 
713.000000	 99.324834 
712.000000	 99.319323 
711.000000	 99.330067 
710.000000	 99.353804 
709.000000	 99.376486 
708.000000	 99.385244 
707.000000	 99.377419 
706.000000	 99.357625 
705.000000	 99.331082 
704.000000	 99.303721 
703.000000	 99.284802 
702.000000	 99.282380 
701.000000	 99.294670 
700.000000	 99.309019 
699.000000	 99.312034 
698.000000	 99.301440 
697.000000	 99.287483 
696.000000	 99.281803 
695.000000	 99.285157 
694.000000	 99.288120 
693.000000	 99.284335 
692.000000	 99.278992 
691.000000	 99.281395 
690.000000	 99.293406 
689.000000	 99.310787 
688.000000	 99.332299 
687.000000	 99.358239 
686.000000	 99.380618 
685.000000	 99.385656 
684.000000	 99.369761 
683.000000	 99.345825 
682.000000	 99.330530 
681.000000	 99.330312 
680.000000	 99.340179 
679.000000	 99.349552 
678.000000	 99.348380 
677.000000	 99.335621 
676.000000	 99.325221 
675.000000	 99.332717 
674.000000	 99.352007 
673.000000	 99.357768 
672.000000	 99.335575 
671.000000	 99.300800 
670.000000	 99.282890 
669.000000	 99.302708 
668.000000	 99.342844 
667.000000	 99.356939 
666.000000	 99.341480 
665.000000	 99.318581 
664.000000	 99.301221 
663.000000	 99.306923 
662.000000	 99.342320 
661.000000	 99.385125 
660.000000	 99.402101 
659.000000	 99.382779 
658.000000	 99.345510 
657.000000	 99.312277 
656.000000	 99.290903 
655.000000	 99.281004 
654.000000	 99.281478 
653.000000	 99.289182 
652.000000	 99.300196 
651.000000	 99.313947 
650.000000	 99.329062 

