4000.000000	99.399957 
3999.000000	99.400424 
3998.000000	99.400399 
3997.000000	99.398823 
3996.000000	99.395285 
3995.000000	99.390687 
3994.000000	99.387084 
3993.000000	99.386452 
3992.000000	99.389074 
3991.000000	99.392990 
3990.000000	99.395506 
3989.000000	99.395680 
3988.000000	99.395287 
3987.000000	99.397042 
3986.000000	99.401884 
3985.000000	99.408021 
3984.000000	99.412345 
3983.000000	99.412601 
3982.000000	99.408581 
3981.000000	99.401906 
3980.000000	99.394788 
3979.000000	99.388906 
3978.000000	99.385225 
3977.000000	99.384327 
3976.000000	99.386444 
3975.000000	99.391107 
3974.000000	99.397076 
3973.000000	99.402675 
3972.000000	99.406234 
3971.000000	99.406674 
3970.000000	99.404108 
3969.000000	99.399953 
3968.000000	99.396200 
3967.000000	99.394147 
3966.000000	99.393738 
3965.000000	99.394139 
3964.000000	99.394519 
3963.000000	99.394207 
3962.000000	99.392681 
3961.000000	99.389898 
3960.000000	99.386598 
3959.000000	99.384088 
3958.000000	99.383271 
3957.000000	99.383863 
3956.000000	99.384917 
3955.000000	99.385863 
3954.000000	99.386745 
3953.000000	99.387456 
3952.000000	99.387235 
3951.000000	99.385588 
3950.000000	99.383297 
3949.000000	99.382158 
3948.000000	99.383254 
3947.000000	99.385507 
3946.000000	99.386644 
3945.000000	99.385607 
3944.000000	99.383771 
3943.000000	99.383257 
3942.000000	99.384609 
3941.000000	99.386367 
3940.000000	99.386489 
3939.000000	99.383779 
3938.000000	99.378436 
3937.000000	99.371983 
3936.000000	99.366939 
3935.000000	99.365865 
3934.000000	99.370085 
3933.000000	99.378589 
3932.000000	99.387990 
3931.000000	99.394004 
3930.000000	99.393877 
3929.000000	99.388078 
3928.000000	99.379676 
3927.000000	99.372285 
3926.000000	99.368740 
3925.000000	99.369863 
3924.000000	99.373649 
3923.000000	99.377177 
3922.000000	99.379316 
3921.000000	99.381172 
3920.000000	99.383860 
3919.000000	99.386995 
3918.000000	99.389809 
3917.000000	99.392441 
3916.000000	99.395277 
3915.000000	99.397791 
3914.000000	99.399269 
3913.000000	99.399839 
3912.000000	99.400091 
3911.000000	99.400784 
3910.000000	99.402804 
3909.000000	99.406869 
3908.000000	99.412507 
3907.000000	99.417225 
3906.000000	99.417522 
3905.000000	99.411506 
3904.000000	99.400302 
3903.000000	99.387483 
3902.000000	99.377204 
3901.000000	99.372576 
3900.000000	99.374684 
3899.000000	99.381224 
3898.000000	99.387758 
3897.000000	99.391314 
3896.000000	99.391880 
3895.000000	99.390800 
3894.000000	99.388817 
3893.000000	99.386012 
3892.000000	99.383218 
3891.000000	99.382021 
3890.000000	99.382479 
3889.000000	99.382627 
3888.000000	99.380925 
3887.000000	99.378561 
3886.000000	99.378168 
3885.000000	99.379756 
3884.000000	99.379871 
3883.000000	99.376512 
3882.000000	99.372308 
3881.000000	99.371820 
3880.000000	99.376591 
3879.000000	99.383144 
3878.000000	99.387215 
3877.000000	99.388206 
3876.000000	99.388996 
3875.000000	99.392452 
3874.000000	99.397442 
3873.000000	99.398776 
3872.000000	99.393416 
3871.000000	99.385861 
3870.000000	99.384403 
3869.000000	99.391060 
3868.000000	99.399248 
3867.000000	99.402992 
3866.000000	99.403260 
3865.000000	99.403718 
3864.000000	99.404092 
3863.000000	99.401625 
3862.000000	99.396452 
3861.000000	99.392155 
3860.000000	99.391799 
3859.000000	99.395723 
3858.000000	99.401714 
3857.000000	99.406790 
3856.000000	99.408481 
3855.000000	99.407153 
3854.000000	99.406304 
3853.000000	99.407816 
3852.000000	99.408791 
3851.000000	99.406769 
3850.000000	99.403202 
3849.000000	99.400785 
3848.000000	99.399994 
3847.000000	99.399264 
3846.000000	99.397438 
3845.000000	99.395143 
3844.000000	99.394720 
3843.000000	99.398529 
3842.000000	99.405766 
3841.000000	99.412807 
3840.000000	99.416770 
3839.000000	99.417450 
3838.000000	99.415917 
3837.000000	99.412984 
3836.000000	99.409008 
3835.000000	99.404805 
3834.000000	99.401649 
3833.000000	99.400712 
3832.000000	99.402189 
3831.000000	99.404531 
3830.000000	99.405459 
3829.000000	99.403698 
3828.000000	99.400040 
3827.000000	99.397451 
3826.000000	99.398689 
3825.000000	99.403327 
3824.000000	99.408299 
3823.000000	99.411643 
3822.000000	99.414487 
3821.000000	99.419018 
3820.000000	99.424175 
3819.000000	99.426453 
3818.000000	99.424423 
3817.000000	99.420408 
3816.000000	99.417300 
3815.000000	99.413799 
3814.000000	99.406682 
3813.000000	99.397498 
3812.000000	99.392267 
3811.000000	99.394641 
3810.000000	99.402098 
3809.000000	99.409033 
3808.000000	99.413024 
3807.000000	99.416133 
3806.000000	99.419541 
3805.000000	99.420541 
3804.000000	99.416883 
3803.000000	99.411112 
3802.000000	99.408867 
3801.000000	99.411847 
3800.000000	99.414598 
3799.000000	99.411884 
3798.000000	99.404614 
3797.000000	99.397287 
3796.000000	99.392549 
3795.000000	99.388992 
3794.000000	99.384358 
3793.000000	99.378936 
3792.000000	99.374913 
3791.000000	99.373564 
3790.000000	99.374429 
3789.000000	99.376357 
3788.000000	99.378278 
3787.000000	99.379175 
3786.000000	99.378777 
3785.000000	99.378216 
3784.000000	99.379109 
3783.000000	99.381739 
3782.000000	99.385176 
3781.000000	99.388748 
3780.000000	99.392148 
3779.000000	99.394230 
3778.000000	99.392935 
3777.000000	99.387534 
3776.000000	99.380390 
3775.000000	99.375835 
3774.000000	99.376473 
3773.000000	99.381056 
3772.000000	99.386466 
3771.000000	99.390808 
3770.000000	99.393324 
3769.000000	99.392999 
3768.000000	99.389389 
3767.000000	99.384226 
3766.000000	99.380653 
3765.000000	99.380264 
3764.000000	99.381085 
3763.000000	99.379804 
3762.000000	99.376041 
3761.000000	99.372842 
3760.000000	99.372725 
3759.000000	99.375441 
3758.000000	99.380049 
3757.000000	99.386654 
3756.000000	99.394684 
3755.000000	99.402490 
3754.000000	99.409368 
3753.000000	99.416428 
3752.000000	99.423766 
3751.000000	99.428497 
3750.000000	99.429415 
3749.000000	99.429665 
3748.000000	99.430738 
3747.000000	99.429679 
3746.000000	99.423961 
3745.000000	99.416051 
3744.000000	99.410168 
3743.000000	99.405100 
3742.000000	99.397716 
3741.000000	99.389264 
3740.000000	99.382292 
3739.000000	99.376655 
3738.000000	99.371437 
3737.000000	99.368547 
3736.000000	99.369951 
3735.000000	99.372351 
3734.000000	99.370233 
3733.000000	99.364478 
3732.000000	99.361442 
3731.000000	99.364075 
3730.000000	99.369204 
3729.000000	99.372544 
3728.000000	99.373398 
3727.000000	99.373593 
3726.000000	99.373413 
3725.000000	99.371170 
3724.000000	99.367059 
3723.000000	99.364012 
3722.000000	99.363980 
3721.000000	99.365906 
3720.000000	99.367059 
3719.000000	99.366094 
3718.000000	99.364633 
3717.000000	99.364991 
3716.000000	99.366614 
3715.000000	99.366990 
3714.000000	99.365705 
3713.000000	99.365925 
3712.000000	99.370115 
3711.000000	99.375644 
3710.000000	99.376865 
3709.000000	99.370282 
3708.000000	99.357087 
3707.000000	99.341718 
3706.000000	99.328652 
3705.000000	99.320388 
3704.000000	99.316934 
3703.000000	99.316442 
3702.000000	99.316180 
3701.000000	99.313967 
3700.000000	99.308847 
3699.000000	99.300936 
3698.000000	99.291910 
3697.000000	99.284909 
3696.000000	99.282270 
3695.000000	99.284228 
3694.000000	99.289914 
3693.000000	99.297561 
3692.000000	99.303024 
3691.000000	99.300648 
3690.000000	99.288875 
3689.000000	99.274248 
3688.000000	99.265260 
3687.000000	99.262753 
3686.000000	99.261846 
3685.000000	99.260639 
3684.000000	99.261388 
3683.000000	99.265312 
3682.000000	99.269470 
3681.000000	99.270250 
3680.000000	99.267706 
3679.000000	99.263669 
3678.000000	99.258745 
3677.000000	99.254504 
3676.000000	99.255424 
3675.000000	99.262223 
3674.000000	99.267727 
3673.000000	99.264894 
3672.000000	99.254261 
3671.000000	99.243303 
3670.000000	99.238606 
3669.000000	99.238737 
3668.000000	99.238467 
3667.000000	99.236479 
3666.000000	99.234838 
3665.000000	99.234884 
3664.000000	99.235604 
3663.000000	99.235406 
3662.000000	99.234151 
3661.000000	99.232603 
3660.000000	99.230655 
3659.000000	99.227257 
3658.000000	99.222675 
3657.000000	99.219698 
3656.000000	99.221003 
3655.000000	99.225325 
3654.000000	99.228744 
3653.000000	99.228890 
3652.000000	99.226340 
3651.000000	99.223066 
3650.000000	99.219984 
3649.000000	99.216452 
3648.000000	99.212208 
3647.000000	99.207833 
3646.000000	99.203886 
3645.000000	99.201055 
3644.000000	99.200327 
3643.000000	99.202546 
3642.000000	99.207815 
3641.000000	99.214927 
3640.000000	99.221998 
3639.000000	99.227649 
3638.000000	99.231288 
3637.000000	99.232676 
3636.000000	99.231839 
3635.000000	99.229407 
3634.000000	99.225992 
3633.000000	99.221337 
3632.000000	99.215434 
3631.000000	99.210512 
3630.000000	99.210516 
3629.000000	99.215374 
3628.000000	99.217600 
3627.000000	99.211739 
3626.000000	99.201404 
3625.000000	99.193357 
3624.000000	99.190094 
3623.000000	99.188934 
3622.000000	99.186590 
3621.000000	99.184420 
3620.000000	99.187084 
3619.000000	99.195751 
3618.000000	99.205823 
3617.000000	99.212818 
3616.000000	99.216789 
3615.000000	99.220679 
3614.000000	99.225709 
3613.000000	99.229635 
3612.000000	99.230051 
3611.000000	99.228133 
3610.000000	99.227521 
3609.000000	99.229553 
3608.000000	99.231364 
3607.000000	99.230163 
3606.000000	99.227662 
3605.000000	99.228153 
3604.000000	99.233631 
3603.000000	99.242230 
3602.000000	99.250530 
3601.000000	99.256755 
3600.000000	99.260731 
3599.000000	99.262218 
3598.000000	99.261137 
3597.000000	99.258120 
3596.000000	99.254729 
3595.000000	99.253543 
3594.000000	99.256417 
3593.000000	99.262539 
3592.000000	99.268644 
3591.000000	99.270691 
3590.000000	99.267001 
3589.000000	99.260014 
3588.000000	99.254573 
3587.000000	99.252411 
3586.000000	99.251050 
3585.000000	99.248939 
3584.000000	99.248223 
3583.000000	99.251360 
3582.000000	99.257820 
3581.000000	99.264411 
3580.000000	99.268129 
3579.000000	99.268037 
3578.000000	99.264912 
3577.000000	99.260463 
3576.000000	99.256894 
3575.000000	99.256114 
3574.000000	99.258226 
3573.000000	99.260937 
3572.000000	99.261624 
3571.000000	99.259475 
3570.000000	99.255311 
3569.000000	99.250700 
3568.000000	99.247458 
3567.000000	99.246527 
3566.000000	99.247094 
3565.000000	99.248020 
3564.000000	99.249699 
3563.000000	99.253562 
3562.000000	99.259989 
3561.000000	99.267099 
3560.000000	99.272092 
3559.000000	99.273571 
3558.000000	99.272501 
3557.000000	99.270985 
3556.000000	99.270490 
3555.000000	99.271055 
3554.000000	99.271821 
3553.000000	99.271556 
3552.000000	99.269243 
3551.000000	99.264927 
3550.000000	99.259720 
3549.000000	99.254924 
3548.000000	99.251462 
3547.000000	99.249654 
3546.000000	99.249240 
3545.000000	99.249009 
3544.000000	99.247586 
3543.000000	99.245355 
3542.000000	99.245032 
3541.000000	99.249024 
3540.000000	99.256457 
3539.000000	99.263291 
3538.000000	99.266065 
3537.000000	99.265041 
3536.000000	99.263269 
3535.000000	99.262927 
3534.000000	99.263414 
3533.000000	99.263260 
3532.000000	99.262541 
3531.000000	99.262738 
3530.000000	99.264360 
3529.000000	99.265687 
3528.000000	99.264598 
3527.000000	99.261220 
3526.000000	99.257881 
3525.000000	99.256461 
3524.000000	99.256498 
3523.000000	99.256161 
3522.000000	99.254770 
3521.000000	99.253576 
3520.000000	99.254437 
3519.000000	99.258133 
3518.000000	99.263903 
3517.000000	99.269917 
3516.000000	99.274132 
3515.000000	99.275255 
3514.000000	99.273126 
3513.000000	99.268454 
3512.000000	99.262454 
3511.000000	99.256590 
3510.000000	99.252046 
3509.000000	99.249082 
3508.000000	99.247131 
3507.000000	99.245783 
3506.000000	99.245442 
3505.000000	99.246492 
3504.000000	99.248340 
3503.000000	99.250151 
3502.000000	99.252540 
3501.000000	99.257128 
3500.000000	99.263724 
3499.000000	99.269044 
3498.000000	99.269295 
3497.000000	99.264092 
3496.000000	99.256975 
3495.000000	99.251974 
3494.000000	99.250356 
3493.000000	99.250722 
3492.000000	99.251351 
3491.000000	99.251731 
3490.000000	99.252459 
3489.000000	99.254442 
3488.000000	99.258090 
3487.000000	99.262645 
3486.000000	99.266384 
3485.000000	99.267904 
3484.000000	99.267229 
3483.000000	99.265553 
3482.000000	99.263897 
3481.000000	99.262328 
3480.000000	99.260551 
3479.000000	99.258685 
3478.000000	99.257056 
3477.000000	99.255680 
3476.000000	99.254616 
3475.000000	99.254748 
3474.000000	99.257332 
3473.000000	99.262161 
3472.000000	99.266829 
3471.000000	99.268777 
3470.000000	99.268076 
3469.000000	99.267394 
3468.000000	99.268923 
3467.000000	99.271794 
3466.000000	99.273139 
3465.000000	99.271363 
3464.000000	99.267676 
3463.000000	99.264491 
3462.000000	99.262978 
3461.000000	99.262644 
3460.000000	99.262736 
3459.000000	99.263269 
3458.000000	99.264424 
3457.000000	99.265366 
3456.000000	99.264518 
3455.000000	99.261313 
3454.000000	99.257339 
3453.000000	99.255282 
3452.000000	99.256364 
3451.000000	99.259220 
3450.000000	99.261465 
3449.000000	99.262032 
3448.000000	99.261419 
3447.000000	99.260019 
3446.000000	99.257360 
3445.000000	99.253628 
3444.000000	99.250877 
3443.000000	99.251351 
3442.000000	99.254591 
3441.000000	99.257198 
3440.000000	99.256089 
3439.000000	99.251393 
3438.000000	99.245696 
3437.000000	99.241071 
3436.000000	99.237788 
3435.000000	99.235688 
3434.000000	99.235516 
3433.000000	99.238197 
3432.000000	99.243064 
3431.000000	99.247889 
3430.000000	99.251002 
3429.000000	99.252978 
3428.000000	99.255587 
3427.000000	99.258982 
3426.000000	99.260680 
3425.000000	99.257874 
3424.000000	99.250634 
3423.000000	99.242245 
3422.000000	99.236273 
3421.000000	99.233818 
3420.000000	99.233901 
3419.000000	99.235682 
3418.000000	99.239214 
3417.000000	99.244194 
3416.000000	99.249055 
3415.000000	99.251818 
3414.000000	99.251553 
3413.000000	99.248916 
3412.000000	99.245601 
3411.000000	99.243373 
3410.000000	99.243050 
3409.000000	99.243930 
3408.000000	99.244254 
3407.000000	99.242582 
3406.000000	99.238936 
3405.000000	99.234653 
3404.000000	99.231327 
3403.000000	99.229855 
3402.000000	99.230198 
3401.000000	99.231887 
3400.000000	99.234677 
3399.000000	99.238698 
3398.000000	99.243834 
3397.000000	99.249072 
3396.000000	99.252651 
3395.000000	99.252903 
3394.000000	99.248958 
3393.000000	99.241126 
3392.000000	99.231216 
3391.000000	99.222321 
3390.000000	99.217529 
3389.000000	99.218222 
3388.000000	99.223483 
3387.000000	99.231106 
3386.000000	99.239142 
3385.000000	99.246625 
3384.000000	99.253087 
3383.000000	99.257537 
3382.000000	99.258106 
3381.000000	99.253375 
3380.000000	99.244589 
3379.000000	99.236236 
3378.000000	99.233117 
3377.000000	99.236168 
3376.000000	99.241673 
3375.000000	99.245106 
3374.000000	99.245294 
3373.000000	99.244416 
3372.000000	99.244588 
3371.000000	99.245502 
3370.000000	99.245378 
3369.000000	99.243230 
3368.000000	99.239804 
3367.000000	99.236869 
3366.000000	99.236077 
3365.000000	99.238008 
3364.000000	99.241686 
3363.000000	99.245033 
3362.000000	99.246241 
3361.000000	99.244905 
3360.000000	99.241849 
3359.000000	99.238145 
3358.000000	99.234695 
3357.000000	99.232611 
3356.000000	99.233139 
3355.000000	99.236449 
3354.000000	99.240602 
3353.000000	99.242446 
3352.000000	99.240076 
3351.000000	99.234614 
3350.000000	99.229501 
3349.000000	99.227924 
3348.000000	99.230643 
3347.000000	99.235696 
3346.000000	99.239937 
3345.000000	99.241202 
3344.000000	99.239710 
3343.000000	99.237633 
3342.000000	99.236846 
3341.000000	99.236887 
3340.000000	99.235424 
3339.000000	99.231117 
3338.000000	99.225793 
3337.000000	99.223169 
3336.000000	99.225261 
3335.000000	99.230432 
3334.000000	99.235270 
3333.000000	99.237984 
3332.000000	99.239514 
3331.000000	99.241510 
3330.000000	99.243973 
3329.000000	99.245368 
3328.000000	99.244742 
3327.000000	99.242971 
3326.000000	99.241628 
3325.000000	99.241005 
3324.000000	99.239755 
3323.000000	99.236613 
3322.000000	99.232030 
3321.000000	99.227828 
3320.000000	99.225495 
3319.000000	99.225217 
3318.000000	99.226549 
3317.000000	99.229303 
3316.000000	99.233204 
3315.000000	99.237107 
3314.000000	99.239589 
3313.000000	99.240627 
3312.000000	99.241915 
3311.000000	99.244799 
3310.000000	99.248270 
3309.000000	99.249755 
3308.000000	99.247857 
3307.000000	99.243748 
3306.000000	99.239974 
3305.000000	99.238564 
3304.000000	99.240207 
3303.000000	99.244127 
3302.000000	99.248078 
3301.000000	99.249171 
3300.000000	99.245786 
3299.000000	99.239023 
3298.000000	99.232120 
3297.000000	99.228343 
3296.000000	99.229053 
3295.000000	99.233039 
3294.000000	99.237360 
3293.000000	99.239413 
3292.000000	99.238929 
3291.000000	99.237742 
3290.000000	99.237279 
3289.000000	99.236842 
3288.000000	99.235020 
3287.000000	99.232224 
3286.000000	99.230597 
3285.000000	99.231179 
3284.000000	99.232238 
3283.000000	99.231233 
3282.000000	99.228145 
3281.000000	99.226150 
3280.000000	99.228700 
3279.000000	99.235962 
3278.000000	99.244102 
3277.000000	99.248125 
3276.000000	99.245568 
3275.000000	99.237747 
3274.000000	99.228005 
3273.000000	99.219390 
3272.000000	99.213888 
3271.000000	99.212502 
3270.000000	99.214862 
3269.000000	99.219004 
3268.000000	99.222463 
3267.000000	99.223827 
3266.000000	99.222962 
3265.000000	99.220286 
3264.000000	99.216799 
3263.000000	99.214682 
3262.000000	99.216483 
3261.000000	99.222754 
3260.000000	99.230900 
3259.000000	99.236906 
3258.000000	99.238277 
3257.000000	99.235420 
3256.000000	99.230733 
3255.000000	99.226702 
3254.000000	99.224589 
3253.000000	99.224513 
3252.000000	99.226368 
3251.000000	99.230105 
3250.000000	99.234787 
3249.000000	99.238033 
3248.000000	99.237491 
3247.000000	99.233026 
3246.000000	99.226903 
3245.000000	99.221739 
3244.000000	99.218840 
3243.000000	99.218375 
3242.000000	99.219948 
3241.000000	99.222414 
3240.000000	99.224216 
3239.000000	99.224971 
3238.000000	99.226415 
3237.000000	99.230843 
3236.000000	99.238496 
3235.000000	99.246818 
3234.000000	99.252328 
3233.000000	99.253088 
3232.000000	99.249761 
3231.000000	99.244855 
3230.000000	99.240896 
3229.000000	99.238828 
3228.000000	99.237800 
3227.000000	99.236303 
3226.000000	99.233504 
3225.000000	99.229753 
3224.000000	99.226290 
3223.000000	99.224543 
3222.000000	99.225186 
3221.000000	99.227408 
3220.000000	99.229244 
3219.000000	99.229058 
3218.000000	99.226969 
3217.000000	99.224998 
3216.000000	99.225879 
3215.000000	99.231180 
3214.000000	99.239782 
3213.000000	99.248008 
3212.000000	99.251794 
3211.000000	99.249326 
3210.000000	99.242022 
3209.000000	99.233419 
3208.000000	99.227205 
3207.000000	99.225374 
3206.000000	99.227127 
3205.000000	99.229458 
3204.000000	99.229705 
3203.000000	99.227823 
3202.000000	99.225800 
3201.000000	99.225150 
3200.000000	99.225980 
3199.000000	99.228269 
3198.000000	99.232456 
3197.000000	99.238092 
3196.000000	99.243181 
3195.000000	99.245878 
3194.000000	99.246071 
3193.000000	99.244564 
3192.000000	99.241631 
3191.000000	99.237440 
3190.000000	99.233124 
3189.000000	99.230043 
3188.000000	99.228241 
3187.000000	99.226848 
3186.000000	99.225864 
3185.000000	99.226314 
3184.000000	99.228513 
3183.000000	99.231223 
3182.000000	99.233042 
3181.000000	99.234023 
3180.000000	99.235567 
3179.000000	99.238874 
3178.000000	99.243420 
3177.000000	99.246722 
3176.000000	99.246168 
3175.000000	99.241808 
3174.000000	99.236928 
3173.000000	99.234820 
3172.000000	99.235134 
3171.000000	99.234647 
3170.000000	99.231771 
3169.000000	99.228822 
3168.000000	99.229062 
3167.000000	99.232684 
3166.000000	99.236867 
3165.000000	99.239054 
3164.000000	99.238930 
3163.000000	99.237524 
3162.000000	99.235820 
3161.000000	99.234581 
3160.000000	99.234437 
3159.000000	99.235300 
3158.000000	99.236058 
3157.000000	99.235503 
3156.000000	99.233566 
3155.000000	99.231251 
3154.000000	99.229297 
3153.000000	99.227235 
3152.000000	99.224050 
3151.000000	99.219671 
3150.000000	99.215472 
3149.000000	99.213133 
3148.000000	99.213244 
3147.000000	99.215245 
3146.000000	99.218406 
3145.000000	99.222291 
3144.000000	99.226232 
3143.000000	99.229054 
3142.000000	99.229974 
3141.000000	99.229551 
3140.000000	99.229225 
3139.000000	99.229861 
3138.000000	99.231026 
3137.000000	99.231790 
3136.000000	99.231995 
3135.000000	99.232544 
3134.000000	99.234468 
3133.000000	99.237696 
3132.000000	99.240736 
3131.000000	99.241720 
3130.000000	99.239966 
3129.000000	99.236673 
3128.000000	99.234148 
3127.000000	99.234327 
3126.000000	99.237628 
3125.000000	99.242596 
3124.000000	99.246478 
3123.000000	99.246853 
3122.000000	99.243672 
3121.000000	99.239661 
3120.000000	99.238018 
3119.000000	99.239465 
3118.000000	99.241918 
3117.000000	99.243099 
3116.000000	99.242838 
3115.000000	99.242448 
3114.000000	99.242539 
3113.000000	99.242332 
3112.000000	99.240992 
3111.000000	99.238847 
3110.000000	99.236991 
3109.000000	99.236113 
3108.000000	99.235962 
3107.000000	99.235751 
3106.000000	99.234858 
3105.000000	99.233366 
3104.000000	99.232122 
3103.000000	99.232130 
3102.000000	99.233712 
3101.000000	99.236204 
3100.000000	99.238555 
3099.000000	99.240239 
3098.000000	99.241593 
3097.000000	99.243359 
3096.000000	99.245843 
3095.000000	99.248376 
3094.000000	99.249593 
3093.000000	99.248469 
3092.000000	99.245292 
3091.000000	99.241689 
3090.000000	99.239687 
3089.000000	99.240498 
3088.000000	99.243770 
3087.000000	99.247701 
3086.000000	99.250046 
3085.000000	99.249516 
3084.000000	99.246461 
3083.000000	99.242293 
3082.000000	99.238456 
3081.000000	99.235979 
3080.000000	99.235526 
3079.000000	99.237190 
3078.000000	99.240184 
3077.000000	99.243214 
3076.000000	99.245368 
3075.000000	99.246443 
3074.000000	99.246472 
3073.000000	99.245458 
3072.000000	99.243630 
3071.000000	99.241456 
3070.000000	99.239084 
3069.000000	99.236179 
3068.000000	99.232854 
3067.000000	99.230682 
3066.000000	99.232175 
3065.000000	99.238675 
3064.000000	99.248373 
3063.000000	99.256553 
3062.000000	99.258542 
3061.000000	99.253191 
3060.000000	99.243803 
3059.000000	99.235472 
3058.000000	99.231575 
3057.000000	99.232636 
3056.000000	99.237442 
3055.000000	99.244008 
3054.000000	99.249703 
3053.000000	99.251996 
3052.000000	99.250014 
3051.000000	99.245064 
3050.000000	99.239492 
3049.000000	99.235427 
3048.000000	99.234202 
3047.000000	99.235610 
3046.000000	99.237330 
3045.000000	99.236482 
3044.000000	99.232810 
3043.000000	99.229478 
3042.000000	99.229679 
3041.000000	99.233022 
3040.000000	99.236212 
3039.000000	99.236589 
3038.000000	99.233827 
3037.000000	99.228722 
3036.000000	99.221939 
3035.000000	99.214207 
3034.000000	99.206514 
3033.000000	99.199476 
3032.000000	99.193060 
3031.000000	99.187172 
3030.000000	99.181990 
3029.000000	99.177616 
3028.000000	99.174018 
3027.000000	99.171410 
3026.000000	99.169959 
3025.000000	99.168799 
3024.000000	99.166061 
3023.000000	99.160452 
3022.000000	99.152433 
3021.000000	99.143270 
3020.000000	99.133225 
3019.000000	99.121404 
3018.000000	99.107547 
3017.000000	99.093270 
3016.000000	99.080899 
3015.000000	99.071169 
3014.000000	99.062861 
3013.000000	99.054889 
3012.000000	99.047902 
3011.000000	99.042932 
3010.000000	99.039037 
3009.000000	99.033721 
3008.000000	99.025892 
3007.000000	99.017186 
3006.000000	99.009660 
3005.000000	99.003028 
3004.000000	98.995111 
3003.000000	98.984565 
3002.000000	98.972337 
3001.000000	98.960707 
3000.000000	98.951499 
2999.000000	98.945020 
2998.000000	98.940148 
2997.000000	98.935501 
2996.000000	98.930706 
2995.000000	98.925991 
2994.000000	98.920241 
2993.000000	98.910546 
2992.000000	98.894850 
2991.000000	98.874845 
2990.000000	98.855399 
2989.000000	98.841294 
2988.000000	98.834915 
2987.000000	98.836231 
2986.000000	98.843319 
2985.000000	98.852692 
2984.000000	98.860414 
2983.000000	98.864034 
2982.000000	98.863536 
2981.000000	98.860635 
2980.000000	98.857485 
2979.000000	98.855719 
2978.000000	98.855731 
2977.000000	98.856483 
2976.000000	98.856375 
2975.000000	98.854506 
2974.000000	98.851050 
2973.000000	98.846916 
2972.000000	98.843574 
2971.000000	98.842761 
2970.000000	98.845324 
2969.000000	98.850286 
2968.000000	98.855753 
2967.000000	98.860781 
2966.000000	98.865709 
2965.000000	98.870756 
2964.000000	98.875327 
2963.000000	98.879029 
2962.000000	98.882614 
2961.000000	98.887306 
2960.000000	98.893449 
2959.000000	98.900066 
2958.000000	98.905541 
2957.000000	98.908723 
2956.000000	98.909840 
2955.000000	98.910655 
2954.000000	98.913507 
2953.000000	98.919829 
2952.000000	98.929214 
2951.000000	98.939475 
2950.000000	98.947556 
2949.000000	98.951130 
2948.000000	98.950049 
2947.000000	98.946337 
2946.000000	98.942605 
2945.000000	98.940664 
2944.000000	98.941345 
2943.000000	98.944378 
2942.000000	98.947629 
2941.000000	98.947589 
2940.000000	98.942235 
2939.000000	98.933580 
2938.000000	98.926393 
2937.000000	98.924239 
2936.000000	98.927095 
2935.000000	98.932146 
2934.000000	98.935807 
2933.000000	98.935240 
2932.000000	98.929565 
2931.000000	98.920285 
2930.000000	98.910185 
2929.000000	98.901625 
2928.000000	98.895821 
2927.000000	98.892812 
2926.000000	98.891171 
2925.000000	98.888623 
2924.000000	98.884539 
2923.000000	98.881455 
2922.000000	98.882504 
2921.000000	98.887346 
2920.000000	98.892300 
2919.000000	98.894536 
2918.000000	98.894593 
2917.000000	98.894329 
2916.000000	98.894162 
2915.000000	98.893283 
2914.000000	98.891522 
2913.000000	98.889925 
2912.000000	98.889984 
2911.000000	98.892737 
2910.000000	98.897955 
2909.000000	98.903800 
2908.000000	98.907876 
2907.000000	98.909061 
2906.000000	98.907629 
2905.000000	98.903530 
2904.000000	98.895835 
2903.000000	98.884895 
2902.000000	98.874329 
2901.000000	98.869993 
2900.000000	98.875535 
2899.000000	98.889838 
2898.000000	98.907389 
2897.000000	98.921609 
2896.000000	98.928925 
2895.000000	98.930599 
2894.000000	98.930732 
2893.000000	98.932457 
2892.000000	98.936332 
2891.000000	98.941550 
2890.000000	98.947096 
2889.000000	98.951444 
2888.000000	98.952894 
2887.000000	98.951622 
2886.000000	98.950533 
2885.000000	98.952807 
2884.000000	98.958873 
2883.000000	98.966625 
2882.000000	98.974149 
2881.000000	98.981156 
2880.000000	98.987979 
2879.000000	98.994391 
2878.000000	98.999878 
2877.000000	99.004507 
2876.000000	99.009127 
2875.000000	99.014788 
2874.000000	99.021846 
2873.000000	99.029348 
2872.000000	99.035424 
2871.000000	99.038716 
2870.000000	99.039536 
2869.000000	99.039630 
2868.000000	99.040997 
2867.000000	99.044914 
2866.000000	99.051403 
2865.000000	99.059091 
2864.000000	99.065816 
2863.000000	99.069989 
2862.000000	99.071498 
2861.000000	99.071243 
2860.000000	99.070194 
2859.000000	99.069258 
2858.000000	99.069473 
2857.000000	99.071469 
2856.000000	99.074743 
2855.000000	99.078186 
2854.000000	99.081582 
2853.000000	99.086112 
2852.000000	99.093089 
2851.000000	99.102439 
2850.000000	99.112748 
2849.000000	99.122666 
2848.000000	99.131998 
2847.000000	99.141351 
2846.000000	99.150878 
2845.000000	99.159497 
2844.000000	99.165439 
2843.000000	99.167743 
2842.000000	99.167532 
2841.000000	99.167858 
2840.000000	99.171820 
2839.000000	99.180126 
2838.000000	99.190271 
2837.000000	99.198498 
2836.000000	99.202925 
2835.000000	99.204718 
2834.000000	99.206232 
2833.000000	99.208447 
2832.000000	99.210389 
2831.000000	99.210556 
2830.000000	99.208456 
2829.000000	99.205004 
2828.000000	99.201984 
2827.000000	99.200967 
2826.000000	99.202310 
2825.000000	99.205112 
2824.000000	99.208323 
2823.000000	99.211654 
2822.000000	99.215087 
2821.000000	99.217909 
2820.000000	99.218983 
2819.000000	99.218030 
2818.000000	99.216140 
2817.000000	99.214850 
2816.000000	99.214998 
2815.000000	99.216382 
2814.000000	99.218098 
2813.000000	99.219111 
2812.000000	99.219002 
2811.000000	99.218437 
2810.000000	99.218721 
2809.000000	99.220667 
2808.000000	99.223785 
2807.000000	99.226473 
2806.000000	99.227057 
2805.000000	99.225097 
2804.000000	99.222020 
2803.000000	99.220243 
2802.000000	99.221220 
2801.000000	99.224366 
2800.000000	99.227969 
2799.000000	99.230805 
2798.000000	99.232489 
2797.000000	99.232660 
2796.000000	99.230678 
2795.000000	99.226466 
2794.000000	99.221396 
2793.000000	99.217957 
2792.000000	99.218146 
2791.000000	99.221808 
2790.000000	99.226622 
2789.000000	99.230221 
2788.000000	99.232383 
2787.000000	99.234558 
2786.000000	99.237300 
2785.000000	99.239149 
2784.000000	99.238509 
2783.000000	99.235664 
2782.000000	99.232257 
2781.000000	99.229561 
2780.000000	99.228147 
2779.000000	99.228466 
2778.000000	99.230591 
2777.000000	99.233755 
2776.000000	99.237093 
2775.000000	99.240503 
2774.000000	99.243890 
2773.000000	99.246245 
2772.000000	99.246808 
2771.000000	99.246703 
2770.000000	99.247839 
2769.000000	99.250161 
2768.000000	99.251598 
2767.000000	99.250995 
2766.000000	99.249570 
2765.000000	99.248752 
2764.000000	99.247906 
2763.000000	99.245258 
2762.000000	99.240418 
2761.000000	99.235039 
2760.000000	99.231327 
2759.000000	99.230503 
2758.000000	99.232418 
2757.000000	99.236033 
2756.000000	99.240097 
2755.000000	99.243533 
2754.000000	99.245343 
2753.000000	99.244811 
2752.000000	99.242446 
2751.000000	99.240306 
2750.000000	99.240284 
2749.000000	99.241980 
2748.000000	99.243210 
2747.000000	99.242805 
2746.000000	99.241910 
2745.000000	99.242128 
2744.000000	99.243383 
2743.000000	99.244416 
2742.000000	99.244670 
2741.000000	99.244754 
2740.000000	99.245225 
2739.000000	99.245751 
2738.000000	99.245726 
2737.000000	99.245402 
2736.000000	99.246007 
2735.000000	99.248448 
2734.000000	99.251844 
2733.000000	99.253805 
2732.000000	99.252636 
2731.000000	99.248986 
2730.000000	99.244881 
2729.000000	99.241634 
2728.000000	99.239472 
2727.000000	99.238703 
2726.000000	99.239764 
2725.000000	99.241946 
2724.000000	99.243489 
2723.000000	99.243744 
2722.000000	99.244264 
2721.000000	99.246831 
2720.000000	99.250874 
2719.000000	99.253716 
2718.000000	99.253237 
2717.000000	99.249761 
2716.000000	99.245569 
2715.000000	99.243007 
2714.000000	99.242899 
2713.000000	99.244271 
2712.000000	99.245514 
2711.000000	99.246003 
2710.000000	99.246598 
2709.000000	99.248439 
2708.000000	99.251363 
2707.000000	99.253607 
2706.000000	99.253202 
2705.000000	99.249906 
2704.000000	99.245899 
2703.000000	99.244208 
2702.000000	99.245986 
2701.000000	99.249457 
2700.000000	99.252017 
2699.000000	99.253181 
2698.000000	99.254862 
2697.000000	99.258664 
2696.000000	99.263574 
2695.000000	99.266701 
2694.000000	99.266186 
2693.000000	99.263126 
2692.000000	99.260577 
2691.000000	99.260474 
2690.000000	99.261624 
2689.000000	99.261201 
2688.000000	99.258314 
2687.000000	99.255282 
2686.000000	99.254976 
2685.000000	99.257732 
2684.000000	99.261625 
2683.000000	99.264809 
2682.000000	99.266251 
2681.000000	99.264850 
2680.000000	99.259889 
2679.000000	99.252813 
2678.000000	99.247153 
2677.000000	99.245837 
2676.000000	99.249023 
2675.000000	99.254619 
2674.000000	99.259939 
2673.000000	99.262781 
2672.000000	99.262289 
2671.000000	99.259658 
2670.000000	99.257313 
2669.000000	99.256682 
2668.000000	99.257181 
2667.000000	99.257673 
2666.000000	99.258081 
2665.000000	99.259000 
2664.000000	99.260442 
2663.000000	99.261785 
2662.000000	99.262645 
2661.000000	99.263028 
2660.000000	99.262728 
2659.000000	99.261175 
2658.000000	99.258135 
2657.000000	99.254447 
2656.000000	99.251835 
2655.000000	99.251640 
2654.000000	99.253466 
2653.000000	99.255537 
2652.000000	99.256973 
2651.000000	99.259199 
2650.000000	99.263950 
2649.000000	99.270025 
2648.000000	99.273604 
2647.000000	99.272486 
2646.000000	99.268968 
2645.000000	99.267514 
2644.000000	99.270054 
2643.000000	99.274387 
2642.000000	99.276798 
2641.000000	99.275599 
2640.000000	99.272295 
2639.000000	99.269897 
2638.000000	99.270105 
2637.000000	99.271820 
2636.000000	99.272440 
2635.000000	99.270552 
2634.000000	99.267063 
2633.000000	99.263920 
2632.000000	99.262470 
2631.000000	99.263137 
2630.000000	99.265589 
2629.000000	99.268472 
2628.000000	99.269721 
2627.000000	99.268238 
2626.000000	99.265325 
2625.000000	99.263788 
2624.000000	99.265364 
2623.000000	99.269114 
2622.000000	99.272283 
2621.000000	99.272623 
2620.000000	99.269954 
2619.000000	99.265783 
2618.000000	99.261804 
2617.000000	99.259155 
2616.000000	99.258786 
2615.000000	99.261426 
2614.000000	99.266462 
2613.000000	99.271618 
2612.000000	99.274856 
2611.000000	99.276330 
2610.000000	99.277547 
2609.000000	99.278893 
2608.000000	99.279195 
2607.000000	99.277811 
2606.000000	99.276006 
2605.000000	99.275731 
2604.000000	99.277623 
2603.000000	99.280524 
2602.000000	99.282626 
2601.000000	99.283028 
2600.000000	99.282454 
2599.000000	99.282239 
2598.000000	99.282277 
2597.000000	99.280537 
2596.000000	99.275301 
2595.000000	99.267470 
2594.000000	99.259932 
2593.000000	99.255149 
2592.000000	99.254168 
2591.000000	99.257205 
2590.000000	99.263670 
2589.000000	99.271524 
2588.000000	99.277750 
2587.000000	99.279889 
2586.000000	99.277090 
2585.000000	99.270522 
2584.000000	99.263371 
2583.000000	99.259223 
2582.000000	99.259036 
2581.000000	99.260326 
2580.000000	99.260412 
2579.000000	99.259417 
2578.000000	99.258697 
2577.000000	99.257710 
2576.000000	99.254763 
2575.000000	99.250107 
2574.000000	99.245901 
2573.000000	99.243449 
2572.000000	99.242636 
2571.000000	99.243646 
2570.000000	99.246683 
2569.000000	99.250202 
2568.000000	99.252119 
2567.000000	99.252986 
2566.000000	99.255271 
2565.000000	99.259081 
2564.000000	99.261400 
2563.000000	99.260500 
2562.000000	99.258480 
2561.000000	99.257962 
2560.000000	99.258236 
2559.000000	99.256250 
2558.000000	99.250344 
2557.000000	99.242177 
2556.000000	99.236055 
2555.000000	99.236509 
2554.000000	99.244671 
2553.000000	99.256214 
2552.000000	99.264325 
2551.000000	99.265399 
2550.000000	99.260886 
2549.000000	99.254133 
2548.000000	99.247632 
2547.000000	99.243310 
2546.000000	99.242559 
2545.000000	99.244723 
2544.000000	99.247409 
2543.000000	99.249086 
2542.000000	99.249682 
2541.000000	99.248573 
2540.000000	99.244665 
2539.000000	99.239032 
2538.000000	99.234510 
2537.000000	99.231535 
2536.000000	99.227419 
2535.000000	99.221465 
2534.000000	99.217695 
2533.000000	99.219803 
2532.000000	99.225594 
2531.000000	99.229446 
2530.000000	99.229084 
2529.000000	99.227217 
2528.000000	99.227105 
2527.000000	99.228915 
2526.000000	99.230458 
2525.000000	99.229943 
2524.000000	99.227881 
2523.000000	99.227032 
2522.000000	99.229956 
2521.000000	99.235826 
2520.000000	99.240331 
2519.000000	99.239501 
2518.000000	99.233098 
2517.000000	99.224027 
2516.000000	99.215582 
2515.000000	99.209819 
2514.000000	99.207418 
2513.000000	99.208163 
2512.000000	99.211955 
2511.000000	99.219110 
2510.000000	99.228501 
2509.000000	99.236126 
2508.000000	99.238112 
2507.000000	99.235407 
2506.000000	99.232872 
2505.000000	99.232984 
2504.000000	99.233149 
2503.000000	99.230416 
2502.000000	99.225955 
2501.000000	99.222977 
2500.000000	99.222734 
2499.000000	99.224820 
2498.000000	99.229292 
2497.000000	99.235677 
2496.000000	99.241339 
2495.000000	99.243372 
2494.000000	99.241428 
2493.000000	99.236869 
2492.000000	99.230496 
2491.000000	99.223518 
2490.000000	99.219816 
2489.000000	99.224289 
2488.000000	99.238126 
2487.000000	99.256643 
2486.000000	99.271676 
2485.000000	99.276018 
2484.000000	99.267568 
2483.000000	99.251199 
2482.000000	99.235859 
2481.000000	99.227955 
2480.000000	99.227359 
2479.000000	99.229995 
2478.000000	99.232545 
2477.000000	99.233551 
2476.000000	99.232251 
2475.000000	99.229142 
2474.000000	99.226790 
2473.000000	99.227442 
2472.000000	99.229994 
2471.000000	99.231315 
2470.000000	99.230304 
2469.000000	99.228772 
2468.000000	99.228495 
2467.000000	99.229283 
2466.000000	99.230010 
2465.000000	99.229898 
2464.000000	99.228664 
2463.000000	99.226859 
2462.000000	99.226089 
2461.000000	99.227440 
2460.000000	99.229484 
2459.000000	99.229292 
2458.000000	99.225813 
2457.000000	99.221169 
2456.000000	99.218231 
2455.000000	99.217906 
2454.000000	99.219061 
2453.000000	99.220033 
2452.000000	99.219500 
2451.000000	99.216588 
2450.000000	99.211137 
2449.000000	99.204205 
2448.000000	99.198131 
2447.000000	99.195690 
2446.000000	99.198511 
2445.000000	99.205675 
2444.000000	99.213785 
2443.000000	99.218679 
2442.000000	99.217682 
2441.000000	99.211357 
2440.000000	99.203850 
2439.000000	99.200718 
2438.000000	99.204603 
2437.000000	99.212595 
2436.000000	99.218812 
2435.000000	99.219910 
2434.000000	99.217378 
2433.000000	99.214820 
2432.000000	99.214546 
2431.000000	99.216779 
2430.000000	99.220111 
2429.000000	99.221844 
2428.000000	99.219652 
2427.000000	99.214190 
2426.000000	99.208893 
2425.000000	99.206276 
2424.000000	99.205806 
2423.000000	99.206526 
2422.000000	99.209955 
2421.000000	99.218016 
2420.000000	99.228677 
2419.000000	99.236075 
2418.000000	99.235762 
2417.000000	99.228738 
2416.000000	99.219864 
2415.000000	99.213094 
2414.000000	99.208903 
2413.000000	99.205789 
2412.000000	99.203130 
2411.000000	99.201832 
2410.000000	99.202465 
2409.000000	99.203889 
2408.000000	99.204334 
2407.000000	99.203254 
2406.000000	99.201520 
2405.000000	99.200442 
2404.000000	99.201242 
2403.000000	99.204437 
2402.000000	99.208582 
2401.000000	99.210449 
2400.000000	99.207941 
2399.000000	99.202328 
2398.000000	99.196508 
2397.000000	99.192112 
2396.000000	99.189800 
2395.000000	99.190788 
2394.000000	99.195312 
2393.000000	99.200256 
2392.000000	99.201408 
2391.000000	99.198246 
2390.000000	99.194112 
2389.000000	99.191872 
2388.000000	99.192161 
2387.000000	99.195597 
2386.000000	99.202834 
2385.000000	99.211596 
2384.000000	99.217353 
2383.000000	99.218767 
2382.000000	99.219291 
2381.000000	99.221410 
2380.000000	99.222516 
2379.000000	99.219616 
2378.000000	99.215516 
2377.000000	99.216517 
2376.000000	99.224819 
2375.000000	99.236116 
2374.000000	99.243913 
2373.000000	99.244192 
2372.000000	99.236956 
2371.000000	99.225856 
2370.000000	99.215930 
2369.000000	99.210472 
2368.000000	99.210575 
2367.000000	99.216901 
2366.000000	99.229122 
2365.000000	99.244079 
2364.000000	99.257186 
2363.000000	99.266238 
2362.000000	99.271139 
2361.000000	99.270718 
2360.000000	99.265222 
2359.000000	99.258597 
2358.000000	99.254522 
2357.000000	99.253426 
2356.000000	99.254925 
2355.000000	99.260189 
2354.000000	99.264351 
2353.000000	99.261768 
2352.000000	99.253721 
2351.000000	99.247653 
2350.000000	99.249572 
2349.000000	99.257937 
2348.000000	99.267347 
2347.000000	99.271504 
2346.000000	99.269521 
2345.000000	99.267239 
2344.000000	99.268458 
2343.000000	99.273154 
2342.000000	99.277399 
2341.000000	99.280193 
2340.000000	99.282538 
2339.000000	99.286673 
2338.000000	99.292279 
2337.000000	99.294988 
2336.000000	99.291835 
2335.000000	99.282826 
2334.000000	99.271937 
2333.000000	99.263695 
2332.000000	99.262980 
2331.000000	99.266591 
2330.000000	99.269737 
2329.000000	99.269325 
2328.000000	99.272771 
2327.000000	99.283637 
2326.000000	99.298426 
2325.000000	99.307894 
2324.000000	99.308077 
2323.000000	99.303617 
2322.000000	99.301886 
2321.000000	99.305108 
2320.000000	99.307862 
2319.000000	99.303097 
2318.000000	99.291764 
2317.000000	99.280213 
2316.000000	99.274839 
2315.000000	99.273711 
2314.000000	99.273643 
2313.000000	99.272156 
2312.000000	99.271520 
2311.000000	99.271085 
2310.000000	99.269401 
2309.000000	99.263852 
2308.000000	99.255702 
2307.000000	99.246936 
2306.000000	99.240870 
2305.000000	99.239017 
2304.000000	99.241751 
2303.000000	99.246396 
2302.000000	99.250315 
2301.000000	99.251529 
2300.000000	99.251270 
2299.000000	99.251372 
2298.000000	99.253686 
2297.000000	99.256551 
2296.000000	99.257096 
2295.000000	99.253253 
2294.000000	99.247406 
2293.000000	99.243845 
2292.000000	99.245626 
2291.000000	99.251943 
2290.000000	99.259484 
2289.000000	99.264589 
2288.000000	99.265288 
2287.000000	99.262419 
2286.000000	99.258391 
2285.000000	99.254489 
2284.000000	99.249391 
2283.000000	99.242118 
2282.000000	99.234715 
2281.000000	99.230645 
2280.000000	99.230347 
2279.000000	99.231058 
2278.000000	99.230564 
2277.000000	99.229384 
2276.000000	99.229043 
2275.000000	99.229841 
2274.000000	99.230845 
2273.000000	99.230507 
2272.000000	99.227796 
2271.000000	99.223934 
2270.000000	99.223132 
2269.000000	99.229190 
2268.000000	99.240886 
2267.000000	99.252075 
2266.000000	99.257063 
2265.000000	99.254693 
2264.000000	99.247332 
2263.000000	99.237778 
2262.000000	99.228158 
2261.000000	99.220278 
2260.000000	99.215289 
2259.000000	99.213498 
2258.000000	99.214800 
2257.000000	99.219004 
2256.000000	99.225119 
2255.000000	99.231174 
2254.000000	99.235363 
2253.000000	99.237291 
2252.000000	99.238131 
2251.000000	99.239340 
2250.000000	99.241217 
2249.000000	99.242454 
2248.000000	99.241492 
2247.000000	99.238810 
2246.000000	99.236366 
2245.000000	99.235107 
2244.000000	99.233978 
2243.000000	99.231730 
2242.000000	99.228527 
2241.000000	99.225564 
2240.000000	99.224780 
2239.000000	99.229013 
2238.000000	99.239339 
2237.000000	99.250828 
2236.000000	99.254285 
2235.000000	99.245514 
2234.000000	99.231198 
2233.000000	99.222566 
2232.000000	99.223944 
2231.000000	99.229738 
2230.000000	99.231305 
2229.000000	99.224321 
2228.000000	99.210866 
2227.000000	99.197401 
2226.000000	99.190338 
2225.000000	99.191198 
2224.000000	99.196494 
2223.000000	99.203402 
2222.000000	99.212757 
2221.000000	99.223838 
2220.000000	99.230302 
2219.000000	99.227208 
2218.000000	99.220412 
2217.000000	99.222288 
2216.000000	99.236988 
2215.000000	99.255203 
2214.000000	99.264898 
2213.000000	99.262682 
2212.000000	99.253271 
2211.000000	99.243118 
2210.000000	99.237967 
2209.000000	99.242066 
2208.000000	99.254124 
2207.000000	99.265119 
2206.000000	99.264412 
2205.000000	99.249430 
2204.000000	99.228482 
2203.000000	99.214047 
2202.000000	99.213345 
2201.000000	99.223359 
2200.000000	99.233565 
2199.000000	99.235040 
2198.000000	99.228337 
2197.000000	99.221964 
2196.000000	99.222970 
2195.000000	99.230716 
2194.000000	99.240065 
2193.000000	99.247363 
2192.000000	99.251542 
2191.000000	99.252599 
2190.000000	99.252795 
2189.000000	99.257477 
2188.000000	99.269393 
2187.000000	99.281363 
2186.000000	99.279440 
2185.000000	99.257013 
2184.000000	99.223919 
2183.000000	99.198162 
2182.000000	99.189623 
2181.000000	99.194404 
2180.000000	99.203509 
2179.000000	99.212332 
2178.000000	99.220543 
2177.000000	99.227736 
2176.000000	99.233144 
2175.000000	99.237191 
2174.000000	99.239855 
2173.000000	99.239503 
2172.000000	99.237275 
2171.000000	99.240773 
2170.000000	99.257965 
2169.000000	99.286306 
2168.000000	99.311929 
2167.000000	99.321827 
2166.000000	99.314934 
2165.000000	99.301464 
2164.000000	99.294526 
2163.000000	99.301815 
2162.000000	99.319517 
2161.000000	99.330783 
2160.000000	99.315670 
2159.000000	99.269895 
2158.000000	99.212129 
2157.000000	99.167137 
2156.000000	99.144459 
2155.000000	99.138410 
2154.000000	99.142194 
2153.000000	99.154022 
2152.000000	99.172237 
2151.000000	99.191421 
2150.000000	99.205516 
2149.000000	99.213032 
2148.000000	99.217992 
2147.000000	99.225373 
2146.000000	99.235086 
2145.000000	99.240758 
2144.000000	99.236259 
2143.000000	99.223532 
2142.000000	99.211553 
2141.000000	99.206770 
2140.000000	99.206956 
2139.000000	99.206206 
2138.000000	99.203351 
2137.000000	99.202295 
2136.000000	99.205139 
2135.000000	99.208515 
2134.000000	99.207699 
2133.000000	99.202227 
2132.000000	99.195762 
2131.000000	99.191009 
2130.000000	99.186473 
2129.000000	99.179212 
2128.000000	99.170169 
2127.000000	99.164746 
2126.000000	99.166889 
2125.000000	99.174191 
2124.000000	99.181189 
2123.000000	99.186626 
2122.000000	99.194076 
2121.000000	99.205193 
2120.000000	99.215979 
2119.000000	99.221535 
2118.000000	99.221918 
2117.000000	99.221269 
2116.000000	99.223008 
2115.000000	99.227809 
2114.000000	99.234690 
2113.000000	99.241738 
2112.000000	99.246635 
2111.000000	99.248579 
2110.000000	99.249204 
2109.000000	99.249985 
2108.000000	99.249175 
2107.000000	99.243033 
2106.000000	99.230389 
2105.000000	99.215377 
2104.000000	99.205529 
2103.000000	99.206714 
2102.000000	99.218230 
2101.000000	99.231943 
2100.000000	99.238029 
2099.000000	99.233268 
2098.000000	99.223245 
2097.000000	99.216063 
2096.000000	99.215249 
2095.000000	99.219422 
2094.000000	99.226269 
2093.000000	99.234069 
2092.000000	99.240757 
2091.000000	99.244611 
2090.000000	99.246077 
2089.000000	99.246900 
2088.000000	99.246869 
2087.000000	99.242943 
2086.000000	99.232829 
2085.000000	99.219369 
2084.000000	99.210573 
2083.000000	99.213943 
2082.000000	99.229551 
2081.000000	99.248879 
2080.000000	99.262200 
2079.000000	99.267581 
2078.000000	99.271293 
2077.000000	99.279369 
2076.000000	99.290388 
2075.000000	99.296929 
2074.000000	99.292316 
2073.000000	99.275805 
2072.000000	99.253576 
2071.000000	99.235234 
2070.000000	99.227191 
2069.000000	99.227761 
2068.000000	99.229420 
2067.000000	99.226545 
2066.000000	99.219980 
2065.000000	99.214785 
2064.000000	99.215724 
2063.000000	99.224274 
2062.000000	99.236279 
2061.000000	99.242353 
2060.000000	99.236119 
2059.000000	99.224077 
2058.000000	99.221984 
2057.000000	99.237620 
2056.000000	99.261016 
2055.000000	99.276119 
2054.000000	99.278990 
2053.000000	99.279544 
2052.000000	99.287332 
2051.000000	99.300932 
2050.000000	99.311013 
2049.000000	99.309757 
2048.000000	99.297475 
2047.000000	99.282756 
2046.000000	99.276424 
2045.000000	99.282678 
2044.000000	99.295116 
2043.000000	99.303562 
2042.000000	99.305035 
2041.000000	99.305354 
2040.000000	99.309256 
2039.000000	99.312514 
2038.000000	99.306794 
2037.000000	99.290686 
2036.000000	99.272511 
2035.000000	99.260863 
2034.000000	99.255023 
2033.000000	99.248295 
2032.000000	99.240343 
2031.000000	99.240705 
2030.000000	99.256248 
2029.000000	99.278676 
2028.000000	99.290506 
2027.000000	99.283022 
2026.000000	99.262872 
2025.000000	99.241986 
2024.000000	99.227521 
2023.000000	99.222382 
2022.000000	99.227686 
2021.000000	99.239556 
2020.000000	99.248495 
2019.000000	99.247809 
2018.000000	99.240362 
2017.000000	99.233543 
2016.000000	99.230201 
2015.000000	99.228786 
2014.000000	99.229314 
2013.000000	99.233458 
2012.000000	99.240289 
2011.000000	99.246458 
2010.000000	99.250314 
2009.000000	99.253248 
2008.000000	99.257789 
2007.000000	99.266098 
2006.000000	99.278048 
2005.000000	99.288599 
2004.000000	99.290068 
2003.000000	99.279774 
2002.000000	99.263306 
2001.000000	99.247996 
2000.000000	99.235144 
1999.000000	99.221250 
1998.000000	99.204672 
1997.000000	99.188329 
1996.000000	99.177675 
1995.000000	99.178085 
1994.000000	99.191930 
1993.000000	99.214650 
1992.000000	99.234801 
1991.000000	99.242197 
1990.000000	99.236222 
1989.000000	99.224640 
1988.000000	99.217158 
1987.000000	99.221135 
1986.000000	99.238884 
1985.000000	99.265199 
1984.000000	99.289389 
1983.000000	99.302970 
1982.000000	99.304938 
1981.000000	99.299226 
1980.000000	99.290125 
1979.000000	99.281728 
1978.000000	99.277365 
1977.000000	99.275500 
1976.000000	99.269424 
1975.000000	99.255292 
1974.000000	99.237971 
1973.000000	99.225509 
1972.000000	99.220074 
1971.000000	99.218153 
1970.000000	99.218247 
1969.000000	99.224237 
1968.000000	99.240171 
1967.000000	99.263250 
1966.000000	99.283455 
1965.000000	99.290649 
1964.000000	99.282524 
1963.000000	99.265931 
1962.000000	99.250907 
1961.000000	99.243175 
1960.000000	99.241992 
1959.000000	99.244022 
1958.000000	99.246861 
1957.000000	99.248670 
1956.000000	99.247028 
1955.000000	99.239394 
1954.000000	99.224183 
1953.000000	99.202671 
1952.000000	99.181522 
1951.000000	99.171354 
1950.000000	99.178545 
1949.000000	99.197478 
1948.000000	99.214354 
1947.000000	99.220080 
1946.000000	99.215991 
1945.000000	99.206969 
1944.000000	99.194798 
1943.000000	99.181078 
1942.000000	99.170931 
1941.000000	99.167479 
1940.000000	99.166762 
1939.000000	99.163708 
1938.000000	99.159776 
1937.000000	99.160885 
1936.000000	99.169207 
1935.000000	99.180232 
1934.000000	99.187628 
1933.000000	99.188443 
1932.000000	99.184161 
1931.000000	99.179623 
1930.000000	99.181116 
1929.000000	99.191356 
1928.000000	99.205238 
1927.000000	99.213389 
1926.000000	99.210240 
1925.000000	99.197497 
1924.000000	99.181462 
1923.000000	99.169651 
1922.000000	99.168254 
1921.000000	99.178176 
1920.000000	99.193218 
1919.000000	99.204142 
1918.000000	99.205686 
1917.000000	99.200181 
1916.000000	99.193304 
1915.000000	99.188809 
1914.000000	99.188354 
1913.000000	99.192458 
1912.000000	99.199506 
1911.000000	99.205545 
1910.000000	99.206760 
1909.000000	99.202010 
1908.000000	99.193729 
1907.000000	99.187335 
1906.000000	99.188273 
1905.000000	99.196865 
1904.000000	99.205551 
1903.000000	99.204153 
1902.000000	99.189308 
1901.000000	99.167982 
1900.000000	99.152054 
1899.000000	99.149335 
1898.000000	99.158200 
1897.000000	99.169263 
1896.000000	99.173012 
1895.000000	99.168312 
1894.000000	99.163059 
1893.000000	99.164828 
1892.000000	99.172859 
1891.000000	99.180400 
1890.000000	99.182083 
1889.000000	99.178061 
1888.000000	99.172350 
1887.000000	99.169290 
1886.000000	99.171155 
1885.000000	99.176342 
1884.000000	99.179641 
1883.000000	99.176641 
1882.000000	99.168041 
1881.000000	99.158457 
1880.000000	99.152246 
1879.000000	99.150986 
1878.000000	99.153006 
1877.000000	99.154289 
1876.000000	99.152005 
1875.000000	99.148610 
1874.000000	99.150355 
1873.000000	99.159656 
1872.000000	99.170784 
1871.000000	99.175274 
1870.000000	99.170082 
1869.000000	99.159053 
1868.000000	99.146650 
1867.000000	99.134352 
1866.000000	99.123825 
1865.000000	99.117751 
1864.000000	99.117747 
1863.000000	99.124038 
1862.000000	99.136163 
1861.000000	99.151657 
1860.000000	99.165038 
1859.000000	99.171671 
1858.000000	99.172521 
1857.000000	99.172169 
1856.000000	99.173236 
1855.000000	99.175436 
1854.000000	99.178115 
1853.000000	99.180626 
1852.000000	99.181154 
1851.000000	99.178097 
1850.000000	99.172518 
1849.000000	99.167613 
1848.000000	99.165391 
1847.000000	99.165410 
1846.000000	99.166595 
1845.000000	99.167444 
1844.000000	99.165253 
1843.000000	99.159166 
1842.000000	99.152750 
1841.000000	99.150345 
1840.000000	99.153545 
1839.000000	99.160584 
1838.000000	99.167645 
1837.000000	99.171465 
1836.000000	99.171584 
1835.000000	99.170586 
1834.000000	99.171320 
1833.000000	99.174167 
1832.000000	99.177661 
1831.000000	99.180147 
1830.000000	99.180712 
1829.000000	99.179929 
1828.000000	99.179263 
1827.000000	99.178776 
1826.000000	99.177299 
1825.000000	99.175031 
1824.000000	99.173792 
1823.000000	99.174528 
1822.000000	99.176011 
1821.000000	99.175539 
1820.000000	99.171071 
1819.000000	99.163263 
1818.000000	99.155635 
1817.000000	99.151848 
1816.000000	99.151989 
1815.000000	99.153380 
1814.000000	99.154654 
1813.000000	99.157292 
1812.000000	99.163682 
1811.000000	99.173737 
1810.000000	99.185478 
1809.000000	99.197199 
1808.000000	99.205939 
1807.000000	99.207351 
1806.000000	99.200138 
1805.000000	99.188555 
1804.000000	99.178594 
1803.000000	99.172872 
1802.000000	99.170749 
1801.000000	99.171520 
1800.000000	99.173786 
1799.000000	99.174626 
1798.000000	99.172966 
1797.000000	99.170460 
1796.000000	99.169133 
1795.000000	99.170202 
1794.000000	99.173802 
1793.000000	99.178021 
1792.000000	99.180085 
1791.000000	99.179350 
1790.000000	99.178256 
1789.000000	99.179781 
1788.000000	99.184893 
1787.000000	99.192006 
1786.000000	99.198250 
1785.000000	99.201146 
1784.000000	99.199580 
1783.000000	99.195226 
1782.000000	99.191585 
1781.000000	99.190027 
1780.000000	99.187940 
1779.000000	99.182510 
1778.000000	99.175837 
1777.000000	99.172439 
1776.000000	99.174020 
1775.000000	99.179737 
1774.000000	99.188412 
1773.000000	99.197497 
1772.000000	99.202087 
1771.000000	99.200549 
1770.000000	99.196930 
1769.000000	99.194380 
1768.000000	99.193131 
1767.000000	99.191904 
1766.000000	99.190311 
1765.000000	99.189810 
1764.000000	99.191465 
1763.000000	99.194211 
1762.000000	99.195504 
1761.000000	99.194232 
1760.000000	99.192187 
1759.000000	99.191435 
1758.000000	99.192414 
1757.000000	99.193392 
1756.000000	99.191974 
1755.000000	99.188002 
1754.000000	99.182971 
1753.000000	99.177805 
1752.000000	99.173859 
1751.000000	99.174608 
1750.000000	99.181087 
1749.000000	99.188745 
1748.000000	99.192808 
1747.000000	99.192538 
1746.000000	99.189869 
1745.000000	99.186729 
1744.000000	99.184901 
1743.000000	99.185613 
1742.000000	99.188201 
1741.000000	99.190702 
1740.000000	99.191205 
1739.000000	99.189645 
1738.000000	99.188244 
1737.000000	99.188132 
1736.000000	99.187094 
1735.000000	99.180931 
1734.000000	99.169850 
1733.000000	99.162436 
1732.000000	99.164608 
1731.000000	99.173578 
1730.000000	99.184521 
1729.000000	99.193456 
1728.000000	99.198754 
1727.000000	99.201104 
1726.000000	99.201224 
1725.000000	99.199020 
1724.000000	99.195270 
1723.000000	99.192419 
1722.000000	99.192878 
1721.000000	99.197602 
1720.000000	99.206174 
1719.000000	99.216485 
1718.000000	99.223087 
1717.000000	99.221359 
1716.000000	99.212593 
1715.000000	99.200941 
1714.000000	99.191226 
1713.000000	99.186838 
1712.000000	99.186889 
1711.000000	99.188626 
1710.000000	99.190512 
1709.000000	99.191942 
1708.000000	99.192272 
1707.000000	99.191929 
1706.000000	99.193850 
1705.000000	99.199805 
1704.000000	99.204869 
1703.000000	99.200617 
1702.000000	99.184309 
1701.000000	99.166281 
1700.000000	99.163629 
1699.000000	99.175367 
1698.000000	99.189272 
1697.000000	99.199678 
1696.000000	99.204897 
1695.000000	99.204973 
1694.000000	99.203846 
1693.000000	99.203583 
1692.000000	99.202209 
1691.000000	99.197993 
1690.000000	99.192781 
1689.000000	99.190120 
1688.000000	99.190078 
1687.000000	99.189321 
1686.000000	99.186765 
1685.000000	99.185916 
1684.000000	99.187246 
1683.000000	99.187458 
1682.000000	99.187726 
1681.000000	99.187334 
1680.000000	99.186054 
1679.000000	99.184851 
1678.000000	99.184588 
1677.000000	99.184864 
1676.000000	99.184299 
1675.000000	99.182746 
1674.000000	99.181654 
1673.000000	99.181887 
1672.000000	99.182615 
1671.000000	99.183354 
1670.000000	99.183884 
1669.000000	99.183460 
1668.000000	99.182988 
1667.000000	99.183427 
1666.000000	99.182792 
1665.000000	99.179298 
1664.000000	99.174576 
1663.000000	99.172801 
1662.000000	99.176238 
1661.000000	99.182483 
1660.000000	99.187352 
1659.000000	99.189775 
1658.000000	99.191464 
1657.000000	99.192576 
1656.000000	99.189789 
1655.000000	99.182003 
1654.000000	99.176082 
1653.000000	99.175570 
1652.000000	99.175407 
1651.000000	99.177091 
1650.000000	99.174930 
1649.000000	99.168604 
1648.000000	99.161628 
1647.000000	99.156676 
1646.000000	99.153692 
1645.000000	99.154301 
1644.000000	99.158515 
1643.000000	99.163929 
1642.000000	99.168612 
1641.000000	99.171509 
1640.000000	99.172157 
1639.000000	99.170842 
1638.000000	99.168774 
1637.000000	99.167652 
1636.000000	99.166797 
1635.000000	99.164736 
1634.000000	99.165595 
1633.000000	99.170174 
1632.000000	99.174572 
1631.000000	99.176729 
1630.000000	99.177113 
1629.000000	99.176863 
1628.000000	99.176097 
1627.000000	99.174689 
1626.000000	99.173581 
1625.000000	99.174519 
1624.000000	99.178836 
1623.000000	99.185766 
1622.000000	99.192912 
1621.000000	99.198235 
1620.000000	99.200445 
1619.000000	99.200223 
1618.000000	99.200471 
1617.000000	99.202675 
1616.000000	99.203916 
1615.000000	99.202165 
1614.000000	99.197773 
1613.000000	99.191862 
1612.000000	99.186743 
1611.000000	99.184215 
1610.000000	99.183879 
1609.000000	99.183892 
1608.000000	99.183291 
1607.000000	99.182594 
1606.000000	99.182391 
1605.000000	99.182924 
1604.000000	99.184693 
1603.000000	99.187989 
1602.000000	99.191592 
1601.000000	99.193505 
1600.000000	99.193672 
1599.000000	99.194319 
1598.000000	99.196828 
1597.000000	99.200150 
1596.000000	99.202946 
1595.000000	99.205669 
1594.000000	99.209248 
1593.000000	99.212732 
1592.000000	99.214532 
1591.000000	99.215238 
1590.000000	99.217142 
1589.000000	99.221033 
1588.000000	99.225660 
1587.000000	99.229864 
1586.000000	99.232794 
1585.000000	99.232817 
1584.000000	99.228783 
1583.000000	99.222467 
1582.000000	99.217996 
1581.000000	99.217674 
1580.000000	99.220202 
1579.000000	99.223657 
1578.000000	99.227943 
1577.000000	99.232651 
1576.000000	99.234629 
1575.000000	99.234128 
1574.000000	99.235154 
1573.000000	99.236128 
1572.000000	99.233654 
1571.000000	99.228799 
1570.000000	99.226579 
1569.000000	99.228643 
1568.000000	99.231363 
1567.000000	99.231269 
1566.000000	99.228384 
1565.000000	99.225953 
1564.000000	99.226665 
1563.000000	99.229806 
1562.000000	99.232266 
1561.000000	99.231356 
1560.000000	99.229855 
1559.000000	99.229175 
1558.000000	99.223448 
1557.000000	99.224328 
1556.000000	99.231499 
1555.000000	99.237209 
1554.000000	99.238067 
1553.000000	99.235205 
1552.000000	99.231880 
1551.000000	99.230633 
1550.000000	99.232619 
1549.000000	99.236325 
1548.000000	99.238258 
1547.000000	99.236196 
1546.000000	99.230431 
1545.000000	99.223777 
1544.000000	99.218654 
1543.000000	99.214827 
1542.000000	99.213491 
1541.000000	99.217838 
1540.000000	99.221738 
1539.000000	99.219002 
1538.000000	99.218120 
1537.000000	99.221165 
1536.000000	99.223285 
1535.000000	99.222343 
1534.000000	99.221171 
1533.000000	99.222799 
1532.000000	99.225399 
1531.000000	99.224941 
1530.000000	99.221336 
1529.000000	99.218242 
1528.000000	99.217679 
1527.000000	99.218325 
1526.000000	99.218561 
1525.000000	99.218929 
1524.000000	99.220370 
1523.000000	99.223221 
1522.000000	99.227955 
1521.000000	99.232945 
1520.000000	99.233511 
1519.000000	99.228099 
1518.000000	99.220433 
1517.000000	99.215883 
1516.000000	99.215658 
1515.000000	99.216909 
1514.000000	99.217616 
1513.000000	99.217522 
1512.000000	99.216760 
1511.000000	99.215044 
1510.000000	99.211838 
1509.000000	99.208158 
1508.000000	99.209273 
1507.000000	99.218234 
1506.000000	99.223939 
1505.000000	99.223613 
1504.000000	99.222639 
1503.000000	99.221707 
1502.000000	99.221512 
1501.000000	99.222946 
1500.000000	99.225918 
1499.000000	99.229722 
1498.000000	99.233595 
1497.000000	99.238442 
1496.000000	99.244294 
1495.000000	99.247022 
1494.000000	99.243107 
1493.000000	99.233421 
1492.000000	99.220935 
1491.000000	99.209091 
1490.000000	99.200785 
1489.000000	99.196819 
1488.000000	99.194906 
1487.000000	99.193045 
1486.000000	99.193059 
1485.000000	99.195978 
1484.000000	99.199380 
1483.000000	99.200616 
1482.000000	99.198749 
1481.000000	99.195177 
1480.000000	99.191680 
1479.000000	99.188527 
1478.000000	99.185033 
1477.000000	99.181082 
1476.000000	99.177123 
1475.000000	99.172016 
1474.000000	99.165925 
1473.000000	99.163008 
1472.000000	99.165883 
1471.000000	99.170322 
1470.000000	99.172289 
1469.000000	99.172451 
1468.000000	99.173057 
1467.000000	99.174464 
1466.000000	99.175818 
1465.000000	99.176453 
1464.000000	99.176383 
1463.000000	99.176443 
1462.000000	99.177134 
1461.000000	99.178799 
1460.000000	99.181329 
1459.000000	99.183718 
1458.000000	99.182858 
1457.000000	99.176140 
1456.000000	99.166616 
1455.000000	99.158758 
1454.000000	99.153618 
1453.000000	99.151752 
1452.000000	99.152454 
1451.000000	99.153966 
1450.000000	99.155858 
1449.000000	99.159144 
1448.000000	99.163053 
1447.000000	99.164659 
1446.000000	99.163875 
1445.000000	99.163701 
1444.000000	99.165392 
1443.000000	99.166597 
1442.000000	99.164993 
1441.000000	99.161546 
1440.000000	99.159353 
1439.000000	99.160258 
1438.000000	99.162511 
1437.000000	99.162957 
1436.000000	99.160407 
1435.000000	99.155759 
1434.000000	99.151230 
1433.000000	99.149671 
1432.000000	99.152147 
1431.000000	99.157488 
1430.000000	99.162642 
1429.000000	99.165249 
1428.000000	99.165420 
1427.000000	99.164172 
1426.000000	99.161974 
1425.000000	99.158409 
1424.000000	99.154446 
1423.000000	99.151935 
1422.000000	99.150118 
1421.000000	99.146713 
1420.000000	99.140984 
1419.000000	99.134609 
1418.000000	99.127138 
1417.000000	99.117251 
1416.000000	99.106839 
1415.000000	99.097526 
1414.000000	99.088136 
1413.000000	99.076958 
1412.000000	99.065514 
1411.000000	99.057299 
1410.000000	99.052504 
1409.000000	99.049097 
1408.000000	99.047250 
1407.000000	99.048058 
1406.000000	99.050626 
1405.000000	99.053814 
1404.000000	99.059393 
1403.000000	99.068043 
1402.000000	99.075599 
1401.000000	99.078436 
1400.000000	99.078607 
1399.000000	99.081451 
1398.000000	99.085732 
1397.000000	99.082789 
1396.000000	99.067810 
1395.000000	99.048144 
1394.000000	99.038060 
1393.000000	99.044288 
1392.000000	99.063542 
1391.000000	99.088426 
1390.000000	99.111454 
1389.000000	99.126581 
1388.000000	99.130738 
1387.000000	99.125575 
1386.000000	99.116134 
1385.000000	99.107682 
1384.000000	99.103156 
1383.000000	99.102451 
1382.000000	99.103538 
1381.000000	99.105429 
1380.000000	99.108411 
1379.000000	99.112228 
1378.000000	99.115262 
1377.000000	99.116001 
1376.000000	99.115386 
1375.000000	99.117029 
1374.000000	99.123818 
1373.000000	99.133813 
1372.000000	99.142751 
1371.000000	99.150019 
1370.000000	99.159015 
1369.000000	99.170955 
1368.000000	99.183355 
1367.000000	99.193257 
1366.000000	99.199854 
1365.000000	99.203841 
1364.000000	99.205379 
1363.000000	99.205004 
1362.000000	99.205085 
1361.000000	99.207430 
1360.000000	99.211223 
1359.000000	99.215276 
1358.000000	99.220120 
1357.000000	99.226380 
1356.000000	99.232735 
1355.000000	99.236950 
1354.000000	99.238508 
1353.000000	99.238601 
1352.000000	99.237179 
1351.000000	99.232979 
1350.000000	99.227701 
1349.000000	99.224410 
1348.000000	99.224679 
1347.000000	99.227835 
1346.000000	99.232782 
1345.000000	99.238224 
1344.000000	99.242375 
1343.000000	99.244210 
1342.000000	99.244698 
1341.000000	99.245058 
1340.000000	99.244720 
1339.000000	99.242765 
1338.000000	99.240241 
1337.000000	99.239313 
1336.000000	99.240585 
1335.000000	99.242748 
1334.000000	99.244903 
1333.000000	99.247532 
1332.000000	99.250694 
1331.000000	99.253121 
1330.000000	99.253694 
1329.000000	99.252333 
1328.000000	99.249671 
1327.000000	99.246693 
1326.000000	99.244639 
1325.000000	99.243449 
1324.000000	99.242593 
1323.000000	99.242326 
1322.000000	99.243008 
1321.000000	99.243399 
1320.000000	99.241520 
1319.000000	99.237557 
1318.000000	99.234246 
1317.000000	99.233605 
1316.000000	99.234380 
1315.000000	99.233860 
1314.000000	99.231206 
1313.000000	99.228258 
1312.000000	99.227255 
1311.000000	99.228691 
1310.000000	99.231459 
1309.000000	99.234004 
1308.000000	99.235015 
1307.000000	99.233582 
1306.000000	99.229929 
1305.000000	99.225394 
1304.000000	99.222430 
1303.000000	99.223143 
1302.000000	99.227554 
1301.000000	99.233146 
1300.000000	99.236677 
1299.000000	99.236497 
1298.000000	99.233214 
1297.000000	99.228585 
1296.000000	99.224171 
1295.000000	99.221322 
1294.000000	99.221128 
1293.000000	99.223425 
1292.000000	99.225909 
1291.000000	99.225176 
1290.000000	99.219692 
1289.000000	99.211697 
1288.000000	99.205270 
1287.000000	99.202226 
1286.000000	99.200507 
1285.000000	99.197235 
1284.000000	99.192535 
1283.000000	99.188977 
1282.000000	99.187787 
1281.000000	99.187253 
1280.000000	99.185077 
1279.000000	99.180902 
1278.000000	99.175615 
1277.000000	99.169581 
1276.000000	99.162627 
1275.000000	99.155441 
1274.000000	99.149535 
1273.000000	99.145849 
1272.000000	99.144032 
1271.000000	99.142760 
1270.000000	99.140195 
1269.000000	99.134949 
1268.000000	99.127579 
1267.000000	99.120410 
1266.000000	99.114655 
1265.000000	99.108774 
1264.000000	99.100879 
1263.000000	99.091639 
1262.000000	99.083237 
1261.000000	99.076276 
1260.000000	99.069627 
1259.000000	99.062995 
1258.000000	99.057344 
1257.000000	99.053112 
1256.000000	99.049746 
1255.000000	99.047092 
1254.000000	99.045443 
1253.000000	99.044029 
1252.000000	99.041129 
1251.000000	99.036541 
1250.000000	99.032483 
1249.000000	99.031276 
1248.000000	99.033193 
1247.000000	99.036725 
1246.000000	99.039166 
1245.000000	99.036763 
1244.000000	99.026764 
1243.000000	99.011327 
1242.000000	98.998125 
1241.000000	98.994549 
1240.000000	99.000883 
1239.000000	99.010025 
1238.000000	99.013974 
1237.000000	99.009999 
1236.000000	99.000702 
1235.000000	98.989661 
1234.000000	98.978213 
1233.000000	98.966127 
1232.000000	98.953975 
1231.000000	98.943290 
1230.000000	98.934339 
1229.000000	98.925246 
1228.000000	98.914523 
1227.000000	98.903691 
1226.000000	98.895836 
1225.000000	98.891394 
1224.000000	98.886705 
1223.000000	98.877289 
1222.000000	98.861876 
1221.000000	98.842896 
1220.000000	98.824009 
1219.000000	98.807713 
1218.000000	98.794191 
1217.000000	98.781356 
1216.000000	98.766211 
1215.000000	98.747010 
1214.000000	98.724549 
1213.000000	98.701283 
1212.000000	98.679011 
1211.000000	98.657064 
1210.000000	98.632962 
1209.000000	98.605317 
1208.000000	98.575957 
1207.000000	98.548422 
1206.000000	98.524275 
1205.000000	98.501874 
1204.000000	98.478977 
1203.000000	98.455082 
1202.000000	98.430411 
1201.000000	98.404162 
1200.000000	98.375599 
1199.000000	98.346091 
1198.000000	98.318133 
1197.000000	98.292608 
1196.000000	98.268376 
1195.000000	98.244055 
1194.000000	98.218781 
1193.000000	98.191548 
1192.000000	98.161646 
1191.000000	98.130116 
1190.000000	98.099510 
1189.000000	98.071866 
1188.000000	98.047496 
1187.000000	98.025254 
1186.000000	98.002845 
1185.000000	97.977291 
1184.000000	97.946521 
1183.000000	97.910894 
1182.000000	97.872764 
1181.000000	97.834718 
1180.000000	97.798563 
1179.000000	97.764944 
1178.000000	97.732488 
1177.000000	97.697994 
1176.000000	97.659116 
1175.000000	97.616836 
1174.000000	97.574237 
1173.000000	97.533125 
1172.000000	97.493344 
1171.000000	97.454953 
1170.000000	97.419066 
1169.000000	97.386208 
1168.000000	97.355328 
1167.000000	97.325203 
1166.000000	97.296347 
1165.000000	97.271626 
1164.000000	97.255546 
1163.000000	97.252338 
1162.000000	97.263268 
1161.000000	97.285074 
1160.000000	97.310873 
1159.000000	97.332696 
1158.000000	97.344024 
1157.000000	97.341543 
1156.000000	97.325565 
1155.000000	97.298801 
1154.000000	97.264346 
1153.000000	97.224748 
1152.000000	97.182731 
1151.000000	97.141664 
1150.000000	97.104278 
1149.000000	97.071115 
1148.000000	97.040576 
1147.000000	97.009997 
1146.000000	96.976687 
1145.000000	96.939284 
1144.000000	96.899044 
1143.000000	96.859297 
1142.000000	96.822837 
1141.000000	96.790018 
1140.000000	96.759253 
1139.000000	96.728279 
1138.000000	96.694927 
1137.000000	96.658267 
1136.000000	96.619790 
1135.000000	96.582377 
1134.000000	96.547387 
1133.000000	96.513480 
1132.000000	96.478446 
1131.000000	96.441069 
1130.000000	96.401204 
1129.000000	96.359516 
1128.000000	96.317384 
1127.000000	96.275663 
1126.000000	96.233519 
1125.000000	96.190019 
1124.000000	96.146423 
1123.000000	96.104638 
1122.000000	96.063559 
1121.000000	96.019957 
1120.000000	95.973443 
1119.000000	95.927438 
1118.000000	95.884211 
1117.000000	95.842017 
1116.000000	95.798567 
1115.000000	95.754356 
1114.000000	95.710748 
1113.000000	95.667467 
1112.000000	95.624256 
1111.000000	95.583006 
1110.000000	95.545893 
1109.000000	95.512594 
1108.000000	95.480970 
1107.000000	95.448964 
1106.000000	95.415118 
1105.000000	95.378820 
1104.000000	95.340878 
1103.000000	95.302682 
1102.000000	95.264775 
1101.000000	95.227640 
1100.000000	95.193765 
1099.000000	95.164658 
1098.000000	95.138189 
1097.000000	95.110793 
1096.000000	95.082434 
1095.000000	95.055567 
1094.000000	95.029583 
1093.000000	95.000837 
1092.000000	94.968514 
1091.000000	94.935587 
1090.000000	94.902823 
1089.000000	94.866745 
1088.000000	94.825710 
1087.000000	94.783869 
1086.000000	94.746706 
1085.000000	94.715894 
1084.000000	94.690163 
1083.000000	94.667443 
1082.000000	94.644267 
1081.000000	94.616952 
1080.000000	94.585777 
1079.000000	94.555100 
1078.000000	94.527739 
1077.000000	94.502328 
1076.000000	94.477312 
1075.000000	94.453519 
1074.000000	94.430954 
1073.000000	94.406442 
1072.000000	94.375616 
1071.000000	94.333527 
1070.000000	94.273303 
1069.000000	94.190656 
1068.000000	94.092995 
1067.000000	93.999048 
1066.000000	93.924444 
1065.000000	93.869525 
1064.000000	93.823347 
1063.000000	93.775045 
1062.000000	93.718238 
1061.000000	93.649886 
1060.000000	93.571480 
1059.000000	93.490547 
1058.000000	93.416541 
1057.000000	93.354227 
1056.000000	93.301398 
1055.000000	93.250833 
1054.000000	93.193843 
1053.000000	93.125713 
1052.000000	93.049951 
1051.000000	92.974514 
1050.000000	92.902472 
1049.000000	92.830187 
1048.000000	92.755470 
1047.000000	92.681674 
1046.000000	92.611732 
1045.000000	92.543692 
1044.000000	92.474792 
1043.000000	92.405835 
1042.000000	92.339199 
1041.000000	92.275655 
1040.000000	92.215033 
1039.000000	92.157456 
1038.000000	92.102971 
1037.000000	92.052913 
1036.000000	92.011841 
1035.000000	91.984188 
1034.000000	91.968114 
1033.000000	91.955974 
1032.000000	91.940852 
1031.000000	91.919660 
1030.000000	91.892118 
1029.000000	91.862498 
1028.000000	91.841341 
1027.000000	91.838297 
1026.000000	91.851477 
1025.000000	91.868785 
1024.000000	91.880121 
1023.000000	91.883301 
1022.000000	91.879266 
1021.000000	91.869013 
1020.000000	91.856484 
1019.000000	91.847500 
1018.000000	91.843009 
1017.000000	91.838298 
1016.000000	91.830560 
1015.000000	91.822360 
1014.000000	91.816388 
1013.000000	91.811915 
1012.000000	91.807877 
1011.000000	91.804566 
1010.000000	91.801085 
1009.000000	91.796124 
1008.000000	91.792393 
1007.000000	91.795315 
1006.000000	91.806066 
1005.000000	91.820569 
1004.000000	91.836109 
1003.000000	91.853933 
1002.000000	91.874744 
1001.000000	91.897041 
1000.000000	91.920708 
999.000000	 91.946781 
998.000000	 91.972813 
997.000000	 91.994301 
996.000000	 92.012371 
995.000000	 92.034622 
994.000000	 92.066195 
993.000000	 92.104191 
992.000000	 92.142235 
991.000000	 92.176309 
990.000000	 92.205445 
989.000000	 92.231573 
988.000000	 92.259974 
987.000000	 92.295564 
986.000000	 92.337731 
985.000000	 92.382769 
984.000000	 92.431117 
983.000000	 92.486955 
982.000000	 92.550573 
981.000000	 92.617034 
980.000000	 92.683304 
979.000000	 92.751167 
978.000000	 92.822251 
977.000000	 92.895896 
976.000000	 92.973196 
975.000000	 93.057263 
974.000000	 93.147398 
973.000000	 93.238110 
972.000000	 93.325946 
971.000000	 93.412563 
970.000000	 93.499311 
969.000000	 93.583768 
968.000000	 93.664200 
967.000000	 93.743059 
966.000000	 93.823003 
965.000000	 93.902683 
964.000000	 93.979136 
963.000000	 94.051781 
962.000000	 94.121951 
961.000000	 94.190800 
960.000000	 94.259165 
959.000000	 94.326926 
958.000000	 94.391218 
957.000000	 94.448322 
956.000000	 94.499204 
955.000000	 94.550392 
954.000000	 94.606904 
953.000000	 94.666163 
952.000000	 94.720964 
951.000000	 94.766818 
950.000000	 94.804606 
949.000000	 94.837749 
948.000000	 94.869297 
947.000000	 94.901331 
946.000000	 94.934952 
945.000000	 94.969803 
944.000000	 95.003696 
943.000000	 95.032985 
942.000000	 95.054483 
941.000000	 95.068483 
940.000000	 95.079733 
939.000000	 95.094117 
938.000000	 95.114085 
937.000000	 95.137788 
936.000000	 95.161786 
935.000000	 95.183260 
934.000000	 95.200605 
933.000000	 95.214151 
932.000000	 95.226406 
931.000000	 95.240330 
930.000000	 95.257656 
929.000000	 95.279524 
928.000000	 95.306785 
927.000000	 95.337477 
926.000000	 95.365777 
925.000000	 95.386550 
924.000000	 95.400081 
923.000000	 95.409802 
922.000000	 95.416954 
921.000000	 95.420948 
920.000000	 95.423797 
919.000000	 95.429625 
918.000000	 95.439194 
917.000000	 95.448595 
916.000000	 95.454379 
915.000000	 95.457335 
914.000000	 95.460979 
913.000000	 95.469183 
912.000000	 95.485345 
911.000000	 95.510316 
910.000000	 95.540386 
909.000000	 95.570577 
908.000000	 95.600727 
907.000000	 95.635311 
906.000000	 95.676935 
905.000000	 95.723553 
904.000000	 95.773028 
903.000000	 95.826782 
902.000000	 95.887027 
901.000000	 95.952795 
900.000000	 96.020382 
899.000000	 96.086112 
898.000000	 96.147622 
897.000000	 96.203941 
896.000000	 96.255232 
895.000000	 96.302289 
894.000000	 96.346741 
893.000000	 96.391932 
892.000000	 96.441423 
891.000000	 96.494571 
890.000000	 96.545467 
889.000000	 96.589423 
888.000000	 96.629268 
887.000000	 96.671404 
886.000000	 96.715951 
885.000000	 96.755017 
884.000000	 96.782098 
883.000000	 96.799981 
882.000000	 96.817504 
881.000000	 96.840898 
880.000000	 96.870621 
879.000000	 96.904838 
878.000000	 96.942625 
877.000000	 96.982830 
876.000000	 97.021322 
875.000000	 97.051673 
874.000000	 97.070713 
873.000000	 97.083663 
872.000000	 97.101460 
871.000000	 97.131121 
870.000000	 97.169273 
869.000000	 97.206397 
868.000000	 97.236476 
867.000000	 97.261207 
866.000000	 97.286311 
865.000000	 97.316033 
864.000000	 97.350920 
863.000000	 97.388689 
862.000000	 97.426138 
861.000000	 97.460593 
860.000000	 97.490161 
859.000000	 97.514050 
858.000000	 97.534603 
857.000000	 97.558200 
856.000000	 97.590266 
855.000000	 97.627699 
854.000000	 97.659488 
853.000000	 97.677861 
852.000000	 97.686548 
851.000000	 97.695017 
850.000000	 97.706760 
849.000000	 97.717423 
848.000000	 97.723375 
847.000000	 97.727000 
846.000000	 97.732367 
845.000000	 97.739723 
844.000000	 97.746664 
843.000000	 97.752077 
842.000000	 97.755987 
841.000000	 97.756663 
840.000000	 97.750942 
839.000000	 97.738220 
838.000000	 97.722311 
837.000000	 97.707555 
836.000000	 97.693675 
835.000000	 97.676960 
834.000000	 97.657412 
833.000000	 97.641524 
832.000000	 97.633966 
831.000000	 97.628266 
830.000000	 97.612653 
829.000000	 97.587730 
828.000000	 97.571221 
827.000000	 97.578448 
826.000000	 97.602492 
825.000000	 97.622782 
824.000000	 97.631067 
823.000000	 97.637846 
822.000000	 97.652970 
821.000000	 97.671743 
820.000000	 97.683513 
819.000000	 97.684464 
818.000000	 97.677693 
817.000000	 97.666593 
816.000000	 97.651862 
815.000000	 97.631554 
814.000000	 97.601237 
813.000000	 97.556465 
812.000000	 97.496937 
811.000000	 97.425710 
810.000000	 97.342625 
809.000000	 97.241392 
808.000000	 97.115521 
807.000000	 96.964797 
806.000000	 96.794044 
805.000000	 96.608756 
804.000000	 96.415976 
803.000000	 96.227777 
802.000000	 96.059293 
801.000000	 95.922503 
800.000000	 95.822601 
799.000000	 95.758356 
798.000000	 95.725143 
797.000000	 95.720057 
796.000000	 95.743597 
795.000000	 95.793199 
794.000000	 95.857308 
793.000000	 95.921470 
792.000000	 95.978625 
791.000000	 96.027266 
790.000000	 96.061679 
789.000000	 96.072911 
788.000000	 96.060393 
787.000000	 96.034155 
786.000000	 96.002239 
785.000000	 95.962236 
784.000000	 95.909017 
783.000000	 95.845148 
782.000000	 95.779537 
781.000000	 95.720646 
780.000000	 95.674643 
779.000000	 95.645419 
778.000000	 95.632863 
777.000000	 95.635764 
776.000000	 95.658588 
775.000000	 95.708663 
774.000000	 95.782872 
773.000000	 95.864045 
772.000000	 95.935723 
771.000000	 95.994992 
770.000000	 96.046094 
769.000000	 96.087828 
768.000000	 96.115290 
767.000000	 96.130875 
766.000000	 96.144781 
765.000000	 96.163702 
764.000000	 96.184874 
763.000000	 96.202342 
762.000000	 96.214733 
761.000000	 96.225487 
760.000000	 96.238696 
759.000000	 96.256512 
758.000000	 96.278643 
757.000000	 96.302708 
756.000000	 96.325389 
755.000000	 96.344244 
754.000000	 96.359416 
753.000000	 96.374322 
752.000000	 96.393967 
751.000000	 96.420402 
750.000000	 96.449585 
749.000000	 96.474235 
748.000000	 96.490500 
747.000000	 96.501446 
746.000000	 96.514580 
745.000000	 96.536343 
744.000000	 96.566858 
743.000000	 96.598234 
742.000000	 96.620874 
741.000000	 96.634698 
740.000000	 96.651620 
739.000000	 96.683225 
738.000000	 96.728012 
737.000000	 96.774407 
736.000000	 96.813281 
735.000000	 96.842576 
734.000000	 96.863563 
733.000000	 96.880203 
732.000000	 96.900162 
731.000000	 96.927417 
730.000000	 96.954004 
729.000000	 96.968013 
728.000000	 96.968261 
727.000000	 96.963672 
726.000000	 96.960855 
725.000000	 96.960414 
724.000000	 96.965499 
723.000000	 96.983191 
722.000000	 97.013146 
721.000000	 97.043166 
720.000000	 97.061343 
719.000000	 97.067556 
718.000000	 97.069250 
717.000000	 97.071376 
716.000000	 97.075612 
715.000000	 97.083392 
714.000000	 97.093604 
713.000000	 97.101684 
712.000000	 97.105323 
711.000000	 97.108021 
710.000000	 97.113407 
709.000000	 97.120018 
708.000000	 97.123912 
707.000000	 97.121922 
706.000000	 97.112663 
705.000000	 97.096949 
704.000000	 97.077317 
703.000000	 97.054488 
702.000000	 97.021289 
701.000000	 96.965943 
700.000000	 96.885243 
699.000000	 96.786906 
698.000000	 96.680039 
697.000000	 96.569679 
696.000000	 96.463278 
695.000000	 96.377466 
694.000000	 96.329034 
693.000000	 96.324984 
692.000000	 96.363633 
691.000000	 96.432870 
690.000000	 96.509432 
689.000000	 96.570459 
688.000000	 96.612091 
687.000000	 96.649328 
686.000000	 96.689454 
685.000000	 96.721684 
684.000000	 96.739322 
683.000000	 96.751986 
682.000000	 96.769505 
681.000000	 96.790372 
680.000000	 96.814510 
679.000000	 96.847871 
678.000000	 96.882817 
677.000000	 96.899110 
676.000000	 96.892818 
675.000000	 96.881331 
674.000000	 96.878911 
673.000000	 96.878148 
672.000000	 96.858506 
671.000000	 96.807029 
670.000000	 96.725767 
669.000000	 96.643828 
668.000000	 96.629014 
667.000000	 96.699440 
666.000000	 96.794526 
665.000000	 96.885271 
664.000000	 96.953423 
663.000000	 96.983117 
662.000000	 96.980410 
661.000000	 96.974887 
660.000000	 96.987036 
659.000000	 97.003893 
658.000000	 96.995677 
657.000000	 96.953714 
656.000000	 96.896929 
655.000000	 96.847183 
654.000000	 96.818019 
653.000000	 96.808403 
652.000000	 96.797719 
651.000000	 96.768725 
650.000000	 96.737199 

