4000.000000	99.509692 
3999.000000	99.509484 
3998.000000	99.509428 
3997.000000	99.509196 
3996.000000	99.508447 
3995.000000	99.507155 
3994.000000	99.505775 
3993.000000	99.504945 
3992.000000	99.504945 
3991.000000	99.505489 
3990.000000	99.505979 
3989.000000	99.506105 
3988.000000	99.506075 
3987.000000	99.506288 
3986.000000	99.506866 
3985.000000	99.507497 
3984.000000	99.507689 
3983.000000	99.507128 
3982.000000	99.505851 
3981.000000	99.504201 
3980.000000	99.502596 
3979.000000	99.501311 
3978.000000	99.500508 
3977.000000	99.500335 
3976.000000	99.500824 
3975.000000	99.501757 
3974.000000	99.502741 
3973.000000	99.503418 
3972.000000	99.503627 
3971.000000	99.503382 
3970.000000	99.502791 
3969.000000	99.502019 
3968.000000	99.501261 
3967.000000	99.500620 
3966.000000	99.500095 
3965.000000	99.499687 
3964.000000	99.499413 
3963.000000	99.499181 
3962.000000	99.498741 
3961.000000	99.497869 
3960.000000	99.496591 
3959.000000	99.495236 
3958.000000	99.494243 
3957.000000	99.493820 
3956.000000	99.493852 
3955.000000	99.494021 
3954.000000	99.494039 
3953.000000	99.493794 
3952.000000	99.493313 
3951.000000	99.492735 
3950.000000	99.492266 
3949.000000	99.492087 
3948.000000	99.492227 
3947.000000	99.492497 
3946.000000	99.492663 
3945.000000	99.492664 
3944.000000	99.492582 
3943.000000	99.492419 
3942.000000	99.492093 
3941.000000	99.491635 
3940.000000	99.491173 
3939.000000	99.490671 
3938.000000	99.489914 
3937.000000	99.488815 
3936.000000	99.487730 
3935.000000	99.487284 
3934.000000	99.487876 
3933.000000	99.489347 
3932.000000	99.490976 
3931.000000	99.491888 
3930.000000	99.491609 
3929.000000	99.490360 
3928.000000	99.488939 
3927.000000	99.488149 
3926.000000	99.488227 
3925.000000	99.488678 
3924.000000	99.488680 
3923.000000	99.487890 
3922.000000	99.486720 
3921.000000	99.485926 
3920.000000	99.486013 
3919.000000	99.486971 
3918.000000	99.488404 
3917.000000	99.489790 
3916.000000	99.490739 
3915.000000	99.491216 
3914.000000	99.491590 
3913.000000	99.492319 
3912.000000	99.493461 
3911.000000	99.494609 
3910.000000	99.495351 
3909.000000	99.495666 
3908.000000	99.495820 
3907.000000	99.495765 
3906.000000	99.494857 
3905.000000	99.492305 
3904.000000	99.488005 
3903.000000	99.483200 
3902.000000	99.479905 
3901.000000	99.479313 
3900.000000	99.481122 
3899.000000	99.483881 
3898.000000	99.486095 
3897.000000	99.487172 
3896.000000	99.487201 
3895.000000	99.486470 
3894.000000	99.485343 
3893.000000	99.484194 
3892.000000	99.483220 
3891.000000	99.482318 
3890.000000	99.481396 
3889.000000	99.480541 
3888.000000	99.479993 
3887.000000	99.480021 
3886.000000	99.480499 
3885.000000	99.480868 
3884.000000	99.480807 
3883.000000	99.480637 
3882.000000	99.480968 
3881.000000	99.481995 
3880.000000	99.483257 
3879.000000	99.484195 
3878.000000	99.484841 
3877.000000	99.485632 
3876.000000	99.486808 
3875.000000	99.487885 
3874.000000	99.487928 
3873.000000	99.486594 
3872.000000	99.484673 
3871.000000	99.483388 
3870.000000	99.483170 
3869.000000	99.483578 
3868.000000	99.484151 
3867.000000	99.484846 
3866.000000	99.485845 
3865.000000	99.487077 
3864.000000	99.487975 
3863.000000	99.488050 
3862.000000	99.487458 
3861.000000	99.486845 
3860.000000	99.486702 
3859.000000	99.486937 
3858.000000	99.487000 
3857.000000	99.486527 
3856.000000	99.485911 
3855.000000	99.486176 
3854.000000	99.487489 
3853.000000	99.488679 
3852.000000	99.489324 
3851.000000	99.489999 
3850.000000	99.490857 
3849.000000	99.491745 
3848.000000	99.492553 
3847.000000	99.493237 
3846.000000	99.493777 
3845.000000	99.494187 
3844.000000	99.494568 
3843.000000	99.495117 
3842.000000	99.495920 
3841.000000	99.496807 
3840.000000	99.497475 
3839.000000	99.497710 
3838.000000	99.497535 
3837.000000	99.497200 
3836.000000	99.496952 
3835.000000	99.496911 
3834.000000	99.497158 
3833.000000	99.497783 
3832.000000	99.498762 
3831.000000	99.499829 
3830.000000	99.500614 
3829.000000	99.500913 
3828.000000	99.500746 
3827.000000	99.500289 
3826.000000	99.499766 
3825.000000	99.499359 
3824.000000	99.499219 
3823.000000	99.499458 
3822.000000	99.499959 
3821.000000	99.500308 
3820.000000	99.500309 
3819.000000	99.500193 
3818.000000	99.500192 
3817.000000	99.500302 
3816.000000	99.500316 
3815.000000	99.500088 
3814.000000	99.499723 
3813.000000	99.499445 
3812.000000	99.499392 
3811.000000	99.499555 
3810.000000	99.499816 
3809.000000	99.500034 
3808.000000	99.500120 
3807.000000	99.500042 
3806.000000	99.499818 
3805.000000	99.499511 
3804.000000	99.499201 
3803.000000	99.498967 
3802.000000	99.498805 
3801.000000	99.498617 
3800.000000	99.498357 
3799.000000	99.498063 
3798.000000	99.497774 
3797.000000	99.497505 
3796.000000	99.497241 
3795.000000	99.496965 
3794.000000	99.496668 
3793.000000	99.496361 
3792.000000	99.496069 
3791.000000	99.495821 
3790.000000	99.495625 
3789.000000	99.495458 
3788.000000	99.495277 
3787.000000	99.495045 
3786.000000	99.494751 
3785.000000	99.494412 
3784.000000	99.494074 
3783.000000	99.493771 
3782.000000	99.493517 
3781.000000	99.493332 
3780.000000	99.493240 
3779.000000	99.493199 
3778.000000	99.493108 
3777.000000	99.492861 
3776.000000	99.492412 
3775.000000	99.491792 
3774.000000	99.491107 
3773.000000	99.490508 
3772.000000	99.490140 
3771.000000	99.490005 
3770.000000	99.489825 
3769.000000	99.489277 
3768.000000	99.488454 
3767.000000	99.487777 
3766.000000	99.487485 
3765.000000	99.487392 
3764.000000	99.487089 
3763.000000	99.486398 
3762.000000	99.485599 
3761.000000	99.485166 
3760.000000	99.485271 
3759.000000	99.485641 
3758.000000	99.485992 
3757.000000	99.486299 
3756.000000	99.486512 
3755.000000	99.486497 
3754.000000	99.486308 
3753.000000	99.486221 
3752.000000	99.486186 
3751.000000	99.485509 
3750.000000	99.484037 
3749.000000	99.482737 
3748.000000	99.482185 
3747.000000	99.481996 
3746.000000	99.481751 
3745.000000	99.481183 
3744.000000	99.480168 
3743.000000	99.479276 
3742.000000	99.478830 
3741.000000	99.478142 
3740.000000	99.476526 
3739.000000	99.474082 
3738.000000	99.471831 
3737.000000	99.470879 
3736.000000	99.471040 
3735.000000	99.470826 
3734.000000	99.469283 
3733.000000	99.467292 
3732.000000	99.466330 
3731.000000	99.466829 
3730.000000	99.468150 
3729.000000	99.469455 
3728.000000	99.470411 
3727.000000	99.470939 
3726.000000	99.470782 
3725.000000	99.469830 
3724.000000	99.468518 
3723.000000	99.467507 
3722.000000	99.467007 
3721.000000	99.466761 
3720.000000	99.466425 
3719.000000	99.465790 
3718.000000	99.464893 
3717.000000	99.463848 
3716.000000	99.462629 
3715.000000	99.461174 
3714.000000	99.459718 
3713.000000	99.458834 
3712.000000	99.458729 
3711.000000	99.458901 
3710.000000	99.458718 
3709.000000	99.457879 
3708.000000	99.456354 
3707.000000	99.454346 
3706.000000	99.452280 
3705.000000	99.450724 
3704.000000	99.450087 
3703.000000	99.450181 
3702.000000	99.450071 
3701.000000	99.448795 
3700.000000	99.446278 
3699.000000	99.443217 
3698.000000	99.440438 
3697.000000	99.438475 
3696.000000	99.437472 
3695.000000	99.437322 
3694.000000	99.437826 
3693.000000	99.438605 
3692.000000	99.438847 
3691.000000	99.437564 
3690.000000	99.434339 
3689.000000	99.430050 
3688.000000	99.426447 
3687.000000	99.424444 
3686.000000	99.423542 
3685.000000	99.423088 
3684.000000	99.423043 
3683.000000	99.423543 
3682.000000	99.424224 
3681.000000	99.424107 
3680.000000	99.422128 
3679.000000	99.417763 
3678.000000	99.411795 
3677.000000	99.406716 
3676.000000	99.404844 
3675.000000	99.405684 
3674.000000	99.407029 
3673.000000	99.407516 
3672.000000	99.407232 
3671.000000	99.407426 
3670.000000	99.408563 
3669.000000	99.409940 
3668.000000	99.411566 
3667.000000	99.414061 
3666.000000	99.417325 
3665.000000	99.420375 
3664.000000	99.422015 
3663.000000	99.421808 
3662.000000	99.420361 
3661.000000	99.418575 
3660.000000	99.416958 
3659.000000	99.415875 
3658.000000	99.416002 
3657.000000	99.417654 
3656.000000	99.419868 
3655.000000	99.421225 
3654.000000	99.421217 
3653.000000	99.420326 
3652.000000	99.419286 
3651.000000	99.418312 
3650.000000	99.416852 
3649.000000	99.415025 
3648.000000	99.414286 
3647.000000	99.415335 
3646.000000	99.417370 
3645.000000	99.419709 
3644.000000	99.422578 
3643.000000	99.426414 
3642.000000	99.431277 
3641.000000	99.436595 
3640.000000	99.441455 
3639.000000	99.444924 
3638.000000	99.446409 
3637.000000	99.446144 
3636.000000	99.445042 
3635.000000	99.443828 
3634.000000	99.442328 
3633.000000	99.440097 
3632.000000	99.437587 
3631.000000	99.436196 
3630.000000	99.436761 
3629.000000	99.437831 
3628.000000	99.437515 
3627.000000	99.436587 
3626.000000	99.436763 
3625.000000	99.438315 
3624.000000	99.440383 
3623.000000	99.442132 
3622.000000	99.443520 
3621.000000	99.445172 
3620.000000	99.447162 
3619.000000	99.448371 
3618.000000	99.447949 
3617.000000	99.446677 
3616.000000	99.446127 
3615.000000	99.447107 
3614.000000	99.448821 
3613.000000	99.449509 
3612.000000	99.448306 
3611.000000	99.446199 
3610.000000	99.444997 
3609.000000	99.445504 
3608.000000	99.446975 
3607.000000	99.448315 
3606.000000	99.449436 
3605.000000	99.450877 
3604.000000	99.452790 
3603.000000	99.454786 
3602.000000	99.456477 
3601.000000	99.457850 
3600.000000	99.458909 
3599.000000	99.459342 
3598.000000	99.458922 
3597.000000	99.457959 
3596.000000	99.457152 
3595.000000	99.457074 
3594.000000	99.457683 
3593.000000	99.458479 
3592.000000	99.458967 
3591.000000	99.458924 
3590.000000	99.458548 
3589.000000	99.458377 
3588.000000	99.458792 
3587.000000	99.459449 
3586.000000	99.459798 
3585.000000	99.459944 
3584.000000	99.460556 
3583.000000	99.462028 
3582.000000	99.464054 
3581.000000	99.465853 
3580.000000	99.466858 
3579.000000	99.467098 
3578.000000	99.466907 
3577.000000	99.466584 
3576.000000	99.466361 
3575.000000	99.466504 
3574.000000	99.467100 
3573.000000	99.467737 
3572.000000	99.467788 
3571.000000	99.467038 
3570.000000	99.465813 
3569.000000	99.464704 
3568.000000	99.464199 
3567.000000	99.464472 
3566.000000	99.465438 
3565.000000	99.466938 
3564.000000	99.468831 
3563.000000	99.471011 
3562.000000	99.473371 
3561.000000	99.475571 
3560.000000	99.477066 
3559.000000	99.477496 
3558.000000	99.477109 
3557.000000	99.476652 
3556.000000	99.476807 
3555.000000	99.477679 
3554.000000	99.478828 
3553.000000	99.479560 
3552.000000	99.479396 
3551.000000	99.478445 
3550.000000	99.477265 
3549.000000	99.476375 
3548.000000	99.476057 
3547.000000	99.476375 
3546.000000	99.477265 
3545.000000	99.478399 
3544.000000	99.479288 
3543.000000	99.479726 
3542.000000	99.480065 
3541.000000	99.480823 
3540.000000	99.482126 
3539.000000	99.483547 
3538.000000	99.484573 
3537.000000	99.485086 
3536.000000	99.485338 
3535.000000	99.485602 
3534.000000	99.485890 
3533.000000	99.486157 
3532.000000	99.486522 
3531.000000	99.487188 
3530.000000	99.488027 
3529.000000	99.488470 
3528.000000	99.488027 
3527.000000	99.486868 
3526.000000	99.485748 
3525.000000	99.485317 
3524.000000	99.485635 
3523.000000	99.486347 
3522.000000	99.487133 
3521.000000	99.487887 
3520.000000	99.488615 
3519.000000	99.489343 
3518.000000	99.490132 
3517.000000	99.490991 
3516.000000	99.491699 
3515.000000	99.491924 
3514.000000	99.491547 
3513.000000	99.490874 
3512.000000	99.490431 
3511.000000	99.490511 
3510.000000	99.490958 
3509.000000	99.491375 
3508.000000	99.491554 
3507.000000	99.491687 
3506.000000	99.492137 
3505.000000	99.493020 
3504.000000	99.494023 
3503.000000	99.494718 
3502.000000	99.495092 
3501.000000	99.495629 
3500.000000	99.496739 
3499.000000	99.498233 
3498.000000	99.499418 
3497.000000	99.499788 
3496.000000	99.499461 
3495.000000	99.498993 
3494.000000	99.498848 
3493.000000	99.499080 
3492.000000	99.499504 
3491.000000	99.499945 
3490.000000	99.500333 
3489.000000	99.500694 
3488.000000	99.501099 
3487.000000	99.501551 
3486.000000	99.501910 
3485.000000	99.501991 
3484.000000	99.501790 
3483.000000	99.501558 
3482.000000	99.501575 
3481.000000	99.501884 
3480.000000	99.502303 
3479.000000	99.502660 
3478.000000	99.502900 
3477.000000	99.503052 
3476.000000	99.503233 
3475.000000	99.503687 
3474.000000	99.504618 
3473.000000	99.505891 
3472.000000	99.506997 
3471.000000	99.507508 
3470.000000	99.507520 
3469.000000	99.507517 
3468.000000	99.507834 
3467.000000	99.508363 
3466.000000	99.508841 
3465.000000	99.509210 
3464.000000	99.509563 
3463.000000	99.509850 
3462.000000	99.509860 
3461.000000	99.509513 
3460.000000	99.509040 
3459.000000	99.508813 
3458.000000	99.508986 
3457.000000	99.509341 
3456.000000	99.509499 
3455.000000	99.509278 
3454.000000	99.508826 
3453.000000	99.508467 
3452.000000	99.508384 
3451.000000	99.508521 
3450.000000	99.508723 
3449.000000	99.508911 
3448.000000	99.509068 
3447.000000	99.509128 
3446.000000	99.508996 
3445.000000	99.508701 
3444.000000	99.508464 
3443.000000	99.508533 
3442.000000	99.508953 
3441.000000	99.509481 
3440.000000	99.509774 
3439.000000	99.509683 
3438.000000	99.509325 
3437.000000	99.508920 
3436.000000	99.508594 
3435.000000	99.508360 
3434.000000	99.508215 
3433.000000	99.508191 
3432.000000	99.508280 
3431.000000	99.508397 
3430.000000	99.508462 
3429.000000	99.508506 
3428.000000	99.508638 
3427.000000	99.508853 
3426.000000	99.508924 
3425.000000	99.508555 
3424.000000	99.507679 
3423.000000	99.506583 
3422.000000	99.505691 
3421.000000	99.505216 
3420.000000	99.505130 
3419.000000	99.505390 
3418.000000	99.506045 
3417.000000	99.507026 
3416.000000	99.508002 
3415.000000	99.508594 
3414.000000	99.508682 
3413.000000	99.508452 
3412.000000	99.508192 
3411.000000	99.508109 
3410.000000	99.508261 
3409.000000	99.508541 
3408.000000	99.508686 
3407.000000	99.508409 
3406.000000	99.507624 
3405.000000	99.506560 
3404.000000	99.505638 
3403.000000	99.505180 
3402.000000	99.505227 
3401.000000	99.505645 
3400.000000	99.506315 
3399.000000	99.507178 
3398.000000	99.508073 
3397.000000	99.508687 
3396.000000	99.508775 
3395.000000	99.508365 
3394.000000	99.507695 
3393.000000	99.507005 
3392.000000	99.506427 
3391.000000	99.506085 
3390.000000	99.506111 
3389.000000	99.506524 
3388.000000	99.507154 
3387.000000	99.507723 
3386.000000	99.508051 
3385.000000	99.508147 
3384.000000	99.508116 
3383.000000	99.508016 
3382.000000	99.507807 
3381.000000	99.507463 
3380.000000	99.507066 
3379.000000	99.506759 
3378.000000	99.506610 
3377.000000	99.506562 
3376.000000	99.506511 
3375.000000	99.506397 
3374.000000	99.506236 
3373.000000	99.506072 
3372.000000	99.505928 
3371.000000	99.505797 
3370.000000	99.505662 
3369.000000	99.505518 
3368.000000	99.505367 
3367.000000	99.505215 
3366.000000	99.505062 
3365.000000	99.504910 
3364.000000	99.504753 
3363.000000	99.504586 
3362.000000	99.504401 
3361.000000	99.504195 
3360.000000	99.503967 
3359.000000	99.503718 
3358.000000	99.503450 
3357.000000	99.503173 
3356.000000	99.502896 
3355.000000	99.502626 
3354.000000	99.502367 
3353.000000	99.502115 
3352.000000	99.501868 
3351.000000	99.501628 
3350.000000	99.501399 
3349.000000	99.501184 
3348.000000	99.500984 
3347.000000	99.500790 
3346.000000	99.500597 
3345.000000	99.500403 
3344.000000	99.500211 
3343.000000	99.500030 
3342.000000	99.499866 
3341.000000	99.499720 
3340.000000	99.499585 
3339.000000	99.499458 
3338.000000	99.499327 
3337.000000	99.499196 
3336.000000	99.499098 
3335.000000	99.499046 
3334.000000	99.499008 
3333.000000	99.498959 
3332.000000	99.498930 
3331.000000	99.498953 
3330.000000	99.498978 
3329.000000	99.498899 
3328.000000	99.498679 
3327.000000	99.498411 
3326.000000	99.498197 
3325.000000	99.498003 
3324.000000	99.497651 
3323.000000	99.496999 
3322.000000	99.496164 
3321.000000	99.495530 
3320.000000	99.495442 
3319.000000	99.495906 
3318.000000	99.496570 
3317.000000	99.497044 
3316.000000	99.497173 
3315.000000	99.497021 
3314.000000	99.496766 
3313.000000	99.496684 
3312.000000	99.497054 
3311.000000	99.497874 
3310.000000	99.498700 
3309.000000	99.498985 
3308.000000	99.498612 
3307.000000	99.497882 
3306.000000	99.497092 
3305.000000	99.496374 
3304.000000	99.495850 
3303.000000	99.495657 
3302.000000	99.495683 
3301.000000	99.495507 
3300.000000	99.494787 
3299.000000	99.493613 
3298.000000	99.492448 
3297.000000	99.491724 
3296.000000	99.491517 
3295.000000	99.491504 
3294.000000	99.491255 
3293.000000	99.490667 
3292.000000	99.490100 
3291.000000	99.489874 
3290.000000	99.489683 
3289.000000	99.488826 
3288.000000	99.487071 
3287.000000	99.485067 
3286.000000	99.483741 
3285.000000	99.483341 
3284.000000	99.483351 
3283.000000	99.483153 
3282.000000	99.482671 
3281.000000	99.482290 
3280.000000	99.482343 
3279.000000	99.482775 
3278.000000	99.483171 
3277.000000	99.483082 
3276.000000	99.482366 
3275.000000	99.481242 
3274.000000	99.480000 
3273.000000	99.478771 
3272.000000	99.477617 
3271.000000	99.476714 
3270.000000	99.476211 
3269.000000	99.475978 
3268.000000	99.475695 
3267.000000	99.475235 
3266.000000	99.474770 
3265.000000	99.474479 
3264.000000	99.474351 
3263.000000	99.474318 
3262.000000	99.474400 
3261.000000	99.474638 
3260.000000	99.474990 
3259.000000	99.475306 
3258.000000	99.475361 
3257.000000	99.474939 
3256.000000	99.473987 
3255.000000	99.472715 
3254.000000	99.471468 
3253.000000	99.470506 
3252.000000	99.469987 
3251.000000	99.470068 
3250.000000	99.470749 
3249.000000	99.471653 
3248.000000	99.472222 
3247.000000	99.472195 
3246.000000	99.471750 
3245.000000	99.471196 
3244.000000	99.470675 
3243.000000	99.470205 
3242.000000	99.469794 
3241.000000	99.469408 
3240.000000	99.469020 
3239.000000	99.468809 
3238.000000	99.469186 
3237.000000	99.470431 
3236.000000	99.472295 
3235.000000	99.474006 
3234.000000	99.474775 
3233.000000	99.474331 
3232.000000	99.473058 
3231.000000	99.471707 
3230.000000	99.470873 
3229.000000	99.470647 
3228.000000	99.470687 
3227.000000	99.470516 
3226.000000	99.469802 
3225.000000	99.468524 
3224.000000	99.467026 
3223.000000	99.465850 
3222.000000	99.465316 
3221.000000	99.465234 
3220.000000	99.465085 
3219.000000	99.464553 
3218.000000	99.463838 
3217.000000	99.463463 
3216.000000	99.463857 
3215.000000	99.465073 
3214.000000	99.466718 
3213.000000	99.468087 
3212.000000	99.468551 
3211.000000	99.467911 
3210.000000	99.466422 
3209.000000	99.464639 
3208.000000	99.463172 
3207.000000	99.462423 
3206.000000	99.462377 
3205.000000	99.462586 
3204.000000	99.462563 
3203.000000	99.462268 
3202.000000	99.462066 
3201.000000	99.462191 
3200.000000	99.462482 
3199.000000	99.462666 
3198.000000	99.462686 
3197.000000	99.462630 
3196.000000	99.462521 
3195.000000	99.462385 
3194.000000	99.462359 
3193.000000	99.462505 
3192.000000	99.462565 
3191.000000	99.462123 
3190.000000	99.461036 
3189.000000	99.459571 
3188.000000	99.458169 
3187.000000	99.457162 
3186.000000	99.456675 
3185.000000	99.456648 
3184.000000	99.456863 
3183.000000	99.457038 
3182.000000	99.457017 
3181.000000	99.456892 
3180.000000	99.456929 
3179.000000	99.457336 
3178.000000	99.458007 
3177.000000	99.458470 
3176.000000	99.458238 
3175.000000	99.457349 
3174.000000	99.456415 
3173.000000	99.455955 
3172.000000	99.455743 
3171.000000	99.455081 
3170.000000	99.453694 
3169.000000	99.452050 
3168.000000	99.450784 
3167.000000	99.450070 
3166.000000	99.449733 
3165.000000	99.449692 
3164.000000	99.450053 
3163.000000	99.450870 
3162.000000	99.451941 
3161.000000	99.452858 
3160.000000	99.453209 
3159.000000	99.452809 
3158.000000	99.451764 
3157.000000	99.450328 
3156.000000	99.448740 
3155.000000	99.447223 
3154.000000	99.445992 
3153.000000	99.445047 
3152.000000	99.444016 
3151.000000	99.442496 
3150.000000	99.440698 
3149.000000	99.439545 
3148.000000	99.439835 
3147.000000	99.441402 
3146.000000	99.443183 
3145.000000	99.444185 
3144.000000	99.444323 
3143.000000	99.444227 
3142.000000	99.444437 
3141.000000	99.444929 
3140.000000	99.445340 
3139.000000	99.445427 
3138.000000	99.445175 
3137.000000	99.444639 
3136.000000	99.443948 
3135.000000	99.443427 
3134.000000	99.443428 
3133.000000	99.443906 
3132.000000	99.444315 
3131.000000	99.444152 
3130.000000	99.443534 
3129.000000	99.443110 
3128.000000	99.443410 
3127.000000	99.444421 
3126.000000	99.445697 
3125.000000	99.446684 
3124.000000	99.446991 
3123.000000	99.446550 
3122.000000	99.445669 
3121.000000	99.444868 
3120.000000	99.444454 
3119.000000	99.444318 
3118.000000	99.444207 
3117.000000	99.444082 
3116.000000	99.444115 
3115.000000	99.444383 
3114.000000	99.444715 
3113.000000	99.444859 
3112.000000	99.444727 
3111.000000	99.444440 
3110.000000	99.444179 
3109.000000	99.444031 
3108.000000	99.443953 
3107.000000	99.443847 
3106.000000	99.443657 
3105.000000	99.443417 
3104.000000	99.443231 
3103.000000	99.443169 
3102.000000	99.443222 
3101.000000	99.443327 
3100.000000	99.443431 
3099.000000	99.443507 
3098.000000	99.443540 
3097.000000	99.443523 
3096.000000	99.443453 
3095.000000	99.443329 
3094.000000	99.443141 
3093.000000	99.442877 
3092.000000	99.442560 
3091.000000	99.442254 
3090.000000	99.442046 
3089.000000	99.442000 
3088.000000	99.442131 
3087.000000	99.442353 
3086.000000	99.442485 
3085.000000	99.442394 
3084.000000	99.442161 
3083.000000	99.441959 
3082.000000	99.441733 
3081.000000	99.441219 
3080.000000	99.440377 
3079.000000	99.439698 
3078.000000	99.439834 
3077.000000	99.440885 
3076.000000	99.442188 
3075.000000	99.442945 
3074.000000	99.442887 
3073.000000	99.442287 
3072.000000	99.441521 
3071.000000	99.440701 
3070.000000	99.439622 
3069.000000	99.437995 
3068.000000	99.435837 
3067.000000	99.433720 
3066.000000	99.432558 
3065.000000	99.433040 
3064.000000	99.435088 
3063.000000	99.437581 
3062.000000	99.438721 
3061.000000	99.437199 
3060.000000	99.433452 
3059.000000	99.429651 
3058.000000	99.427991 
3057.000000	99.429011 
3056.000000	99.431687 
3055.000000	99.434701 
3054.000000	99.437140 
3053.000000	99.438281 
3052.000000	99.437619 
3051.000000	99.435441 
3050.000000	99.432948 
3049.000000	99.431514 
3048.000000	99.431791 
3047.000000	99.433273 
3046.000000	99.434290 
3045.000000	99.432812 
3044.000000	99.428174 
3043.000000	99.422268 
3042.000000	99.418352 
3041.000000	99.418073 
3040.000000	99.420019 
3039.000000	99.421400 
3038.000000	99.420608 
3037.000000	99.417849 
3036.000000	99.413990 
3035.000000	99.409605 
3034.000000	99.405014 
3033.000000	99.400503 
3032.000000	99.396212 
3031.000000	99.392014 
3030.000000	99.387658 
3029.000000	99.383044 
3028.000000	99.378475 
3027.000000	99.374637 
3026.000000	99.372048 
3025.000000	99.370213 
3024.000000	99.367605 
3023.000000	99.362945 
3022.000000	99.356472 
3021.000000	99.349512 
3020.000000	99.342709 
3019.000000	99.335234 
3018.000000	99.326223 
3017.000000	99.316486 
3016.000000	99.307985 
3015.000000	99.301535 
3014.000000	99.295933 
3013.000000	99.289796 
3012.000000	99.283554 
3011.000000	99.278679 
3010.000000	99.275285 
3009.000000	99.271680 
3008.000000	99.266463 
3007.000000	99.260060 
3006.000000	99.253640 
3005.000000	99.247330 
3004.000000	99.240324 
3003.000000	99.232418 
3002.000000	99.224585 
3001.000000	99.218019 
3000.000000	99.213179 
2999.000000	99.209807 
2998.000000	99.207365 
2997.000000	99.205290 
2996.000000	99.203089 
2995.000000	99.200221 
2994.000000	99.195915 
2993.000000	99.189334 
2992.000000	99.180229 
2991.000000	99.169412 
2990.000000	99.158459 
2989.000000	99.149074 
2988.000000	99.142729 
2987.000000	99.140355 
2986.000000	99.141666 
2985.000000	99.144813 
2984.000000	99.147284 
2983.000000	99.147463 
2982.000000	99.145252 
2981.000000	99.141592 
2980.000000	99.137837 
2979.000000	99.135194 
2978.000000	99.133931 
2977.000000	99.132904 
2976.000000	99.130282 
2975.000000	99.124979 
2974.000000	99.117381 
2973.000000	99.109077 
2972.000000	99.102239 
2971.000000	99.098695 
2970.000000	99.098602 
2969.000000	99.099905 
2968.000000	99.099892 
2967.000000	99.097671 
2966.000000	99.094684 
2965.000000	99.092707 
2964.000000	99.091942 
2963.000000	99.091325 
2962.000000	99.090107 
2961.000000	99.088606 
2960.000000	99.087575 
2959.000000	99.087295 
2958.000000	99.087454 
2957.000000	99.087880 
2956.000000	99.089140 
2955.000000	99.092038 
2954.000000	99.096501 
2953.000000	99.101489 
2952.000000	99.106184 
2951.000000	99.110675 
2950.000000	99.115026 
2949.000000	99.118304 
2948.000000	99.119193 
2947.000000	99.117177 
2946.000000	99.112556 
2945.000000	99.105706 
2944.000000	99.096989 
2943.000000	99.086921 
2942.000000	99.075561 
2941.000000	99.062099 
2940.000000	99.045988 
2939.000000	99.028370 
2938.000000	99.011522 
2937.000000	98.996912 
2936.000000	98.984473 
2935.000000	98.973381 
2934.000000	98.962447 
2933.000000	98.949897 
2932.000000	98.934098 
2931.000000	98.915038 
2930.000000	98.894618 
2929.000000	98.875413 
2928.000000	98.859448 
2927.000000	98.847587 
2926.000000	98.839100 
2925.000000	98.832126 
2924.000000	98.825830 
2923.000000	98.822106 
2922.000000	98.824072 
2921.000000	98.832861 
2920.000000	98.846940 
2919.000000	98.864291 
2918.000000	98.883870 
2917.000000	98.904631 
2916.000000	98.924649 
2915.000000	98.942121 
2914.000000	98.956668 
2913.000000	98.969162 
2912.000000	98.980824 
2911.000000	98.992654 
2910.000000	99.004931 
2909.000000	99.016888 
2908.000000	99.027314 
2907.000000	99.035729 
2906.000000	99.042444 
2905.000000	99.047536 
2904.000000	99.050547 
2903.000000	99.051539 
2902.000000	99.051977 
2901.000000	99.054714 
2900.000000	99.062103 
2899.000000	99.074588 
2898.000000	99.089423 
2897.000000	99.101879 
2896.000000	99.109076 
2895.000000	99.112633 
2894.000000	99.116549 
2893.000000	99.122611 
2892.000000	99.129321 
2891.000000	99.135056 
2890.000000	99.140248 
2889.000000	99.145792 
2888.000000	99.151148 
2887.000000	99.155341 
2886.000000	99.158675 
2885.000000	99.162256 
2884.000000	99.166601 
2883.000000	99.171803 
2882.000000	99.178259 
2881.000000	99.185934 
2880.000000	99.193359 
2879.000000	99.198648 
2878.000000	99.201531 
2877.000000	99.203611 
2876.000000	99.206532 
2875.000000	99.210471 
2874.000000	99.214297 
2873.000000	99.216665 
2872.000000	99.216951 
2871.000000	99.215620 
2870.000000	99.213813 
2869.000000	99.212592 
2868.000000	99.212644 
2867.000000	99.214337 
2866.000000	99.217186 
2865.000000	99.219192 
2864.000000	99.217803 
2863.000000	99.212086 
2862.000000	99.203204 
2861.000000	99.192434 
2860.000000	99.179837 
2859.000000	99.165674 
2858.000000	99.151805 
2857.000000	99.140324 
2856.000000	99.131582 
2855.000000	99.125035 
2854.000000	99.121611 
2853.000000	99.123666 
2852.000000	99.132617 
2851.000000	99.147693 
2850.000000	99.167041 
2849.000000	99.188991 
2848.000000	99.212074 
2847.000000	99.234825 
2846.000000	99.256189 
2845.000000	99.275632 
2844.000000	99.292638 
2843.000000	99.306674 
2842.000000	99.318024 
2841.000000	99.328095 
2840.000000	99.338389 
2839.000000	99.349239 
2838.000000	99.359745 
2837.000000	99.368687 
2836.000000	99.375308 
2835.000000	99.379584 
2834.000000	99.382243 
2833.000000	99.384516 
2832.000000	99.387430 
2831.000000	99.390996 
2830.000000	99.394127 
2829.000000	99.395646 
2828.000000	99.395614 
2827.000000	99.395704 
2826.000000	99.398101 
2825.000000	99.403756 
2824.000000	99.411547 
2823.000000	99.419006 
2822.000000	99.423970 
2821.000000	99.425920 
2820.000000	99.426117 
2819.000000	99.426423 
2818.000000	99.427720 
2817.000000	99.429443 
2816.000000	99.430671 
2815.000000	99.431269 
2814.000000	99.431596 
2813.000000	99.431488 
2812.000000	99.430396 
2811.000000	99.428625 
2810.000000	99.427678 
2809.000000	99.428856 
2808.000000	99.431807 
2807.000000	99.434822 
2806.000000	99.436341 
2805.000000	99.436024 
2804.000000	99.434762 
2803.000000	99.434001 
2802.000000	99.434783 
2801.000000	99.436958 
2800.000000	99.439289 
2799.000000	99.440534 
2798.000000	99.440444 
2797.000000	99.439689 
2796.000000	99.439051 
2795.000000	99.438891 
2794.000000	99.439225 
2793.000000	99.439945 
2792.000000	99.440816 
2791.000000	99.441471 
2790.000000	99.441662 
2789.000000	99.441645 
2788.000000	99.442158 
2787.000000	99.443754 
2786.000000	99.446051 
2785.000000	99.447822 
2784.000000	99.448050 
2783.000000	99.446867 
2782.000000	99.445433 
2781.000000	99.444927 
2780.000000	99.445640 
2779.000000	99.447040 
2778.000000	99.448400 
2777.000000	99.449347 
2776.000000	99.449959 
2775.000000	99.450473 
2774.000000	99.450995 
2773.000000	99.451473 
2772.000000	99.451849 
2771.000000	99.452167 
2770.000000	99.452521 
2769.000000	99.452931 
2768.000000	99.453326 
2767.000000	99.453658 
2766.000000	99.453971 
2765.000000	99.454320 
2764.000000	99.454642 
2763.000000	99.454816 
2762.000000	99.454812 
2761.000000	99.454741 
2760.000000	99.454772 
2759.000000	99.454992 
2758.000000	99.455364 
2757.000000	99.455787 
2756.000000	99.456172 
2755.000000	99.456479 
2754.000000	99.456693 
2753.000000	99.456810 
2752.000000	99.456873 
2751.000000	99.456971 
2750.000000	99.457177 
2749.000000	99.457480 
2748.000000	99.457798 
2747.000000	99.458049 
2746.000000	99.458218 
2745.000000	99.458333 
2744.000000	99.458417 
2743.000000	99.458477 
2742.000000	99.458539 
2741.000000	99.458646 
2740.000000	99.458821 
2739.000000	99.459039 
2738.000000	99.459258 
2737.000000	99.459466 
2736.000000	99.459681 
2735.000000	99.459918 
2734.000000	99.460149 
2733.000000	99.460333 
2732.000000	99.460466 
2731.000000	99.460586 
2730.000000	99.460728 
2729.000000	99.460893 
2728.000000	99.461064 
2727.000000	99.461237 
2726.000000	99.461424 
2725.000000	99.461628 
2724.000000	99.461846 
2723.000000	99.462071 
2722.000000	99.462301 
2721.000000	99.462532 
2720.000000	99.462759 
2719.000000	99.462975 
2718.000000	99.463172 
2717.000000	99.463354 
2716.000000	99.463531 
2715.000000	99.463718 
2714.000000	99.463925 
2713.000000	99.464152 
2712.000000	99.464391 
2711.000000	99.464633 
2710.000000	99.464875 
2709.000000	99.465116 
2708.000000	99.465354 
2707.000000	99.465585 
2706.000000	99.465807 
2705.000000	99.466025 
2704.000000	99.466247 
2703.000000	99.466480 
2702.000000	99.466725 
2701.000000	99.466980 
2700.000000	99.467239 
2699.000000	99.467501 
2698.000000	99.467763 
2697.000000	99.468027 
2696.000000	99.468292 
2695.000000	99.468555 
2694.000000	99.468815 
2693.000000	99.469072 
2692.000000	99.469334 
2691.000000	99.469607 
2690.000000	99.469892 
2689.000000	99.470182 
2688.000000	99.470470 
2687.000000	99.470763 
2686.000000	99.471079 
2685.000000	99.471426 
2684.000000	99.471804 
2683.000000	99.472198 
2682.000000	99.472593 
2681.000000	99.472975 
2680.000000	99.473330 
2679.000000	99.473655 
2678.000000	99.473985 
2677.000000	99.474387 
2676.000000	99.474895 
2675.000000	99.475495 
2674.000000	99.476125 
2673.000000	99.476707 
2672.000000	99.477190 
2671.000000	99.477570 
2670.000000	99.477894 
2669.000000	99.478222 
2668.000000	99.478582 
2667.000000	99.478985 
2666.000000	99.479447 
2665.000000	99.479974 
2664.000000	99.480540 
2663.000000	99.481097 
2662.000000	99.481599 
2661.000000	99.482036 
2660.000000	99.482436 
2659.000000	99.482848 
2658.000000	99.483291 
2657.000000	99.483734 
2656.000000	99.484149 
2655.000000	99.484563 
2654.000000	99.485005 
2653.000000	99.485436 
2652.000000	99.485800 
2651.000000	99.486151 
2650.000000	99.486625 
2649.000000	99.487236 
2648.000000	99.487804 
2647.000000	99.488173 
2646.000000	99.488448 
2645.000000	99.488899 
2644.000000	99.489626 
2643.000000	99.490416 
2642.000000	99.490935 
2641.000000	99.491043 
2640.000000	99.490861 
2639.000000	99.490686 
2638.000000	99.490778 
2637.000000	99.491167 
2636.000000	99.491631 
2635.000000	99.491876 
2634.000000	99.491817 
2633.000000	99.491637 
2632.000000	99.491603 
2631.000000	99.491868 
2630.000000	99.492418 
2629.000000	99.493060 
2628.000000	99.493480 
2627.000000	99.493454 
2626.000000	99.493115 
2625.000000	99.492931 
2624.000000	99.493265 
2623.000000	99.494027 
2622.000000	99.494803 
2621.000000	99.495274 
2620.000000	99.495415 
2619.000000	99.495392 
2618.000000	99.495404 
2617.000000	99.495643 
2616.000000	99.496237 
2615.000000	99.497152 
2614.000000	99.498193 
2613.000000	99.499136 
2612.000000	99.499851 
2611.000000	99.500294 
2610.000000	99.500437 
2609.000000	99.500291 
2608.000000	99.499960 
2607.000000	99.499624 
2606.000000	99.499478 
2605.000000	99.499724 
2604.000000	99.500539 
2603.000000	99.501855 
2602.000000	99.503173 
2601.000000	99.503888 
2600.000000	99.503971 
2599.000000	99.504028 
2598.000000	99.504483 
2597.000000	99.504848 
2596.000000	99.504249 
2595.000000	99.502523 
2594.000000	99.500466 
2593.000000	99.499041 
2592.000000	99.498559 
2591.000000	99.498760 
2590.000000	99.499294 
2589.000000	99.500010 
2588.000000	99.500878 
2587.000000	99.501779 
2586.000000	99.502422 
2585.000000	99.502518 
2584.000000	99.502115 
2583.000000	99.501656 
2582.000000	99.501570 
2581.000000	99.501848 
2580.000000	99.502133 
2579.000000	99.502133 
2578.000000	99.501791 
2577.000000	99.501148 
2576.000000	99.500272 
2575.000000	99.499356 
2574.000000	99.498714 
2573.000000	99.498539 
2572.000000	99.498745 
2571.000000	99.499033 
2570.000000	99.499130 
2569.000000	99.498963 
2568.000000	99.498664 
2567.000000	99.498404 
2566.000000	99.498151 
2565.000000	99.497691 
2564.000000	99.496960 
2563.000000	99.496247 
2562.000000	99.495906 
2561.000000	99.495926 
2560.000000	99.495921 
2559.000000	99.495544 
2558.000000	99.494735 
2557.000000	99.493665 
2556.000000	99.492623 
2555.000000	99.491921 
2554.000000	99.491710 
2553.000000	99.491783 
2552.000000	99.491661 
2551.000000	99.491103 
2550.000000	99.490321 
2549.000000	99.489643 
2548.000000	99.489084 
2547.000000	99.488412 
2546.000000	99.487504 
2545.000000	99.486476 
2544.000000	99.485566 
2543.000000	99.484976 
2542.000000	99.484706 
2541.000000	99.484478 
2540.000000	99.483963 
2539.000000	99.483154 
2538.000000	99.482332 
2537.000000	99.481585 
2536.000000	99.480651 
2535.000000	99.479419 
2534.000000	99.478299 
2533.000000	99.477752 
2532.000000	99.477682 
2531.000000	99.477622 
2530.000000	99.477426 
2529.000000	99.477382 
2528.000000	99.477646 
2527.000000	99.477946 
2526.000000	99.477897 
2525.000000	99.477456 
2524.000000	99.476953 
2523.000000	99.476788 
2522.000000	99.477081 
2521.000000	99.477590 
2520.000000	99.477884 
2519.000000	99.477690 
2518.000000	99.477056 
2517.000000	99.476277 
2516.000000	99.475683 
2515.000000	99.475418 
2514.000000	99.475388 
2513.000000	99.475401 
2512.000000	99.475409 
2511.000000	99.475581 
2510.000000	99.476052 
2509.000000	99.476686 
2508.000000	99.477186 
2507.000000	99.477443 
2506.000000	99.477606 
2505.000000	99.477763 
2504.000000	99.477736 
2503.000000	99.477340 
2502.000000	99.476722 
2501.000000	99.476322 
2500.000000	99.476463 
2499.000000	99.477110 
2498.000000	99.477959 
2497.000000	99.478673 
2496.000000	99.479086 
2495.000000	99.479241 
2494.000000	99.479302 
2493.000000	99.479392 
2492.000000	99.479481 
2491.000000	99.479483 
2490.000000	99.479462 
2489.000000	99.479677 
2488.000000	99.480397 
2487.000000	99.481675 
2486.000000	99.483157 
2485.000000	99.484168 
2484.000000	99.484235 
2483.000000	99.483436 
2482.000000	99.482382 
2481.000000	99.481643 
2480.000000	99.481277 
2479.000000	99.481061 
2478.000000	99.480887 
2477.000000	99.480842 
2476.000000	99.480997 
2475.000000	99.481313 
2474.000000	99.481740 
2473.000000	99.482232 
2472.000000	99.482654 
2471.000000	99.482822 
2470.000000	99.482682 
2469.000000	99.482353 
2468.000000	99.481976 
2467.000000	99.481613 
2466.000000	99.481286 
2465.000000	99.481016 
2464.000000	99.480792 
2463.000000	99.480586 
2462.000000	99.480408 
2461.000000	99.480294 
2460.000000	99.480200 
2459.000000	99.479998 
2458.000000	99.479626 
2457.000000	99.479199 
2456.000000	99.478883 
2455.000000	99.478698 
2454.000000	99.478492 
2453.000000	99.478117 
2452.000000	99.477569 
2451.000000	99.476945 
2450.000000	99.476323 
2449.000000	99.475740 
2448.000000	99.475256 
2447.000000	99.474950 
2446.000000	99.474837 
2445.000000	99.474794 
2444.000000	99.474630 
2443.000000	99.474263 
2442.000000	99.473744 
2441.000000	99.473191 
2440.000000	99.472731 
2439.000000	99.472429 
2438.000000	99.472263 
2437.000000	99.472117 
2436.000000	99.471881 
2435.000000	99.471543 
2434.000000	99.471143 
2433.000000	99.470725 
2432.000000	99.470308 
2431.000000	99.469909 
2430.000000	99.469529 
2429.000000	99.469123 
2428.000000	99.468642 
2427.000000	99.468103 
2426.000000	99.467606 
2425.000000	99.467229 
2424.000000	99.466952 
2423.000000	99.466684 
2422.000000	99.466378 
2421.000000	99.466067 
2420.000000	99.465734 
2419.000000	99.465249 
2418.000000	99.464530 
2417.000000	99.463668 
2416.000000	99.462864 
2415.000000	99.462230 
2414.000000	99.461729 
2413.000000	99.461254 
2412.000000	99.460738 
2411.000000	99.460180 
2410.000000	99.459591 
2409.000000	99.458968 
2408.000000	99.458322 
2407.000000	99.457693 
2406.000000	99.457101 
2405.000000	99.456529 
2404.000000	99.455985 
2403.000000	99.455524 
2402.000000	99.455155 
2401.000000	99.454761 
2400.000000	99.454194 
2399.000000	99.453431 
2398.000000	99.452571 
2397.000000	99.451731 
2396.000000	99.451003 
2395.000000	99.450454 
2394.000000	99.450019 
2393.000000	99.449510 
2392.000000	99.448793 
2391.000000	99.447894 
2390.000000	99.446962 
2389.000000	99.446105 
2388.000000	99.445357 
2387.000000	99.444824 
2386.000000	99.444664 
2385.000000	99.444775 
2384.000000	99.444741 
2383.000000	99.444271 
2382.000000	99.443487 
2381.000000	99.442637 
2380.000000	99.441750 
2379.000000	99.440786 
2378.000000	99.439932 
2377.000000	99.439427 
2376.000000	99.439256 
2375.000000	99.439210 
2374.000000	99.439130 
2373.000000	99.438894 
2372.000000	99.438308 
2371.000000	99.437344 
2370.000000	99.436356 
2369.000000	99.435749 
2368.000000	99.435506 
2367.000000	99.435412 
2366.000000	99.435541 
2365.000000	99.436088 
2364.000000	99.436956 
2363.000000	99.437923 
2362.000000	99.438697 
2361.000000	99.438977 
2360.000000	99.438778 
2359.000000	99.438244 
2358.000000	99.437680 
2357.000000	99.437329 
2356.000000	99.437352 
2355.000000	99.438113 
2354.000000	99.439282 
2353.000000	99.440063 
2352.000000	99.439511 
2351.000000	99.437828 
2350.000000	99.436727 
2349.000000	99.437444 
2348.000000	99.440054 
2347.000000	99.443105 
2346.000000	99.445263 
2345.000000	99.446542 
2344.000000	99.447523 
2343.000000	99.448997 
2342.000000	99.450502 
2341.000000	99.451669 
2340.000000	99.452487 
2339.000000	99.453486 
2338.000000	99.455054 
2337.000000	99.456791 
2336.000000	99.458064 
2335.000000	99.458567 
2334.000000	99.458913 
2333.000000	99.459896 
2332.000000	99.461934 
2331.000000	99.464167 
2330.000000	99.465958 
2329.000000	99.466672 
2328.000000	99.467566 
2327.000000	99.469486 
2326.000000	99.472924 
2325.000000	99.476821 
2324.000000	99.479653 
2323.000000	99.480996 
2322.000000	99.481484 
2321.000000	99.482290 
2320.000000	99.483308 
2319.000000	99.483680 
2318.000000	99.483303 
2317.000000	99.482813 
2316.000000	99.483161 
2315.000000	99.483930 
2314.000000	99.484875 
2313.000000	99.485586 
2312.000000	99.486657 
2311.000000	99.487774 
2310.000000	99.488793 
2309.000000	99.489126 
2308.000000	99.489213 
2307.000000	99.489293 
2306.000000	99.489831 
2305.000000	99.490644 
2304.000000	99.491664 
2303.000000	99.492507 
2302.000000	99.493105 
2301.000000	99.493271 
2300.000000	99.493433 
2299.000000	99.493934 
2298.000000	99.495136 
2297.000000	99.496360 
2296.000000	99.496833 
2295.000000	99.496116 
2294.000000	99.495007 
2293.000000	99.494478 
2292.000000	99.494999 
2291.000000	99.496134 
2290.000000	99.497181 
2289.000000	99.497621 
2288.000000	99.497314 
2287.000000	99.496475 
2286.000000	99.495413 
2285.000000	99.494225 
2284.000000	99.492756 
2283.000000	99.491241 
2282.000000	99.490239 
2281.000000	99.490053 
2280.000000	99.490296 
2279.000000	99.490348 
2278.000000	99.489826 
2277.000000	99.488678 
2276.000000	99.487122 
2275.000000	99.485702 
2274.000000	99.485075 
2273.000000	99.485355 
2272.000000	99.485923 
2271.000000	99.486051 
2270.000000	99.485722 
2269.000000	99.485403 
2268.000000	99.485280 
2267.000000	99.485001 
2266.000000	99.484209 
2265.000000	99.483002 
2264.000000	99.481803 
2263.000000	99.480852 
2262.000000	99.480085 
2261.000000	99.479391 
2260.000000	99.478864 
2259.000000	99.478637 
2258.000000	99.478553 
2257.000000	99.478382 
2256.000000	99.478080 
2255.000000	99.477766 
2254.000000	99.477517 
2253.000000	99.477292 
2252.000000	99.477035 
2251.000000	99.476739 
2250.000000	99.476397 
2249.000000	99.475967 
2248.000000	99.475442 
2247.000000	99.474905 
2246.000000	99.474432 
2245.000000	99.474034 
2244.000000	99.473675 
2243.000000	99.473327 
2242.000000	99.472982 
2241.000000	99.472640 
2240.000000	99.472296 
2239.000000	99.471942 
2238.000000	99.471577 
2237.000000	99.471195 
2236.000000	99.470790 
2235.000000	99.470362 
2234.000000	99.469918 
2233.000000	99.469466 
2232.000000	99.469009 
2231.000000	99.468541 
2230.000000	99.468069 
2229.000000	99.467607 
2228.000000	99.467171 
2227.000000	99.466769 
2226.000000	99.466396 
2225.000000	99.466045 
2224.000000	99.465710 
2223.000000	99.465389 
2222.000000	99.465075 
2221.000000	99.464755 
2220.000000	99.464412 
2219.000000	99.464045 
2218.000000	99.463666 
2217.000000	99.463294 
2216.000000	99.462935 
2215.000000	99.462574 
2214.000000	99.462192 
2213.000000	99.461778 
2212.000000	99.461339 
2211.000000	99.460897 
2210.000000	99.460475 
2209.000000	99.460088 
2208.000000	99.459744 
2207.000000	99.459435 
2206.000000	99.459152 
2205.000000	99.458894 
2204.000000	99.458675 
2203.000000	99.458508 
2202.000000	99.458331 
2201.000000	99.458374 
2200.000000	99.458631 
2199.000000	99.458554 
2198.000000	99.457755 
2197.000000	99.456431 
2196.000000	99.455071 
2195.000000	99.454172 
2194.000000	99.454189 
2193.000000	99.455014 
2192.000000	99.455505 
2191.000000	99.454602 
2190.000000	99.453162 
2189.000000	99.453564 
2188.000000	99.456787 
2187.000000	99.460485 
2186.000000	99.460794 
2185.000000	99.456076 
2184.000000	99.448626 
2183.000000	99.442759 
2182.000000	99.440985 
2181.000000	99.442182 
2180.000000	99.443369 
2179.000000	99.442978 
2178.000000	99.441815 
2177.000000	99.441176 
2176.000000	99.441194 
2175.000000	99.441261 
2174.000000	99.441054 
2173.000000	99.440739 
2172.000000	99.441096 
2171.000000	99.443739 
2170.000000	99.450079 
2169.000000	99.459383 
2168.000000	99.468618 
2167.000000	99.474830 
2166.000000	99.477191 
2165.000000	99.477031 
2164.000000	99.476990 
2163.000000	99.479456 
2162.000000	99.483483 
2161.000000	99.482934 
2160.000000	99.470503 
2159.000000	99.445330 
2158.000000	99.415715 
2157.000000	99.392112 
2156.000000	99.378634 
2155.000000	99.373744 
2154.000000	99.375323 
2153.000000	99.382241 
2152.000000	99.392757 
2151.000000	99.403788 
2150.000000	99.412115 
2149.000000	99.416225 
2148.000000	99.417522 
2147.000000	99.419170 
2146.000000	99.422324 
2145.000000	99.423886 
2144.000000	99.420020 
2143.000000	99.411664 
2142.000000	99.404136 
2141.000000	99.400755 
2140.000000	99.399552 
2139.000000	99.397506 
2138.000000	99.395495 
2137.000000	99.396724 
2136.000000	99.401738 
2135.000000	99.407579 
2134.000000	99.411570 
2133.000000	99.413939 
2132.000000	99.416313 
2131.000000	99.418991 
2130.000000	99.420469 
2129.000000	99.419367 
2128.000000	99.416330 
2127.000000	99.413612 
2126.000000	99.412733 
2125.000000	99.413301 
2124.000000	99.414599 
2123.000000	99.417330 
2122.000000	99.422400 
2121.000000	99.428511 
2120.000000	99.432767 
2119.000000	99.433932 
2118.000000	99.433608 
2117.000000	99.433988 
2116.000000	99.435431 
2115.000000	99.436795 
2114.000000	99.437234 
2113.000000	99.436822 
2112.000000	99.435997 
2111.000000	99.435214 
2110.000000	99.435019 
2109.000000	99.435800 
2108.000000	99.437323 
2107.000000	99.438685 
2106.000000	99.438930 
2105.000000	99.437901 
2104.000000	99.436534 
2103.000000	99.436211 
2102.000000	99.437405 
2101.000000	99.439136 
2100.000000	99.440027 
2099.000000	99.439780 
2098.000000	99.439179 
2097.000000	99.438969 
2096.000000	99.439226 
2095.000000	99.439791 
2094.000000	99.440679 
2093.000000	99.441846 
2092.000000	99.442963 
2091.000000	99.443746 
2090.000000	99.444339 
2089.000000	99.445046 
2088.000000	99.445756 
2087.000000	99.445914 
2086.000000	99.445097 
2085.000000	99.443542 
2084.000000	99.442225 
2083.000000	99.442272 
2082.000000	99.444082 
2081.000000	99.446848 
2080.000000	99.449104 
2079.000000	99.450155 
2078.000000	99.450587 
2077.000000	99.451339 
2076.000000	99.452577 
2075.000000	99.453683 
2074.000000	99.453908 
2073.000000	99.452732 
2072.000000	99.450227 
2071.000000	99.447364 
2070.000000	99.445406 
2069.000000	99.444689 
2068.000000	99.444303 
2067.000000	99.443353 
2066.000000	99.442084 
2065.000000	99.441481 
2064.000000	99.442260 
2063.000000	99.444523 
2062.000000	99.447543 
2061.000000	99.449710 
2060.000000	99.449711 
2059.000000	99.448057 
2058.000000	99.446869 
2057.000000	99.447481 
2056.000000	99.448939 
2055.000000	99.449497 
2054.000000	99.449069 
2053.000000	99.449172 
2052.000000	99.450704 
2051.000000	99.452710 
2050.000000	99.453458 
2049.000000	99.452187 
2048.000000	99.449609 
2047.000000	99.447212 
2046.000000	99.446068 
2045.000000	99.446066 
2044.000000	99.446088 
2043.000000	99.445146 
2042.000000	99.443362 
2041.000000	99.441649 
2040.000000	99.440539 
2039.000000	99.439680 
2038.000000	99.438468 
2037.000000	99.436797 
2036.000000	99.435116 
2035.000000	99.433826 
2034.000000	99.432691 
2033.000000	99.431052 
2032.000000	99.428757 
2031.000000	99.426633 
2030.000000	99.425641 
2029.000000	99.425740 
2028.000000	99.425893 
2027.000000	99.425202 
2026.000000	99.423713 
2025.000000	99.422003 
2024.000000	99.420612 
2023.000000	99.419830 
2022.000000	99.419681 
2021.000000	99.419705 
2020.000000	99.419124 
2019.000000	99.417673 
2018.000000	99.416027 
2017.000000	99.415008 
2016.000000	99.414516 
2015.000000	99.413979 
2014.000000	99.413360 
2013.000000	99.412959 
2012.000000	99.412684 
2011.000000	99.412260 
2010.000000	99.411900 
2009.000000	99.412001 
2008.000000	99.412369 
2007.000000	99.412461 
2006.000000	99.412230 
2005.000000	99.412109 
2004.000000	99.412230 
2003.000000	99.412244 
2002.000000	99.411991 
2001.000000	99.411704 
2000.000000	99.411447 
1999.000000	99.410897 
1998.000000	99.409830 
1997.000000	99.408483 
1996.000000	99.407352 
1995.000000	99.406932 
1994.000000	99.407649 
1993.000000	99.409561 
1992.000000	99.411836 
1991.000000	99.413185 
1990.000000	99.413111 
1989.000000	99.412255 
1988.000000	99.411601 
1987.000000	99.411725 
1986.000000	99.412852 
1985.000000	99.414913 
1984.000000	99.417148 
1983.000000	99.418288 
1982.000000	99.417595 
1981.000000	99.415393 
1980.000000	99.412794 
1979.000000	99.411000 
1978.000000	99.410622 
1977.000000	99.411122 
1976.000000	99.410896 
1975.000000	99.408704 
1974.000000	99.405008 
1973.000000	99.401706 
1972.000000	99.400258 
1971.000000	99.400504 
1970.000000	99.401381 
1969.000000	99.402328 
1968.000000	99.403637 
1967.000000	99.405496 
1966.000000	99.407221 
1965.000000	99.407817 
1964.000000	99.407155 
1963.000000	99.406136 
1962.000000	99.405602 
1961.000000	99.405417 
1960.000000	99.404968 
1959.000000	99.404214 
1958.000000	99.403665 
1957.000000	99.403493 
1956.000000	99.403206 
1955.000000	99.402162 
1954.000000	99.399941 
1953.000000	99.396486 
1952.000000	99.392496 
1951.000000	99.389486 
1950.000000	99.388661 
1949.000000	99.389691 
1948.000000	99.390968 
1947.000000	99.391300 
1946.000000	99.390767 
1945.000000	99.389765 
1944.000000	99.388303 
1943.000000	99.386580 
1942.000000	99.385325 
1941.000000	99.384862 
1940.000000	99.384676 
1939.000000	99.384320 
1938.000000	99.384039 
1937.000000	99.384268 
1936.000000	99.384963 
1935.000000	99.385671 
1934.000000	99.386007 
1933.000000	99.385889 
1932.000000	99.385522 
1931.000000	99.385308 
1930.000000	99.385556 
1929.000000	99.386165 
1928.000000	99.386696 
1927.000000	99.386811 
1926.000000	99.386532 
1925.000000	99.386068 
1924.000000	99.385634 
1923.000000	99.385372 
1922.000000	99.385334 
1921.000000	99.385462 
1920.000000	99.385629 
1919.000000	99.385740 
1918.000000	99.385788 
1917.000000	99.385815 
1916.000000	99.385857 
1915.000000	99.385930 
1914.000000	99.386037 
1913.000000	99.386166 
1912.000000	99.386295 
1911.000000	99.386408 
1910.000000	99.386502 
1909.000000	99.386577 
1908.000000	99.386628 
1907.000000	99.386653 
1906.000000	99.386651 
1905.000000	99.386623 
1904.000000	99.386564 
1903.000000	99.386469 
1902.000000	99.386348 
1901.000000	99.386217 
1900.000000	99.386099 
1899.000000	99.386009 
1898.000000	99.385955 
1897.000000	99.385928 
1896.000000	99.385904 
1895.000000	99.385863 
1894.000000	99.385806 
1893.000000	99.385764 
1892.000000	99.385761 
1891.000000	99.385780 
1890.000000	99.385784 
1889.000000	99.385768 
1888.000000	99.385737 
1887.000000	99.385686 
1886.000000	99.385632 
1885.000000	99.385583 
1884.000000	99.385463 
1883.000000	99.385161 
1882.000000	99.384692 
1881.000000	99.384195 
1880.000000	99.383807 
1879.000000	99.383585 
1878.000000	99.383488 
1877.000000	99.383346 
1876.000000	99.382973 
1875.000000	99.382475 
1874.000000	99.382328 
1873.000000	99.382886 
1872.000000	99.383876 
1871.000000	99.384502 
1870.000000	99.384234 
1869.000000	99.383240 
1868.000000	99.382066 
1867.000000	99.380976 
1866.000000	99.380078 
1865.000000	99.379578 
1864.000000	99.379594 
1863.000000	99.380123 
1862.000000	99.381233 
1861.000000	99.382931 
1860.000000	99.384716 
1859.000000	99.385871 
1858.000000	99.386321 
1857.000000	99.386572 
1856.000000	99.386964 
1855.000000	99.387461 
1854.000000	99.388018 
1853.000000	99.388593 
1852.000000	99.388865 
1851.000000	99.388474 
1850.000000	99.387518 
1849.000000	99.386616 
1848.000000	99.386316 
1847.000000	99.386718 
1846.000000	99.387698 
1845.000000	99.388920 
1844.000000	99.389683 
1843.000000	99.389541 
1842.000000	99.389014 
1841.000000	99.388949 
1840.000000	99.389682 
1839.000000	99.391002 
1838.000000	99.392509 
1837.000000	99.393885 
1836.000000	99.394901 
1835.000000	99.395542 
1834.000000	99.396085 
1833.000000	99.396871 
1832.000000	99.398014 
1831.000000	99.399203 
1830.000000	99.399809 
1829.000000	99.399543 
1828.000000	99.398839 
1827.000000	99.398354 
1826.000000	99.398462 
1825.000000	99.399319 
1824.000000	99.400677 
1823.000000	99.401842 
1822.000000	99.402224 
1821.000000	99.401619 
1820.000000	99.400283 
1819.000000	99.398876 
1818.000000	99.398179 
1817.000000	99.398563 
1816.000000	99.399483 
1815.000000	99.400056 
1814.000000	99.400242 
1813.000000	99.400930 
1812.000000	99.402963 
1811.000000	99.406085 
1810.000000	99.409378 
1809.000000	99.412367 
1808.000000	99.414622 
1807.000000	99.415242 
1806.000000	99.413769 
1805.000000	99.411077 
1804.000000	99.408744 
1803.000000	99.407624 
1802.000000	99.407696 
1801.000000	99.408742 
1800.000000	99.410158 
1799.000000	99.410900 
1798.000000	99.410800 
1797.000000	99.410739 
1796.000000	99.411355 
1795.000000	99.412476 
1794.000000	99.413641 
1793.000000	99.414530 
1792.000000	99.415182 
1791.000000	99.415477 
1790.000000	99.415245 
1789.000000	99.414960 
1788.000000	99.415489 
1787.000000	99.417271 
1786.000000	99.419820 
1785.000000	99.421699 
1784.000000	99.421291 
1783.000000	99.418799 
1782.000000	99.416504 
1781.000000	99.415796 
1780.000000	99.414983 
1779.000000	99.411351 
1778.000000	99.405571 
1777.000000	99.401177 
1776.000000	99.400504 
1775.000000	99.403507 
1774.000000	99.408747 
1773.000000	99.413518 
1772.000000	99.414626 
1771.000000	99.411963 
1770.000000	99.408824 
1769.000000	99.407390 
1768.000000	99.407255 
1767.000000	99.406448 
1766.000000	99.404059 
1765.000000	99.401460 
1764.000000	99.400098 
1763.000000	99.399828 
1762.000000	99.399376 
1761.000000	99.397988 
1760.000000	99.396385 
1759.000000	99.395004 
1758.000000	99.392960 
1757.000000	99.388532 
1756.000000	99.380967 
1755.000000	99.371641 
1754.000000	99.361890 
1753.000000	99.351502 
1752.000000	99.341272 
1751.000000	99.335182 
1750.000000	99.335365 
1749.000000	99.338002 
1748.000000	99.338031 
1747.000000	99.334353 
1746.000000	99.329120 
1745.000000	99.324534 
1744.000000	99.322096 
1743.000000	99.322668 
1742.000000	99.325914 
1741.000000	99.330689 
1740.000000	99.335414 
1739.000000	99.338744 
1738.000000	99.341080 
1737.000000	99.343722 
1736.000000	99.346882 
1735.000000	99.349273 
1734.000000	99.350062 
1733.000000	99.350982 
1732.000000	99.354905 
1731.000000	99.362273 
1730.000000	99.371228 
1729.000000	99.379028 
1728.000000	99.383962 
1727.000000	99.386342 
1726.000000	99.387085 
1725.000000	99.386506 
1724.000000	99.384994 
1723.000000	99.383760 
1722.000000	99.384453 
1721.000000	99.387927 
1720.000000	99.393348 
1719.000000	99.398256 
1718.000000	99.399796 
1717.000000	99.398081 
1716.000000	99.395898 
1715.000000	99.394709 
1714.000000	99.394743 
1713.000000	99.395958 
1712.000000	99.397646 
1711.000000	99.399133 
1710.000000	99.400527 
1709.000000	99.402324 
1708.000000	99.404719 
1707.000000	99.407600 
1706.000000	99.410950 
1705.000000	99.414398 
1704.000000	99.416922 
1703.000000	99.418040 
1702.000000	99.418335 
1701.000000	99.418975 
1700.000000	99.420654 
1699.000000	99.422842 
1698.000000	99.424996 
1697.000000	99.427027 
1696.000000	99.428904 
1695.000000	99.430504 
1694.000000	99.431892 
1693.000000	99.433228 
1692.000000	99.434489 
1691.000000	99.435591 
1690.000000	99.436576 
1689.000000	99.437572 
1688.000000	99.438625 
1687.000000	99.439665 
1686.000000	99.440673 
1685.000000	99.441797 
1684.000000	99.443066 
1683.000000	99.444221 
1682.000000	99.445251 
1681.000000	99.446230 
1680.000000	99.447195 
1679.000000	99.448177 
1678.000000	99.449199 
1677.000000	99.450255 
1676.000000	99.451287 
1675.000000	99.452250 
1674.000000	99.453157 
1673.000000	99.454066 
1672.000000	99.454972 
1671.000000	99.455840 
1670.000000	99.456739 
1669.000000	99.457691 
1668.000000	99.458671 
1667.000000	99.459583 
1666.000000	99.460050 
1665.000000	99.459817 
1664.000000	99.459295 
1663.000000	99.459517 
1662.000000	99.461164 
1661.000000	99.463747 
1660.000000	99.466165 
1659.000000	99.467928 
1658.000000	99.469247 
1657.000000	99.470059 
1656.000000	99.469753 
1655.000000	99.468128 
1654.000000	99.466402 
1653.000000	99.465220 
1652.000000	99.464073 
1651.000000	99.464499 
1650.000000	99.465488 
1649.000000	99.465697 
1648.000000	99.464947 
1647.000000	99.463860 
1646.000000	99.463105 
1645.000000	99.463446 
1644.000000	99.465049 
1643.000000	99.467294 
1642.000000	99.469478 
1641.000000	99.471077 
1640.000000	99.471734 
1639.000000	99.471423 
1638.000000	99.470592 
1637.000000	99.470003 
1636.000000	99.469839 
1635.000000	99.469642 
1634.000000	99.470086 
1633.000000	99.471608 
1632.000000	99.473309 
1631.000000	99.474402 
1630.000000	99.474853 
1629.000000	99.475026 
1628.000000	99.475082 
1627.000000	99.475011 
1626.000000	99.474947 
1625.000000	99.475100 
1624.000000	99.475608 
1623.000000	99.476580 
1622.000000	99.478167 
1621.000000	99.480105 
1620.000000	99.481379 
1619.000000	99.481215 
1618.000000	99.480017 
1617.000000	99.478845 
1616.000000	99.478182 
1615.000000	99.478155 
1614.000000	99.478356 
1613.000000	99.477968 
1612.000000	99.476779 
1611.000000	99.475233 
1610.000000	99.473958 
1609.000000	99.473195 
1608.000000	99.472772 
1607.000000	99.472503 
1606.000000	99.472343 
1605.000000	99.472260 
1604.000000	99.472381 
1603.000000	99.472992 
1602.000000	99.474045 
1601.000000	99.474881 
1600.000000	99.474945 
1599.000000	99.474527 
1598.000000	99.474432 
1597.000000	99.475167 
1596.000000	99.476579 
1595.000000	99.478065 
1594.000000	99.479076 
1593.000000	99.479370 
1592.000000	99.479094 
1591.000000	99.478659 
1590.000000	99.478413 
1589.000000	99.478361 
1588.000000	99.478355 
1587.000000	99.478393 
1586.000000	99.478484 
1585.000000	99.478474 
1584.000000	99.478208 
1583.000000	99.477768 
1582.000000	99.477380 
1581.000000	99.477155 
1580.000000	99.477033 
1579.000000	99.476931 
1578.000000	99.476816 
1577.000000	99.476673 
1576.000000	99.476511 
1575.000000	99.476379 
1574.000000	99.476287 
1573.000000	99.476198 
1572.000000	99.476100 
1571.000000	99.476001 
1570.000000	99.475904 
1569.000000	99.475810 
1568.000000	99.475715 
1567.000000	99.475614 
1566.000000	99.475504 
1565.000000	99.475381 
1564.000000	99.475248 
1563.000000	99.475106 
1562.000000	99.474957 
1561.000000	99.474799 
1560.000000	99.474631 
1559.000000	99.474459 
1558.000000	99.474295 
1557.000000	99.474152 
1556.000000	99.474030 
1555.000000	99.473918 
1554.000000	99.473805 
1553.000000	99.473683 
1552.000000	99.473556 
1551.000000	99.473427 
1550.000000	99.473302 
1549.000000	99.473184 
1548.000000	99.473074 
1547.000000	99.472969 
1546.000000	99.472867 
1545.000000	99.472773 
1544.000000	99.472692 
1543.000000	99.472633 
1542.000000	99.472600 
1541.000000	99.472597 
1540.000000	99.472622 
1539.000000	99.472673 
1538.000000	99.472757 
1537.000000	99.472877 
1536.000000	99.473030 
1535.000000	99.473206 
1534.000000	99.473393 
1533.000000	99.473590 
1532.000000	99.473831 
1531.000000	99.474067 
1530.000000	99.474211 
1529.000000	99.474280 
1528.000000	99.474355 
1527.000000	99.474483 
1526.000000	99.474664 
1525.000000	99.474886 
1524.000000	99.475102 
1523.000000	99.475285 
1522.000000	99.475688 
1521.000000	99.476525 
1520.000000	99.477156 
1519.000000	99.476905 
1518.000000	99.475923 
1517.000000	99.475007 
1516.000000	99.474655 
1515.000000	99.474604 
1514.000000	99.474619 
1513.000000	99.474693 
1512.000000	99.474779 
1511.000000	99.474619 
1510.000000	99.473932 
1509.000000	99.473025 
1508.000000	99.473568 
1507.000000	99.476799 
1506.000000	99.478745 
1505.000000	99.477451 
1504.000000	99.475744 
1503.000000	99.474772 
1502.000000	99.474638 
1501.000000	99.475661 
1500.000000	99.477939 
1499.000000	99.480805 
1498.000000	99.482929 
1497.000000	99.484068 
1496.000000	99.484981 
1495.000000	99.485058 
1494.000000	99.482884 
1493.000000	99.478136 
1492.000000	99.471674 
1491.000000	99.465477 
1490.000000	99.461773 
1489.000000	99.460952 
1488.000000	99.460896 
1487.000000	99.459749 
1486.000000	99.458517 
1485.000000	99.458794 
1484.000000	99.460476 
1483.000000	99.462460 
1482.000000	99.463227 
1481.000000	99.461866 
1480.000000	99.458595 
1479.000000	99.454408 
1478.000000	99.450321 
1477.000000	99.447135 
1476.000000	99.445169 
1475.000000	99.443331 
1474.000000	99.440901 
1473.000000	99.438817 
1472.000000	99.437168 
1471.000000	99.433791 
1470.000000	99.428367 
1469.000000	99.423054 
1468.000000	99.419822 
1467.000000	99.418919 
1466.000000	99.419803 
1465.000000	99.421895 
1464.000000	99.424049 
1463.000000	99.425273 
1462.000000	99.425525 
1461.000000	99.425402 
1460.000000	99.424902 
1459.000000	99.423402 
1458.000000	99.420306 
1457.000000	99.416596 
1456.000000	99.413768 
1455.000000	99.412305 
1454.000000	99.412497 
1453.000000	99.414562 
1452.000000	99.417748 
1451.000000	99.420468 
1450.000000	99.422272 
1449.000000	99.424632 
1448.000000	99.428490 
1447.000000	99.432127 
1446.000000	99.434043 
1445.000000	99.434931 
1444.000000	99.435765 
1443.000000	99.436069 
1442.000000	99.435171 
1441.000000	99.433582 
1440.000000	99.432541 
1439.000000	99.432828 
1438.000000	99.433763 
1437.000000	99.434634 
1436.000000	99.434888 
1435.000000	99.433482 
1434.000000	99.431040 
1433.000000	99.430024 
1432.000000	99.431812 
1431.000000	99.435985 
1430.000000	99.440372 
1429.000000	99.442967 
1428.000000	99.443448 
1427.000000	99.442375 
1426.000000	99.440325 
1425.000000	99.437410 
1424.000000	99.434648 
1423.000000	99.433173 
1422.000000	99.431865 
1421.000000	99.428706 
1420.000000	99.423455 
1419.000000	99.418804 
1418.000000	99.415888 
1417.000000	99.413422 
1416.000000	99.411370 
1415.000000	99.409617 
1414.000000	99.406756 
1413.000000	99.401767 
1412.000000	99.396170 
1411.000000	99.392805 
1410.000000	99.392097 
1409.000000	99.392354 
1408.000000	99.392624 
1407.000000	99.392866 
1406.000000	99.393136 
1405.000000	99.393926 
1404.000000	99.396393 
1403.000000	99.400103 
1402.000000	99.402492 
1401.000000	99.402225 
1400.000000	99.400867 
1399.000000	99.400904 
1398.000000	99.401474 
1397.000000	99.399355 
1396.000000	99.393943 
1395.000000	99.388755 
1394.000000	99.387650 
1393.000000	99.390914 
1392.000000	99.397311 
1391.000000	99.405402 
1390.000000	99.413086 
1389.000000	99.418138 
1388.000000	99.419622 
1387.000000	99.418465 
1386.000000	99.416077 
1385.000000	99.413461 
1384.000000	99.411282 
1383.000000	99.409805 
1382.000000	99.408995 
1381.000000	99.409379 
1380.000000	99.411569 
1379.000000	99.415059 
1378.000000	99.418146 
1377.000000	99.419575 
1376.000000	99.420231 
1375.000000	99.422605 
1374.000000	99.427909 
1373.000000	99.433940 
1372.000000	99.437888 
1371.000000	99.440113 
1370.000000	99.443384 
1369.000000	99.448781 
1368.000000	99.454894 
1367.000000	99.459984 
1366.000000	99.463603 
1365.000000	99.466149 
1364.000000	99.467779 
1363.000000	99.468808 
1362.000000	99.470107 
1361.000000	99.471932 
1360.000000	99.473610 
1359.000000	99.474946 
1358.000000	99.476848 
1357.000000	99.480052 
1356.000000	99.484005 
1355.000000	99.487544 
1354.000000	99.490204 
1353.000000	99.492147 
1352.000000	99.492847 
1351.000000	99.491421 
1350.000000	99.489152 
1349.000000	99.488067 
1348.000000	99.488869 
1347.000000	99.490857 
1346.000000	99.493465 
1345.000000	99.496264 
1344.000000	99.498288 
1343.000000	99.498708 
1342.000000	99.498092 
1341.000000	99.497885 
1340.000000	99.498752 
1339.000000	99.500192 
1338.000000	99.501549 
1337.000000	99.502841 
1336.000000	99.504321 
1335.000000	99.505829 
1334.000000	99.507187 
1333.000000	99.508582 
1332.000000	99.510040 
1331.000000	99.511129 
1330.000000	99.511410 
1329.000000	99.510695 
1328.000000	99.509207 
1327.000000	99.507688 
1326.000000	99.507176 
1325.000000	99.507753 
1324.000000	99.508778 
1323.000000	99.509801 
1322.000000	99.510697 
1321.000000	99.511101 
1320.000000	99.510580 
1319.000000	99.509393 
1318.000000	99.508395 
1317.000000	99.508022 
1316.000000	99.507852 
1315.000000	99.507362 
1314.000000	99.506612 
1313.000000	99.506027 
1312.000000	99.505850 
1311.000000	99.506085 
1310.000000	99.506778 
1309.000000	99.507881 
1308.000000	99.508954 
1307.000000	99.509303 
1306.000000	99.508708 
1305.000000	99.507613 
1304.000000	99.506893 
1303.000000	99.507200 
1302.000000	99.508577 
1301.000000	99.510420 
1300.000000	99.511801 
1299.000000	99.511997 
1298.000000	99.510890 
1297.000000	99.509056 
1296.000000	99.507379 
1295.000000	99.506602 
1294.000000	99.507052 
1293.000000	99.508535 
1292.000000	99.510220 
1291.000000	99.510839 
1290.000000	99.509606 
1289.000000	99.507149 
1288.000000	99.505154 
1287.000000	99.504585 
1286.000000	99.504591 
1285.000000	99.503724 
1284.000000	99.501854 
1283.000000	99.500148 
1282.000000	99.499372 
1281.000000	99.499129 
1280.000000	99.498816 
1279.000000	99.498385 
1278.000000	99.497712 
1277.000000	99.496148 
1276.000000	99.493323 
1275.000000	99.490060 
1274.000000	99.487785 
1273.000000	99.487134 
1272.000000	99.487563 
1271.000000	99.488024 
1270.000000	99.487638 
1269.000000	99.486067 
1268.000000	99.483808 
1267.000000	99.481902 
1266.000000	99.480701 
1265.000000	99.479305 
1264.000000	99.476673 
1263.000000	99.472847 
1262.000000	99.468632 
1261.000000	99.464601 
1260.000000	99.461136 
1259.000000	99.458993 
1258.000000	99.458666 
1257.000000	99.459556 
1256.000000	99.460526 
1255.000000	99.461165 
1254.000000	99.461723 
1253.000000	99.462041 
1252.000000	99.461491 
1251.000000	99.460113 
1250.000000	99.458925 
1249.000000	99.458856 
1248.000000	99.460011 
1247.000000	99.462009 
1246.000000	99.464136 
1245.000000	99.465073 
1244.000000	99.463504 
1243.000000	99.459655 
1242.000000	99.455774 
1241.000000	99.454303 
1240.000000	99.455725 
1239.000000	99.458512 
1238.000000	99.460723 
1237.000000	99.461347 
1236.000000	99.460408 
1235.000000	99.458464 
1234.000000	99.456073 
1233.000000	99.453434 
1232.000000	99.450526 
1231.000000	99.447490 
1230.000000	99.444553 
1229.000000	99.441621 
1228.000000	99.438592 
1227.000000	99.436210 
1226.000000	99.435837 
1225.000000	99.437760 
1224.000000	99.440222 
1223.000000	99.440874 
1222.000000	99.439060 
1221.000000	99.436119 
1220.000000	99.433701 
1219.000000	99.432341 
1218.000000	99.431475 
1217.000000	99.430143 
1216.000000	99.427566 
1215.000000	99.423734 
1214.000000	99.419844 
1213.000000	99.417703 
1212.000000	99.418082 
1211.000000	99.419508 
1210.000000	99.419179 
1209.000000	99.415443 
1208.000000	99.409177 
1207.000000	99.402710 
1206.000000	99.397580 
1205.000000	99.393661 
1204.000000	99.390217 
1203.000000	99.386841 
1202.000000	99.383008 
1201.000000	99.377679 
1200.000000	99.370406 
1199.000000	99.362563 
1198.000000	99.356413 
1197.000000	99.352790 
1196.000000	99.350386 
1195.000000	99.347365 
1194.000000	99.342950 
1193.000000	99.337306 
1192.000000	99.330780 
1191.000000	99.323794 
1190.000000	99.316976 
1189.000000	99.310884 
1188.000000	99.305837 
1187.000000	99.302114 
1186.000000	99.299730 
1185.000000	99.297690 
1184.000000	99.294042 
1183.000000	99.287353 
1182.000000	99.278088 
1181.000000	99.268344 
1180.000000	99.260291 
1179.000000	99.254908 
1178.000000	99.251603 
1177.000000	99.248491 
1176.000000	99.243564 
1175.000000	99.236382 
1174.000000	99.228592 
1173.000000	99.222302 
1172.000000	99.218127 
1171.000000	99.215142 
1170.000000	99.212229 
1169.000000	99.208785 
1168.000000	99.204337 
1167.000000	99.198433 
1166.000000	99.191285 
1165.000000	99.184053 
1164.000000	99.178156 
1163.000000	99.174419 
1162.000000	99.172841 
1161.000000	99.172820 
1160.000000	99.173546 
1159.000000	99.174550 
1158.000000	99.175865 
1157.000000	99.177248 
1156.000000	99.177295 
1155.000000	99.174025 
1154.000000	99.166733 
1153.000000	99.156966 
1152.000000	99.147440 
1151.000000	99.140082 
1150.000000	99.135069 
1149.000000	99.131267 
1148.000000	99.127152 
1147.000000	99.121544 
1146.000000	99.114012 
1145.000000	99.104924 
1144.000000	99.095226 
1143.000000	99.086259 
1142.000000	99.079428 
1141.000000	99.075314 
1140.000000	99.072774 
1139.000000	99.069320 
1138.000000	99.063135 
1137.000000	99.054828 
1136.000000	99.046927 
1135.000000	99.041442 
1134.000000	99.038122 
1133.000000	99.035095 
1132.000000	99.030681 
1131.000000	99.024301 
1130.000000	99.016300 
1129.000000	99.007614 
1128.000000	98.999317 
1127.000000	98.991645 
1126.000000	98.983484 
1125.000000	98.973608 
1124.000000	98.962484 
1123.000000	98.951967 
1122.000000	98.942862 
1121.000000	98.933871 
1120.000000	98.923673 
1119.000000	98.912957 
1118.000000	98.903224 
1117.000000	98.894259 
1116.000000	98.884289 
1115.000000	98.872413 
1114.000000	98.859453 
1113.000000	98.846306 
1112.000000	98.833034 
1111.000000	98.820221 
1110.000000	98.809750 
1109.000000	98.802811 
1108.000000	98.797727 
1107.000000	98.791023 
1106.000000	98.780955 
1105.000000	98.768835 
1104.000000	98.756877 
1103.000000	98.745774 
1102.000000	98.735064 
1101.000000	98.725003 
1100.000000	98.716941 
1099.000000	98.710929 
1098.000000	98.705056 
1097.000000	98.697354 
1096.000000	98.688046 
1095.000000	98.678937 
1094.000000	98.670829 
1093.000000	98.662582 
1092.000000	98.652795 
1091.000000	98.641365 
1090.000000	98.628898 
1089.000000	98.615446 
1088.000000	98.600664 
1087.000000	98.584979 
1086.000000	98.569829 
1085.000000	98.556557 
1084.000000	98.545349 
1083.000000	98.535246 
1082.000000	98.524880 
1081.000000	98.513254 
1080.000000	98.500193 
1079.000000	98.486318 
1078.000000	98.472617 
1077.000000	98.460058 
1076.000000	98.449512 
1075.000000	98.441563 
1074.000000	98.435889 
1073.000000	98.431023 
1072.000000	98.424961 
1071.000000	98.415666 
1070.000000	98.401109 
1069.000000	98.380317 
1068.000000	98.355687 
1067.000000	98.333481 
1066.000000	98.319767 
1065.000000	98.315271 
1064.000000	98.314882 
1063.000000	98.312159 
1062.000000	98.303618 
1061.000000	98.288985 
1060.000000	98.269839 
1059.000000	98.249627 
1058.000000	98.233254 
1057.000000	98.223891 
1056.000000	98.219592 
1055.000000	98.214234 
1054.000000	98.202826 
1053.000000	98.185812 
1052.000000	98.167799 
1051.000000	98.152381 
1050.000000	98.138997 
1049.000000	98.125141 
1048.000000	98.110540 
1047.000000	98.097698 
1046.000000	98.088452 
1045.000000	98.081494 
1044.000000	98.074069 
1043.000000	98.065386 
1042.000000	98.057185 
1041.000000	98.050763 
1040.000000	98.044650 
1039.000000	98.036363 
1038.000000	98.026140 
1037.000000	98.017777 
1036.000000	98.015404 
1035.000000	98.020256 
1034.000000	98.030550 
1033.000000	98.042980 
1032.000000	98.053272 
1031.000000	98.056864 
1030.000000	98.052000 
1029.000000	98.042913 
1028.000000	98.037894 
1027.000000	98.042554 
1026.000000	98.055398 
1025.000000	98.070343 
1024.000000	98.082528 
1023.000000	98.090779 
1022.000000	98.095943 
1021.000000	98.099111 
1020.000000	98.101449 
1019.000000	98.104015 
1018.000000	98.106873 
1017.000000	98.109010 
1016.000000	98.109663 
1015.000000	98.109583 
1014.000000	98.110758 
1013.000000	98.114641 
1012.000000	98.120367 
1011.000000	98.124969 
1010.000000	98.126350 
1009.000000	98.126306 
1008.000000	98.129378 
1007.000000	98.138188 
1006.000000	98.151023 
1005.000000	98.164513 
1004.000000	98.177183 
1003.000000	98.189094 
1002.000000	98.199688 
1001.000000	98.208381 
1000.000000	98.216507 
999.000000	 98.226141 
998.000000	 98.236885 
997.000000	 98.246009 
996.000000	 98.252517 
995.000000	 98.259349 
994.000000	 98.270406 
993.000000	 98.286220 
992.000000	 98.303172 
991.000000	 98.316503 
990.000000	 98.324132 
989.000000	 98.328303 
988.000000	 98.333638 
987.000000	 98.342905 
986.000000	 98.354808 
985.000000	 98.366574 
984.000000	 98.377895 
983.000000	 98.390828 
982.000000	 98.406492 
981.000000	 98.423984 
980.000000	 98.442559 
979.000000	 98.462482 
978.000000	 98.482979 
977.000000	 98.501701 
976.000000	 98.517745 
975.000000	 98.533559 
974.000000	 98.552202 
973.000000	 98.573907 
972.000000	 98.596689 
971.000000	 98.619028 
970.000000	 98.640304 
969.000000	 98.659837 
968.000000	 98.677717 
967.000000	 98.695978 
966.000000	 98.716541 
965.000000	 98.737830 
964.000000	 98.755589 
963.000000	 98.767555 
962.000000	 98.775590 
961.000000	 98.782899 
960.000000	 98.791005 
959.000000	 98.800256 
958.000000	 98.811247 
957.000000	 98.823950 
956.000000	 98.836681 
955.000000	 98.847861 
954.000000	 98.858309 
953.000000	 98.870134 
952.000000	 98.883557 
951.000000	 98.896397 
950.000000	 98.906785 
949.000000	 98.914919 
948.000000	 98.921909 
947.000000	 98.928444 
946.000000	 98.935253 
945.000000	 98.943630 
944.000000	 98.954205 
943.000000	 98.965478 
942.000000	 98.974512 
941.000000	 98.979444 
940.000000	 98.981158 
939.000000	 98.982440 
938.000000	 98.985600 
937.000000	 98.990742 
936.000000	 98.996064 
935.000000	 98.999740 
934.000000	 99.001525 
933.000000	 99.002580 
932.000000	 99.004112 
931.000000	 99.006722 
930.000000	 99.010978 
929.000000	 99.017698 
928.000000	 99.026900 
927.000000	 99.036712 
926.000000	 99.044318 
925.000000	 99.048406 
924.000000	 99.050157 
923.000000	 99.051268 
922.000000	 99.051478 
921.000000	 99.049129 
920.000000	 99.044341 
919.000000	 99.040352 
918.000000	 99.040531 
917.000000	 99.044633 
916.000000	 99.049240 
915.000000	 99.051872 
914.000000	 99.053428 
913.000000	 99.056255 
912.000000	 99.061146 
911.000000	 99.067070 
910.000000	 99.072874 
909.000000	 99.078267 
908.000000	 99.083538 
907.000000	 99.088989 
906.000000	 99.094423 
905.000000	 99.098973 
904.000000	 99.102271 
903.000000	 99.106396 
902.000000	 99.115414 
901.000000	 99.131373 
900.000000	 99.151069 
899.000000	 99.168115 
898.000000	 99.178801 
897.000000	 99.184629 
896.000000	 99.189028 
895.000000	 99.193555 
894.000000	 99.198211 
893.000000	 99.203882 
892.000000	 99.212348 
891.000000	 99.224041 
890.000000	 99.237399 
889.000000	 99.250839 
888.000000	 99.264100 
887.000000	 99.276896 
886.000000	 99.287400 
885.000000	 99.293569 
884.000000	 99.295877 
883.000000	 99.297576 
882.000000	 99.301543 
881.000000	 99.307431 
880.000000	 99.313060 
879.000000	 99.318135 
878.000000	 99.324999 
877.000000	 99.335053 
876.000000	 99.345786 
875.000000	 99.352853 
874.000000	 99.354815 
873.000000	 99.354683 
872.000000	 99.356957 
871.000000	 99.363771 
870.000000	 99.373740 
869.000000	 99.383186 
868.000000	 99.388633 
867.000000	 99.389359 
866.000000	 99.388486 
865.000000	 99.390714 
864.000000	 99.398213 
863.000000	 99.409133 
862.000000	 99.420116 
861.000000	 99.429492 
860.000000	 99.437523 
859.000000	 99.444768 
858.000000	 99.451794 
857.000000	 99.459786 
856.000000	 99.469461 
855.000000	 99.479212 
854.000000	 99.485931 
853.000000	 99.488269 
852.000000	 99.488067 
851.000000	 99.488050 
850.000000	 99.488943 
849.000000	 99.489690 
848.000000	 99.489796 
847.000000	 99.490285 
846.000000	 99.492459 
845.000000	 99.496634 
844.000000	 99.502391 
843.000000	 99.509200 
842.000000	 99.515850 
841.000000	 99.519661 
840.000000	 99.518003 
839.000000	 99.511706 
838.000000	 99.505890 
837.000000	 99.505155 
836.000000	 99.508148 
835.000000	 99.509449 
834.000000	 99.507262 
833.000000	 99.505913 
832.000000	 99.508308 
831.000000	 99.509015 
830.000000	 99.500167 
829.000000	 99.484038 
828.000000	 99.474225 
827.000000	 99.480750 
826.000000	 99.497453 
825.000000	 99.508921 
824.000000	 99.508776 
823.000000	 99.505134 
822.000000	 99.507771 
821.000000	 99.515611 
820.000000	 99.519892 
819.000000	 99.515452 
818.000000	 99.505532 
817.000000	 99.497354 
816.000000	 99.495032 
815.000000	 99.496382 
814.000000	 99.495155 
813.000000	 99.486269 
812.000000	 99.469872 
811.000000	 99.451103 
810.000000	 99.435791 
809.000000	 99.425802 
808.000000	 99.418022 
807.000000	 99.406922 
806.000000	 99.387965 
805.000000	 99.359738 
804.000000	 99.324691 
803.000000	 99.288584 
802.000000	 99.257918 
801.000000	 99.236286 
800.000000	 99.222617 
799.000000	 99.213028 
798.000000	 99.204783 
797.000000	 99.198665 
796.000000	 99.197418 
795.000000	 99.202403 
794.000000	 99.212718 
793.000000	 99.227172 
792.000000	 99.244854 
791.000000	 99.262373 
790.000000	 99.272764 
789.000000	 99.270526 
788.000000	 99.257972 
787.000000	 99.244216 
786.000000	 99.236751 
785.000000	 99.235285 
784.000000	 99.234534 
783.000000	 99.231275 
782.000000	 99.227039 
781.000000	 99.224737 
780.000000	 99.224768 
779.000000	 99.224857 
778.000000	 99.222999 
777.000000	 99.220747 
776.000000	 99.223315 
775.000000	 99.235195 
774.000000	 99.255179 
773.000000	 99.276624 
772.000000	 99.293448 
771.000000	 99.304790 
770.000000	 99.313065 
769.000000	 99.319438 
768.000000	 99.323304 
767.000000	 99.325257 
766.000000	 99.327951 
765.000000	 99.333408 
764.000000	 99.340888 
763.000000	 99.347826 
762.000000	 99.352087 
761.000000	 99.353515 
760.000000	 99.354320 
759.000000	 99.357755 
758.000000	 99.364960 
757.000000	 99.373294 
756.000000	 99.379270 
755.000000	 99.382993 
754.000000	 99.387935 
753.000000	 99.396097 
752.000000	 99.405399 
751.000000	 99.412486 
750.000000	 99.416343 
749.000000	 99.417965 
748.000000	 99.418249 
747.000000	 99.418391 
746.000000	 99.421245 
745.000000	 99.429057 
744.000000	 99.439453 
743.000000	 99.446320 
742.000000	 99.446284 
741.000000	 99.442491 
740.000000	 99.440831 
739.000000	 99.443481 
738.000000	 99.448101 
737.000000	 99.452261 
736.000000	 99.456200 
735.000000	 99.461043 
734.000000	 99.466708 
733.000000	 99.472967 
732.000000	 99.480696 
731.000000	 99.489617 
730.000000	 99.496249 
729.000000	 99.497237 
728.000000	 99.493965 
727.000000	 99.491294 
726.000000	 99.491945 
725.000000	 99.494613 
724.000000	 99.497781 
723.000000	 99.502334 
722.000000	 99.509049 
721.000000	 99.515697 
720.000000	 99.518540 
719.000000	 99.516083 
718.000000	 99.510300 
717.000000	 99.504799 
716.000000	 99.502644 
715.000000	 99.504501 
714.000000	 99.507770 
713.000000	 99.508865 
712.000000	 99.507369 
711.000000	 99.506762 
710.000000	 99.510064 
709.000000	 99.515646 
708.000000	 99.518597 
707.000000	 99.515542 
706.000000	 99.507675 
705.000000	 99.499735 
704.000000	 99.496046 
703.000000	 99.497308 
702.000000	 99.500094 
701.000000	 99.499552 
700.000000	 99.493126 
699.000000	 99.481428 
698.000000	 99.466822 
697.000000	 99.452056 
696.000000	 99.439644 
695.000000	 99.431329 
694.000000	 99.427521 
693.000000	 99.428854 
692.000000	 99.437448 
691.000000	 99.453169 
690.000000	 99.469969 
689.000000	 99.479825 
688.000000	 99.481564 
687.000000	 99.482048 
686.000000	 99.486301 
685.000000	 99.491644 
684.000000	 99.494113 
683.000000	 99.494818 
682.000000	 99.496993 
681.000000	 99.501178 
680.000000	 99.506616 
679.000000	 99.513151 
678.000000	 99.518196 
677.000000	 99.517251 
676.000000	 99.510267 
675.000000	 99.503852 
674.000000	 99.503013 
673.000000	 99.504038 
672.000000	 99.498881 
671.000000	 99.484656 
670.000000	 99.464717 
669.000000	 99.446436 
668.000000	 99.440055 
667.000000	 99.447055 
666.000000	 99.461552 
665.000000	 99.481733 
664.000000	 99.501315 
663.000000	 99.511780 
662.000000	 99.511912 
661.000000	 99.510340 
660.000000	 99.514700 
659.000000	 99.521824 
658.000000	 99.522863 
657.000000	 99.514291 
656.000000	 99.499128 
655.000000	 99.483243 
654.000000	 99.472207 
653.000000	 99.466521 
652.000000	 99.460048 
651.000000	 99.449619 
650.000000	 99.444219 

