4000.000000	99.245833 
3999.000000	99.245661 
3998.000000	99.245444 
3997.000000	99.246826 
3996.000000	99.249507 
3995.000000	99.251726 
3994.000000	99.252363 
3993.000000	99.251923 
3992.000000	99.251320 
3991.000000	99.250334 
3990.000000	99.247902 
3989.000000	99.243714 
3988.000000	99.239038 
3987.000000	99.235954 
3986.000000	99.235956 
3985.000000	99.239099 
3984.000000	99.244154 
3983.000000	99.249737 
3982.000000	99.255494 
3981.000000	99.262049 
3980.000000	99.269501 
3979.000000	99.276182 
3978.000000	99.279447 
3977.000000	99.277867 
3976.000000	99.272422 
3975.000000	99.265500 
3974.000000	99.259090 
3973.000000	99.254116 
3972.000000	99.251013 
3971.000000	99.250326 
3970.000000	99.252578 
3969.000000	99.257390 
3968.000000	99.263016 
3967.000000	99.267052 
3966.000000	99.267865 
3965.000000	99.265373 
3964.000000	99.260696 
3963.000000	99.255627 
3962.000000	99.252267 
3961.000000	99.252140 
3960.000000	99.254673 
3959.000000	99.257031 
3958.000000	99.256780 
3957.000000	99.254396 
3956.000000	99.252613 
3955.000000	99.253179 
3954.000000	99.255173 
3953.000000	99.256481 
3952.000000	99.255923 
3951.000000	99.253853 
3950.000000	99.250950 
3949.000000	99.247357 
3948.000000	99.243470 
3947.000000	99.241069 
3946.000000	99.242243 
3945.000000	99.246890 
3944.000000	99.252039 
3943.000000	99.254323 
3942.000000	99.253215 
3941.000000	99.251299 
3940.000000	99.250743 
3939.000000	99.250859 
3938.000000	99.250049 
3937.000000	99.247954 
3936.000000	99.245243 
3935.000000	99.242228 
3934.000000	99.239256 
3933.000000	99.237985 
3932.000000	99.240202 
3931.000000	99.245571 
3930.000000	99.251368 
3929.000000	99.254806 
3928.000000	99.255142 
3927.000000	99.252981 
3926.000000	99.249260 
3925.000000	99.245572 
3924.000000	99.244076 
3923.000000	99.245056 
3922.000000	99.245393 
3921.000000	99.242190 
3920.000000	99.236933 
3919.000000	99.233406 
3918.000000	99.232699 
3917.000000	99.233021 
3916.000000	99.233872 
3915.000000	99.236792 
3914.000000	99.241688 
3913.000000	99.245664 
3912.000000	99.246287 
3911.000000	99.243139 
3910.000000	99.237905 
3909.000000	99.232715 
3908.000000	99.229618 
3907.000000	99.229495 
3906.000000	99.231436 
3905.000000	99.233302 
3904.000000	99.233840 
3903.000000	99.234443 
3902.000000	99.236482 
3901.000000	99.237523 
3900.000000	99.233980 
3899.000000	99.226708 
3898.000000	99.220214 
3897.000000	99.217021 
3896.000000	99.216025 
3895.000000	99.216819 
3894.000000	99.222328 
3893.000000	99.233347 
3892.000000	99.244068 
3891.000000	99.247330 
3890.000000	99.246057 
3889.000000	99.246933 
3888.000000	99.249087 
3887.000000	99.247703 
3886.000000	99.241752 
3885.000000	99.235735 
3884.000000	99.236491 
3883.000000	99.243121 
3882.000000	99.247643 
3881.000000	99.245557 
3880.000000	99.238709 
3879.000000	99.232970 
3878.000000	99.233119 
3877.000000	99.236971 
3876.000000	99.239579 
3875.000000	99.238590 
3874.000000	99.235542 
3873.000000	99.234682 
3872.000000	99.235888 
3871.000000	99.232590 
3870.000000	99.221804 
3869.000000	99.213006 
3868.000000	99.218393 
3867.000000	99.233322 
3866.000000	99.243646 
3865.000000	99.245851 
3864.000000	99.245771 
3863.000000	99.246142 
3862.000000	99.245029 
3861.000000	99.240959 
3860.000000	99.235756 
3859.000000	99.229349 
3858.000000	99.220003 
3857.000000	99.208804 
3856.000000	99.202794 
3855.000000	99.208977 
3854.000000	99.219433 
3853.000000	99.217462 
3852.000000	99.213121 
3851.000000	99.223331 
3850.000000	99.237588 
3849.000000	99.243966 
3848.000000	99.244970 
3847.000000	99.245971 
3846.000000	99.247871 
3845.000000	99.249295 
3844.000000	99.249646 
3843.000000	99.249147 
3842.000000	99.248631 
3841.000000	99.248007 
3840.000000	99.247547 
3839.000000	99.248172 
3838.000000	99.249685 
3837.000000	99.249751 
3836.000000	99.247255 
3835.000000	99.243062 
3834.000000	99.238779 
3833.000000	99.236119 
3832.000000	99.236284 
3831.000000	99.239473 
3830.000000	99.244967 
3829.000000	99.250329 
3828.000000	99.252015 
3827.000000	99.248011 
3826.000000	99.241457 
3825.000000	99.238885 
3824.000000	99.243545 
3823.000000	99.252058 
3822.000000	99.257055 
3821.000000	99.251893 
3820.000000	99.243538 
3819.000000	99.244154 
3818.000000	99.249117 
3817.000000	99.247917 
3816.000000	99.239568 
3815.000000	99.232339 
3814.000000	99.233501 
3813.000000	99.237863 
3812.000000	99.236585 
3811.000000	99.231614 
3810.000000	99.230614 
3809.000000	99.236098 
3808.000000	99.242642 
3807.000000	99.243669 
3806.000000	99.241333 
3805.000000	99.242611 
3804.000000	99.245754 
3803.000000	99.244288 
3802.000000	99.237066 
3801.000000	99.227163 
3800.000000	99.223017 
3799.000000	99.226606 
3798.000000	99.227866 
3797.000000	99.222599 
3796.000000	99.216901 
3795.000000	99.217579 
3794.000000	99.224673 
3793.000000	99.233235 
3792.000000	99.239853 
3791.000000	99.244474 
3790.000000	99.247093 
3789.000000	99.247849 
3788.000000	99.248981 
3787.000000	99.253344 
3786.000000	99.260256 
3785.000000	99.265769 
3784.000000	99.267780 
3783.000000	99.267785 
3782.000000	99.266840 
3781.000000	99.263438 
3780.000000	99.256333 
3779.000000	99.247080 
3778.000000	99.240025 
3777.000000	99.237409 
3776.000000	99.236985 
3775.000000	99.236455 
3774.000000	99.237507 
3773.000000	99.242161 
3772.000000	99.248124 
3771.000000	99.250237 
3770.000000	99.246982 
3769.000000	99.243216 
3768.000000	99.244172 
3767.000000	99.247659 
3766.000000	99.247919 
3765.000000	99.244730 
3764.000000	99.244052 
3763.000000	99.249600 
3762.000000	99.257688 
3761.000000	99.263310 
3760.000000	99.266180 
3759.000000	99.266951 
3758.000000	99.264785 
3757.000000	99.259785 
3756.000000	99.254576 
3755.000000	99.251000 
3754.000000	99.249012 
3753.000000	99.249843 
3752.000000	99.254876 
3751.000000	99.258257 
3750.000000	99.251138 
3749.000000	99.237648 
3748.000000	99.229694 
3747.000000	99.229184 
3746.000000	99.230149 
3745.000000	99.226835 
3744.000000	99.216905 
3743.000000	99.212969 
3742.000000	99.222065 
3741.000000	99.228009 
3740.000000	99.223303 
3739.000000	99.217771 
3738.000000	99.218857 
3737.000000	99.222670 
3736.000000	99.223297 
3735.000000	99.222356 
3734.000000	99.223415 
3733.000000	99.224338 
3732.000000	99.222963 
3731.000000	99.223510 
3730.000000	99.229177 
3729.000000	99.235365 
3728.000000	99.236480 
3727.000000	99.234673 
3726.000000	99.236581 
3725.000000	99.244291 
3724.000000	99.251704 
3723.000000	99.252277 
3722.000000	99.246605 
3721.000000	99.240461 
3720.000000	99.238422 
3719.000000	99.239622 
3718.000000	99.240279 
3717.000000	99.238054 
3716.000000	99.233369 
3715.000000	99.226999 
3714.000000	99.219548 
3713.000000	99.212555 
3712.000000	99.206391 
3711.000000	99.199936 
3710.000000	99.194653 
3709.000000	99.192754 
3708.000000	99.193175 
3707.000000	99.193139 
3706.000000	99.191316 
3705.000000	99.188223 
3704.000000	99.184908 
3703.000000	99.181739 
3702.000000	99.177727 
3701.000000	99.172175 
3700.000000	99.167053 
3699.000000	99.163305 
3698.000000	99.158249 
3697.000000	99.150429 
3696.000000	99.143074 
3695.000000	99.140072 
3694.000000	99.140579 
3693.000000	99.140691 
3692.000000	99.138641 
3691.000000	99.134978 
3690.000000	99.128964 
3689.000000	99.118806 
3688.000000	99.108445 
3687.000000	99.106508 
3686.000000	99.113784 
3685.000000	99.121936 
3684.000000	99.125802 
3683.000000	99.127252 
3682.000000	99.128216 
3681.000000	99.125757 
3680.000000	99.116303 
3679.000000	99.102685 
3678.000000	99.090540 
3677.000000	99.081617 
3676.000000	99.071907 
3675.000000	99.060483 
3674.000000	99.059243 
3673.000000	99.072224 
3672.000000	99.085634 
3671.000000	99.092037 
3670.000000	99.093421 
3669.000000	99.091502 
3668.000000	99.089180 
3667.000000	99.086810 
3666.000000	99.083440 
3665.000000	99.081480 
3664.000000	99.083441 
3663.000000	99.088113 
3662.000000	99.091952 
3661.000000	99.092962 
3660.000000	99.092527 
3659.000000	99.093740 
3658.000000	99.097400 
3657.000000	99.100971 
3656.000000	99.101814 
3655.000000	99.103678 
3654.000000	99.110861 
3653.000000	99.120447 
3652.000000	99.129121 
3651.000000	99.138126 
3650.000000	99.145004 
3649.000000	99.141615 
3648.000000	99.128138 
3647.000000	99.115996 
3646.000000	99.114404 
3645.000000	99.122823 
3644.000000	99.135439 
3643.000000	99.147449 
3642.000000	99.157663 
3641.000000	99.166765 
3640.000000	99.175361 
3639.000000	99.183693 
3638.000000	99.192592 
3637.000000	99.202793 
3636.000000	99.211712 
3635.000000	99.214227 
3634.000000	99.208479 
3633.000000	99.199345 
3632.000000	99.193539 
3631.000000	99.194342 
3630.000000	99.200581 
3629.000000	99.204102 
3628.000000	99.199746 
3627.000000	99.196543 
3626.000000	99.198787 
3625.000000	99.201749 
3624.000000	99.205437 
3623.000000	99.212396 
3622.000000	99.221009 
3621.000000	99.226481 
3620.000000	99.225697 
3619.000000	99.219599 
3618.000000	99.213761 
3617.000000	99.214348 
3616.000000	99.221229 
3615.000000	99.228652 
3614.000000	99.230860 
3613.000000	99.225892 
3612.000000	99.216439 
3611.000000	99.207239 
3610.000000	99.201851 
3609.000000	99.202055 
3608.000000	99.207180 
3607.000000	99.214360 
3606.000000	99.220659 
3605.000000	99.224630 
3604.000000	99.226676 
3603.000000	99.227798 
3602.000000	99.228016 
3601.000000	99.227547 
3600.000000	99.228341 
3599.000000	99.231891 
3598.000000	99.236120 
3597.000000	99.237945 
3596.000000	99.236495 
3595.000000	99.233481 
3594.000000	99.231008 
3593.000000	99.231264 
3592.000000	99.235943 
3591.000000	99.245334 
3590.000000	99.257297 
3589.000000	99.266980 
3588.000000	99.267964 
3587.000000	99.258248 
3586.000000	99.244550 
3585.000000	99.234986 
3584.000000	99.231181 
3583.000000	99.230649 
3582.000000	99.230908 
3581.000000	99.230422 
3580.000000	99.228404 
3579.000000	99.225215 
3578.000000	99.221968 
3577.000000	99.220108 
3576.000000	99.220533 
3575.000000	99.222882 
3574.000000	99.225828 
3573.000000	99.228299 
3572.000000	99.230365 
3571.000000	99.232517 
3570.000000	99.234424 
3569.000000	99.234762 
3568.000000	99.232494 
3567.000000	99.228532 
3566.000000	99.226382 
3565.000000	99.229001 
3564.000000	99.234691 
3563.000000	99.239408 
3562.000000	99.241174 
3561.000000	99.240572 
3560.000000	99.238773 
3559.000000	99.236296 
3558.000000	99.233306 
3557.000000	99.230615 
3556.000000	99.230160 
3555.000000	99.233370 
3554.000000	99.239023 
3553.000000	99.243551 
3552.000000	99.244453 
3551.000000	99.242667 
3550.000000	99.240544 
3549.000000	99.238860 
3548.000000	99.237287 
3547.000000	99.236124 
3546.000000	99.236028 
3545.000000	99.236874 
3544.000000	99.237822 
3543.000000	99.238207 
3542.000000	99.238204 
3541.000000	99.238614 
3540.000000	99.240371 
3539.000000	99.243783 
3538.000000	99.248127 
3537.000000	99.251937 
3536.000000	99.253828 
3535.000000	99.253355 
3534.000000	99.250963 
3533.000000	99.247880 
3532.000000	99.245741 
3531.000000	99.245858 
3530.000000	99.247799 
3529.000000	99.249466 
3528.000000	99.249214 
3527.000000	99.247755 
3526.000000	99.247121 
3525.000000	99.248113 
3524.000000	99.249628 
3523.000000	99.250240 
3522.000000	99.249715 
3521.000000	99.248617 
3520.000000	99.247160 
3519.000000	99.245118 
3518.000000	99.242713 
3517.000000	99.240932 
3516.000000	99.240600 
3515.000000	99.241688 
3514.000000	99.243630 
3513.000000	99.245907 
3512.000000	99.247792 
3511.000000	99.248227 
3510.000000	99.246637 
3509.000000	99.244111 
3508.000000	99.242996 
3507.000000	99.244486 
3506.000000	99.246517 
3505.000000	99.244952 
3504.000000	99.237578 
3503.000000	99.227552 
3502.000000	99.222237 
3501.000000	99.227124 
3500.000000	99.240241 
3499.000000	99.252990 
3498.000000	99.257016 
3497.000000	99.251113 
3496.000000	99.241686 
3495.000000	99.236148 
3494.000000	99.236289 
3493.000000	99.238290 
3492.000000	99.238087 
3491.000000	99.235383 
3490.000000	99.232781 
3489.000000	99.232463 
3488.000000	99.234534 
3487.000000	99.237829 
3486.000000	99.241065 
3485.000000	99.243266 
3484.000000	99.244005 
3483.000000	99.243680 
3482.000000	99.242912 
3481.000000	99.241630 
3480.000000	99.239359 
3479.000000	99.236678 
3478.000000	99.235405 
3477.000000	99.236474 
3476.000000	99.238178 
3475.000000	99.237667 
3474.000000	99.234591 
3473.000000	99.232082 
3472.000000	99.233424 
3471.000000	99.238486 
3470.000000	99.244105 
3469.000000	99.247304 
3468.000000	99.247255 
3467.000000	99.244611 
3466.000000	99.240223 
3465.000000	99.234900 
3464.000000	99.229769 
3463.000000	99.226118 
3462.000000	99.224644 
3461.000000	99.225026 
3460.000000	99.226336 
3459.000000	99.227958 
3458.000000	99.230009 
3457.000000	99.232652 
3456.000000	99.235101 
3455.000000	99.236006 
3454.000000	99.235029 
3453.000000	99.233710 
3452.000000	99.234209 
3451.000000	99.237219 
3450.000000	99.241138 
3449.000000	99.243369 
3448.000000	99.242319 
3447.000000	99.238527 
3446.000000	99.234325 
3445.000000	99.232355 
3444.000000	99.233828 
3443.000000	99.237702 
3442.000000	99.241373 
3441.000000	99.242643 
3440.000000	99.241421 
3439.000000	99.239348 
3438.000000	99.237753 
3437.000000	99.236238 
3436.000000	99.233573 
3435.000000	99.229891 
3434.000000	99.227322 
3433.000000	99.228272 
3432.000000	99.233047 
3431.000000	99.239299 
3430.000000	99.243683 
3429.000000	99.244259 
3428.000000	99.241605 
3427.000000	99.237752 
3426.000000	99.234337 
3425.000000	99.231923 
3424.000000	99.230698 
3423.000000	99.230934 
3422.000000	99.232334 
3421.000000	99.233497 
3420.000000	99.232904 
3419.000000	99.230663 
3418.000000	99.228688 
3417.000000	99.228764 
3416.000000	99.230651 
3415.000000	99.232372 
3414.000000	99.232250 
3413.000000	99.230403 
3412.000000	99.228290 
3411.000000	99.227345 
3410.000000	99.228338 
3409.000000	99.231464 
3408.000000	99.236112 
3407.000000	99.240445 
3406.000000	99.242160 
3405.000000	99.240422 
3404.000000	99.236965 
3403.000000	99.234921 
3402.000000	99.236373 
3401.000000	99.240809 
3400.000000	99.245567 
3399.000000	99.247856 
3398.000000	99.246871 
3397.000000	99.244188 
3396.000000	99.241912 
3395.000000	99.240682 
3394.000000	99.239941 
3393.000000	99.239605 
3392.000000	99.240331 
3391.000000	99.241986 
3390.000000	99.243081 
3389.000000	99.242423 
3388.000000	99.240598 
3387.000000	99.239050 
3386.000000	99.238180 
3385.000000	99.237196 
3384.000000	99.235599 
3383.000000	99.234073 
3382.000000	99.233705 
3381.000000	99.234721 
3380.000000	99.236094 
3379.000000	99.236402 
3378.000000	99.235290 
3377.000000	99.234078 
3376.000000	99.234574 
3375.000000	99.237277 
3374.000000	99.241163 
3373.000000	99.245019 
3372.000000	99.248252 
3371.000000	99.250345 
3370.000000	99.250661 
3369.000000	99.249423 
3368.000000	99.248037 
3367.000000	99.247529 
3366.000000	99.247143 
3365.000000	99.245410 
3364.000000	99.242425 
3363.000000	99.240087 
3362.000000	99.239931 
3361.000000	99.241308 
3360.000000	99.241982 
3359.000000	99.240333 
3358.000000	99.237091 
3357.000000	99.235048 
3356.000000	99.236706 
3355.000000	99.241696 
3354.000000	99.246715 
3353.000000	99.248436 
3352.000000	99.246371 
3351.000000	99.242784 
3350.000000	99.240443 
3349.000000	99.240954 
3348.000000	99.244493 
3347.000000	99.249781 
3346.000000	99.254336 
3345.000000	99.255986 
3344.000000	99.254680 
3343.000000	99.252222 
3342.000000	99.250063 
3341.000000	99.248193 
3340.000000	99.246387 
3339.000000	99.245359 
3338.000000	99.245717 
3337.000000	99.246439 
3336.000000	99.245709 
3335.000000	99.243345 
3334.000000	99.241440 
3333.000000	99.242123 
3332.000000	99.245105 
3331.000000	99.247833 
3330.000000	99.248075 
3329.000000	99.246244 
3328.000000	99.245118 
3327.000000	99.247010 
3326.000000	99.251154 
3325.000000	99.254266 
3324.000000	99.253989 
3323.000000	99.251435 
3322.000000	99.249724 
3321.000000	99.250167 
3320.000000	99.250747 
3319.000000	99.248789 
3318.000000	99.244450 
3317.000000	99.240703 
3316.000000	99.240047 
3315.000000	99.242065 
3314.000000	99.244453 
3313.000000	99.245715 
3312.000000	99.246310 
3311.000000	99.247548 
3310.000000	99.250027 
3309.000000	99.253159 
3308.000000	99.255803 
3307.000000	99.257178 
3306.000000	99.257304 
3305.000000	99.256577 
3304.000000	99.255007 
3303.000000	99.252254 
3302.000000	99.248716 
3301.000000	99.246098 
3300.000000	99.246144 
3299.000000	99.248847 
3298.000000	99.252470 
3297.000000	99.255422 
3296.000000	99.257582 
3295.000000	99.259706 
3294.000000	99.262186 
3293.000000	99.264727 
3292.000000	99.266641 
3291.000000	99.267081 
3290.000000	99.265404 
3289.000000	99.261831 
3288.000000	99.257674 
3287.000000	99.254617 
3286.000000	99.253697 
3285.000000	99.254837 
3284.000000	99.256892 
3283.000000	99.258133 
3282.000000	99.257370 
3281.000000	99.254966 
3280.000000	99.252357 
3279.000000	99.250473 
3278.000000	99.249219 
3277.000000	99.248605 
3276.000000	99.249380 
3275.000000	99.251799 
3274.000000	99.254508 
3273.000000	99.255640 
3272.000000	99.254696 
3271.000000	99.252506 
3270.000000	99.249701 
3269.000000	99.246351 
3268.000000	99.243172 
3267.000000	99.241964 
3266.000000	99.244155 
3265.000000	99.249260 
3264.000000	99.255159 
3263.000000	99.259745 
3262.000000	99.262249 
3261.000000	99.263186 
3260.000000	99.263303 
3259.000000	99.262774 
3258.000000	99.261476 
3257.000000	99.259691 
3256.000000	99.258038 
3255.000000	99.256697 
3254.000000	99.255339 
3253.000000	99.254107 
3252.000000	99.253936 
3251.000000	99.255291 
3250.000000	99.257157 
3249.000000	99.258111 
3248.000000	99.258015 
3247.000000	99.257712 
3246.000000	99.257132 
3245.000000	99.254924 
3244.000000	99.250656 
3243.000000	99.246711 
3242.000000	99.246986 
3241.000000	99.253213 
3240.000000	99.262617 
3239.000000	99.269600 
3238.000000	99.270311 
3237.000000	99.265781 
3236.000000	99.260416 
3235.000000	99.257523 
3234.000000	99.256908 
3233.000000	99.256834 
3232.000000	99.257062 
3231.000000	99.258838 
3230.000000	99.262376 
3229.000000	99.265692 
3228.000000	99.266198 
3227.000000	99.262813 
3226.000000	99.256484 
3225.000000	99.249465 
3224.000000	99.244253 
3223.000000	99.242378 
3222.000000	99.243627 
3221.000000	99.246610 
3220.000000	99.250094 
3219.000000	99.253427 
3218.000000	99.255840 
3217.000000	99.256234 
3216.000000	99.254208 
3215.000000	99.250822 
3214.000000	99.247845 
3213.000000	99.246436 
3212.000000	99.246961 
3211.000000	99.249740 
3210.000000	99.255159 
3209.000000	99.262655 
3208.000000	99.269900 
3207.000000	99.273710 
3206.000000	99.272551 
3205.000000	99.268451 
3204.000000	99.265880 
3203.000000	99.267990 
3202.000000	99.273938 
3201.000000	99.280136 
3200.000000	99.283644 
3199.000000	99.283741 
3198.000000	99.281032 
3197.000000	99.276732 
3196.000000	99.272995 
3195.000000	99.272012 
3194.000000	99.273467 
3193.000000	99.273926 
3192.000000	99.270226 
3191.000000	99.263233 
3190.000000	99.257194 
3189.000000	99.255627 
3188.000000	99.258745 
3187.000000	99.264441 
3186.000000	99.270248 
3185.000000	99.274062 
3184.000000	99.274510 
3183.000000	99.271856 
3182.000000	99.268110 
3181.000000	99.265382 
3180.000000	99.264099 
3179.000000	99.263049 
3178.000000	99.260857 
3177.000000	99.257191 
3176.000000	99.252930 
3175.000000	99.249746 
3174.000000	99.249392 
3173.000000	99.252760 
3172.000000	99.259105 
3171.000000	99.266139 
3170.000000	99.271202 
3169.000000	99.272951 
3168.000000	99.272383 
3167.000000	99.272155 
3166.000000	99.274367 
3165.000000	99.278671 
3164.000000	99.282684 
3163.000000	99.284306 
3162.000000	99.283501 
3161.000000	99.281909 
3160.000000	99.281199 
3159.000000	99.281874 
3158.000000	99.283118 
3157.000000	99.283435 
3156.000000	99.281786 
3155.000000	99.278599 
3154.000000	99.275707 
3153.000000	99.274996 
3152.000000	99.276915 
3151.000000	99.280113 
3150.000000	99.282476 
3149.000000	99.282801 
3148.000000	99.281902 
3147.000000	99.281998 
3146.000000	99.284393 
3145.000000	99.287629 
3144.000000	99.288606 
3143.000000	99.286008 
3142.000000	99.282102 
3141.000000	99.280461 
3140.000000	99.282111 
3139.000000	99.284699 
3138.000000	99.285559 
3137.000000	99.284820 
3136.000000	99.284845 
3135.000000	99.286948 
3134.000000	99.289452 
3133.000000	99.289350 
3132.000000	99.285614 
3131.000000	99.280416 
3130.000000	99.276911 
3129.000000	99.276238 
3128.000000	99.277110 
3127.000000	99.278053 
3126.000000	99.279106 
3125.000000	99.280951 
3124.000000	99.283129 
3123.000000	99.284017 
3122.000000	99.282671 
3121.000000	99.280209 
3120.000000	99.279092 
3119.000000	99.280952 
3118.000000	99.285011 
3117.000000	99.288540 
3116.000000	99.289161 
3115.000000	99.286868 
3114.000000	99.283588 
3113.000000	99.280765 
3112.000000	99.278102 
3111.000000	99.275086 
3110.000000	99.272842 
3109.000000	99.273127 
3108.000000	99.275555 
3107.000000	99.277156 
3106.000000	99.275399 
3105.000000	99.271088 
3104.000000	99.267715 
3103.000000	99.268257 
3102.000000	99.273018 
3101.000000	99.280027 
3100.000000	99.286590 
3099.000000	99.290389 
3098.000000	99.290298 
3097.000000	99.287176 
3096.000000	99.283684 
3095.000000	99.282524 
3094.000000	99.284538 
3093.000000	99.288560 
3092.000000	99.292703 
3091.000000	99.295321 
3090.000000	99.295193 
3089.000000	99.292145 
3088.000000	99.288028 
3087.000000	99.286062 
3086.000000	99.287990 
3085.000000	99.292083 
3084.000000	99.294864 
3083.000000	99.294773 
3082.000000	99.293363 
3081.000000	99.292970 
3080.000000	99.294178 
3079.000000	99.295801 
3078.000000	99.296319 
3077.000000	99.294706 
3076.000000	99.290813 
3075.000000	99.285953 
3074.000000	99.282587 
3073.000000	99.282459 
3072.000000	99.285145 
3071.000000	99.288983 
3070.000000	99.292786 
3069.000000	99.295638 
3068.000000	99.295653 
3067.000000	99.290940 
3066.000000	99.282525 
3065.000000	99.274915 
3064.000000	99.272358 
3063.000000	99.274832 
3062.000000	99.278571 
3061.000000	99.280246 
3060.000000	99.279914 
3059.000000	99.280079 
3058.000000	99.282727 
3057.000000	99.287503 
3056.000000	99.292212 
3055.000000	99.294770 
3054.000000	99.294783 
3053.000000	99.293428 
3052.000000	99.292027 
3051.000000	99.290920 
3050.000000	99.289591 
3049.000000	99.287328 
3048.000000	99.283468 
3047.000000	99.277629 
3046.000000	99.270456 
3045.000000	99.263911 
3044.000000	99.259969 
3043.000000	99.258799 
3042.000000	99.258664 
3041.000000	99.257633 
3040.000000	99.255005 
3039.000000	99.251195 
3038.000000	99.246977 
3037.000000	99.243138 
3036.000000	99.240270 
3035.000000	99.238364 
3034.000000	99.236739 
3033.000000	99.234543 
3032.000000	99.231067 
3031.000000	99.225514 
3030.000000	99.216990 
3029.000000	99.205238 
3028.000000	99.191356 
3027.000000	99.177584 
3026.000000	99.166232 
3025.000000	99.158464 
3024.000000	99.153567 
3023.000000	99.149097 
3022.000000	99.142130 
3021.000000	99.131052 
3020.000000	99.116604 
3019.000000	99.101308 
3018.000000	99.087784 
3017.000000	99.077193 
3016.000000	99.068704 
3015.000000	99.060245 
3014.000000	99.050032 
3013.000000	99.037556 
3012.000000	99.022982 
3011.000000	99.005924 
3010.000000	98.985706 
3009.000000	98.963207 
3008.000000	98.941610 
3007.000000	98.924414 
3006.000000	98.912596 
3005.000000	98.903968 
3004.000000	98.894928 
3003.000000	98.882487 
3002.000000	98.865519 
3001.000000	98.845557 
3000.000000	98.826420 
2999.000000	98.811574 
2998.000000	98.801220 
2997.000000	98.792884 
2996.000000	98.785026 
2995.000000	98.778169 
2994.000000	98.771052 
2993.000000	98.757729 
2992.000000	98.732112 
2991.000000	98.696210 
2990.000000	98.661457 
2989.000000	98.639942 
2988.000000	98.634862 
2987.000000	98.640353 
2986.000000	98.649017 
2985.000000	98.657657 
2984.000000	98.666380 
2983.000000	98.675039 
2982.000000	98.682063 
2981.000000	98.685801 
2980.000000	98.685943 
2979.000000	98.683726 
2978.000000	98.681100 
2977.000000	98.679353 
2976.000000	98.678213 
2975.000000	98.676506 
2974.000000	98.673768 
2973.000000	98.670810 
2972.000000	98.668644 
2971.000000	98.667567 
2970.000000	98.667777 
2969.000000	98.670390 
2968.000000	98.677089 
2967.000000	98.688669 
2966.000000	98.704132 
2965.000000	98.721160 
2964.000000	98.737376 
2963.000000	98.751445 
2962.000000	98.763314 
2961.000000	98.773465 
2960.000000	98.782082 
2959.000000	98.789236 
2958.000000	98.795780 
2957.000000	98.803185 
2956.000000	98.811796 
2955.000000	98.819633 
2954.000000	98.823900 
2953.000000	98.824251 
2952.000000	98.824220 
2951.000000	98.828703 
2950.000000	98.839492 
2949.000000	98.853261 
2948.000000	98.864327 
2947.000000	98.869595 
2946.000000	98.870712 
2945.000000	98.871465 
2944.000000	98.873963 
2943.000000	98.877900 
2942.000000	98.882502 
2941.000000	98.887436 
2940.000000	98.891662 
2939.000000	98.893085 
2938.000000	98.890553 
2937.000000	98.885684 
2936.000000	98.881878 
2935.000000	98.881693 
2934.000000	98.885311 
2933.000000	98.890734 
2932.000000	98.894746 
2931.000000	98.894471 
2930.000000	98.889222 
2929.000000	98.880993 
2928.000000	98.872730 
2927.000000	98.866262 
2926.000000	98.862103 
2925.000000	98.860300 
2924.000000	98.860461 
2923.000000	98.861408 
2922.000000	98.861961 
2921.000000	98.862143 
2920.000000	98.862792 
2919.000000	98.863977 
2918.000000	98.864468 
2917.000000	98.862803 
2916.000000	98.858394 
2915.000000	98.851840 
2914.000000	98.844935 
2913.000000	98.840156 
2912.000000	98.838928 
2911.000000	98.839916 
2910.000000	98.839801 
2909.000000	98.836353 
2908.000000	98.830395 
2907.000000	98.824298 
2906.000000	98.818858 
2905.000000	98.812056 
2904.000000	98.800981 
2903.000000	98.785290 
2902.000000	98.769416 
2901.000000	98.761186 
2900.000000	98.766988 
2899.000000	98.786590 
2898.000000	98.812129 
2897.000000	98.833161 
2896.000000	98.843807 
2895.000000	98.846032 
2894.000000	98.846408 
2893.000000	98.849764 
2892.000000	98.855767 
2891.000000	98.860913 
2890.000000	98.862980 
2889.000000	98.863107 
2888.000000	98.863976 
2887.000000	98.866894 
2886.000000	98.871065 
2885.000000	98.875157 
2884.000000	98.878905 
2883.000000	98.883212 
2882.000000	98.889172 
2881.000000	98.897267 
2880.000000	98.907443 
2879.000000	98.919707 
2878.000000	98.934173 
2877.000000	98.950087 
2876.000000	98.964949 
2875.000000	98.975449 
2874.000000	98.979917 
2873.000000	98.979856 
2872.000000	98.978943 
2871.000000	98.980625 
2870.000000	98.986519 
2869.000000	98.996164 
2868.000000	99.007701 
2867.000000	99.019291 
2866.000000	99.030674 
2865.000000	99.043187 
2864.000000	99.057604 
2863.000000	99.072197 
2862.000000	99.083755 
2861.000000	99.090719 
2860.000000	99.094839 
2859.000000	99.099604 
2858.000000	99.107312 
2857.000000	99.117591 
2856.000000	99.128220 
2855.000000	99.137311 
2854.000000	99.144907 
2853.000000	99.152465 
2852.000000	99.160871 
2851.000000	99.169398 
2850.000000	99.176876 
2849.000000	99.183221 
2848.000000	99.189192 
2847.000000	99.195093 
2846.000000	99.200432 
2845.000000	99.204591 
2844.000000	99.207213 
2843.000000	99.208343 
2842.000000	99.209011 
2841.000000	99.211215 
2840.000000	99.216136 
2839.000000	99.222301 
2838.000000	99.226531 
2837.000000	99.227004 
2836.000000	99.224778 
2835.000000	99.222512 
2834.000000	99.222608 
2833.000000	99.226404 
2832.000000	99.233560 
2831.000000	99.241576 
2830.000000	99.247057 
2829.000000	99.248533 
2828.000000	99.247769 
2827.000000	99.247765 
2826.000000	99.249890 
2825.000000	99.253219 
2824.000000	99.256126 
2823.000000	99.257983 
2822.000000	99.259581 
2821.000000	99.262164 
2820.000000	99.265792 
2819.000000	99.268781 
2818.000000	99.269407 
2817.000000	99.268163 
2816.000000	99.267393 
2815.000000	99.268475 
2814.000000	99.270370 
2813.000000	99.271412 
2812.000000	99.271481 
2811.000000	99.271592 
2810.000000	99.272279 
2809.000000	99.273434 
2808.000000	99.275137 
2807.000000	99.277443 
2806.000000	99.279577 
2805.000000	99.280417 
2804.000000	99.279955 
2803.000000	99.279527 
2802.000000	99.280420 
2801.000000	99.282609 
2800.000000	99.284860 
2799.000000	99.285738 
2798.000000	99.284669 
2797.000000	99.282440 
2796.000000	99.280635 
2795.000000	99.280339 
2794.000000	99.281425 
2793.000000	99.283069 
2792.000000	99.284465 
2791.000000	99.284965 
2790.000000	99.284363 
2789.000000	99.283555 
2788.000000	99.284180 
2787.000000	99.286787 
2786.000000	99.289910 
2785.000000	99.291792 
2784.000000	99.292481 
2783.000000	99.293092 
2782.000000	99.293480 
2781.000000	99.292212 
2780.000000	99.289108 
2779.000000	99.286422 
2778.000000	99.286629 
2777.000000	99.289770 
2776.000000	99.293556 
2775.000000	99.295591 
2774.000000	99.294944 
2773.000000	99.292235 
2772.000000	99.289068 
2771.000000	99.287340 
2770.000000	99.288390 
2769.000000	99.292336 
2768.000000	99.298087 
2767.000000	99.303860 
2766.000000	99.307887 
2765.000000	99.309256 
2764.000000	99.308427 
2763.000000	99.306742 
2762.000000	99.305283 
2761.000000	99.304515 
2760.000000	99.304921 
2759.000000	99.307089 
2758.000000	99.310627 
2757.000000	99.313773 
2756.000000	99.315083 
2755.000000	99.315204 
2754.000000	99.315929 
2753.000000	99.317509 
2752.000000	99.318096 
2751.000000	99.316305 
2750.000000	99.313318 
2749.000000	99.311538 
2748.000000	99.311687 
2747.000000	99.312212 
2746.000000	99.311345 
2745.000000	99.308847 
2744.000000	99.305796 
2743.000000	99.303599 
2742.000000	99.303525 
2741.000000	99.306217 
2740.000000	99.310862 
2739.000000	99.315203 
2738.000000	99.317154 
2737.000000	99.316510 
2736.000000	99.314792 
2735.000000	99.313502 
2734.000000	99.312882 
2733.000000	99.312279 
2732.000000	99.311302 
2731.000000	99.310389 
2730.000000	99.310322 
2729.000000	99.311392 
2728.000000	99.313233 
2727.000000	99.315510 
2726.000000	99.318396 
2725.000000	99.321923 
2724.000000	99.325146 
2723.000000	99.326739 
2722.000000	99.326542 
2721.000000	99.325739 
2720.000000	99.325190 
2719.000000	99.324324 
2718.000000	99.322249 
2717.000000	99.319333 
2716.000000	99.317119 
2715.000000	99.317146 
2714.000000	99.320236 
2713.000000	99.325984 
2712.000000	99.332050 
2711.000000	99.334941 
2710.000000	99.333165 
2709.000000	99.329387 
2708.000000	99.327909 
2707.000000	99.329796 
2706.000000	99.331840 
2705.000000	99.330758 
2704.000000	99.327058 
2703.000000	99.323958 
2702.000000	99.323612 
2701.000000	99.325455 
2700.000000	99.327652 
2699.000000	99.328912 
2698.000000	99.328867 
2697.000000	99.327602 
2696.000000	99.325413 
2695.000000	99.322977 
2694.000000	99.321398 
2693.000000	99.321550 
2692.000000	99.323008 
2691.000000	99.324074 
2690.000000	99.323637 
2689.000000	99.322852 
2688.000000	99.324010 
2687.000000	99.327562 
2686.000000	99.331231 
2685.000000	99.332568 
2684.000000	99.331592 
2683.000000	99.330337 
2682.000000	99.330453 
2681.000000	99.332000 
2680.000000	99.333997 
2679.000000	99.335235 
2678.000000	99.334748 
2677.000000	99.332443 
2676.000000	99.329499 
2675.000000	99.327594 
2674.000000	99.327440 
2673.000000	99.328258 
2672.000000	99.328693 
2671.000000	99.327969 
2670.000000	99.326059 
2669.000000	99.323111 
2668.000000	99.319286 
2667.000000	99.315387 
2666.000000	99.313229 
2665.000000	99.314515 
2664.000000	99.319040 
2663.000000	99.324522 
2662.000000	99.328702 
2661.000000	99.331181 
2660.000000	99.332684 
2659.000000	99.333196 
2658.000000	99.332011 
2657.000000	99.329507 
2656.000000	99.327592 
2655.000000	99.327859 
2654.000000	99.329895 
2653.000000	99.331703 
2652.000000	99.331355 
2651.000000	99.328277 
2650.000000	99.323675 
2649.000000	99.319844 
2648.000000	99.318305 
2647.000000	99.318545 
2646.000000	99.319200 
2645.000000	99.320175 
2644.000000	99.322354 
2643.000000	99.325299 
2642.000000	99.326950 
2641.000000	99.326376 
2640.000000	99.325565 
2639.000000	99.327514 
2638.000000	99.333180 
2637.000000	99.340618 
2636.000000	99.346100 
2635.000000	99.346046 
2634.000000	99.339729 
2633.000000	99.331132 
2632.000000	99.326497 
2631.000000	99.328482 
2630.000000	99.333619 
2629.000000	99.336444 
2628.000000	99.334916 
2627.000000	99.330849 
2626.000000	99.326928 
2625.000000	99.325240 
2624.000000	99.327171 
2623.000000	99.332059 
2622.000000	99.336426 
2621.000000	99.336904 
2620.000000	99.333895 
2619.000000	99.330525 
2618.000000	99.328354 
2617.000000	99.326254 
2616.000000	99.323515 
2615.000000	99.321712 
2614.000000	99.322662 
2613.000000	99.326191 
2612.000000	99.330803 
2611.000000	99.335444 
2610.000000	99.339811 
2609.000000	99.343516 
2608.000000	99.345523 
2607.000000	99.344420 
2606.000000	99.339813 
2605.000000	99.333884 
2604.000000	99.330363 
2603.000000	99.330630 
2602.000000	99.331844 
2601.000000	99.330766 
2600.000000	99.328573 
2599.000000	99.329517 
2598.000000	99.335098 
2597.000000	99.342038 
2596.000000	99.346157 
2595.000000	99.345739 
2594.000000	99.340792 
2593.000000	99.332181 
2592.000000	99.323061 
2591.000000	99.318593 
2590.000000	99.321706 
2589.000000	99.330062 
2588.000000	99.338720 
2587.000000	99.344515 
2586.000000	99.346276 
2585.000000	99.342529 
2584.000000	99.332240 
2583.000000	99.318176 
2582.000000	99.307063 
2581.000000	99.304604 
2580.000000	99.310447 
2579.000000	99.318619 
2578.000000	99.322937 
2577.000000	99.322138 
2576.000000	99.320077 
2575.000000	99.321194 
2574.000000	99.326025 
2573.000000	99.331212 
2572.000000	99.333289 
2571.000000	99.331524 
2570.000000	99.327350 
2569.000000	99.322529 
2568.000000	99.318531 
2567.000000	99.316508 
2566.000000	99.316656 
2565.000000	99.317892 
2564.000000	99.318879 
2563.000000	99.319049 
2562.000000	99.318274 
2561.000000	99.316448 
2560.000000	99.314373 
2559.000000	99.314139 
2558.000000	99.316867 
2557.000000	99.320179 
2556.000000	99.319954 
2555.000000	99.315625 
2554.000000	99.312177 
2553.000000	99.315099 
2552.000000	99.323912 
2551.000000	99.332611 
2550.000000	99.336547 
2549.000000	99.336762 
2548.000000	99.336613 
2547.000000	99.336289 
2546.000000	99.333150 
2545.000000	99.326649 
2544.000000	99.320137 
2543.000000	99.317202 
2542.000000	99.318189 
2541.000000	99.321126 
2540.000000	99.324273 
2539.000000	99.326477 
2538.000000	99.326329 
2537.000000	99.322603 
2536.000000	99.315384 
2535.000000	99.306258 
2534.000000	99.298095 
2533.000000	99.294655 
2532.000000	99.298439 
2531.000000	99.307641 
2530.000000	99.316656 
2529.000000	99.321326 
2528.000000	99.322938 
2527.000000	99.325735 
2526.000000	99.331657 
2525.000000	99.339283 
2524.000000	99.346817 
2523.000000	99.353526 
2522.000000	99.358299 
2521.000000	99.359174 
2520.000000	99.355329 
2519.000000	99.348556 
2518.000000	99.342270 
2517.000000	99.339365 
2516.000000	99.340374 
2515.000000	99.342782 
2514.000000	99.342768 
2513.000000	99.338692 
2512.000000	99.332285 
2511.000000	99.325735 
2510.000000	99.319359 
2509.000000	99.314015 
2508.000000	99.313607 
2507.000000	99.321257 
2506.000000	99.333154 
2505.000000	99.340070 
2504.000000	99.336469 
2503.000000	99.325737 
2502.000000	99.315513 
2501.000000	99.310620 
2500.000000	99.311746 
2499.000000	99.317842 
2498.000000	99.326735 
2497.000000	99.334752 
2496.000000	99.338618 
2495.000000	99.337821 
2494.000000	99.333877 
2493.000000	99.328006 
2492.000000	99.320982 
2491.000000	99.314499 
2490.000000	99.310803 
2489.000000	99.310863 
2488.000000	99.313960 
2487.000000	99.318924 
2486.000000	99.324860 
2485.000000	99.330895 
2484.000000	99.336176 
2483.000000	99.340011 
2482.000000	99.341457 
2481.000000	99.339328 
2480.000000	99.333577 
2479.000000	99.326213 
2478.000000	99.319780 
2477.000000	99.315049 
2476.000000	99.311164 
2475.000000	99.307894 
2474.000000	99.306604 
2473.000000	99.308751 
2472.000000	99.314344 
2471.000000	99.322186 
2470.000000	99.330599 
2469.000000	99.337191 
2468.000000	99.338795 
2467.000000	99.333424 
2466.000000	99.323103 
2465.000000	99.313918 
2464.000000	99.311620 
2463.000000	99.316375 
2462.000000	99.322264 
2461.000000	99.322714 
2460.000000	99.316492 
2459.000000	99.308263 
2458.000000	99.303815 
2457.000000	99.305336 
2456.000000	99.310743 
2455.000000	99.316180 
2454.000000	99.318697 
2453.000000	99.317568 
2452.000000	99.314221 
2451.000000	99.311121 
2450.000000	99.310229 
2449.000000	99.311919 
2448.000000	99.314853 
2447.000000	99.316925 
2446.000000	99.317013 
2445.000000	99.316304 
2444.000000	99.317409 
2443.000000	99.321551 
2442.000000	99.327056 
2441.000000	99.331138 
2440.000000	99.332506 
2439.000000	99.331429 
2438.000000	99.328215 
2437.000000	99.323312 
2436.000000	99.318423 
2435.000000	99.315450 
2434.000000	99.313987 
2433.000000	99.311650 
2432.000000	99.307536 
2431.000000	99.303663 
2430.000000	99.302090 
2429.000000	99.302446 
2428.000000	99.303874 
2427.000000	99.307761 
2426.000000	99.315711 
2425.000000	99.324938 
2424.000000	99.328542 
2423.000000	99.322260 
2422.000000	99.310009 
2421.000000	99.301034 
2420.000000	99.301263 
2419.000000	99.308287 
2418.000000	99.314981 
2417.000000	99.316963 
2416.000000	99.315541 
2415.000000	99.314027 
2414.000000	99.313179 
2413.000000	99.311328 
2412.000000	99.307730 
2411.000000	99.303927 
2410.000000	99.301753 
2409.000000	99.301458 
2408.000000	99.302358 
2407.000000	99.304341 
2406.000000	99.307770 
2405.000000	99.312254 
2404.000000	99.316208 
2403.000000	99.317773 
2402.000000	99.316156 
2401.000000	99.312313 
2400.000000	99.308381 
2399.000000	99.306128 
2398.000000	99.305819 
2397.000000	99.306702 
2396.000000	99.308289 
2395.000000	99.310574 
2394.000000	99.313113 
2393.000000	99.314790 
2392.000000	99.314964 
2391.000000	99.314467 
2390.000000	99.315036 
2389.000000	99.317773 
2388.000000	99.322154 
2387.000000	99.326319 
2386.000000	99.328392 
2385.000000	99.327944 
2384.000000	99.326391 
2383.000000	99.325810 
2382.000000	99.327317 
2381.000000	99.330472 
2380.000000	99.333682 
2379.000000	99.334776 
2378.000000	99.331861 
2377.000000	99.325009 
2376.000000	99.317423 
2375.000000	99.313567 
2374.000000	99.315437 
2373.000000	99.320932 
2372.000000	99.326625 
2371.000000	99.331726 
2370.000000	99.338046 
2369.000000	99.346135 
2368.000000	99.352508 
2367.000000	99.351498 
2366.000000	99.340316 
2365.000000	99.323053 
2364.000000	99.309556 
2363.000000	99.307148 
2362.000000	99.313967 
2361.000000	99.323728 
2360.000000	99.332098 
2359.000000	99.338512 
2358.000000	99.343644 
2357.000000	99.345978 
2356.000000	99.345839 
2355.000000	99.344815 
2354.000000	99.342944 
2353.000000	99.339528 
2352.000000	99.336005 
2351.000000	99.337161 
2350.000000	99.341445 
2349.000000	99.341323 
2348.000000	99.331424 
2347.000000	99.313691 
2346.000000	99.298311 
2345.000000	99.292368 
2344.000000	99.296641 
2343.000000	99.306850 
2342.000000	99.319652 
2341.000000	99.335026 
2340.000000	99.349532 
2339.000000	99.359607 
2338.000000	99.362755 
2337.000000	99.360193 
2336.000000	99.354681 
2335.000000	99.349329 
2334.000000	99.345745 
2333.000000	99.344499 
2332.000000	99.344527 
2331.000000	99.345380 
2330.000000	99.345526 
2329.000000	99.345027 
2328.000000	99.346688 
2327.000000	99.351015 
2326.000000	99.356648 
2325.000000	99.357186 
2324.000000	99.351059 
2323.000000	99.342585 
2322.000000	99.340046 
2321.000000	99.347755 
2320.000000	99.360917 
2319.000000	99.372051 
2318.000000	99.375607 
2317.000000	99.372143 
2316.000000	99.364320 
2315.000000	99.355542 
2314.000000	99.348459 
2313.000000	99.344668 
2312.000000	99.344185 
2311.000000	99.345405 
2310.000000	99.347520 
2309.000000	99.349932 
2308.000000	99.351956 
2307.000000	99.351059 
2306.000000	99.346067 
2305.000000	99.338422 
2304.000000	99.331699 
2303.000000	99.327396 
2302.000000	99.324199 
2301.000000	99.320254 
2300.000000	99.315607 
2299.000000	99.311245 
2298.000000	99.308130 
2297.000000	99.307198 
2296.000000	99.309798 
2295.000000	99.314985 
2294.000000	99.318954 
2293.000000	99.317405 
2292.000000	99.310579 
2291.000000	99.302720 
2290.000000	99.298243 
2289.000000	99.298044 
2288.000000	99.300445 
2287.000000	99.303130 
2286.000000	99.304316 
2285.000000	99.302986 
2284.000000	99.299069 
2283.000000	99.292729 
2282.000000	99.283295 
2281.000000	99.270216 
2280.000000	99.255558 
2279.000000	99.244897 
2278.000000	99.244010 
2277.000000	99.254197 
2276.000000	99.270309 
2275.000000	99.284033 
2274.000000	99.289478 
2273.000000	99.286400 
2272.000000	99.278344 
2271.000000	99.268505 
2270.000000	99.258944 
2269.000000	99.253059 
2268.000000	99.255567 
2267.000000	99.267585 
2266.000000	99.283101 
2265.000000	99.292912 
2264.000000	99.292325 
2263.000000	99.284177 
2262.000000	99.275798 
2261.000000	99.274102 
2260.000000	99.281568 
2259.000000	99.293753 
2258.000000	99.301757 
2257.000000	99.300280 
2256.000000	99.292794 
2255.000000	99.286242 
2254.000000	99.281491 
2253.000000	99.273529 
2252.000000	99.261203 
2251.000000	99.252021 
2250.000000	99.254709 
2249.000000	99.269500 
2248.000000	99.287941 
2247.000000	99.300365 
2246.000000	99.301874 
2245.000000	99.293102 
2244.000000	99.278356 
2243.000000	99.263113 
2242.000000	99.251590 
2241.000000	99.245233 
2240.000000	99.242628 
2239.000000	99.240566 
2238.000000	99.236097 
2237.000000	99.228781 
2236.000000	99.220621 
2235.000000	99.213202 
2234.000000	99.206234 
2233.000000	99.200233 
2232.000000	99.198690 
2231.000000	99.204785 
2230.000000	99.216948 
2229.000000	99.230688 
2228.000000	99.244121 
2227.000000	99.258032 
2226.000000	99.270434 
2225.000000	99.275530 
2224.000000	99.270060 
2223.000000	99.257932 
2222.000000	99.246777 
2221.000000	99.241465 
2220.000000	99.241582 
2219.000000	99.243423 
2218.000000	99.244025 
2217.000000	99.245022 
2216.000000	99.252139 
2215.000000	99.268031 
2214.000000	99.285584 
2213.000000	99.292001 
2212.000000	99.281518 
2211.000000	99.262156 
2210.000000	99.248912 
2209.000000	99.251508 
2208.000000	99.267787 
2207.000000	99.285930 
2206.000000	99.292668 
2205.000000	99.282583 
2204.000000	99.261439 
2203.000000	99.239940 
2202.000000	99.225253 
2201.000000	99.219294 
2200.000000	99.221056 
2199.000000	99.225848 
2198.000000	99.224991 
2197.000000	99.213612 
2196.000000	99.199180 
2195.000000	99.195653 
2194.000000	99.207436 
2193.000000	99.224404 
2192.000000	99.234340 
2191.000000	99.234756 
2190.000000	99.230406 
2189.000000	99.225631 
2188.000000	99.223091 
2187.000000	99.225202 
2186.000000	99.232433 
2185.000000	99.242682 
2184.000000	99.254359 
2183.000000	99.266356 
2182.000000	99.273837 
2181.000000	99.270381 
2180.000000	99.257647 
2179.000000	99.246691 
2178.000000	99.245401 
2177.000000	99.249142 
2176.000000	99.247444 
2175.000000	99.235972 
2174.000000	99.218517 
2173.000000	99.201756 
2172.000000	99.192238 
2171.000000	99.194351 
2170.000000	99.206365 
2169.000000	99.220785 
2168.000000	99.232016 
2167.000000	99.240946 
2166.000000	99.249458 
2165.000000	99.255128 
2164.000000	99.255406 
2163.000000	99.252579 
2162.000000	99.250015 
2161.000000	99.247472 
2160.000000	99.244027 
2159.000000	99.240917 
2158.000000	99.237507 
2157.000000	99.230973 
2156.000000	99.224083 
2155.000000	99.224879 
2154.000000	99.233984 
2153.000000	99.240217 
2152.000000	99.234832 
2151.000000	99.224207 
2150.000000	99.222134 
2149.000000	99.234032 
2148.000000	99.254019 
2147.000000	99.272793 
2146.000000	99.282589 
2145.000000	99.279801 
2144.000000	99.270079 
2143.000000	99.266375 
2142.000000	99.274854 
2141.000000	99.286231 
2140.000000	99.287687 
2139.000000	99.279038 
2138.000000	99.268928 
2137.000000	99.259404 
2136.000000	99.245558 
2135.000000	99.229907 
2134.000000	99.225243 
2133.000000	99.238603 
2132.000000	99.260204 
2131.000000	99.273227 
2130.000000	99.270006 
2129.000000	99.256106 
2128.000000	99.242650 
2127.000000	99.237122 
2126.000000	99.239073 
2125.000000	99.242581 
2124.000000	99.243991 
2123.000000	99.246942 
2122.000000	99.257059 
2121.000000	99.272275 
2120.000000	99.282864 
2119.000000	99.282265 
2118.000000	99.273954 
2117.000000	99.266006 
2116.000000	99.262581 
2115.000000	99.263234 
2114.000000	99.267046 
2113.000000	99.273258 
2112.000000	99.279094 
2111.000000	99.280764 
2110.000000	99.277204 
2109.000000	99.271213 
2108.000000	99.266630 
2107.000000	99.264963 
2106.000000	99.264109 
2105.000000	99.259652 
2104.000000	99.248623 
2103.000000	99.233296 
2102.000000	99.220568 
2101.000000	99.216346 
2100.000000	99.220707 
2099.000000	99.229060 
2098.000000	99.237166 
2097.000000	99.243897 
2096.000000	99.249558 
2095.000000	99.252632 
2094.000000	99.249121 
2093.000000	99.236516 
2092.000000	99.219085 
2091.000000	99.207413 
2090.000000	99.209743 
2089.000000	99.223033 
2088.000000	99.235113 
2087.000000	99.237300 
2086.000000	99.232858 
2085.000000	99.231493 
2084.000000	99.237441 
2083.000000	99.245649 
2082.000000	99.249008 
2081.000000	99.246263 
2080.000000	99.241899 
2079.000000	99.240517 
2078.000000	99.243761 
2077.000000	99.251963 
2076.000000	99.265678 
2075.000000	99.283597 
2074.000000	99.300246 
2073.000000	99.308969 
2072.000000	99.308077 
2071.000000	99.301929 
2070.000000	99.295061 
2069.000000	99.287545 
2068.000000	99.277626 
2067.000000	99.266402 
2066.000000	99.256857 
2065.000000	99.249522 
2064.000000	99.242808 
2063.000000	99.237725 
2062.000000	99.238323 
2061.000000	99.245727 
2060.000000	99.254692 
2059.000000	99.258666 
2058.000000	99.256763 
2057.000000	99.253357 
2056.000000	99.251653 
2055.000000	99.250209 
2054.000000	99.246276 
2053.000000	99.240644 
2052.000000	99.237370 
2051.000000	99.239019 
2050.000000	99.243427 
2049.000000	99.245435 
2048.000000	99.241632 
2047.000000	99.232907 
2046.000000	99.222671 
2045.000000	99.214211 
2044.000000	99.209956 
2043.000000	99.211039 
2042.000000	99.215863 
2041.000000	99.220290 
2040.000000	99.221491 
2039.000000	99.221208 
2038.000000	99.223258 
2037.000000	99.227972 
2036.000000	99.230741 
2035.000000	99.226456 
2034.000000	99.214312 
2033.000000	99.198168 
2032.000000	99.183502 
2031.000000	99.174349 
2030.000000	99.171977 
2029.000000	99.174607 
2028.000000	99.177804 
2027.000000	99.176744 
2026.000000	99.170342 
2025.000000	99.164229 
2024.000000	99.167031 
2023.000000	99.180554 
2022.000000	99.194838 
2021.000000	99.196997 
2020.000000	99.186101 
2019.000000	99.175086 
2018.000000	99.175934 
2017.000000	99.186419 
2016.000000	99.194815 
2015.000000	99.194691 
2014.000000	99.189433 
2013.000000	99.184488 
2012.000000	99.181605 
2011.000000	99.181260 
2010.000000	99.186027 
2009.000000	99.198377 
2008.000000	99.216362 
2007.000000	99.233364 
2006.000000	99.242322 
2005.000000	99.241164 
2004.000000	99.235049 
2003.000000	99.232295 
2002.000000	99.236915 
2001.000000	99.244910 
2000.000000	99.248556 
1999.000000	99.243217 
1998.000000	99.229875 
1997.000000	99.213782 
1996.000000	99.202181 
1995.000000	99.201417 
1994.000000	99.213128 
1993.000000	99.231719 
1992.000000	99.246776 
1991.000000	99.250295 
1990.000000	99.241897 
1989.000000	99.227810 
1988.000000	99.216066 
1987.000000	99.211140 
1986.000000	99.211231 
1985.000000	99.211332 
1984.000000	99.209752 
1983.000000	99.210069 
1982.000000	99.215309 
1981.000000	99.221775 
1980.000000	99.221517 
1979.000000	99.210503 
1978.000000	99.193075 
1977.000000	99.178425 
1976.000000	99.172947 
1975.000000	99.176276 
1974.000000	99.184262 
1973.000000	99.194990 
1972.000000	99.210724 
1971.000000	99.232365 
1970.000000	99.252606 
1969.000000	99.258570 
1968.000000	99.244261 
1967.000000	99.218780 
1966.000000	99.198534 
1965.000000	99.192210 
1964.000000	99.196663 
1963.000000	99.204889 
1962.000000	99.212395 
1961.000000	99.216584 
1960.000000	99.215711 
1959.000000	99.211192 
1958.000000	99.208513 
1957.000000	99.212751 
1956.000000	99.223231 
1955.000000	99.233794 
1954.000000	99.238081 
1953.000000	99.234278 
1952.000000	99.225235 
1951.000000	99.215667 
1950.000000	99.209550 
1949.000000	99.208701 
1948.000000	99.212314 
1947.000000	99.216569 
1946.000000	99.215439 
1945.000000	99.204541 
1944.000000	99.186002 
1943.000000	99.169052 
1942.000000	99.163328 
1941.000000	99.170316 
1940.000000	99.183238 
1939.000000	99.195429 
1938.000000	99.206542 
1937.000000	99.220434 
1936.000000	99.237970 
1935.000000	99.253251 
1934.000000	99.258795 
1933.000000	99.254635 
1932.000000	99.249473 
1931.000000	99.251552 
1930.000000	99.259764 
1929.000000	99.265956 
1928.000000	99.265380 
1927.000000	99.260479 
1926.000000	99.255689 
1925.000000	99.252427 
1924.000000	99.250882 
1923.000000	99.253151 
1922.000000	99.260092 
1921.000000	99.267451 
1920.000000	99.268668 
1919.000000	99.260773 
1918.000000	99.246546 
1917.000000	99.232074 
1916.000000	99.222560 
1915.000000	99.220012 
1914.000000	99.224013 
1913.000000	99.233047 
1912.000000	99.244585 
1911.000000	99.255020 
1910.000000	99.259902 
1909.000000	99.257180 
1908.000000	99.251333 
1907.000000	99.249806 
1906.000000	99.255069 
1905.000000	99.261939 
1904.000000	99.264129 
1903.000000	99.261469 
1902.000000	99.257453 
1901.000000	99.253554 
1900.000000	99.249618 
1899.000000	99.247030 
1898.000000	99.248257 
1897.000000	99.253117 
1896.000000	99.258069 
1895.000000	99.259909 
1894.000000	99.258096 
1893.000000	99.254244 
1892.000000	99.251010 
1891.000000	99.250685 
1890.000000	99.252791 
1889.000000	99.254044 
1888.000000	99.252849 
1887.000000	99.251411 
1886.000000	99.252214 
1885.000000	99.255331 
1884.000000	99.259801 
1883.000000	99.265504 
1882.000000	99.271369 
1881.000000	99.274472 
1880.000000	99.274173 
1879.000000	99.274244 
1878.000000	99.278620 
1877.000000	99.286470 
1876.000000	99.293375 
1875.000000	99.296720 
1874.000000	99.297068 
1873.000000	99.295148 
1872.000000	99.291050 
1871.000000	99.285706 
1870.000000	99.280243 
1869.000000	99.273930 
1868.000000	99.266889 
1867.000000	99.263025 
1866.000000	99.265106 
1865.000000	99.270496 
1864.000000	99.274096 
1863.000000	99.273269 
1862.000000	99.269077 
1861.000000	99.263905 
1860.000000	99.260174 
1859.000000	99.260361 
1858.000000	99.264966 
1857.000000	99.270701 
1856.000000	99.273753 
1855.000000	99.274700 
1854.000000	99.277139 
1853.000000	99.281642 
1852.000000	99.285398 
1851.000000	99.286386 
1850.000000	99.286084 
1849.000000	99.287545 
1848.000000	99.291262 
1847.000000	99.294499 
1846.000000	99.293925 
1845.000000	99.288891 
1844.000000	99.282772 
1843.000000	99.281001 
1842.000000	99.284724 
1841.000000	99.289416 
1840.000000	99.290887 
1839.000000	99.288271 
1838.000000	99.283602 
1837.000000	99.279572 
1836.000000	99.277587 
1835.000000	99.277625 
1834.000000	99.278576 
1833.000000	99.279390 
1832.000000	99.279797 
1831.000000	99.278971 
1830.000000	99.275800 
1829.000000	99.272317 
1828.000000	99.272189 
1827.000000	99.275343 
1826.000000	99.278414 
1825.000000	99.278574 
1824.000000	99.276106 
1823.000000	99.273365 
1822.000000	99.270747 
1821.000000	99.267265 
1820.000000	99.264440 
1819.000000	99.266244 
1818.000000	99.274366 
1817.000000	99.283855 
1816.000000	99.288030 
1815.000000	99.287151 
1814.000000	99.286846 
1813.000000	99.290528 
1812.000000	99.295994 
1811.000000	99.300212 
1810.000000	99.303645 
1809.000000	99.306352 
1808.000000	99.305886 
1807.000000	99.300900 
1806.000000	99.292882 
1805.000000	99.284112 
1804.000000	99.276374 
1803.000000	99.271311 
1802.000000	99.268783 
1801.000000	99.266757 
1800.000000	99.264481 
1799.000000	99.265257 
1798.000000	99.272233 
1797.000000	99.282385 
1796.000000	99.289850 
1795.000000	99.292760 
1794.000000	99.293465 
1793.000000	99.293085 
1792.000000	99.288986 
1791.000000	99.281731 
1790.000000	99.276363 
1789.000000	99.275097 
1788.000000	99.277410 
1787.000000	99.283238 
1786.000000	99.291850 
1785.000000	99.298804 
1784.000000	99.298938 
1783.000000	99.292894 
1782.000000	99.285438 
1781.000000	99.281068 
1780.000000	99.280084 
1779.000000	99.279635 
1778.000000	99.278432 
1777.000000	99.277330 
1776.000000	99.277854 
1775.000000	99.279560 
1774.000000	99.280856 
1773.000000	99.281611 
1772.000000	99.282530 
1771.000000	99.284360 
1770.000000	99.286644 
1769.000000	99.287030 
1768.000000	99.284050 
1767.000000	99.279088 
1766.000000	99.275380 
1765.000000	99.275410 
1764.000000	99.278802 
1763.000000	99.282907 
1762.000000	99.284285 
1761.000000	99.282862 
1760.000000	99.281164 
1759.000000	99.280950 
1758.000000	99.283498 
1757.000000	99.289663 
1756.000000	99.297712 
1755.000000	99.302588 
1754.000000	99.301611 
1753.000000	99.298740 
1752.000000	99.300857 
1751.000000	99.307241 
1750.000000	99.309570 
1749.000000	99.304006 
1748.000000	99.296015 
1747.000000	99.292028 
1746.000000	99.291798 
1745.000000	99.292253 
1744.000000	99.291793 
1743.000000	99.290695 
1742.000000	99.289787 
1741.000000	99.289152 
1740.000000	99.288181 
1739.000000	99.287636 
1738.000000	99.288745 
1737.000000	99.290697 
1736.000000	99.293198 
1735.000000	99.299591 
1734.000000	99.306308 
1733.000000	99.306886 
1732.000000	99.302852 
1731.000000	99.296301 
1730.000000	99.289194 
1729.000000	99.284537 
1728.000000	99.283897 
1727.000000	99.286715 
1726.000000	99.291087 
1725.000000	99.295632 
1724.000000	99.298109 
1723.000000	99.297442 
1722.000000	99.295444 
1721.000000	99.294374 
1720.000000	99.295862 
1719.000000	99.301401 
1718.000000	99.308108 
1717.000000	99.307112 
1716.000000	99.297272 
1715.000000	99.288940 
1714.000000	99.288984 
1713.000000	99.293648 
1712.000000	99.295864 
1711.000000	99.294610 
1710.000000	99.293538 
1709.000000	99.293842 
1708.000000	99.293388 
1707.000000	99.291179 
1706.000000	99.289889 
1705.000000	99.290181 
1704.000000	99.289841 
1703.000000	99.287850 
1702.000000	99.287349 
1701.000000	99.291343 
1700.000000	99.290723 
1699.000000	99.284364 
1698.000000	99.282136 
1697.000000	99.284025 
1696.000000	99.285615 
1695.000000	99.285440 
1694.000000	99.285643 
1693.000000	99.286298 
1692.000000	99.285578 
1691.000000	99.285301 
1690.000000	99.287332 
1689.000000	99.290247 
1688.000000	99.291996 
1687.000000	99.291319 
1686.000000	99.290826 
1685.000000	99.293764 
1684.000000	99.294363 
1683.000000	99.292809 
1682.000000	99.292968 
1681.000000	99.291842 
1680.000000	99.290409 
1679.000000	99.290476 
1678.000000	99.290134 
1677.000000	99.288319 
1676.000000	99.286926 
1675.000000	99.287074 
1674.000000	99.287849 
1673.000000	99.289848 
1672.000000	99.293040 
1671.000000	99.296834 
1670.000000	99.298048 
1669.000000	99.294027 
1668.000000	99.289372 
1667.000000	99.287379 
1666.000000	99.286148 
1665.000000	99.284663 
1664.000000	99.284410 
1663.000000	99.286468 
1662.000000	99.288343 
1661.000000	99.288907 
1660.000000	99.290977 
1659.000000	99.296282 
1658.000000	99.302252 
1657.000000	99.304320 
1656.000000	99.301218 
1655.000000	99.295338 
1654.000000	99.292300 
1653.000000	99.285671 
1652.000000	99.279826 
1651.000000	99.285256 
1650.000000	99.292579 
1649.000000	99.295799 
1648.000000	99.296252 
1647.000000	99.292873 
1646.000000	99.287260 
1645.000000	99.284864 
1644.000000	99.286881 
1643.000000	99.291329 
1642.000000	99.296273 
1641.000000	99.299934 
1640.000000	99.301253 
1639.000000	99.299963 
1638.000000	99.297097 
1637.000000	99.295190 
1636.000000	99.295448 
1635.000000	99.296723 
1634.000000	99.299203 
1633.000000	99.300824 
1632.000000	99.298533 
1631.000000	99.293755 
1630.000000	99.289292 
1629.000000	99.286548 
1628.000000	99.285635 
1627.000000	99.286266 
1626.000000	99.287063 
1625.000000	99.286922 
1624.000000	99.286430 
1623.000000	99.286400 
1622.000000	99.286932 
1621.000000	99.288000 
1620.000000	99.289624 
1619.000000	99.291463 
1618.000000	99.293438 
1617.000000	99.293898 
1616.000000	99.293880 
1615.000000	99.297116 
1614.000000	99.302104 
1613.000000	99.305700 
1612.000000	99.308874 
1611.000000	99.312611 
1610.000000	99.313566 
1609.000000	99.309160 
1608.000000	99.303060 
1607.000000	99.300550 
1606.000000	99.301136 
1605.000000	99.301726 
1604.000000	99.302296 
1603.000000	99.304029 
1602.000000	99.306576 
1601.000000	99.308984 
1600.000000	99.311490 
1599.000000	99.314282 
1598.000000	99.316409 
1597.000000	99.317297 
1596.000000	99.317307 
1595.000000	99.316376 
1594.000000	99.313695 
1593.000000	99.310185 
1592.000000	99.309107 
1591.000000	99.312217 
1590.000000	99.316911 
1589.000000	99.319574 
1588.000000	99.320252 
1587.000000	99.321363 
1586.000000	99.323390 
1585.000000	99.324630 
1584.000000	99.325344 
1583.000000	99.326340 
1582.000000	99.326151 
1581.000000	99.323400 
1580.000000	99.319219 
1579.000000	99.314775 
1578.000000	99.310233 
1577.000000	99.306999 
1576.000000	99.306510 
1575.000000	99.309577 
1574.000000	99.313596 
1573.000000	99.314734 
1572.000000	99.313288 
1571.000000	99.312907 
1570.000000	99.314321 
1569.000000	99.315884 
1568.000000	99.318942 
1567.000000	99.322030 
1566.000000	99.321200 
1565.000000	99.315623 
1564.000000	99.308984 
1563.000000	99.302229 
1562.000000	99.294937 
1561.000000	99.287390 
1560.000000	99.290520 
1559.000000	99.296532 
1558.000000	99.296818 
1557.000000	99.302330 
1556.000000	99.310729 
1555.000000	99.316568 
1554.000000	99.318116 
1553.000000	99.315470 
1552.000000	99.311421 
1551.000000	99.307682 
1550.000000	99.305949 
1549.000000	99.306372 
1548.000000	99.307769 
1547.000000	99.308316 
1546.000000	99.306315 
1545.000000	99.301560 
1544.000000	99.296456 
1543.000000	99.295347 
1542.000000	99.301098 
1541.000000	99.310636 
1540.000000	99.313402 
1539.000000	99.309354 
1538.000000	99.307932 
1537.000000	99.309972 
1536.000000	99.312976 
1535.000000	99.318336 
1534.000000	99.323974 
1533.000000	99.323730 
1532.000000	99.317773 
1531.000000	99.311972 
1530.000000	99.309287 
1529.000000	99.308367 
1528.000000	99.306661 
1527.000000	99.304271 
1526.000000	99.302940 
1525.000000	99.303043 
1524.000000	99.304008 
1523.000000	99.307496 
1522.000000	99.315028 
1521.000000	99.321379 
1520.000000	99.321305 
1519.000000	99.315394 
1518.000000	99.306498 
1517.000000	99.297888 
1516.000000	99.291504 
1515.000000	99.287848 
1514.000000	99.286710 
1513.000000	99.288614 
1512.000000	99.292969 
1511.000000	99.296649 
1510.000000	99.298112 
1509.000000	99.297942 
1508.000000	99.299024 
1507.000000	99.299655 
1506.000000	99.298760 
1505.000000	99.298924 
1504.000000	99.299687 
1503.000000	99.299643 
1502.000000	99.299332 
1501.000000	99.298469 
1500.000000	99.294857 
1499.000000	99.287053 
1498.000000	99.277934 
1497.000000	99.271989 
1496.000000	99.269913 
1495.000000	99.272112 
1494.000000	99.279160 
1493.000000	99.288952 
1492.000000	99.297953 
1491.000000	99.303055 
1490.000000	99.302278 
1489.000000	99.296134 
1488.000000	99.286927 
1487.000000	99.278707 
1486.000000	99.274341 
1485.000000	99.271825 
1484.000000	99.269288 
1483.000000	99.267117 
1482.000000	99.266622 
1481.000000	99.267257 
1480.000000	99.266891 
1479.000000	99.265223 
1478.000000	99.263730 
1477.000000	99.262661 
1476.000000	99.260634 
1475.000000	99.259160 
1474.000000	99.261342 
1473.000000	99.266154 
1472.000000	99.268722 
1471.000000	99.268320 
1470.000000	99.267610 
1469.000000	99.266822 
1468.000000	99.265058 
1467.000000	99.263084 
1466.000000	99.262562 
1465.000000	99.263342 
1464.000000	99.264241 
1463.000000	99.264816 
1462.000000	99.265398 
1461.000000	99.265331 
1460.000000	99.263550 
1459.000000	99.259057 
1458.000000	99.251489 
1457.000000	99.239770 
1456.000000	99.227026 
1455.000000	99.218311 
1454.000000	99.213931 
1453.000000	99.214129 
1452.000000	99.219208 
1451.000000	99.226876 
1450.000000	99.234221 
1449.000000	99.239386 
1448.000000	99.240691 
1447.000000	99.238646 
1446.000000	99.235767 
1445.000000	99.234933 
1444.000000	99.237024 
1443.000000	99.240143 
1442.000000	99.242471 
1441.000000	99.243477 
1440.000000	99.243655 
1439.000000	99.243667 
1438.000000	99.246183 
1437.000000	99.251752 
1436.000000	99.255456 
1435.000000	99.254019 
1434.000000	99.249750 
1433.000000	99.245369 
1432.000000	99.241705 
1431.000000	99.237839 
1430.000000	99.233265 
1429.000000	99.229027 
1428.000000	99.225140 
1427.000000	99.221290 
1426.000000	99.217487 
1425.000000	99.214965 
1424.000000	99.213777 
1423.000000	99.210999 
1422.000000	99.204742 
1421.000000	99.195741 
1420.000000	99.185000 
1419.000000	99.171134 
1418.000000	99.156190 
1417.000000	99.143876 
1416.000000	99.131700 
1415.000000	99.116037 
1414.000000	99.097903 
1413.000000	99.081779 
1412.000000	99.070805 
1411.000000	99.063302 
1410.000000	99.055697 
1409.000000	99.046648 
1408.000000	99.037268 
1407.000000	99.030479 
1406.000000	99.028576 
1405.000000	99.032060 
1404.000000	99.039985 
1403.000000	99.050903 
1402.000000	99.064863 
1401.000000	99.082399 
1400.000000	99.101039 
1399.000000	99.113202 
1398.000000	99.110758 
1397.000000	99.089677 
1396.000000	99.051856 
1395.000000	99.011173 
1394.000000	98.991241 
1393.000000	99.005041 
1392.000000	99.041644 
1391.000000	99.079605 
1390.000000	99.105049 
1389.000000	99.115937 
1388.000000	99.115683 
1387.000000	99.107491 
1386.000000	99.095397 
1385.000000	99.084874 
1384.000000	99.079012 
1383.000000	99.076276 
1382.000000	99.073973 
1381.000000	99.072305 
1380.000000	99.074161 
1379.000000	99.081054 
1378.000000	99.091029 
1377.000000	99.101195 
1376.000000	99.110468 
1375.000000	99.119033 
1374.000000	99.126960 
1373.000000	99.135094 
1372.000000	99.144533 
1371.000000	99.155240 
1370.000000	99.165809 
1369.000000	99.175081 
1368.000000	99.182959 
1367.000000	99.189527 
1366.000000	99.195258 
1365.000000	99.201712 
1364.000000	99.210477 
1363.000000	99.220749 
1362.000000	99.229396 
1361.000000	99.234372 
1360.000000	99.236690 
1359.000000	99.238889 
1358.000000	99.242696 
1357.000000	99.248061 
1356.000000	99.253411 
1355.000000	99.257112 
1354.000000	99.259487 
1353.000000	99.262618 
1352.000000	99.267251 
1351.000000	99.271832 
1350.000000	99.274128 
1349.000000	99.274166 
1348.000000	99.273857 
1347.000000	99.274005 
1346.000000	99.274027 
1345.000000	99.273825 
1344.000000	99.273885 
1343.000000	99.273903 
1342.000000	99.273549 
1341.000000	99.274398 
1340.000000	99.278614 
1339.000000	99.285051 
1338.000000	99.289695 
1337.000000	99.290919 
1336.000000	99.291017 
1335.000000	99.292015 
1334.000000	99.292895 
1333.000000	99.291885 
1332.000000	99.289401 
1331.000000	99.287295 
1330.000000	99.286421 
1329.000000	99.286514 
1328.000000	99.287314 
1327.000000	99.288446 
1326.000000	99.288741 
1325.000000	99.287489 
1324.000000	99.285626 
1323.000000	99.284616 
1322.000000	99.285090 
1321.000000	99.287087 
1320.000000	99.290665 
1319.000000	99.295216 
1318.000000	99.298937 
1317.000000	99.299989 
1316.000000	99.298030 
1315.000000	99.294210 
1314.000000	99.290125 
1313.000000	99.286966 
1312.000000	99.285097 
1311.000000	99.284112 
1310.000000	99.283473 
1309.000000	99.283173 
1308.000000	99.283413 
1307.000000	99.283949 
1306.000000	99.284054 
1305.000000	99.283429 
1304.000000	99.282533 
1303.000000	99.281969 
1302.000000	99.282117 
1301.000000	99.283130 
1300.000000	99.284782 
1299.000000	99.286494 
1298.000000	99.288093 
1297.000000	99.290062 
1296.000000	99.292392 
1295.000000	99.293623 
1294.000000	99.292112 
1293.000000	99.288034 
1292.000000	99.283167 
1291.000000	99.279038 
1290.000000	99.276269 
1289.000000	99.275235 
1288.000000	99.275830 
1287.000000	99.276534 
1286.000000	99.275236 
1285.000000	99.271441 
1284.000000	99.266499 
1283.000000	99.261494 
1282.000000	99.256260 
1281.000000	99.250791 
1280.000000	99.246229 
1279.000000	99.243396 
1278.000000	99.241457 
1277.000000	99.239129 
1276.000000	99.236370 
1275.000000	99.233667 
1274.000000	99.230381 
1273.000000	99.225235 
1272.000000	99.218318 
1271.000000	99.211330 
1270.000000	99.205556 
1269.000000	99.200485 
1268.000000	99.194775 
1267.000000	99.187743 
1266.000000	99.179609 
1265.000000	99.170892 
1264.000000	99.162094 
1263.000000	99.153739 
1262.000000	99.146240 
1261.000000	99.139693 
1260.000000	99.134034 
1259.000000	99.129092 
1258.000000	99.124390 
1257.000000	99.119349 
1256.000000	99.114110 
1255.000000	99.109799 
1254.000000	99.107194 
1253.000000	99.105295 
1252.000000	99.102373 
1251.000000	99.098807 
1250.000000	99.097711 
1249.000000	99.101772 
1248.000000	99.110144 
1247.000000	99.119137 
1246.000000	99.124913 
1245.000000	99.124357 
1244.000000	99.115305 
1243.000000	99.099569 
1242.000000	99.085525 
1241.000000	99.083244 
1240.000000	99.094682 
1239.000000	99.110872 
1238.000000	99.120828 
1237.000000	99.121482 
1236.000000	99.117064 
1235.000000	99.111660 
1234.000000	99.106057 
1233.000000	99.100271 
1232.000000	99.094727 
1231.000000	99.088579 
1230.000000	99.080526 
1229.000000	99.072401 
1228.000000	99.069074 
1227.000000	99.073238 
1226.000000	99.082121 
1225.000000	99.090641 
1224.000000	99.096179 
1223.000000	99.099161 
1222.000000	99.100828 
1221.000000	99.102328 
1220.000000	99.105072 
1219.000000	99.110220 
1218.000000	99.117668 
1217.000000	99.126115 
1216.000000	99.133803 
1215.000000	99.139063 
1214.000000	99.140933 
1213.000000	99.139702 
1212.000000	99.136401 
1211.000000	99.131954 
1210.000000	99.127561 
1209.000000	99.125319 
1208.000000	99.126800 
1207.000000	99.130762 
1206.000000	99.133793 
1205.000000	99.133781 
1204.000000	99.131532 
1203.000000	99.128715 
1202.000000	99.125864 
1201.000000	99.123097 
1200.000000	99.121214 
1199.000000	99.120761 
1198.000000	99.120913 
1197.000000	99.120239 
1196.000000	99.117836 
1195.000000	99.113242 
1194.000000	99.106461 
1193.000000	99.098934 
1192.000000	99.093200 
1191.000000	99.090266 
1190.000000	99.088174 
1189.000000	99.084473 
1188.000000	99.079443 
1187.000000	99.075553 
1186.000000	99.074212 
1185.000000	99.074341 
1184.000000	99.073896 
1183.000000	99.071671 
1182.000000	99.067833 
1181.000000	99.063767 
1180.000000	99.061282 
1179.000000	99.060913 
1178.000000	99.061069 
1177.000000	99.059730 
1176.000000	99.056697 
1175.000000	99.053065 
1174.000000	99.048697 
1173.000000	99.041816 
1172.000000	99.031665 
1171.000000	99.020333 
1170.000000	99.010896 
1169.000000	99.004181 
1168.000000	98.998285 
1167.000000	98.991302 
1166.000000	98.983950 
1165.000000	98.979251 
1164.000000	98.979649 
1163.000000	98.984567 
1162.000000	98.990983 
1161.000000	98.996487 
1160.000000	99.001374 
1159.000000	99.007185 
1158.000000	99.013361 
1157.000000	99.016127 
1156.000000	99.011363 
1155.000000	98.998869 
1154.000000	98.983658 
1153.000000	98.972437 
1152.000000	98.968123 
1151.000000	98.967598 
1150.000000	98.965098 
1149.000000	98.957971 
1148.000000	98.948761 
1147.000000	98.941626 
1146.000000	98.937512 
1145.000000	98.933457 
1144.000000	98.926146 
1143.000000	98.915262 
1142.000000	98.903450 
1141.000000	98.893851 
1140.000000	98.887870 
1139.000000	98.884533 
1138.000000	98.881281 
1137.000000	98.875672 
1136.000000	98.866997 
1135.000000	98.856559 
1134.000000	98.846085 
1133.000000	98.835674 
1132.000000	98.823685 
1131.000000	98.809234 
1130.000000	98.794619 
1129.000000	98.784014 
1128.000000	98.778746 
1127.000000	98.774469 
1126.000000	98.764686 
1125.000000	98.747615 
1124.000000	98.728400 
1123.000000	98.713720 
1122.000000	98.705019 
1121.000000	98.697954 
1120.000000	98.687637 
1119.000000	98.672904 
1118.000000	98.655791 
1117.000000	98.638731 
1116.000000	98.623059 
1115.000000	98.609073 
1114.000000	98.596287 
1113.000000	98.583751 
1112.000000	98.570654 
1111.000000	98.556375 
1110.000000	98.539802 
1109.000000	98.519608 
1108.000000	98.496213 
1107.000000	98.473223 
1106.000000	98.455373 
1105.000000	98.444008 
1104.000000	98.435220 
1103.000000	98.423461 
1102.000000	98.407065 
1101.000000	98.389705 
1100.000000	98.376125 
1099.000000	98.367778 
1098.000000	98.362801 
1097.000000	98.359003 
1096.000000	98.355034 
1095.000000	98.348669 
1094.000000	98.336193 
1093.000000	98.314663 
1092.000000	98.284005 
1091.000000	98.246521 
1090.000000	98.205514 
1089.000000	98.164912 
1088.000000	98.128551 
1087.000000	98.097999 
1086.000000	98.071454 
1085.000000	98.046094 
1084.000000	98.020904 
1083.000000	97.995885 
1082.000000	97.969529 
1081.000000	97.939501 
1080.000000	97.906041 
1079.000000	97.872861 
1078.000000	97.844355 
1077.000000	97.823258 
1076.000000	97.810870 
1075.000000	97.807426 
1074.000000	97.811531 
1073.000000	97.820445 
1072.000000	97.830309 
1071.000000	97.834044 
1070.000000	97.820735 
1069.000000	97.782868 
1068.000000	97.727451 
1067.000000	97.677091 
1066.000000	97.654827 
1065.000000	97.666246 
1064.000000	97.697215 
1063.000000	97.726806 
1062.000000	97.739731 
1061.000000	97.729455 
1060.000000	97.697225 
1059.000000	97.652819 
1058.000000	97.612683 
1057.000000	97.590600 
1056.000000	97.587891 
1055.000000	97.594096 
1054.000000	97.597421 
1053.000000	97.593451 
1052.000000	97.584678 
1051.000000	97.575184 
1050.000000	97.567547 
1049.000000	97.562242 
1048.000000	97.557374 
1047.000000	97.550474 
1046.000000	97.542492 
1045.000000	97.538138 
1044.000000	97.540187 
1043.000000	97.545319 
1042.000000	97.548353 
1041.000000	97.549269 
1040.000000	97.552891 
1039.000000	97.562829 
1038.000000	97.579412 
1037.000000	97.602590 
1036.000000	97.632040 
1035.000000	97.664125 
1034.000000	97.693424 
1033.000000	97.717831 
1032.000000	97.737255 
1031.000000	97.747160 
1030.000000	97.740978 
1029.000000	97.722888 
1028.000000	97.711918 
1027.000000	97.726225 
1026.000000	97.764621 
1025.000000	97.808391 
1024.000000	97.839688 
1023.000000	97.853991 
1022.000000	97.857424 
1021.000000	97.858516 
1020.000000	97.863419 
1019.000000	97.874044 
1018.000000	97.887679 
1017.000000	97.899905 
1016.000000	97.909179 
1015.000000	97.917787 
1014.000000	97.928485 
1013.000000	97.941573 
1012.000000	97.955191 
1011.000000	97.967135 
1010.000000	97.976569 
1009.000000	97.985162 
1008.000000	97.996273 
1007.000000	98.011969 
1006.000000	98.031119 
1005.000000	98.051008 
1004.000000	98.069895 
1003.000000	98.087251 
1002.000000	98.102935 
1001.000000	98.117439 
1000.000000	98.131707 
999.000000	 98.145447 
998.000000	 98.157057 
997.000000	 98.166782 
996.000000	 98.178436 
995.000000	 98.195788 
994.000000	 98.217950 
993.000000	 98.240210 
992.000000	 98.258719 
991.000000	 98.272590 
990.000000	 98.282458 
989.000000	 98.289529 
988.000000	 98.296176 
987.000000	 98.305443 
986.000000	 98.319057 
985.000000	 98.336528 
984.000000	 98.356085 
983.000000	 98.375745 
982.000000	 98.393901 
981.000000	 98.409949 
980.000000	 98.424502 
979.000000	 98.438853 
978.000000	 98.454624 
977.000000	 98.473548 
976.000000	 98.495860 
975.000000	 98.518318 
974.000000	 98.535815 
973.000000	 98.546649 
972.000000	 98.555162 
971.000000	 98.567759 
970.000000	 98.586794 
969.000000	 98.609105 
968.000000	 98.629502 
967.000000	 98.644773 
966.000000	 98.655452 
965.000000	 98.664925 
964.000000	 98.676253 
963.000000	 98.689326 
962.000000	 98.701905 
961.000000	 98.713357 
960.000000	 98.725299 
959.000000	 98.737987 
958.000000	 98.748675 
957.000000	 98.755330 
956.000000	 98.760006 
955.000000	 98.766494 
954.000000	 98.776054 
953.000000	 98.787291 
952.000000	 98.798670 
951.000000	 98.808851 
950.000000	 98.815752 
949.000000	 98.817888 
948.000000	 98.816298 
947.000000	 98.813371 
946.000000	 98.810225 
945.000000	 98.806826 
944.000000	 98.803996 
943.000000	 98.803482 
942.000000	 98.806282 
941.000000	 98.812025 
940.000000	 98.819081 
939.000000	 98.824129 
938.000000	 98.823455 
937.000000	 98.817227 
936.000000	 98.811530 
935.000000	 98.813411 
934.000000	 98.823833 
933.000000	 98.837414 
932.000000	 98.848632 
931.000000	 98.856030 
930.000000	 98.860591 
929.000000	 98.862629 
928.000000	 98.861197 
927.000000	 98.855382 
926.000000	 98.846014 
925.000000	 98.837008 
924.000000	 98.834156 
923.000000	 98.840443 
922.000000	 98.852323 
921.000000	 98.862283 
920.000000	 98.865204 
919.000000	 98.860972 
918.000000	 98.851857 
917.000000	 98.840079 
916.000000	 98.828314 
915.000000	 98.819825 
914.000000	 98.816039 
913.000000	 98.814880 
912.000000	 98.812923 
911.000000	 98.809220 
910.000000	 98.806705 
909.000000	 98.809855 
908.000000	 98.820475 
907.000000	 98.835141 
906.000000	 98.847264 
905.000000	 98.852561 
904.000000	 98.852176 
903.000000	 98.850351 
902.000000	 98.850458 
901.000000	 98.853988 
900.000000	 98.861192 
899.000000	 98.870239 
898.000000	 98.876722 
897.000000	 98.876844 
896.000000	 98.871212 
895.000000	 98.863950 
894.000000	 98.858598 
893.000000	 98.856556 
892.000000	 98.858745 
891.000000	 98.866195 
890.000000	 98.878690 
889.000000	 98.894532 
888.000000	 98.911557 
887.000000	 98.927133 
886.000000	 98.938288 
885.000000	 98.944111 
884.000000	 98.947128 
883.000000	 98.949839 
882.000000	 98.950893 
881.000000	 98.948064 
880.000000	 98.944448 
879.000000	 98.947136 
878.000000	 98.958279 
877.000000	 98.971345 
876.000000	 98.978345 
875.000000	 98.977671 
874.000000	 98.972911 
873.000000	 98.967302 
872.000000	 98.962427 
871.000000	 98.960181 
870.000000	 98.962635 
869.000000	 98.970669 
868.000000	 98.984385 
867.000000	 99.002978 
866.000000	 99.022242 
865.000000	 99.034926 
864.000000	 99.037553 
863.000000	 99.036022 
862.000000	 99.040179 
861.000000	 99.052188 
860.000000	 99.064163 
859.000000	 99.068675 
858.000000	 99.067772 
857.000000	 99.068781 
856.000000	 99.074564 
855.000000	 99.082315 
854.000000	 99.089868 
853.000000	 99.097661 
852.000000	 99.104391 
851.000000	 99.106543 
850.000000	 99.104594 
849.000000	 99.104922 
848.000000	 99.111792 
847.000000	 99.120756 
846.000000	 99.124054 
845.000000	 99.120185 
844.000000	 99.113935 
843.000000	 99.109392 
842.000000	 99.108121 
841.000000	 99.112274 
840.000000	 99.122403 
839.000000	 99.131644 
838.000000	 99.129387 
837.000000	 99.113976 
836.000000	 99.096326 
835.000000	 99.087396 
834.000000	 99.086866 
833.000000	 99.088550 
832.000000	 99.091961 
831.000000	 99.100973 
830.000000	 99.113019 
829.000000	 99.118325 
828.000000	 99.112335 
827.000000	 99.102619 
826.000000	 99.099001 
825.000000	 99.100758 
824.000000	 99.099126 
823.000000	 99.090792 
822.000000	 99.083094 
821.000000	 99.084790 
820.000000	 99.095821 
819.000000	 99.108345 
818.000000	 99.115679 
817.000000	 99.117828 
816.000000	 99.118167 
815.000000	 99.117171 
814.000000	 99.112118 
813.000000	 99.102353 
812.000000	 99.091279 
811.000000	 99.081392 
810.000000	 99.069823 
809.000000	 99.051461 
808.000000	 99.025440 
807.000000	 98.996334 
806.000000	 98.969354 
805.000000	 98.946261 
804.000000	 98.926049 
803.000000	 98.907951 
802.000000	 98.893051 
801.000000	 98.883312 
800.000000	 98.879152 
799.000000	 98.878617 
798.000000	 98.880298 
797.000000	 98.886432 
796.000000	 98.899973 
795.000000	 98.917906 
794.000000	 98.931153 
793.000000	 98.933661 
792.000000	 98.929204 
791.000000	 98.926899 
790.000000	 98.931926 
789.000000	 98.942231 
788.000000	 98.951382 
787.000000	 98.951992 
786.000000	 98.939520 
785.000000	 98.916769 
784.000000	 98.893257 
783.000000	 98.876994 
782.000000	 98.867918 
781.000000	 98.861610 
780.000000	 98.856616 
779.000000	 98.854222 
778.000000	 98.853599 
777.000000	 98.852624 
776.000000	 98.852723 
775.000000	 98.857743 
774.000000	 98.867767 
773.000000	 98.878595 
772.000000	 98.888062 
771.000000	 98.898790 
770.000000	 98.913487 
769.000000	 98.930630 
768.000000	 98.945928 
767.000000	 98.956032 
766.000000	 98.960826 
765.000000	 98.964307 
764.000000	 98.972527 
763.000000	 98.987262 
762.000000	 99.001562 
761.000000	 99.005030 
760.000000	 98.994633 
759.000000	 98.978200 
758.000000	 98.966958 
757.000000	 98.966264 
756.000000	 98.972771 
755.000000	 98.977606 
754.000000	 98.972859 
753.000000	 98.958922 
752.000000	 98.946235 
751.000000	 98.946777 
750.000000	 98.962345 
749.000000	 98.982784 
748.000000	 98.995885 
747.000000	 98.997147 
746.000000	 98.990692 
745.000000	 98.983938 
744.000000	 98.982242 
743.000000	 98.986364 
742.000000	 98.993745 
741.000000	 99.002700 
740.000000	 99.014354 
739.000000	 99.029077 
738.000000	 99.042767 
737.000000	 99.049150 
736.000000	 99.044733 
735.000000	 99.030113 
734.000000	 99.009424 
733.000000	 98.991374 
732.000000	 98.987108 
731.000000	 99.001016 
730.000000	 99.024547 
729.000000	 99.044483 
728.000000	 99.056458 
727.000000	 99.064837 
726.000000	 99.070859 
725.000000	 99.068652 
724.000000	 99.054485 
723.000000	 99.033498 
722.000000	 99.014592 
721.000000	 99.003538 
720.000000	 99.003032 
719.000000	 99.013878 
718.000000	 99.032423 
717.000000	 99.050229 
716.000000	 99.058995 
715.000000	 99.054654 
714.000000	 99.038071 
713.000000	 99.016341 
712.000000	 99.002998 
711.000000	 99.009560 
710.000000	 99.032784 
709.000000	 99.054754 
708.000000	 99.059223 
707.000000	 99.044914 
706.000000	 99.021094 
705.000000	 98.995710 
704.000000	 98.972857 
703.000000	 98.957458 
702.000000	 98.954697 
701.000000	 98.963756 
700.000000	 98.975994 
699.000000	 98.981279 
698.000000	 98.976410 
697.000000	 98.967330 
696.000000	 98.962142 
695.000000	 98.961591 
694.000000	 98.958910 
693.000000	 98.950912 
692.000000	 98.944823 
691.000000	 98.948793 
690.000000	 98.959782 
689.000000	 98.968842 
688.000000	 98.975504 
687.000000	 98.985663 
686.000000	 98.995445 
685.000000	 98.991610 
684.000000	 98.971900 
683.000000	 98.951995 
682.000000	 98.946275 
681.000000	 98.950854 
680.000000	 98.951352 
679.000000	 98.940327 
678.000000	 98.922002 
677.000000	 98.907043 
676.000000	 98.909207 
675.000000	 98.934783 
674.000000	 98.969335 
673.000000	 98.984709 
672.000000	 98.968462 
671.000000	 98.940026 
670.000000	 98.932551 
669.000000	 98.967842 
668.000000	 99.030784 
667.000000	 99.066088 
666.000000	 99.046223 
665.000000	 98.995831 
664.000000	 98.952815 
663.000000	 98.946219 
662.000000	 98.977455 
661.000000	 99.014407 
660.000000	 99.023285 
659.000000	 99.000890 
658.000000	 98.967496 
657.000000	 98.938221 
656.000000	 98.916880 
655.000000	 98.908379 
654.000000	 98.918032 
653.000000	 98.940083 
652.000000	 98.960696 
651.000000	 98.970628 
650.000000	 98.966714 

