4000.000000	99.195522 
3999.000000	99.195741 
3998.000000	99.195813 
3997.000000	99.197463 
3996.000000	99.200338 
3995.000000	99.202577 
3994.000000	99.203110 
3993.000000	99.202639 
3992.000000	99.202219 
3991.000000	99.201538 
3990.000000	99.199154 
3989.000000	99.194241 
3988.000000	99.187845 
3987.000000	99.182504 
3986.000000	99.180654 
3985.000000	99.183037 
3984.000000	99.188316 
3983.000000	99.194402 
3982.000000	99.200157 
3981.000000	99.205643 
3980.000000	99.210835 
3979.000000	99.214723 
3978.000000	99.216099 
3977.000000	99.214909 
3976.000000	99.212266 
3975.000000	99.209182 
3974.000000	99.205735 
3973.000000	99.201588 
3972.000000	99.197073 
3971.000000	99.193659 
3970.000000	99.193440 
3969.000000	99.197490 
3968.000000	99.204445 
3967.000000	99.210876 
3966.000000	99.213595 
3965.000000	99.211831 
3964.000000	99.207473 
3963.000000	99.203650 
3962.000000	99.202808 
3961.000000	99.205169 
3960.000000	99.208322 
3959.000000	99.208914 
3958.000000	99.205932 
3957.000000	99.201759 
3956.000000	99.199651 
3955.000000	99.200235 
3954.000000	99.201363 
3953.000000	99.201014 
3952.000000	99.199402 
3951.000000	99.198371 
3950.000000	99.198885 
3949.000000	99.199702 
3948.000000	99.198927 
3947.000000	99.196764 
3946.000000	99.195538 
3945.000000	99.196938 
3944.000000	99.199858 
3943.000000	99.201367 
3942.000000	99.199721 
3941.000000	99.195957 
3940.000000	99.191959 
3939.000000	99.188482 
3938.000000	99.186115 
3937.000000	99.185756 
3936.000000	99.187642 
3935.000000	99.190449 
3934.000000	99.192800 
3933.000000	99.195093 
3932.000000	99.198344 
3931.000000	99.202170 
3930.000000	99.204817 
3929.000000	99.205197 
3928.000000	99.203786 
3927.000000	99.200963 
3926.000000	99.196572 
3925.000000	99.191832 
3924.000000	99.189844 
3923.000000	99.191952 
3922.000000	99.195031 
3921.000000	99.195327 
3920.000000	99.193350 
3919.000000	99.192057 
3918.000000	99.191934 
3917.000000	99.190996 
3916.000000	99.189163 
3915.000000	99.188946 
3914.000000	99.191387 
3913.000000	99.194385 
3912.000000	99.195335 
3911.000000	99.192793 
3910.000000	99.187805 
3909.000000	99.183039 
3908.000000	99.181765 
3907.000000	99.185190 
3906.000000	99.191042 
3905.000000	99.194846 
3904.000000	99.194025 
3903.000000	99.190900 
3902.000000	99.189271 
3901.000000	99.188896 
3900.000000	99.186965 
3899.000000	99.183191 
3898.000000	99.179572 
3897.000000	99.176584 
3896.000000	99.172980 
3895.000000	99.169921 
3894.000000	99.172213 
3893.000000	99.181667 
3892.000000	99.192476 
3891.000000	99.196982 
3890.000000	99.197560 
3889.000000	99.199860 
3888.000000	99.202450 
3887.000000	99.201174 
3886.000000	99.195937 
3885.000000	99.190959 
3884.000000	99.191345 
3883.000000	99.194727 
3882.000000	99.194311 
3881.000000	99.188869 
3880.000000	99.182573 
3879.000000	99.180308 
3878.000000	99.183398 
3877.000000	99.187107 
3876.000000	99.186719 
3875.000000	99.181809 
3874.000000	99.176035 
3873.000000	99.174347 
3872.000000	99.175487 
3871.000000	99.171903 
3870.000000	99.161391 
3869.000000	99.154601 
3868.000000	99.162549 
3867.000000	99.177751 
3866.000000	99.185628 
3865.000000	99.185244 
3864.000000	99.184909 
3863.000000	99.187500 
3862.000000	99.189292 
3861.000000	99.186808 
3860.000000	99.180830 
3859.000000	99.171106 
3858.000000	99.156375 
3857.000000	99.138301 
3856.000000	99.125236 
3855.000000	99.126976 
3854.000000	99.137973 
3853.000000	99.140658 
3852.000000	99.142699 
3851.000000	99.158720 
3850.000000	99.177469 
3849.000000	99.188091 
3848.000000	99.193133 
3847.000000	99.196876 
3846.000000	99.199318 
3845.000000	99.199120 
3844.000000	99.196487 
3843.000000	99.192848 
3842.000000	99.189826 
3841.000000	99.187069 
3840.000000	99.184384 
3839.000000	99.182717 
3838.000000	99.182716 
3837.000000	99.183366 
3836.000000	99.184316 
3835.000000	99.185343 
3834.000000	99.185519 
3833.000000	99.184386 
3832.000000	99.183069 
3831.000000	99.183541 
3830.000000	99.186844 
3829.000000	99.191045 
3828.000000	99.192127 
3827.000000	99.187617 
3826.000000	99.180767 
3825.000000	99.178068 
3824.000000	99.182169 
3823.000000	99.189383 
3822.000000	99.192996 
3821.000000	99.187617 
3820.000000	99.181345 
3819.000000	99.185079 
3818.000000	99.191714 
3817.000000	99.190615 
3816.000000	99.182410 
3815.000000	99.176485 
3814.000000	99.179022 
3813.000000	99.183044 
3812.000000	99.180039 
3811.000000	99.173643 
3810.000000	99.172178 
3809.000000	99.177067 
3808.000000	99.181352 
3807.000000	99.179047 
3806.000000	99.175160 
3805.000000	99.178149 
3804.000000	99.184500 
3803.000000	99.185114 
3802.000000	99.177544 
3801.000000	99.166010 
3800.000000	99.161368 
3799.000000	99.165950 
3798.000000	99.169162 
3797.000000	99.167174 
3796.000000	99.165946 
3795.000000	99.170709 
3794.000000	99.179344 
3793.000000	99.186378 
3792.000000	99.189842 
3791.000000	99.191293 
3790.000000	99.191187 
3789.000000	99.189530 
3788.000000	99.188823 
3787.000000	99.192607 
3786.000000	99.200430 
3785.000000	99.207903 
3784.000000	99.212504 
3783.000000	99.215759 
3782.000000	99.218834 
3781.000000	99.219885 
3780.000000	99.216548 
3779.000000	99.209136 
3778.000000	99.201711 
3777.000000	99.196850 
3776.000000	99.192770 
3775.000000	99.187978 
3774.000000	99.185379 
3773.000000	99.188003 
3772.000000	99.193760 
3771.000000	99.196648 
3770.000000	99.193743 
3769.000000	99.189130 
3768.000000	99.188679 
3767.000000	99.191597 
3766.000000	99.193145 
3765.000000	99.192716 
3764.000000	99.194574 
3763.000000	99.200764 
3762.000000	99.207478 
3761.000000	99.211394 
3760.000000	99.213859 
3759.000000	99.215280 
3758.000000	99.213527 
3757.000000	99.207972 
3756.000000	99.201216 
3755.000000	99.195067 
3754.000000	99.189772 
3753.000000	99.187668 
3752.000000	99.190857 
3751.000000	99.192185 
3750.000000	99.181479 
3749.000000	99.164277 
3748.000000	99.154294 
3747.000000	99.153397 
3746.000000	99.155380 
3745.000000	99.155077 
3744.000000	99.150446 
3743.000000	99.152787 
3742.000000	99.166399 
3741.000000	99.174504 
3740.000000	99.171055 
3739.000000	99.166645 
3738.000000	99.169790 
3737.000000	99.178383 
3736.000000	99.187225 
3735.000000	99.194972 
3734.000000	99.199791 
3733.000000	99.196920 
3732.000000	99.187282 
3731.000000	99.180688 
3730.000000	99.183521 
3729.000000	99.190959 
3728.000000	99.195751 
3727.000000	99.198296 
3726.000000	99.203378 
3725.000000	99.211559 
3724.000000	99.217038 
3723.000000	99.215886 
3722.000000	99.210964 
3721.000000	99.207525 
3720.000000	99.207577 
3719.000000	99.208119 
3718.000000	99.205308 
3717.000000	99.198150 
3716.000000	99.188143 
3715.000000	99.176347 
3714.000000	99.163962 
3713.000000	99.154126 
3712.000000	99.148698 
3711.000000	99.146180 
3710.000000	99.146044 
3709.000000	99.148183 
3708.000000	99.150211 
3707.000000	99.149402 
3706.000000	99.145148 
3705.000000	99.138769 
3704.000000	99.132346 
3703.000000	99.127822 
3702.000000	99.125294 
3701.000000	99.123495 
3700.000000	99.122277 
3699.000000	99.120435 
3698.000000	99.114568 
3697.000000	99.104035 
3696.000000	99.092917 
3695.000000	99.085113 
3694.000000	99.079746 
3693.000000	99.073943 
3692.000000	99.067668 
3691.000000	99.062415 
3690.000000	99.056875 
3689.000000	99.047694 
3688.000000	99.037867 
3687.000000	99.035763 
3686.000000	99.042096 
3685.000000	99.049032 
3684.000000	99.052438 
3683.000000	99.054795 
3682.000000	99.057412 
3681.000000	99.055781 
3680.000000	99.045081 
3679.000000	99.027988 
3678.000000	99.010585 
3677.000000	98.996440 
3676.000000	98.984770 
3675.000000	98.976930 
3674.000000	98.983109 
3673.000000	99.001833 
3672.000000	99.015750 
3671.000000	99.018698 
3670.000000	99.016300 
3669.000000	99.013644 
3668.000000	99.014124 
3667.000000	99.015599 
3666.000000	99.014595 
3665.000000	99.012561 
3664.000000	99.012858 
3663.000000	99.016256 
3662.000000	99.020739 
3661.000000	99.023986 
3660.000000	99.025756 
3659.000000	99.027975 
3658.000000	99.031740 
3657.000000	99.035642 
3656.000000	99.037355 
3655.000000	99.039676 
3654.000000	99.045488 
3653.000000	99.051685 
3652.000000	99.056613 
3651.000000	99.063904 
3650.000000	99.072153 
3649.000000	99.072230 
3648.000000	99.063185 
3647.000000	99.055861 
3646.000000	99.058128 
3645.000000	99.067686 
3644.000000	99.078144 
3643.000000	99.085926 
3642.000000	99.092094 
3641.000000	99.098836 
3640.000000	99.106576 
3639.000000	99.114377 
3638.000000	99.122446 
3637.000000	99.131970 
3636.000000	99.141294 
3635.000000	99.146070 
3634.000000	99.144480 
3633.000000	99.140280 
3632.000000	99.138116 
3631.000000	99.139698 
3630.000000	99.144185 
3629.000000	99.145505 
3628.000000	99.140500 
3627.000000	99.137695 
3626.000000	99.139293 
3625.000000	99.140231 
3624.000000	99.141261 
3623.000000	99.145207 
3622.000000	99.150588 
3621.000000	99.153570 
3620.000000	99.152857 
3619.000000	99.150141 
3618.000000	99.148986 
3617.000000	99.151953 
3616.000000	99.156819 
3615.000000	99.159251 
3614.000000	99.157486 
3613.000000	99.153152 
3612.000000	99.149303 
3611.000000	99.147659 
3610.000000	99.147951 
3609.000000	99.149900 
3608.000000	99.153320 
3607.000000	99.157250 
3606.000000	99.160270 
3605.000000	99.161501 
3604.000000	99.161925 
3603.000000	99.163526 
3602.000000	99.166718 
3601.000000	99.170680 
3600.000000	99.175435 
3599.000000	99.181300 
3598.000000	99.186653 
3597.000000	99.189509 
3596.000000	99.188948 
3595.000000	99.185570 
3594.000000	99.181062 
3593.000000	99.178655 
3592.000000	99.181342 
3591.000000	99.189732 
3590.000000	99.201207 
3589.000000	99.210684 
3588.000000	99.212292 
3587.000000	99.204578 
3586.000000	99.193667 
3585.000000	99.186102 
3584.000000	99.182708 
3583.000000	99.181662 
3582.000000	99.181458 
3581.000000	99.180840 
3580.000000	99.178504 
3579.000000	99.174124 
3578.000000	99.168571 
3577.000000	99.163852 
3576.000000	99.161986 
3575.000000	99.163590 
3574.000000	99.167395 
3573.000000	99.171209 
3572.000000	99.173639 
3571.000000	99.174517 
3570.000000	99.174185 
3569.000000	99.172808 
3568.000000	99.170660 
3567.000000	99.168724 
3566.000000	99.169175 
3565.000000	99.173080 
3564.000000	99.177688 
3563.000000	99.179675 
3562.000000	99.179036 
3561.000000	99.178208 
3560.000000	99.178996 
3559.000000	99.181011 
3558.000000	99.182534 
3557.000000	99.182433 
3556.000000	99.181455 
3555.000000	99.181145 
3554.000000	99.181949 
3553.000000	99.182656 
3552.000000	99.181963 
3551.000000	99.179758 
3550.000000	99.176542 
3549.000000	99.172958 
3548.000000	99.170847 
3547.000000	99.172724 
3546.000000	99.178989 
3545.000000	99.186920 
3544.000000	99.193041 
3543.000000	99.195380 
3542.000000	99.193769 
3541.000000	99.189309 
3540.000000	99.184451 
3539.000000	99.182184 
3538.000000	99.183991 
3537.000000	99.188249 
3536.000000	99.191206 
3535.000000	99.190126 
3534.000000	99.185161 
3533.000000	99.179017 
3532.000000	99.174962 
3531.000000	99.175002 
3530.000000	99.178563 
3529.000000	99.183221 
3528.000000	99.186886 
3527.000000	99.189178 
3526.000000	99.190368 
3525.000000	99.190050 
3524.000000	99.187892 
3523.000000	99.184969 
3522.000000	99.183237 
3521.000000	99.183477 
3520.000000	99.184521 
3519.000000	99.184693 
3518.000000	99.183510 
3517.000000	99.181837 
3516.000000	99.180809 
3515.000000	99.181242 
3514.000000	99.183528 
3513.000000	99.187297 
3512.000000	99.190984 
3511.000000	99.192771 
3510.000000	99.192215 
3509.000000	99.190763 
3508.000000	99.190167 
3507.000000	99.190453 
3506.000000	99.189712 
3505.000000	99.186336 
3504.000000	99.181298 
3503.000000	99.178107 
3502.000000	99.180002 
3501.000000	99.186765 
3500.000000	99.194362 
3499.000000	99.197996 
3498.000000	99.195787 
3497.000000	99.189991 
3496.000000	99.184867 
3495.000000	99.183154 
3494.000000	99.184245 
3493.000000	99.185353 
3492.000000	99.184159 
3491.000000	99.180642 
3490.000000	99.176871 
3489.000000	99.175177 
3488.000000	99.176345 
3487.000000	99.179271 
3486.000000	99.182091 
3485.000000	99.183730 
3484.000000	99.184557 
3483.000000	99.185691 
3482.000000	99.187339 
3481.000000	99.188011 
3480.000000	99.185949 
3479.000000	99.181625 
3478.000000	99.178087 
3477.000000	99.177993 
3476.000000	99.180516 
3475.000000	99.182096 
3474.000000	99.180680 
3473.000000	99.178126 
3472.000000	99.177755 
3471.000000	99.180497 
3470.000000	99.184416 
3469.000000	99.187291 
3468.000000	99.188500 
3467.000000	99.188600 
3466.000000	99.188181 
3465.000000	99.187389 
3464.000000	99.185946 
3463.000000	99.183354 
3462.000000	99.179409 
3461.000000	99.174781 
3460.000000	99.170880 
3459.000000	99.169068 
3458.000000	99.169905 
3457.000000	99.172699 
3456.000000	99.175478 
3455.000000	99.176071 
3454.000000	99.173943 
3453.000000	99.171089 
3452.000000	99.170431 
3451.000000	99.173192 
3450.000000	99.177902 
3449.000000	99.182063 
3448.000000	99.184167 
3447.000000	99.184100 
3446.000000	99.182464 
3445.000000	99.180269 
3444.000000	99.178825 
3443.000000	99.179012 
3442.000000	99.180275 
3441.000000	99.181005 
3440.000000	99.180356 
3439.000000	99.179087 
3438.000000	99.178309 
3437.000000	99.177940 
3436.000000	99.177132 
3435.000000	99.176087 
3434.000000	99.176452 
3433.000000	99.179673 
3432.000000	99.185149 
3431.000000	99.190266 
3430.000000	99.192118 
3429.000000	99.189461 
3428.000000	99.183493 
3427.000000	99.176924 
3426.000000	99.172288 
3425.000000	99.170798 
3424.000000	99.172234 
3423.000000	99.175379 
3422.000000	99.178605 
3421.000000	99.180581 
3420.000000	99.180919 
3419.000000	99.180348 
3418.000000	99.180179 
3417.000000	99.181347 
3416.000000	99.183464 
3415.000000	99.184667 
3414.000000	99.182902 
3413.000000	99.178015 
3412.000000	99.172513 
3411.000000	99.169756 
3410.000000	99.171262 
3409.000000	99.175774 
3408.000000	99.180588 
3407.000000	99.183364 
3406.000000	99.183067 
3405.000000	99.180105 
3404.000000	99.176102 
3403.000000	99.173291 
3402.000000	99.173505 
3401.000000	99.177113 
3400.000000	99.182528 
3399.000000	99.187044 
3398.000000	99.188858 
3397.000000	99.188491 
3396.000000	99.187867 
3395.000000	99.188105 
3394.000000	99.188900 
3393.000000	99.189940 
3392.000000	99.191706 
3391.000000	99.194232 
3390.000000	99.195946 
3389.000000	99.194882 
3388.000000	99.190833 
3387.000000	99.185552 
3386.000000	99.180976 
3385.000000	99.177855 
3384.000000	99.175921 
3383.000000	99.174689 
3382.000000	99.173842 
3381.000000	99.173268 
3380.000000	99.172875 
3379.000000	99.172471 
3378.000000	99.172080 
3377.000000	99.172455 
3376.000000	99.174723 
3375.000000	99.179143 
3374.000000	99.184585 
3373.000000	99.189492 
3372.000000	99.192980 
3371.000000	99.194684 
3370.000000	99.194264 
3369.000000	99.191879 
3368.000000	99.188742 
3367.000000	99.186204 
3366.000000	99.184247 
3365.000000	99.181720 
3364.000000	99.178247 
3363.000000	99.175180 
3362.000000	99.174277 
3361.000000	99.175821 
3360.000000	99.178353 
3359.000000	99.180052 
3358.000000	99.180342 
3357.000000	99.180318 
3356.000000	99.181486 
3355.000000	99.183839 
3354.000000	99.185582 
3353.000000	99.185304 
3352.000000	99.184086 
3351.000000	99.184577 
3350.000000	99.188037 
3349.000000	99.193136 
3348.000000	99.197739 
3347.000000	99.200834 
3346.000000	99.202273 
3345.000000	99.201773 
3344.000000	99.199150 
3343.000000	99.195106 
3342.000000	99.190934 
3341.000000	99.187671 
3340.000000	99.185958 
3339.000000	99.186234 
3338.000000	99.188120 
3337.000000	99.189826 
3336.000000	99.189230 
3335.000000	99.186019 
3334.000000	99.182261 
3333.000000	99.180521 
3332.000000	99.181581 
3331.000000	99.184013 
3330.000000	99.185707 
3329.000000	99.185803 
3328.000000	99.185394 
3327.000000	99.186327 
3326.000000	99.189128 
3325.000000	99.192359 
3324.000000	99.194317 
3323.000000	99.195077 
3322.000000	99.196094 
3321.000000	99.197738 
3320.000000	99.198116 
3319.000000	99.195102 
3318.000000	99.189317 
3317.000000	99.184369 
3316.000000	99.183801 
3315.000000	99.187921 
3314.000000	99.193606 
3313.000000	99.197153 
3312.000000	99.197303 
3311.000000	99.195659 
3310.000000	99.194440 
3309.000000	99.194249 
3308.000000	99.194245 
3307.000000	99.193918 
3306.000000	99.193723 
3305.000000	99.193786 
3304.000000	99.192982 
3303.000000	99.190207 
3302.000000	99.186214 
3301.000000	99.183255 
3300.000000	99.182807 
3299.000000	99.184372 
3298.000000	99.186560 
3297.000000	99.188655 
3296.000000	99.190819 
3295.000000	99.193463 
3294.000000	99.196948 
3293.000000	99.201369 
3292.000000	99.205970 
3291.000000	99.209106 
3290.000000	99.209468 
3289.000000	99.207266 
3288.000000	99.203816 
3287.000000	99.200218 
3286.000000	99.196925 
3285.000000	99.194334 
3284.000000	99.192935 
3283.000000	99.192720 
3282.000000	99.193085 
3281.000000	99.193482 
3280.000000	99.193684 
3279.000000	99.193368 
3278.000000	99.192158 
3277.000000	99.190376 
3276.000000	99.189199 
3275.000000	99.189542 
3274.000000	99.190950 
3273.000000	99.191841 
3272.000000	99.190688 
3271.000000	99.186982 
3270.000000	99.181542 
3269.000000	99.176331 
3268.000000	99.173662 
3267.000000	99.174976 
3266.000000	99.180000 
3265.000000	99.186917 
3264.000000	99.193371 
3263.000000	99.197742 
3262.000000	99.200032 
3261.000000	99.201343 
3260.000000	99.202092 
3259.000000	99.201129 
3258.000000	99.197367 
3257.000000	99.191987 
3256.000000	99.187982 
3255.000000	99.187288 
3254.000000	99.189204 
3253.000000	99.191859 
3252.000000	99.194138 
3251.000000	99.195666 
3250.000000	99.196016 
3249.000000	99.195041 
3248.000000	99.193433 
3247.000000	99.191969 
3246.000000	99.190432 
3245.000000	99.188110 
3244.000000	99.185362 
3243.000000	99.184129 
3242.000000	99.186789 
3241.000000	99.194280 
3240.000000	99.204564 
3239.000000	99.212774 
3238.000000	99.214276 
3237.000000	99.208848 
3236.000000	99.201385 
3235.000000	99.197360 
3234.000000	99.197865 
3233.000000	99.200022 
3232.000000	99.201528 
3231.000000	99.203014 
3230.000000	99.205679 
3229.000000	99.208347 
3228.000000	99.208130 
3227.000000	99.203473 
3226.000000	99.195794 
3225.000000	99.188455 
3224.000000	99.184505 
3223.000000	99.184914 
3222.000000	99.188301 
3221.000000	99.192291 
3220.000000	99.195288 
3219.000000	99.196920 
3218.000000	99.197168 
3217.000000	99.195864 
3216.000000	99.193418 
3215.000000	99.191372 
3214.000000	99.191484 
3213.000000	99.194235 
3212.000000	99.198591 
3211.000000	99.203063 
3210.000000	99.206668 
3209.000000	99.209005 
3208.000000	99.209865 
3207.000000	99.209074 
3206.000000	99.206852 
3205.000000	99.204371 
3204.000000	99.203589 
3203.000000	99.205941 
3202.000000	99.211020 
3201.000000	99.216759 
3200.000000	99.220911 
3199.000000	99.222108 
3198.000000	99.220022 
3197.000000	99.215641 
3196.000000	99.211611 
3195.000000	99.210887 
3194.000000	99.213815 
3193.000000	99.217196 
3192.000000	99.217547 
3191.000000	99.215198 
3190.000000	99.213968 
3189.000000	99.216613 
3188.000000	99.221738 
3187.000000	99.225723 
3186.000000	99.226644 
3185.000000	99.225196 
3184.000000	99.222471 
3183.000000	99.218388 
3182.000000	99.212757 
3181.000000	99.206877 
3180.000000	99.203163 
3179.000000	99.203100 
3178.000000	99.205787 
3177.000000	99.208541 
3176.000000	99.209048 
3175.000000	99.207305 
3174.000000	99.205804 
3173.000000	99.207513 
3172.000000	99.212990 
3171.000000	99.219280 
3170.000000	99.222167 
3169.000000	99.220065 
3168.000000	99.215622 
3167.000000	99.213211 
3166.000000	99.214904 
3165.000000	99.219068 
3164.000000	99.222662 
3163.000000	99.224382 
3162.000000	99.225425 
3161.000000	99.227687 
3160.000000	99.231675 
3159.000000	99.236001 
3158.000000	99.238557 
3157.000000	99.238186 
3156.000000	99.235479 
3155.000000	99.232105 
3154.000000	99.229490 
3153.000000	99.228162 
3152.000000	99.228004 
3151.000000	99.228441 
3150.000000	99.228385 
3149.000000	99.226897 
3148.000000	99.224577 
3147.000000	99.223729 
3146.000000	99.226194 
3145.000000	99.230992 
3144.000000	99.234886 
3143.000000	99.235548 
3142.000000	99.233717 
3141.000000	99.232016 
3140.000000	99.232039 
3139.000000	99.233065 
3138.000000	99.233429 
3137.000000	99.232636 
3136.000000	99.231759 
3135.000000	99.231965 
3134.000000	99.233087 
3133.000000	99.233926 
3132.000000	99.233739 
3131.000000	99.232886 
3130.000000	99.231855 
3129.000000	99.230299 
3128.000000	99.227704 
3127.000000	99.224715 
3126.000000	99.222969 
3125.000000	99.223427 
3124.000000	99.225405 
3123.000000	99.227344 
3122.000000	99.228178 
3121.000000	99.228075 
3120.000000	99.228279 
3119.000000	99.230084 
3118.000000	99.233298 
3117.000000	99.235739 
3116.000000	99.235131 
3115.000000	99.231751 
3114.000000	99.228325 
3113.000000	99.226891 
3112.000000	99.226725 
3111.000000	99.226079 
3110.000000	99.224946 
3109.000000	99.224822 
3108.000000	99.226174 
3107.000000	99.227594 
3106.000000	99.227645 
3105.000000	99.226574 
3104.000000	99.225912 
3103.000000	99.227098 
3102.000000	99.230797 
3101.000000	99.236599 
3100.000000	99.242539 
3099.000000	99.245451 
3098.000000	99.243158 
3097.000000	99.236878 
3096.000000	99.230896 
3095.000000	99.229203 
3094.000000	99.232390 
3093.000000	99.237800 
3092.000000	99.242169 
3091.000000	99.243760 
3090.000000	99.242608 
3089.000000	99.239938 
3088.000000	99.237687 
3087.000000	99.237727 
3086.000000	99.240545 
3085.000000	99.244675 
3084.000000	99.247904 
3083.000000	99.249086 
3082.000000	99.248659 
3081.000000	99.247713 
3080.000000	99.247037 
3079.000000	99.246793 
3078.000000	99.246318 
3077.000000	99.244176 
3076.000000	99.239426 
3075.000000	99.233392 
3074.000000	99.229478 
3073.000000	99.230427 
3072.000000	99.235916 
3071.000000	99.243194 
3070.000000	99.249463 
3069.000000	99.252921 
3068.000000	99.252271 
3067.000000	99.247001 
3066.000000	99.238742 
3065.000000	99.231155 
3064.000000	99.227289 
3063.000000	99.227254 
3062.000000	99.229031 
3061.000000	99.231033 
3060.000000	99.233059 
3059.000000	99.235138 
3058.000000	99.236678 
3057.000000	99.237205 
3056.000000	99.237225 
3055.000000	99.237769 
3054.000000	99.239250 
3053.000000	99.241065 
3052.000000	99.242129 
3051.000000	99.241661 
3050.000000	99.239695 
3049.000000	99.236961 
3048.000000	99.233999 
3047.000000	99.230367 
3046.000000	99.225215 
3045.000000	99.218827 
3044.000000	99.213029 
3043.000000	99.209537 
3042.000000	99.208152 
3041.000000	99.207042 
3040.000000	99.204673 
3039.000000	99.201067 
3038.000000	99.197288 
3037.000000	99.194173 
3036.000000	99.191607 
3035.000000	99.188661 
3034.000000	99.184385 
3033.000000	99.178733 
3032.000000	99.172606 
3031.000000	99.166633 
3030.000000	99.159929 
3029.000000	99.150661 
3028.000000	99.138225 
3027.000000	99.124574 
3026.000000	99.112902 
3025.000000	99.104880 
3024.000000	99.099283 
3023.000000	99.093109 
3022.000000	99.083762 
3021.000000	99.070449 
3020.000000	99.054409 
3019.000000	99.038330 
3018.000000	99.025090 
3017.000000	99.016020 
3016.000000	99.009744 
3015.000000	99.002879 
3014.000000	98.992312 
3013.000000	98.977039 
3012.000000	98.957938 
3011.000000	98.936268 
3010.000000	98.913077 
3009.000000	98.889957 
3008.000000	98.869433 
3007.000000	98.853707 
3006.000000	98.842928 
3005.000000	98.834840 
3004.000000	98.825917 
3003.000000	98.812912 
3002.000000	98.794403 
3001.000000	98.772176 
3000.000000	98.750916 
2999.000000	98.734993 
2998.000000	98.724924 
2997.000000	98.717795 
2996.000000	98.711173 
2995.000000	98.704706 
2994.000000	98.696606 
2993.000000	98.680913 
2992.000000	98.652168 
2991.000000	98.613565 
2990.000000	98.577671 
2989.000000	98.556728 
2988.000000	98.552877 
2987.000000	98.559035 
2986.000000	98.567719 
2985.000000	98.576658 
2984.000000	98.586401 
2983.000000	98.595973 
2982.000000	98.602858 
2981.000000	98.605827 
2980.000000	98.605870 
2979.000000	98.604400 
2978.000000	98.601824 
2977.000000	98.598131 
2976.000000	98.593967 
2975.000000	98.590552 
2974.000000	98.588740 
2973.000000	98.588507 
2972.000000	98.589352 
2971.000000	98.591165 
2970.000000	98.594727 
2969.000000	98.601343 
2968.000000	98.611870 
2967.000000	98.625863 
2966.000000	98.641542 
2965.000000	98.656646 
2964.000000	98.669747 
2963.000000	98.681070 
2962.000000	98.691919 
2961.000000	98.702976 
2960.000000	98.713366 
2959.000000	98.721856 
2958.000000	98.728846 
2957.000000	98.736311 
2956.000000	98.745340 
2955.000000	98.754365 
2954.000000	98.760750 
2953.000000	98.764311 
2952.000000	98.768623 
2951.000000	98.778131 
2950.000000	98.793609 
2949.000000	98.810580 
2948.000000	98.822668 
2947.000000	98.826883 
2946.000000	98.825731 
2945.000000	98.824265 
2944.000000	98.825600 
2943.000000	98.829506 
2942.000000	98.834326 
2941.000000	98.838818 
2940.000000	98.842057 
2939.000000	98.843099 
2938.000000	98.841908 
2937.000000	98.840206 
2936.000000	98.840535 
2935.000000	98.844363 
2934.000000	98.851147 
2933.000000	98.858714 
2932.000000	98.864211 
2931.000000	98.865407 
2930.000000	98.862026 
2929.000000	98.855897 
2928.000000	98.849509 
2927.000000	98.844529 
2926.000000	98.841634 
2925.000000	98.840780 
2924.000000	98.840957 
2923.000000	98.840445 
2922.000000	98.838339 
2921.000000	98.835455 
2920.000000	98.832798 
2919.000000	98.829607 
2918.000000	98.824093 
2917.000000	98.815907 
2916.000000	98.806704 
2915.000000	98.798256 
2914.000000	98.791216 
2913.000000	98.785977 
2912.000000	98.783255 
2911.000000	98.782872 
2910.000000	98.782826 
2909.000000	98.780769 
2908.000000	98.776123 
2907.000000	98.769845 
2906.000000	98.762264 
2905.000000	98.752087 
2904.000000	98.738111 
2903.000000	98.721840 
2902.000000	98.708266 
2901.000000	98.703524 
2900.000000	98.710886 
2899.000000	98.728035 
2898.000000	98.748041 
2897.000000	98.763901 
2896.000000	98.772875 
2895.000000	98.777196 
2894.000000	98.780991 
2893.000000	98.786560 
2892.000000	98.793152 
2891.000000	98.798617 
2890.000000	98.801863 
2889.000000	98.803746 
2888.000000	98.805818 
2887.000000	98.808593 
2886.000000	98.811388 
2885.000000	98.813768 
2884.000000	98.816640 
2883.000000	98.821619 
2882.000000	98.829572 
2881.000000	98.840164 
2880.000000	98.852766 
2879.000000	98.867373 
2878.000000	98.884217 
2877.000000	98.902376 
2876.000000	98.918981 
2875.000000	98.930395 
2874.000000	98.934798 
2873.000000	98.933918 
2872.000000	98.932054 
2871.000000	98.933194 
2870.000000	98.938957 
2869.000000	98.948755 
2868.000000	98.961187 
2867.000000	98.975069 
2866.000000	98.989730 
2865.000000	99.004864 
2864.000000	99.019966 
2863.000000	99.033668 
2862.000000	99.044137 
2861.000000	99.050898 
2860.000000	99.056218 
2859.000000	99.063813 
2858.000000	99.075473 
2857.000000	99.089198 
2856.000000	99.101133 
2855.000000	99.109389 
2854.000000	99.115487 
2853.000000	99.121841 
2852.000000	99.128558 
2851.000000	99.133619 
2850.000000	99.136163 
2849.000000	99.138381 
2848.000000	99.143273 
2847.000000	99.151126 
2846.000000	99.159188 
2845.000000	99.164643 
2844.000000	99.167023 
2843.000000	99.167786 
2842.000000	99.168745 
2841.000000	99.171252 
2840.000000	99.175791 
2839.000000	99.181328 
2838.000000	99.185515 
2837.000000	99.186443 
2836.000000	99.184346 
2835.000000	99.181408 
2834.000000	99.180115 
2833.000000	99.181893 
2832.000000	99.186618 
2831.000000	99.192754 
2830.000000	99.198317 
2829.000000	99.202442 
2828.000000	99.205996 
2827.000000	99.210181 
2826.000000	99.214703 
2825.000000	99.217950 
2824.000000	99.218994 
2823.000000	99.218839 
2822.000000	99.219489 
2821.000000	99.222109 
2820.000000	99.226239 
2819.000000	99.230495 
2818.000000	99.233764 
2817.000000	99.235740 
2816.000000	99.236557 
2815.000000	99.236293 
2814.000000	99.235153 
2813.000000	99.233922 
2812.000000	99.233486 
2811.000000	99.233688 
2810.000000	99.233295 
2809.000000	99.231638 
2808.000000	99.229751 
2807.000000	99.229220 
2806.000000	99.230216 
2805.000000	99.231428 
2804.000000	99.231874 
2803.000000	99.232045 
2802.000000	99.233128 
2801.000000	99.235639 
2800.000000	99.238998 
2799.000000	99.242070 
2798.000000	99.243965 
2797.000000	99.244542 
2796.000000	99.244277 
2795.000000	99.243621 
2794.000000	99.242661 
2793.000000	99.241511 
2792.000000	99.240630 
2791.000000	99.240417 
2790.000000	99.240874 
2789.000000	99.242111 
2788.000000	99.244665 
2787.000000	99.248608 
2786.000000	99.252779 
2785.000000	99.255837 
2784.000000	99.257819 
2783.000000	99.259517 
2782.000000	99.260502 
2781.000000	99.259270 
2780.000000	99.255809 
2779.000000	99.252641 
2778.000000	99.252295 
2777.000000	99.254505 
2776.000000	99.256755 
2775.000000	99.257023 
2774.000000	99.255153 
2773.000000	99.252210 
2772.000000	99.249599 
2771.000000	99.248678 
2770.000000	99.250230 
2769.000000	99.254045 
2768.000000	99.259274 
2767.000000	99.264885 
2766.000000	99.269420 
2765.000000	99.271086 
2764.000000	99.269266 
2763.000000	99.265781 
2762.000000	99.263591 
2761.000000	99.264144 
2760.000000	99.266745 
2759.000000	99.270284 
2758.000000	99.274273 
2757.000000	99.277953 
2756.000000	99.279853 
2755.000000	99.279234 
2754.000000	99.277154 
2753.000000	99.275186 
2752.000000	99.273649 
2751.000000	99.271970 
2750.000000	99.270181 
2749.000000	99.268900 
2748.000000	99.268006 
2747.000000	99.266502 
2746.000000	99.263953 
2745.000000	99.261233 
2744.000000	99.259557 
2743.000000	99.259440 
2742.000000	99.260876 
2741.000000	99.263791 
2740.000000	99.267770 
2739.000000	99.271764 
2738.000000	99.274720 
2737.000000	99.276422 
2736.000000	99.277372 
2735.000000	99.277968 
2734.000000	99.278167 
2733.000000	99.277862 
2732.000000	99.277237 
2731.000000	99.276653 
2730.000000	99.276386 
2729.000000	99.276554 
2728.000000	99.277168 
2727.000000	99.278163 
2726.000000	99.279415 
2725.000000	99.280805 
2724.000000	99.282350 
2723.000000	99.284262 
2722.000000	99.286666 
2721.000000	99.289090 
2720.000000	99.290411 
2719.000000	99.289660 
2718.000000	99.286951 
2717.000000	99.283510 
2716.000000	99.280979 
2715.000000	99.280843 
2714.000000	99.283971 
2713.000000	99.289725 
2712.000000	99.295511 
2711.000000	99.298340 
2710.000000	99.297627 
2709.000000	99.295840 
2708.000000	99.295655 
2707.000000	99.296868 
2706.000000	99.296911 
2705.000000	99.294233 
2704.000000	99.290216 
2703.000000	99.287553 
2702.000000	99.287431 
2701.000000	99.288705 
2700.000000	99.289489 
2699.000000	99.289034 
2698.000000	99.287984 
2697.000000	99.287151 
2696.000000	99.286565 
2695.000000	99.286065 
2694.000000	99.286325 
2693.000000	99.288262 
2692.000000	99.291144 
2691.000000	99.292481 
2690.000000	99.290835 
2689.000000	99.288174 
2688.000000	99.288136 
2687.000000	99.291967 
2686.000000	99.297194 
2685.000000	99.300446 
2684.000000	99.300609 
2683.000000	99.299008 
2682.000000	99.297524 
2681.000000	99.297249 
2680.000000	99.298208 
2679.000000	99.299491 
2678.000000	99.299823 
2677.000000	99.298665 
2676.000000	99.296818 
2675.000000	99.295664 
2674.000000	99.295838 
2673.000000	99.296784 
2672.000000	99.297413 
2671.000000	99.296950 
2670.000000	99.295186 
2669.000000	99.292151 
2668.000000	99.287886 
2667.000000	99.282964 
2666.000000	99.279219 
2665.000000	99.279124 
2664.000000	99.283614 
2663.000000	99.290778 
2662.000000	99.297462 
2661.000000	99.302039 
2660.000000	99.304759 
2659.000000	99.305704 
2658.000000	99.303971 
2657.000000	99.299595 
2656.000000	99.295035 
2655.000000	99.293339 
2654.000000	99.294885 
2653.000000	99.296765 
2652.000000	99.295628 
2651.000000	99.290916 
2650.000000	99.285264 
2649.000000	99.281784 
2648.000000	99.281000 
2647.000000	99.280886 
2646.000000	99.280160 
2645.000000	99.280566 
2644.000000	99.284508 
2643.000000	99.290947 
2642.000000	99.295751 
2641.000000	99.296712 
2640.000000	99.296278 
2639.000000	99.298070 
2638.000000	99.302231 
2637.000000	99.305721 
2636.000000	99.306117 
2635.000000	99.303445 
2634.000000	99.299123 
2633.000000	99.294996 
2632.000000	99.293033 
2631.000000	99.294116 
2630.000000	99.296815 
2629.000000	99.298472 
2628.000000	99.297664 
2627.000000	99.295018 
2626.000000	99.292195 
2625.000000	99.291055 
2624.000000	99.292983 
2623.000000	99.297431 
2622.000000	99.301582 
2621.000000	99.303041 
2620.000000	99.302448 
2619.000000	99.301739 
2618.000000	99.300527 
2617.000000	99.296834 
2616.000000	99.291641 
2615.000000	99.289723 
2614.000000	99.294306 
2613.000000	99.302668 
2612.000000	99.308813 
2611.000000	99.309543 
2610.000000	99.306510 
2609.000000	99.303170 
2608.000000	99.301488 
2607.000000	99.301551 
2606.000000	99.302891 
2605.000000	99.305217 
2604.000000	99.307902 
2603.000000	99.309360 
2602.000000	99.307925 
2601.000000	99.303900 
2600.000000	99.299997 
2599.000000	99.298704 
2598.000000	99.299632 
2597.000000	99.300536 
2596.000000	99.300177 
2595.000000	99.298516 
2594.000000	99.294842 
2593.000000	99.288601 
2592.000000	99.282554 
2591.000000	99.282149 
2590.000000	99.289792 
2589.000000	99.301433 
2588.000000	99.310545 
2587.000000	99.314120 
2586.000000	99.313132 
2585.000000	99.308814 
2584.000000	99.301362 
2583.000000	99.292083 
2582.000000	99.284182 
2581.000000	99.280257 
2580.000000	99.279876 
2579.000000	99.280196 
2578.000000	99.278698 
2577.000000	99.275517 
2576.000000	99.273630 
2575.000000	99.276357 
2574.000000	99.283938 
2573.000000	99.292725 
2572.000000	99.298232 
2571.000000	99.298605 
2570.000000	99.294876 
2569.000000	99.289080 
2568.000000	99.283339 
2567.000000	99.279884 
2566.000000	99.280086 
2565.000000	99.283201 
2564.000000	99.287068 
2563.000000	99.290033 
2562.000000	99.291506 
2561.000000	99.291328 
2560.000000	99.290100 
2559.000000	99.289727 
2558.000000	99.291635 
2557.000000	99.294179 
2556.000000	99.293952 
2555.000000	99.290694 
2554.000000	99.288920 
2553.000000	99.292661 
2552.000000	99.299717 
2551.000000	99.303684 
2550.000000	99.301704 
2549.000000	99.297744 
2548.000000	99.297050 
2547.000000	99.299349 
2546.000000	99.299814 
2545.000000	99.296054 
2544.000000	99.291452 
2543.000000	99.290821 
2542.000000	99.294836 
2541.000000	99.300410 
2540.000000	99.305137 
2539.000000	99.308872 
2538.000000	99.311007 
2537.000000	99.308843 
2536.000000	99.300382 
2535.000000	99.287818 
2534.000000	99.276722 
2533.000000	99.271655 
2532.000000	99.273152 
2531.000000	99.278672 
2530.000000	99.285471 
2529.000000	99.292136 
2528.000000	99.297949 
2527.000000	99.301933 
2526.000000	99.303425 
2525.000000	99.303599 
2524.000000	99.305294 
2523.000000	99.310257 
2522.000000	99.316851 
2521.000000	99.321550 
2520.000000	99.322751 
2519.000000	99.321993 
2518.000000	99.321161 
2517.000000	99.319742 
2516.000000	99.315832 
2515.000000	99.309228 
2514.000000	99.302433 
2513.000000	99.298355 
2512.000000	99.297371 
2511.000000	99.296963 
2510.000000	99.294649 
2509.000000	99.291404 
2508.000000	99.291294 
2507.000000	99.296557 
2506.000000	99.303599 
2505.000000	99.305703 
2504.000000	99.300166 
2503.000000	99.291093 
2502.000000	99.284485 
2501.000000	99.282523 
2500.000000	99.284023 
2499.000000	99.288504 
2498.000000	99.296852 
2497.000000	99.308167 
2496.000000	99.318414 
2495.000000	99.323095 
2494.000000	99.320224 
2493.000000	99.310709 
2492.000000	99.297559 
2491.000000	99.285392 
2490.000000	99.278948 
2489.000000	99.280023 
2488.000000	99.285589 
2487.000000	99.289834 
2486.000000	99.288819 
2485.000000	99.283648 
2484.000000	99.279361 
2483.000000	99.280376 
2482.000000	99.286384 
2481.000000	99.292631 
2480.000000	99.294637 
2479.000000	99.292424 
2478.000000	99.289549 
2477.000000	99.288526 
2476.000000	99.288571 
2475.000000	99.288039 
2474.000000	99.287537 
2473.000000	99.289366 
2472.000000	99.294484 
2471.000000	99.301167 
2470.000000	99.306581 
2469.000000	99.308783 
2468.000000	99.307135 
2467.000000	99.301807 
2466.000000	99.293855 
2465.000000	99.285781 
2464.000000	99.281056 
2463.000000	99.281893 
2462.000000	99.286797 
2461.000000	99.290864 
2460.000000	99.289866 
2459.000000	99.284745 
2458.000000	99.281332 
2457.000000	99.284497 
2456.000000	99.292567 
2455.000000	99.298393 
2454.000000	99.296267 
2453.000000	99.287203 
2452.000000	99.277227 
2451.000000	99.271446 
2450.000000	99.270655 
2449.000000	99.272876 
2448.000000	99.276241 
2447.000000	99.279793 
2446.000000	99.282979 
2445.000000	99.285853 
2444.000000	99.289339 
2443.000000	99.293962 
2442.000000	99.298343 
2441.000000	99.300146 
2440.000000	99.298847 
2439.000000	99.296515 
2438.000000	99.295355 
2437.000000	99.295302 
2436.000000	99.294538 
2435.000000	99.291512 
2434.000000	99.285730 
2433.000000	99.277546 
2432.000000	99.268488 
2431.000000	99.261402 
2430.000000	99.258975 
2429.000000	99.261887 
2428.000000	99.269050 
2427.000000	99.279137 
2426.000000	99.290349 
2425.000000	99.298836 
2424.000000	99.299768 
2423.000000	99.291840 
2422.000000	99.279866 
2421.000000	99.271210 
2420.000000	99.269522 
2419.000000	99.272847 
2418.000000	99.277351 
2417.000000	99.281094 
2416.000000	99.283757 
2415.000000	99.284584 
2414.000000	99.282590 
2413.000000	99.278568 
2412.000000	99.275209 
2411.000000	99.274532 
2410.000000	99.276044 
2409.000000	99.278155 
2408.000000	99.280725 
2407.000000	99.285027 
2406.000000	99.291126 
2405.000000	99.296460 
2404.000000	99.297851 
2403.000000	99.294561 
2402.000000	99.288672 
2401.000000	99.282820 
2400.000000	99.278326 
2399.000000	99.275404 
2398.000000	99.273992 
2397.000000	99.273739 
2396.000000	99.273956 
2395.000000	99.274471 
2394.000000	99.276126 
2393.000000	99.279557 
2392.000000	99.283761 
2391.000000	99.286967 
2390.000000	99.288977 
2389.000000	99.291581 
2388.000000	99.296222 
2387.000000	99.302124 
2386.000000	99.307311 
2385.000000	99.310701 
2384.000000	99.312584 
2383.000000	99.313860 
2382.000000	99.315775 
2381.000000	99.319572 
2380.000000	99.324721 
2379.000000	99.327624 
2378.000000	99.324307 
2377.000000	99.315708 
2376.000000	99.308677 
2375.000000	99.309586 
2374.000000	99.317186 
2373.000000	99.323852 
2372.000000	99.324632 
2371.000000	99.323242 
2370.000000	99.327171 
2369.000000	99.337510 
2368.000000	99.346000 
2367.000000	99.343726 
2366.000000	99.331841 
2365.000000	99.321709 
2364.000000	99.323563 
2363.000000	99.336382 
2362.000000	99.350527 
2361.000000	99.357661 
2360.000000	99.356277 
2359.000000	99.350885 
2358.000000	99.347414 
2357.000000	99.349840 
2356.000000	99.357697 
2355.000000	99.366361 
2354.000000	99.371388 
2353.000000	99.371078 
2352.000000	99.367185 
2351.000000	99.361565 
2350.000000	99.354353 
2349.000000	99.346536 
2348.000000	99.341134 
2347.000000	99.341685 
2346.000000	99.346315 
2345.000000	99.348958 
2344.000000	99.346922 
2343.000000	99.343316 
2342.000000	99.343072 
2341.000000	99.346510 
2340.000000	99.350426 
2339.000000	99.351357 
2338.000000	99.349024 
2337.000000	99.345880 
2336.000000	99.344611 
2335.000000	99.345546 
2334.000000	99.347042 
2333.000000	99.346856 
2332.000000	99.344390 
2331.000000	99.340542 
2330.000000	99.336241 
2329.000000	99.332589 
2328.000000	99.330018 
2327.000000	99.329884 
2326.000000	99.331566 
2325.000000	99.332483 
2324.000000	99.329951 
2323.000000	99.324747 
2322.000000	99.321991 
2321.000000	99.325466 
2320.000000	99.333650 
2319.000000	99.340326 
2318.000000	99.340914 
2317.000000	99.335971 
2316.000000	99.329459 
2315.000000	99.324656 
2314.000000	99.322184 
2313.000000	99.321655 
2312.000000	99.322756 
2311.000000	99.325642 
2310.000000	99.329763 
2309.000000	99.333879 
2308.000000	99.335643 
2307.000000	99.332654 
2306.000000	99.324179 
2305.000000	99.312699 
2304.000000	99.302091 
2303.000000	99.294329 
2302.000000	99.288915 
2301.000000	99.285610 
2300.000000	99.285184 
2299.000000	99.286834 
2298.000000	99.287061 
2297.000000	99.284125 
2296.000000	99.281113 
2295.000000	99.282118 
2294.000000	99.285372 
2293.000000	99.284487 
2292.000000	99.276416 
2291.000000	99.265700 
2290.000000	99.259116 
2289.000000	99.258858 
2288.000000	99.262283 
2287.000000	99.266220 
2286.000000	99.269043 
2285.000000	99.269712 
2284.000000	99.267444 
2283.000000	99.262292 
2282.000000	99.254716 
2281.000000	99.244816 
2280.000000	99.233741 
2279.000000	99.225341 
2278.000000	99.224315 
2277.000000	99.231559 
2276.000000	99.242742 
2275.000000	99.252513 
2274.000000	99.258906 
2273.000000	99.262234 
2272.000000	99.260910 
2271.000000	99.251734 
2270.000000	99.235725 
2269.000000	99.221268 
2268.000000	99.218027 
2267.000000	99.227533 
2266.000000	99.241883 
2265.000000	99.252044 
2264.000000	99.255431 
2263.000000	99.255264 
2262.000000	99.255642 
2261.000000	99.258950 
2260.000000	99.265098 
2259.000000	99.270258 
2258.000000	99.268235 
2257.000000	99.256546 
2256.000000	99.240644 
2255.000000	99.229004 
2254.000000	99.224464 
2253.000000	99.223192 
2252.000000	99.221915 
2251.000000	99.222648 
2250.000000	99.229233 
2249.000000	99.241709 
2248.000000	99.255363 
2247.000000	99.263978 
2246.000000	99.263507 
2245.000000	99.254391 
2244.000000	99.241093 
2243.000000	99.228592 
2242.000000	99.219359 
2241.000000	99.214157 
2240.000000	99.213835 
2239.000000	99.217721 
2238.000000	99.221142 
2237.000000	99.217985 
2236.000000	99.206555 
2235.000000	99.190969 
2234.000000	99.176982 
2233.000000	99.168628 
2232.000000	99.168067 
2231.000000	99.175123 
2230.000000	99.186411 
2229.000000	99.197939 
2228.000000	99.209186 
2227.000000	99.221419 
2226.000000	99.231615 
2225.000000	99.232571 
2224.000000	99.221421 
2223.000000	99.204727 
2222.000000	99.192580 
2221.000000	99.189856 
2220.000000	99.194873 
2219.000000	99.203622 
2218.000000	99.212512 
2217.000000	99.219307 
2216.000000	99.224893 
2215.000000	99.232950 
2214.000000	99.244743 
2213.000000	99.254689 
2212.000000	99.254292 
2211.000000	99.241564 
2210.000000	99.225015 
2209.000000	99.216808 
2208.000000	99.221316 
2207.000000	99.230641 
2206.000000	99.232100 
2205.000000	99.220320 
2204.000000	99.201278 
2203.000000	99.184771 
2202.000000	99.175694 
2201.000000	99.173450 
2200.000000	99.175552 
2199.000000	99.177967 
2198.000000	99.174915 
2197.000000	99.164174 
2196.000000	99.152237 
2195.000000	99.149211 
2194.000000	99.158212 
2193.000000	99.173260 
2192.000000	99.186665 
2191.000000	99.193765 
2190.000000	99.191501 
2189.000000	99.179782 
2188.000000	99.165927 
2187.000000	99.161148 
2186.000000	99.169733 
2185.000000	99.186182 
2184.000000	99.204219 
2183.000000	99.222135 
2182.000000	99.236746 
2181.000000	99.240368 
2180.000000	99.230134 
2179.000000	99.214508 
2178.000000	99.204191 
2177.000000	99.200009 
2176.000000	99.194469 
2175.000000	99.182570 
2174.000000	99.166696 
2173.000000	99.152863 
2172.000000	99.145923 
2171.000000	99.146933 
2170.000000	99.152618 
2169.000000	99.158848 
2168.000000	99.165545 
2167.000000	99.174773 
2166.000000	99.183242 
2165.000000	99.182668 
2164.000000	99.170878 
2163.000000	99.156717 
2162.000000	99.149836 
2161.000000	99.151092 
2160.000000	99.156789 
2159.000000	99.165602 
2158.000000	99.175249 
2157.000000	99.179708 
2156.000000	99.177301 
2155.000000	99.174518 
2154.000000	99.175702 
2153.000000	99.175741 
2152.000000	99.168951 
2151.000000	99.159863 
2150.000000	99.159033 
2149.000000	99.171833 
2148.000000	99.195680 
2147.000000	99.223050 
2146.000000	99.242037 
2145.000000	99.241085 
2144.000000	99.221963 
2143.000000	99.202916 
2142.000000	99.200210 
2141.000000	99.209844 
2140.000000	99.215494 
2139.000000	99.210816 
2138.000000	99.203290 
2137.000000	99.197883 
2136.000000	99.189709 
2135.000000	99.176565 
2134.000000	99.168419 
2133.000000	99.176842 
2132.000000	99.199589 
2131.000000	99.221431 
2130.000000	99.228193 
2129.000000	99.217496 
2128.000000	99.198312 
2127.000000	99.182376 
2126.000000	99.175436 
2125.000000	99.176065 
2124.000000	99.182388 
2123.000000	99.196807 
2122.000000	99.220361 
2121.000000	99.244666 
2120.000000	99.256137 
2119.000000	99.249919 
2118.000000	99.234846 
2117.000000	99.222546 
2116.000000	99.215878 
2115.000000	99.211116 
2114.000000	99.207499 
2113.000000	99.209045 
2112.000000	99.217380 
2111.000000	99.227242 
2110.000000	99.230858 
2109.000000	99.225277 
2108.000000	99.214367 
2107.000000	99.204083 
2106.000000	99.196516 
2105.000000	99.189042 
2104.000000	99.179427 
2103.000000	99.170715 
2102.000000	99.169195 
2101.000000	99.177147 
2100.000000	99.189301 
2099.000000	99.197649 
2098.000000	99.199201 
2097.000000	99.198232 
2096.000000	99.200868 
2095.000000	99.207412 
2094.000000	99.210511 
2093.000000	99.202616 
2092.000000	99.185755 
2091.000000	99.171549 
2090.000000	99.169470 
2089.000000	99.176498 
2088.000000	99.181227 
2087.000000	99.177529 
2086.000000	99.170390 
2085.000000	99.168168 
2084.000000	99.173004 
2083.000000	99.180510 
2082.000000	99.185872 
2081.000000	99.187720 
2080.000000	99.187677 
2079.000000	99.188335 
2078.000000	99.191430 
2077.000000	99.197065 
2076.000000	99.204846 
2075.000000	99.215026 
2074.000000	99.226713 
2073.000000	99.235866 
2072.000000	99.238007 
2071.000000	99.233292 
2070.000000	99.226271 
2069.000000	99.220322 
2068.000000	99.215252 
2067.000000	99.210635 
2066.000000	99.207432 
2065.000000	99.204451 
2064.000000	99.197607 
2063.000000	99.186387 
2062.000000	99.177938 
2061.000000	99.180341 
2060.000000	99.192969 
2059.000000	99.207128 
2058.000000	99.215503 
2057.000000	99.217415 
2056.000000	99.215175 
2055.000000	99.209361 
2054.000000	99.199533 
2053.000000	99.187475 
2052.000000	99.177337 
2051.000000	99.172863 
2050.000000	99.174992 
2049.000000	99.180874 
2048.000000	99.184920 
2047.000000	99.182434 
2046.000000	99.173001 
2045.000000	99.160218 
2044.000000	99.148610 
2043.000000	99.141284 
2042.000000	99.139627 
2041.000000	99.143330 
2040.000000	99.150289 
2039.000000	99.157545 
2038.000000	99.162707 
2037.000000	99.164392 
2036.000000	99.161825 
2035.000000	99.154712 
2034.000000	99.143561 
2033.000000	99.130069 
2032.000000	99.117382 
2031.000000	99.109514 
2030.000000	99.109018 
2029.000000	99.113872 
2028.000000	99.117492 
2027.000000	99.114454 
2026.000000	99.107013 
2025.000000	99.104724 
2024.000000	99.115051 
2023.000000	99.133707 
2022.000000	99.146021 
2021.000000	99.139900 
2020.000000	99.118341 
2019.000000	99.097626 
2018.000000	99.092696 
2017.000000	99.104284 
2016.000000	99.120006 
2015.000000	99.127053 
2014.000000	99.122284 
2013.000000	99.112135 
2012.000000	99.106029 
2011.000000	99.109457 
2010.000000	99.121454 
2009.000000	99.137492 
2008.000000	99.153966 
2007.000000	99.168635 
2006.000000	99.177450 
2005.000000	99.175782 
2004.000000	99.164932 
2003.000000	99.153527 
2002.000000	99.149142 
2001.000000	99.150051 
2000.000000	99.148510 
1999.000000	99.140558 
1998.000000	99.129840 
1997.000000	99.122991 
1996.000000	99.123909 
1995.000000	99.132429 
1994.000000	99.145299 
1993.000000	99.156901 
1992.000000	99.161640 
1991.000000	99.158493 
1990.000000	99.152470 
1989.000000	99.150757 
1988.000000	99.157246 
1987.000000	99.169239 
1986.000000	99.178529 
1985.000000	99.177766 
1984.000000	99.167895 
1983.000000	99.158091 
1982.000000	99.156049 
1981.000000	99.158907 
1980.000000	99.156860 
1979.000000	99.145262 
1978.000000	99.130223 
1977.000000	99.120749 
1976.000000	99.117698 
1975.000000	99.114609 
1974.000000	99.108647 
1973.000000	99.106639 
1972.000000	99.118166 
1971.000000	99.143335 
1970.000000	99.169089 
1969.000000	99.179224 
1968.000000	99.168914 
1967.000000	99.148609 
1966.000000	99.132475 
1965.000000	99.125404 
1964.000000	99.123517 
1963.000000	99.123069 
1962.000000	99.123494 
1961.000000	99.123841 
1960.000000	99.122527 
1959.000000	99.121839 
1958.000000	99.127618 
1957.000000	99.141408 
1956.000000	99.156471 
1955.000000	99.164815 
1954.000000	99.165866 
1953.000000	99.165067 
1952.000000	99.165102 
1951.000000	99.163191 
1950.000000	99.157169 
1949.000000	99.150082 
1948.000000	99.146954 
1947.000000	99.148078 
1946.000000	99.147455 
1945.000000	99.138434 
1944.000000	99.120964 
1943.000000	99.103921 
1942.000000	99.098932 
1941.000000	99.109251 
1940.000000	99.126016 
1939.000000	99.137568 
1938.000000	99.141461 
1937.000000	99.146269 
1936.000000	99.160465 
1935.000000	99.180520 
1934.000000	99.193743 
1933.000000	99.193163 
1932.000000	99.185114 
1931.000000	99.180599 
1930.000000	99.182253 
1929.000000	99.184010 
1928.000000	99.182467 
1927.000000	99.181782 
1926.000000	99.187375 
1925.000000	99.198137 
1924.000000	99.207745 
1923.000000	99.211991 
1922.000000	99.211502 
1921.000000	99.208619 
1920.000000	99.204087 
1919.000000	99.197070 
1918.000000	99.186671 
1917.000000	99.173906 
1916.000000	99.162548 
1915.000000	99.156405 
1914.000000	99.156439 
1913.000000	99.161087 
1912.000000	99.168033 
1911.000000	99.175370 
1910.000000	99.180493 
1909.000000	99.181109 
1908.000000	99.179327 
1907.000000	99.180298 
1906.000000	99.186294 
1905.000000	99.193554 
1904.000000	99.197118 
1903.000000	99.196978 
1902.000000	99.195681 
1901.000000	99.194011 
1900.000000	99.192357 
1899.000000	99.192866 
1898.000000	99.197292 
1897.000000	99.203249 
1896.000000	99.205913 
1895.000000	99.203818 
1894.000000	99.199757 
1893.000000	99.196898 
1892.000000	99.196440 
1891.000000	99.197924 
1890.000000	99.199014 
1889.000000	99.196672 
1888.000000	99.191579 
1887.000000	99.188848 
1886.000000	99.192657 
1885.000000	99.202110 
1884.000000	99.212867 
1883.000000	99.221677 
1882.000000	99.227034 
1881.000000	99.227879 
1880.000000	99.225325 
1879.000000	99.223203 
1878.000000	99.225010 
1877.000000	99.230758 
1876.000000	99.237268 
1875.000000	99.241205 
1874.000000	99.240357 
1873.000000	99.233839 
1872.000000	99.224090 
1871.000000	99.216783 
1870.000000	99.215593 
1869.000000	99.216897 
1868.000000	99.215109 
1867.000000	99.211790 
1866.000000	99.211510 
1865.000000	99.213706 
1864.000000	99.214185 
1863.000000	99.211339 
1862.000000	99.207924 
1861.000000	99.207197 
1860.000000	99.210333 
1859.000000	99.217156 
1858.000000	99.225715 
1857.000000	99.231780 
1856.000000	99.232752 
1855.000000	99.231778 
1854.000000	99.233998 
1853.000000	99.238937 
1852.000000	99.241832 
1851.000000	99.240318 
1850.000000	99.237645 
1849.000000	99.238886 
1848.000000	99.244746 
1847.000000	99.251002 
1846.000000	99.252607 
1845.000000	99.248436 
1844.000000	99.243010 
1843.000000	99.242990 
1842.000000	99.248811 
1841.000000	99.254088 
1840.000000	99.254060 
1839.000000	99.249388 
1838.000000	99.243897 
1837.000000	99.239576 
1836.000000	99.235764 
1835.000000	99.232882 
1834.000000	99.232608 
1833.000000	99.234746 
1832.000000	99.236269 
1831.000000	99.233746 
1830.000000	99.228376 
1829.000000	99.226520 
1828.000000	99.230950 
1827.000000	99.236883 
1826.000000	99.239233 
1825.000000	99.238059 
1824.000000	99.236199 
1823.000000	99.234425 
1822.000000	99.230537 
1821.000000	99.224059 
1820.000000	99.219176 
1819.000000	99.221199 
1818.000000	99.230781 
1817.000000	99.241219 
1816.000000	99.245338 
1815.000000	99.244255 
1814.000000	99.244222 
1813.000000	99.248192 
1812.000000	99.252818 
1811.000000	99.255030 
1810.000000	99.257157 
1809.000000	99.260940 
1808.000000	99.263667 
1807.000000	99.262372 
1806.000000	99.256932 
1805.000000	99.248517 
1804.000000	99.238741 
1803.000000	99.230769 
1802.000000	99.227092 
1801.000000	99.226952 
1800.000000	99.227190 
1799.000000	99.227703 
1798.000000	99.231897 
1797.000000	99.240170 
1796.000000	99.248813 
1795.000000	99.254406 
1794.000000	99.256384 
1793.000000	99.255774 
1792.000000	99.252810 
1791.000000	99.249235 
1790.000000	99.247594 
1789.000000	99.247367 
1788.000000	99.247552 
1787.000000	99.249186 
1786.000000	99.253380 
1785.000000	99.257858 
1784.000000	99.259021 
1783.000000	99.256786 
1782.000000	99.252583 
1781.000000	99.247987 
1780.000000	99.243632 
1779.000000	99.240165 
1778.000000	99.239451 
1777.000000	99.242140 
1776.000000	99.246702 
1775.000000	99.248933 
1774.000000	99.245471 
1773.000000	99.238555 
1772.000000	99.234048 
1771.000000	99.235148 
1770.000000	99.240139 
1769.000000	99.245711 
1768.000000	99.250033 
1767.000000	99.252151 
1766.000000	99.251622 
1765.000000	99.249483 
1764.000000	99.247330 
1763.000000	99.246440 
1762.000000	99.246416 
1761.000000	99.246644 
1760.000000	99.246618 
1759.000000	99.246647 
1758.000000	99.248732 
1757.000000	99.254852 
1756.000000	99.263605 
1755.000000	99.269088 
1754.000000	99.267598 
1753.000000	99.262158 
1752.000000	99.258900 
1751.000000	99.258199 
1750.000000	99.256027 
1749.000000	99.252302 
1748.000000	99.251351 
1747.000000	99.254415 
1746.000000	99.256941 
1745.000000	99.256429 
1744.000000	99.255052 
1743.000000	99.255964 
1742.000000	99.259677 
1741.000000	99.263784 
1740.000000	99.265776 
1739.000000	99.266963 
1738.000000	99.270006 
1737.000000	99.273382 
1736.000000	99.273714 
1735.000000	99.272232 
1734.000000	99.270288 
1733.000000	99.269286 
1732.000000	99.269702 
1731.000000	99.267039 
1730.000000	99.260035 
1729.000000	99.253125 
1728.000000	99.251106 
1727.000000	99.254167 
1726.000000	99.258691 
1725.000000	99.262140 
1724.000000	99.262683 
1723.000000	99.260623 
1722.000000	99.258543 
1721.000000	99.257773 
1720.000000	99.258293 
1719.000000	99.261567 
1718.000000	99.268792 
1717.000000	99.274487 
1716.000000	99.273086 
1715.000000	99.268261 
1714.000000	99.265830 
1713.000000	99.265385 
1712.000000	99.263319 
1711.000000	99.259839 
1710.000000	99.258403 
1709.000000	99.260282 
1708.000000	99.263137 
1707.000000	99.263977 
1706.000000	99.263117 
1705.000000	99.261819 
1704.000000	99.260730 
1703.000000	99.259461 
1702.000000	99.258422 
1701.000000	99.259314 
1700.000000	99.257631 
1699.000000	99.255695 
1698.000000	99.259064 
1697.000000	99.261740 
1696.000000	99.258308 
1695.000000	99.252229 
1694.000000	99.249788 
1693.000000	99.250113 
1692.000000	99.249001 
1691.000000	99.247515 
1690.000000	99.248247 
1689.000000	99.251090 
1688.000000	99.254911 
1687.000000	99.257391 
1686.000000	99.258429 
1685.000000	99.258716 
1684.000000	99.254999 
1683.000000	99.252616 
1682.000000	99.254621 
1681.000000	99.255103 
1680.000000	99.254776 
1679.000000	99.255879 
1678.000000	99.256146 
1677.000000	99.253675 
1676.000000	99.251032 
1675.000000	99.251241 
1674.000000	99.253188 
1673.000000	99.255487 
1672.000000	99.257302 
1671.000000	99.259583 
1670.000000	99.261515 
1669.000000	99.260456 
1668.000000	99.258671 
1667.000000	99.258005 
1666.000000	99.256764 
1665.000000	99.253941 
1664.000000	99.250791 
1663.000000	99.249957 
1662.000000	99.251252 
1661.000000	99.253387 
1660.000000	99.257057 
1659.000000	99.262552 
1658.000000	99.268054 
1657.000000	99.270478 
1656.000000	99.268700 
1655.000000	99.262946 
1654.000000	99.258713 
1653.000000	99.254243 
1652.000000	99.253004 
1651.000000	99.260298 
1650.000000	99.266826 
1649.000000	99.268195 
1648.000000	99.267421 
1647.000000	99.265644 
1646.000000	99.264143 
1645.000000	99.265173 
1644.000000	99.267783 
1643.000000	99.269940 
1642.000000	99.269865 
1641.000000	99.267266 
1640.000000	99.263892 
1639.000000	99.261089 
1638.000000	99.259118 
1637.000000	99.258723 
1636.000000	99.260878 
1635.000000	99.264484 
1634.000000	99.268369 
1633.000000	99.269864 
1632.000000	99.266905 
1631.000000	99.262110 
1630.000000	99.258750 
1629.000000	99.257894 
1628.000000	99.258982 
1627.000000	99.260934 
1626.000000	99.261430 
1625.000000	99.259122 
1624.000000	99.255766 
1623.000000	99.254203 
1622.000000	99.254997 
1621.000000	99.256804 
1620.000000	99.258753 
1619.000000	99.260459 
1618.000000	99.262526 
1617.000000	99.264773 
1616.000000	99.268790 
1615.000000	99.276062 
1614.000000	99.282347 
1613.000000	99.283921 
1612.000000	99.283549 
1611.000000	99.285284 
1610.000000	99.287476 
1609.000000	99.286511 
1608.000000	99.283803 
1607.000000	99.283186 
1606.000000	99.283802 
1605.000000	99.283052 
1604.000000	99.281677 
1603.000000	99.281345 
1602.000000	99.282307 
1601.000000	99.284436 
1600.000000	99.288311 
1599.000000	99.293104 
1598.000000	99.296013 
1597.000000	99.295616 
1596.000000	99.293430 
1595.000000	99.291476 
1594.000000	99.289875 
1593.000000	99.288682 
1592.000000	99.289782 
1591.000000	99.294156 
1590.000000	99.298936 
1589.000000	99.300541 
1588.000000	99.299435 
1587.000000	99.298712 
1586.000000	99.299230 
1585.000000	99.299204 
1584.000000	99.299215 
1583.000000	99.300561 
1582.000000	99.301798 
1581.000000	99.301163 
1580.000000	99.299339 
1579.000000	99.296776 
1578.000000	99.292649 
1577.000000	99.287802 
1576.000000	99.284457 
1575.000000	99.285108 
1574.000000	99.288019 
1573.000000	99.289463 
1572.000000	99.289318 
1571.000000	99.290407 
1570.000000	99.292446 
1569.000000	99.293117 
1568.000000	99.294054 
1567.000000	99.294428 
1566.000000	99.291392 
1565.000000	99.285748 
1564.000000	99.282530 
1563.000000	99.282233 
1562.000000	99.282431 
1561.000000	99.280960 
1560.000000	99.286021 
1559.000000	99.289792 
1558.000000	99.287782 
1557.000000	99.291285 
1556.000000	99.296973 
1555.000000	99.300445 
1554.000000	99.300666 
1553.000000	99.298045 
1552.000000	99.294153 
1551.000000	99.289325 
1550.000000	99.285864 
1549.000000	99.285666 
1548.000000	99.287968 
1547.000000	99.289376 
1546.000000	99.286459 
1545.000000	99.279013 
1544.000000	99.271083 
1543.000000	99.268339 
1542.000000	99.273980 
1541.000000	99.285483 
1540.000000	99.292962 
1539.000000	99.293559 
1538.000000	99.292868 
1537.000000	99.292275 
1536.000000	99.290961 
1535.000000	99.290879 
1534.000000	99.291438 
1533.000000	99.289342 
1532.000000	99.284969 
1531.000000	99.281464 
1530.000000	99.280107 
1529.000000	99.279267 
1528.000000	99.276911 
1527.000000	99.274497 
1526.000000	99.275282 
1525.000000	99.279892 
1524.000000	99.285753 
1523.000000	99.291320 
1522.000000	99.296356 
1521.000000	99.297887 
1520.000000	99.294511 
1519.000000	99.287504 
1518.000000	99.278537 
1517.000000	99.270874 
1516.000000	99.266882 
1515.000000	99.265964 
1514.000000	99.266007 
1513.000000	99.266795 
1512.000000	99.268173 
1511.000000	99.268279 
1510.000000	99.266969 
1509.000000	99.265859 
1508.000000	99.268819 
1507.000000	99.274686 
1506.000000	99.278811 
1505.000000	99.278837 
1504.000000	99.276290 
1503.000000	99.273765 
1502.000000	99.272668 
1501.000000	99.272096 
1500.000000	99.269142 
1499.000000	99.262240 
1498.000000	99.254581 
1497.000000	99.250476 
1496.000000	99.249292 
1495.000000	99.251051 
1494.000000	99.257491 
1493.000000	99.267233 
1492.000000	99.276205 
1491.000000	99.280832 
1490.000000	99.280261 
1489.000000	99.276441 
1488.000000	99.270583 
1487.000000	99.264375 
1486.000000	99.259362 
1485.000000	99.253676 
1484.000000	99.247163 
1483.000000	99.242005 
1482.000000	99.240663 
1481.000000	99.242551 
1480.000000	99.244209 
1479.000000	99.243958 
1478.000000	99.243025 
1477.000000	99.242486 
1476.000000	99.241809 
1475.000000	99.242742 
1474.000000	99.247806 
1473.000000	99.255328 
1472.000000	99.259513 
1471.000000	99.258589 
1470.000000	99.255530 
1469.000000	99.252018 
1468.000000	99.248264 
1467.000000	99.245329 
1466.000000	99.244567 
1465.000000	99.245795 
1464.000000	99.247796 
1463.000000	99.249065 
1462.000000	99.249242 
1461.000000	99.248250 
1460.000000	99.246247 
1459.000000	99.242660 
1458.000000	99.236160 
1457.000000	99.224169 
1456.000000	99.209423 
1455.000000	99.198187 
1454.000000	99.192061 
1453.000000	99.191587 
1452.000000	99.196596 
1451.000000	99.203989 
1450.000000	99.210300 
1449.000000	99.214172 
1448.000000	99.215513 
1447.000000	99.215925 
1446.000000	99.216491 
1445.000000	99.217840 
1444.000000	99.219805 
1443.000000	99.221054 
1442.000000	99.221624 
1441.000000	99.222541 
1440.000000	99.224151 
1439.000000	99.225300 
1438.000000	99.227012 
1437.000000	99.229947 
1436.000000	99.230860 
1435.000000	99.227410 
1434.000000	99.221970 
1433.000000	99.217704 
1432.000000	99.215790 
1431.000000	99.214397 
1430.000000	99.211338 
1429.000000	99.207023 
1428.000000	99.202142 
1427.000000	99.197101 
1426.000000	99.191808 
1425.000000	99.188001 
1424.000000	99.187058 
1423.000000	99.185882 
1422.000000	99.180564 
1421.000000	99.170477 
1420.000000	99.158135 
1419.000000	99.145315 
1418.000000	99.134411 
1417.000000	99.125708 
1416.000000	99.114102 
1415.000000	99.096042 
1414.000000	99.073669 
1413.000000	99.052504 
1412.000000	99.036506 
1411.000000	99.024927 
1410.000000	99.015275 
1409.000000	99.006702 
1408.000000	98.999606 
1407.000000	98.995497 
1406.000000	98.995296 
1405.000000	98.999230 
1404.000000	99.006995 
1403.000000	99.017225 
1402.000000	99.029508 
1401.000000	99.044696 
1400.000000	99.062244 
1399.000000	99.076378 
1398.000000	99.077860 
1397.000000	99.059463 
1396.000000	99.021440 
1395.000000	98.978952 
1394.000000	98.957902 
1393.000000	98.972426 
1392.000000	99.011375 
1391.000000	99.052391 
1390.000000	99.080051 
1389.000000	99.090652 
1388.000000	99.087540 
1387.000000	99.076305 
1386.000000	99.063271 
1385.000000	99.053565 
1384.000000	99.048797 
1383.000000	99.047009 
1382.000000	99.045946 
1381.000000	99.045561 
1380.000000	99.047816 
1379.000000	99.054042 
1378.000000	99.063162 
1377.000000	99.073022 
1376.000000	99.082471 
1375.000000	99.091655 
1374.000000	99.101161 
1373.000000	99.111967 
1372.000000	99.124010 
1371.000000	99.135786 
1370.000000	99.145424 
1369.000000	99.152937 
1368.000000	99.160244 
1367.000000	99.168279 
1366.000000	99.176409 
1365.000000	99.184324 
1364.000000	99.192696 
1363.000000	99.201512 
1362.000000	99.209108 
1361.000000	99.213784 
1360.000000	99.215857 
1359.000000	99.217684 
1358.000000	99.221745 
1357.000000	99.228775 
1356.000000	99.236967 
1355.000000	99.243305 
1354.000000	99.246633 
1353.000000	99.248588 
1352.000000	99.250592 
1351.000000	99.252259 
1350.000000	99.252195 
1349.000000	99.251034 
1348.000000	99.251195 
1347.000000	99.253407 
1346.000000	99.256175 
1345.000000	99.258366 
1344.000000	99.260276 
1343.000000	99.261915 
1342.000000	99.262553 
1341.000000	99.262528 
1340.000000	99.263554 
1339.000000	99.266069 
1338.000000	99.268298 
1337.000000	99.269213 
1336.000000	99.270002 
1335.000000	99.271566 
1334.000000	99.272812 
1333.000000	99.272569 
1332.000000	99.271559 
1331.000000	99.271111 
1330.000000	99.271078 
1329.000000	99.270730 
1328.000000	99.270412 
1327.000000	99.270759 
1326.000000	99.270896 
1325.000000	99.269781 
1324.000000	99.268381 
1323.000000	99.268640 
1322.000000	99.270992 
1321.000000	99.274226 
1320.000000	99.277513 
1319.000000	99.281018 
1318.000000	99.284357 
1317.000000	99.285724 
1316.000000	99.283607 
1315.000000	99.278906 
1314.000000	99.274569 
1313.000000	99.272828 
1312.000000	99.273082 
1311.000000	99.273085 
1310.000000	99.271863 
1309.000000	99.270571 
1308.000000	99.270268 
1307.000000	99.270180 
1306.000000	99.268763 
1305.000000	99.266288 
1304.000000	99.264947 
1303.000000	99.266283 
1302.000000	99.269487 
1301.000000	99.272324 
1300.000000	99.273121 
1299.000000	99.271855 
1298.000000	99.270110 
1297.000000	99.269907 
1296.000000	99.271940 
1295.000000	99.274662 
1294.000000	99.275603 
1293.000000	99.273716 
1292.000000	99.270053 
1291.000000	99.266409 
1290.000000	99.263882 
1289.000000	99.262521 
1288.000000	99.261601 
1287.000000	99.260108 
1286.000000	99.257552 
1285.000000	99.254435 
1284.000000	99.251491 
1283.000000	99.248495 
1282.000000	99.244377 
1281.000000	99.238532 
1280.000000	99.231658 
1279.000000	99.225084 
1278.000000	99.219718 
1277.000000	99.215671 
1276.000000	99.212393 
1275.000000	99.208896 
1274.000000	99.204266 
1273.000000	99.198393 
1272.000000	99.192048 
1271.000000	99.186005 
1270.000000	99.180154 
1269.000000	99.173583 
1268.000000	99.165474 
1267.000000	99.155811 
1266.000000	99.145487 
1265.000000	99.135722 
1264.000000	99.127137 
1263.000000	99.119268 
1262.000000	99.111048 
1261.000000	99.101855 
1260.000000	99.092264 
1259.000000	99.083601 
1258.000000	99.076735 
1257.000000	99.071466 
1256.000000	99.067231 
1255.000000	99.064145 
1254.000000	99.062714 
1253.000000	99.062492 
1252.000000	99.062005 
1251.000000	99.060740 
1250.000000	99.060495 
1249.000000	99.063697 
1248.000000	99.070650 
1247.000000	99.078950 
1246.000000	99.084771 
1245.000000	99.083726 
1244.000000	99.072555 
1243.000000	99.053693 
1242.000000	99.037797 
1241.000000	99.036912 
1240.000000	99.052614 
1239.000000	99.073332 
1238.000000	99.085589 
1237.000000	99.085970 
1236.000000	99.080056 
1235.000000	99.072946 
1234.000000	99.065114 
1233.000000	99.056011 
1232.000000	99.046754 
1231.000000	99.038350 
1230.000000	99.030745 
1229.000000	99.024844 
1228.000000	99.022904 
1227.000000	99.025537 
1226.000000	99.030196 
1225.000000	99.033906 
1224.000000	99.036103 
1223.000000	99.037940 
1222.000000	99.040412 
1221.000000	99.044230 
1220.000000	99.050119 
1219.000000	99.057799 
1218.000000	99.065364 
1217.000000	99.070655 
1216.000000	99.072922 
1215.000000	99.072851 
1214.000000	99.071576 
1213.000000	99.069788 
1212.000000	99.067162 
1211.000000	99.062865 
1210.000000	99.057401 
1209.000000	99.053404 
1208.000000	99.053138 
1207.000000	99.055388 
1206.000000	99.056400 
1205.000000	99.054066 
1204.000000	99.049637 
1203.000000	99.045155 
1202.000000	99.041035 
1201.000000	99.036857 
1200.000000	99.032933 
1199.000000	99.029950 
1198.000000	99.027959 
1197.000000	99.026363 
1196.000000	99.023985 
1195.000000	99.018996 
1194.000000	99.010241 
1193.000000	98.999315 
1192.000000	98.989885 
1191.000000	98.983949 
1190.000000	98.979796 
1189.000000	98.974501 
1188.000000	98.967320 
1187.000000	98.959698 
1186.000000	98.953118 
1185.000000	98.948060 
1184.000000	98.944171 
1183.000000	98.940271 
1182.000000	98.934944 
1181.000000	98.928191 
1180.000000	98.921730 
1179.000000	98.916618 
1178.000000	98.911578 
1177.000000	98.905024 
1176.000000	98.897682 
1175.000000	98.891224 
1174.000000	98.884790 
1173.000000	98.875240 
1172.000000	98.861468 
1171.000000	98.846673 
1170.000000	98.835190 
1169.000000	98.827908 
1168.000000	98.821828 
1167.000000	98.813807 
1166.000000	98.804121 
1165.000000	98.796439 
1164.000000	98.794645 
1163.000000	98.799626 
1162.000000	98.808849 
1161.000000	98.818696 
1160.000000	98.826787 
1159.000000	98.832054 
1158.000000	98.833434 
1157.000000	98.829388 
1156.000000	98.818982 
1155.000000	98.803648 
1154.000000	98.787933 
1153.000000	98.777518 
1152.000000	98.774886 
1151.000000	98.776412 
1150.000000	98.774975 
1149.000000	98.766468 
1148.000000	98.753120 
1147.000000	98.739951 
1146.000000	98.729128 
1145.000000	98.718865 
1144.000000	98.706815 
1143.000000	98.692762 
1142.000000	98.678238 
1141.000000	98.665182 
1140.000000	98.655265 
1139.000000	98.649104 
1138.000000	98.645318 
1137.000000	98.640936 
1136.000000	98.633292 
1135.000000	98.621475 
1134.000000	98.606199 
1133.000000	98.588903 
1132.000000	98.571102 
1131.000000	98.554234 
1130.000000	98.539756 
1129.000000	98.528842 
1128.000000	98.520988 
1127.000000	98.512756 
1126.000000	98.499542 
1125.000000	98.480174 
1124.000000	98.458984 
1123.000000	98.441653 
1122.000000	98.429174 
1121.000000	98.417405 
1120.000000	98.402385 
1119.000000	98.384303 
1118.000000	98.365948 
1117.000000	98.349065 
1116.000000	98.333178 
1115.000000	98.316888 
1114.000000	98.299389 
1113.000000	98.281285 
1112.000000	98.264197 
1111.000000	98.248690 
1110.000000	98.232435 
1109.000000	98.212007 
1108.000000	98.187199 
1107.000000	98.162401 
1106.000000	98.142361 
1105.000000	98.127155 
1104.000000	98.112609 
1103.000000	98.095412 
1102.000000	98.076555 
1101.000000	98.059701 
1100.000000	98.046925 
1099.000000	98.037292 
1098.000000	98.029000 
1097.000000	98.021802 
1096.000000	98.016121 
1095.000000	98.009800 
1094.000000	97.997329 
1093.000000	97.973369 
1092.000000	97.936753 
1091.000000	97.890998 
1090.000000	97.841923 
1089.000000	97.795036 
1088.000000	97.753509 
1087.000000	97.716888 
1086.000000	97.682285 
1085.000000	97.648233 
1084.000000	97.616627 
1083.000000	97.589435 
1082.000000	97.564673 
1081.000000	97.537933 
1080.000000	97.507309 
1079.000000	97.474671 
1078.000000	97.443006 
1077.000000	97.415223 
1076.000000	97.394903 
1075.000000	97.384718 
1074.000000	97.383641 
1073.000000	97.387999 
1072.000000	97.393947 
1071.000000	97.394855 
1070.000000	97.378257 
1069.000000	97.333861 
1068.000000	97.268789 
1067.000000	97.209655 
1066.000000	97.182718 
1065.000000	97.192002 
1064.000000	97.219581 
1063.000000	97.243550 
1062.000000	97.250693 
1061.000000	97.235598 
1060.000000	97.197964 
1059.000000	97.145923 
1058.000000	97.096508 
1057.000000	97.065168 
1056.000000	97.053582 
1055.000000	97.050187 
1054.000000	97.042698 
1053.000000	97.028439 
1052.000000	97.012801 
1051.000000	97.000660 
1050.000000	96.991474 
1049.000000	96.981468 
1048.000000	96.968098 
1047.000000	96.952440 
1046.000000	96.938825 
1045.000000	96.931642 
1044.000000	96.930845 
1043.000000	96.931065 
1042.000000	96.927061 
1041.000000	96.919715 
1040.000000	96.914621 
1039.000000	96.915599 
1038.000000	96.922713 
1037.000000	96.936242 
1036.000000	96.958072 
1035.000000	96.987529 
1034.000000	97.019391 
1033.000000	97.047661 
1032.000000	97.067899 
1031.000000	97.075145 
1030.000000	97.065931 
1029.000000	97.046911 
1028.000000	97.036662 
1027.000000	97.051366 
1026.000000	97.088413 
1025.000000	97.128781 
1024.000000	97.155430 
1023.000000	97.165715 
1022.000000	97.167615 
1021.000000	97.169783 
1020.000000	97.176649 
1019.000000	97.188384 
1018.000000	97.201984 
1017.000000	97.213708 
1016.000000	97.222389 
1015.000000	97.230037 
1014.000000	97.239099 
1013.000000	97.250098 
1012.000000	97.261778 
1011.000000	97.272214 
1010.000000	97.280075 
1009.000000	97.286283 
1008.000000	97.294136 
1007.000000	97.306355 
1006.000000	97.322289 
1005.000000	97.339294 
1004.000000	97.356124 
1003.000000	97.373363 
1002.000000	97.391423 
1001.000000	97.409990 
1000.000000	97.428723 
999.000000	 97.446569 
998.000000	 97.461377 
997.000000	 97.472739 
996.000000	 97.484678 
995.000000	 97.502638 
994.000000	 97.527274 
993.000000	 97.553350 
992.000000	 97.575142 
991.000000	 97.591057 
990.000000	 97.602922 
989.000000	 97.613249 
988.000000	 97.624310 
987.000000	 97.638174 
986.000000	 97.655939 
985.000000	 97.677175 
984.000000	 97.700507 
983.000000	 97.724310 
982.000000	 97.747000 
981.000000	 97.767602 
980.000000	 97.786422 
979.000000	 97.804932 
978.000000	 97.825217 
977.000000	 97.849460 
976.000000	 97.878548 
975.000000	 97.910097 
974.000000	 97.939096 
973.000000	 97.962414 
972.000000	 97.982352 
971.000000	 98.004354 
970.000000	 98.031383 
969.000000	 98.061591 
968.000000	 98.090925 
967.000000	 98.116562 
966.000000	 98.138074 
965.000000	 98.156872 
964.000000	 98.174978 
963.000000	 98.193653 
962.000000	 98.212956 
961.000000	 98.232718 
960.000000	 98.253101 
959.000000	 98.273432 
958.000000	 98.291521 
957.000000	 98.305655 
956.000000	 98.316996 
955.000000	 98.328655 
954.000000	 98.342383 
953.000000	 98.357263 
952.000000	 98.371586 
951.000000	 98.384665 
950.000000	 98.396270 
949.000000	 98.405338 
948.000000	 98.410348 
947.000000	 98.411039 
946.000000	 98.409211 
945.000000	 98.407350 
944.000000	 98.406609 
943.000000	 98.406757 
942.000000	 98.408128 
941.000000	 98.412264 
940.000000	 98.419308 
939.000000	 98.425677 
938.000000	 98.426788 
937.000000	 98.422681 
936.000000	 98.419009 
935.000000	 98.421450 
934.000000	 98.430492 
933.000000	 98.442674 
932.000000	 98.455289 
931.000000	 98.468041 
930.000000	 98.480791 
929.000000	 98.491283 
928.000000	 98.495357 
927.000000	 98.489721 
926.000000	 98.475940 
925.000000	 98.461911 
924.000000	 98.457208 
923.000000	 98.465029 
922.000000	 98.479269 
921.000000	 98.490480 
920.000000	 98.493702 
919.000000	 98.489854 
918.000000	 98.481947 
917.000000	 98.472419 
916.000000	 98.463063 
915.000000	 98.454882 
914.000000	 98.447706 
913.000000	 98.441434 
912.000000	 98.437583 
911.000000	 98.438460 
910.000000	 98.445238 
909.000000	 98.457709 
908.000000	 98.474722 
907.000000	 98.493286 
906.000000	 98.508556 
905.000000	 98.517184 
904.000000	 98.520490 
903.000000	 98.522953 
902.000000	 98.528197 
901.000000	 98.537649 
900.000000	 98.551569 
899.000000	 98.568726 
898.000000	 98.585339 
897.000000	 98.596884 
896.000000	 98.601426 
895.000000	 98.600320 
894.000000	 98.596657 
893.000000	 98.594589 
892.000000	 98.598895 
891.000000	 98.612248 
890.000000	 98.632626 
889.000000	 98.655180 
888.000000	 98.676327 
887.000000	 98.694457 
886.000000	 98.708083 
885.000000	 98.716404 
884.000000	 98.721183 
883.000000	 98.724870 
882.000000	 98.726973 
881.000000	 98.725867 
880.000000	 98.724553 
879.000000	 98.730018 
878.000000	 98.744470 
877.000000	 98.760941 
876.000000	 98.770879 
875.000000	 98.773433 
874.000000	 98.773982 
873.000000	 98.775856 
872.000000	 98.777709 
871.000000	 98.778102 
870.000000	 98.778625 
869.000000	 98.782229 
868.000000	 98.791267 
867.000000	 98.806929 
866.000000	 98.827506 
865.000000	 98.847238 
864.000000	 98.860517 
863.000000	 98.868417 
862.000000	 98.877756 
861.000000	 98.891718 
860.000000	 98.904756 
859.000000	 98.909973 
858.000000	 98.908871 
857.000000	 98.909357 
856.000000	 98.915666 
855.000000	 98.925340 
854.000000	 98.935565 
853.000000	 98.946420 
852.000000	 98.956307 
851.000000	 98.960239 
850.000000	 98.956788 
849.000000	 98.952513 
848.000000	 98.954653 
847.000000	 98.962054 
846.000000	 98.967743 
845.000000	 98.968239 
844.000000	 98.965380 
843.000000	 98.960948 
842.000000	 98.955517 
841.000000	 98.952058 
840.000000	 98.954283 
839.000000	 98.960082 
838.000000	 98.962050 
837.000000	 98.956582 
836.000000	 98.947660 
835.000000	 98.939485 
834.000000	 98.930838 
833.000000	 98.920679 
832.000000	 98.914372 
831.000000	 98.917607 
830.000000	 98.925944 
829.000000	 98.927651 
828.000000	 98.918679 
827.000000	 98.909415 
826.000000	 98.912777 
825.000000	 98.928428 
824.000000	 98.943295 
823.000000	 98.947115 
822.000000	 98.943277 
821.000000	 98.942635 
820.000000	 98.949865 
819.000000	 98.959430 
818.000000	 98.964039 
817.000000	 98.963363 
816.000000	 98.962232 
815.000000	 98.962393 
814.000000	 98.960018 
813.000000	 98.951517 
812.000000	 98.937576 
811.000000	 98.919240 
810.000000	 98.893508 
809.000000	 98.856829 
808.000000	 98.811684 
807.000000	 98.765895 
806.000000	 98.724768 
805.000000	 98.686608 
804.000000	 98.647465 
803.000000	 98.608563 
802.000000	 98.577018 
801.000000	 98.558929 
800.000000	 98.552740 
799.000000	 98.550649 
798.000000	 98.547378 
797.000000	 98.546305 
796.000000	 98.554418 
795.000000	 98.571649 
794.000000	 98.588966 
793.000000	 98.598478 
792.000000	 98.601882 
791.000000	 98.606263 
790.000000	 98.614289 
789.000000	 98.621924 
788.000000	 98.624165 
787.000000	 98.619436 
786.000000	 98.608626 
785.000000	 98.592727 
784.000000	 98.572479 
783.000000	 98.549464 
782.000000	 98.527213 
781.000000	 98.510858 
780.000000	 98.504097 
779.000000	 98.505742 
778.000000	 98.510915 
777.000000	 98.516617 
776.000000	 98.524278 
775.000000	 98.536013 
774.000000	 98.550993 
773.000000	 98.567012 
772.000000	 98.583065 
771.000000	 98.598632 
770.000000	 98.613046 
769.000000	 98.627250 
768.000000	 98.643100 
767.000000	 98.658983 
766.000000	 98.669710 
765.000000	 98.673631 
764.000000	 98.676272 
763.000000	 98.682952 
762.000000	 98.690538 
761.000000	 98.691017 
760.000000	 98.681933 
759.000000	 98.669617 
758.000000	 98.663020 
757.000000	 98.666665 
756.000000	 98.677258 
755.000000	 98.684139 
754.000000	 98.676406 
753.000000	 98.654795 
752.000000	 98.635013 
751.000000	 98.634598 
750.000000	 98.656393 
749.000000	 98.687524 
748.000000	 98.712752 
747.000000	 98.725360 
746.000000	 98.727975 
745.000000	 98.728409 
744.000000	 98.734183 
743.000000	 98.746472 
742.000000	 98.759242 
741.000000	 98.767379 
740.000000	 98.774006 
739.000000	 98.785761 
738.000000	 98.802442 
737.000000	 98.815874 
736.000000	 98.817885 
735.000000	 98.805885 
734.000000	 98.783527 
733.000000	 98.761209 
732.000000	 98.753138 
731.000000	 98.766186 
730.000000	 98.791434 
729.000000	 98.813255 
728.000000	 98.826692 
727.000000	 98.838517 
726.000000	 98.851345 
725.000000	 98.856718 
724.000000	 98.847375 
723.000000	 98.828595 
722.000000	 98.812608 
721.000000	 98.807119 
720.000000	 98.813049 
719.000000	 98.827842 
718.000000	 98.845859 
717.000000	 98.859183 
716.000000	 98.862472 
715.000000	 98.856104 
714.000000	 98.844024 
713.000000	 98.831841 
712.000000	 98.827442 
711.000000	 98.836848 
710.000000	 98.855606 
709.000000	 98.869009 
708.000000	 98.865354 
707.000000	 98.846109 
706.000000	 98.820096 
705.000000	 98.793094 
704.000000	 98.768091 
703.000000	 98.750360 
702.000000	 98.744797 
701.000000	 98.748496 
700.000000	 98.750832 
699.000000	 98.742623 
698.000000	 98.724096 
697.000000	 98.705026 
696.000000	 98.697329 
695.000000	 98.704558 
694.000000	 98.718254 
693.000000	 98.726760 
692.000000	 98.727461 
691.000000	 98.727626 
690.000000	 98.733958 
689.000000	 98.747217 
688.000000	 98.766302 
687.000000	 98.788671 
686.000000	 98.804942 
685.000000	 98.802529 
684.000000	 98.780637 
683.000000	 98.755716 
682.000000	 98.746335 
681.000000	 98.756213 
680.000000	 98.774181 
679.000000	 98.786057 
678.000000	 98.783213 
677.000000	 98.766520 
676.000000	 98.749614 
675.000000	 98.749366 
674.000000	 98.767833 
673.000000	 98.788374 
672.000000	 98.795384 
671.000000	 98.792735 
670.000000	 98.799253 
669.000000	 98.826592 
668.000000	 98.850841 
667.000000	 98.845606 
666.000000	 98.821005 
665.000000	 98.789013 
664.000000	 98.764674 
663.000000	 98.770469 
662.000000	 98.807353 
661.000000	 98.840619 
660.000000	 98.836031 
659.000000	 98.798811 
658.000000	 98.759085 
657.000000	 98.730259 
656.000000	 98.705201 
655.000000	 98.684526 
654.000000	 98.682326 
653.000000	 98.703537 
652.000000	 98.735781 
651.000000	 98.763934 
650.000000	 98.778460 

