4000.000000	99.653805 
3999.000000	99.653333 
3998.000000	99.652414 
3997.000000	99.651258 
3996.000000	99.650301 
3995.000000	99.649843 
3994.000000	99.649877 
3993.000000	99.650140 
3992.000000	99.650315 
3991.000000	99.650181 
3990.000000	99.649684 
3989.000000	99.649011 
3988.000000	99.648516 
3987.000000	99.648404 
3986.000000	99.648527 
3985.000000	99.648530 
3984.000000	99.648179 
3983.000000	99.647455 
3982.000000	99.646443 
3981.000000	99.645292 
3980.000000	99.644276 
3979.000000	99.643761 
3978.000000	99.644066 
3977.000000	99.645302 
3976.000000	99.647202 
3975.000000	99.649085 
3974.000000	99.650198 
3973.000000	99.650207 
3972.000000	99.649347 
3971.000000	99.648133 
3970.000000	99.646962 
3969.000000	99.646014 
3968.000000	99.645407 
3967.000000	99.645223 
3966.000000	99.645421 
3965.000000	99.645863 
3964.000000	99.646400 
3963.000000	99.646830 
3962.000000	99.646826 
3961.000000	99.646076 
3960.000000	99.644595 
3959.000000	99.642885 
3958.000000	99.641641 
3957.000000	99.641248 
3956.000000	99.641572 
3955.000000	99.642170 
3954.000000	99.642792 
3953.000000	99.643601 
3952.000000	99.644825 
3951.000000	99.646275 
3950.000000	99.647377 
3949.000000	99.647770 
3948.000000	99.647716 
3947.000000	99.647723 
3946.000000	99.647886 
3945.000000	99.647836 
3944.000000	99.647257 
3943.000000	99.646231 
3942.000000	99.645219 
3941.000000	99.644680 
3940.000000	99.644664 
3939.000000	99.644852 
3938.000000	99.644872 
3937.000000	99.644575 
3936.000000	99.644068 
3935.000000	99.643541 
3934.000000	99.643128 
3933.000000	99.642890 
3932.000000	99.642884 
3931.000000	99.643155 
3930.000000	99.643688 
3929.000000	99.644363 
3928.000000	99.644881 
3927.000000	99.644829 
3926.000000	99.643985 
3925.000000	99.642575 
3924.000000	99.641214 
3923.000000	99.640444 
3922.000000	99.640288 
3921.000000	99.640396 
3920.000000	99.640423 
3919.000000	99.640291 
3918.000000	99.640153 
3917.000000	99.640187 
3916.000000	99.640437 
3915.000000	99.640726 
3914.000000	99.640752 
3913.000000	99.640303 
3912.000000	99.639417 
3911.000000	99.638436 
3910.000000	99.637768 
3909.000000	99.637570 
3908.000000	99.637631 
3907.000000	99.637523 
3906.000000	99.636994 
3905.000000	99.636240 
3904.000000	99.635780 
3903.000000	99.635981 
3902.000000	99.636724 
3901.000000	99.637585 
3900.000000	99.638266 
3899.000000	99.638737 
3898.000000	99.639085 
3897.000000	99.639296 
3896.000000	99.639235 
3895.000000	99.638819 
3894.000000	99.638119 
3893.000000	99.637367 
3892.000000	99.636849 
3891.000000	99.636714 
3890.000000	99.636840 
3889.000000	99.636898 
3888.000000	99.636721 
3887.000000	99.636532 
3886.000000	99.636647 
3885.000000	99.636904 
3884.000000	99.636783 
3883.000000	99.636106 
3882.000000	99.635357 
3881.000000	99.635173 
3880.000000	99.635603 
3879.000000	99.636027 
3878.000000	99.635894 
3877.000000	99.635352 
3876.000000	99.635127 
3875.000000	99.635713 
3874.000000	99.636760 
3873.000000	99.637355 
3872.000000	99.637025 
3871.000000	99.636185 
3870.000000	99.635684 
3869.000000	99.635855 
3868.000000	99.636215 
3867.000000	99.636184 
3866.000000	99.635927 
3865.000000	99.636120 
3864.000000	99.637094 
3863.000000	99.638460 
3862.000000	99.639557 
3861.000000	99.640161 
3860.000000	99.640535 
3859.000000	99.641099 
3858.000000	99.642015 
3857.000000	99.642849 
3856.000000	99.642764 
3855.000000	99.641716 
3854.000000	99.640804 
3853.000000	99.640603 
3852.000000	99.640606 
3851.000000	99.640288 
3850.000000	99.639582 
3849.000000	99.638929 
3848.000000	99.638611 
3847.000000	99.638603 
3846.000000	99.638719 
3845.000000	99.638889 
3844.000000	99.639350 
3843.000000	99.640221 
3842.000000	99.640943 
3841.000000	99.640687 
3840.000000	99.639135 
3839.000000	99.637034 
3838.000000	99.635778 
3837.000000	99.635881 
3836.000000	99.636386 
3835.000000	99.635995 
3834.000000	99.634388 
3833.000000	99.632525 
3832.000000	99.631678 
3831.000000	99.632155 
3830.000000	99.633194 
3829.000000	99.634015 
3828.000000	99.634923 
3827.000000	99.636844 
3826.000000	99.639695 
3825.000000	99.641972 
3824.000000	99.642101 
3823.000000	99.640136 
3822.000000	99.638077 
3821.000000	99.637748 
3820.000000	99.638991 
3819.000000	99.640497 
3818.000000	99.641302 
3817.000000	99.641702 
3816.000000	99.642664 
3815.000000	99.644208 
3814.000000	99.645370 
3813.000000	99.645737 
3812.000000	99.645875 
3811.000000	99.646399 
3810.000000	99.647095 
3809.000000	99.647294 
3808.000000	99.647038 
3807.000000	99.647193 
3806.000000	99.648095 
3805.000000	99.648926 
3804.000000	99.648596 
3803.000000	99.646981 
3802.000000	99.644914 
3801.000000	99.643008 
3800.000000	99.641119 
3799.000000	99.639074 
3798.000000	99.637526 
3797.000000	99.637650 
3796.000000	99.639800 
3795.000000	99.642827 
3794.000000	99.644931 
3793.000000	99.645230 
3792.000000	99.644166 
3791.000000	99.642760 
3790.000000	99.641646 
3789.000000	99.640750 
3788.000000	99.639722 
3787.000000	99.638405 
3786.000000	99.636975 
3785.000000	99.635779 
3784.000000	99.635069 
3783.000000	99.634876 
3782.000000	99.635187 
3781.000000	99.636116 
3780.000000	99.637625 
3779.000000	99.639196 
3778.000000	99.640124 
3777.000000	99.640165 
3776.000000	99.639698 
3775.000000	99.639288 
3774.000000	99.639085 
3773.000000	99.638780 
3772.000000	99.638209 
3771.000000	99.637705 
3770.000000	99.637674 
3769.000000	99.638046 
3768.000000	99.638352 
3767.000000	99.638271 
3766.000000	99.637923 
3765.000000	99.637596 
3764.000000	99.637368 
3763.000000	99.637103 
3762.000000	99.636740 
3761.000000	99.636401 
3760.000000	99.636198 
3759.000000	99.636096 
3758.000000	99.635994 
3757.000000	99.635878 
3756.000000	99.635832 
3755.000000	99.635917 
3754.000000	99.636114 
3753.000000	99.636334 
3752.000000	99.636467 
3751.000000	99.636453 
3750.000000	99.636316 
3749.000000	99.636149 
3748.000000	99.636030 
3747.000000	99.635978 
3746.000000	99.635985 
3745.000000	99.636041 
3744.000000	99.636122 
3743.000000	99.636156 
3742.000000	99.636101 
3741.000000	99.636005 
3740.000000	99.635952 
3739.000000	99.635963 
3738.000000	99.635970 
3737.000000	99.635879 
3736.000000	99.635697 
3735.000000	99.635546 
3734.000000	99.635549 
3733.000000	99.635725 
3732.000000	99.635951 
3731.000000	99.636039 
3730.000000	99.635842 
3729.000000	99.635360 
3728.000000	99.634828 
3727.000000	99.634547 
3726.000000	99.634547 
3725.000000	99.634524 
3724.000000	99.634229 
3723.000000	99.633825 
3722.000000	99.633682 
3721.000000	99.633903 
3720.000000	99.634153 
3719.000000	99.634129 
3718.000000	99.634003 
3717.000000	99.634147 
3716.000000	99.634534 
3715.000000	99.634559 
3714.000000	99.633617 
3713.000000	99.631721 
3712.000000	99.629574 
3711.000000	99.627935 
3710.000000	99.627026 
3709.000000	99.626685 
3708.000000	99.626677 
3707.000000	99.626754 
3706.000000	99.626733 
3705.000000	99.626629 
3704.000000	99.626677 
3703.000000	99.627110 
3702.000000	99.627794 
3701.000000	99.628282 
3700.000000	99.628256 
3699.000000	99.627741 
3698.000000	99.627090 
3697.000000	99.626695 
3696.000000	99.626596 
3695.000000	99.626448 
3694.000000	99.626005 
3693.000000	99.625545 
3692.000000	99.625590 
3691.000000	99.626145 
3690.000000	99.626423 
3689.000000	99.625851 
3688.000000	99.624918 
3687.000000	99.624395 
3686.000000	99.624437 
3685.000000	99.624782 
3684.000000	99.625053 
3683.000000	99.624947 
3682.000000	99.624412 
3681.000000	99.623694 
3680.000000	99.623134 
3679.000000	99.622728 
3678.000000	99.622144 
3677.000000	99.621280 
3676.000000	99.620449 
3675.000000	99.619978 
3674.000000	99.619852 
3673.000000	99.619712 
3672.000000	99.619253 
3671.000000	99.618668 
3670.000000	99.618294 
3669.000000	99.618184 
3668.000000	99.618308 
3667.000000	99.618646 
3666.000000	99.619110 
3665.000000	99.619540 
3664.000000	99.619721 
3663.000000	99.619503 
3662.000000	99.618886 
3661.000000	99.618006 
3660.000000	99.617099 
3659.000000	99.616431 
3658.000000	99.616226 
3657.000000	99.616486 
3656.000000	99.616820 
3655.000000	99.616675 
3654.000000	99.615734 
3653.000000	99.614101 
3652.000000	99.612387 
3651.000000	99.611447 
3650.000000	99.611554 
3649.000000	99.611898 
3648.000000	99.611673 
3647.000000	99.611237 
3646.000000	99.611431 
3645.000000	99.612487 
3644.000000	99.613815 
3643.000000	99.614573 
3642.000000	99.614324 
3641.000000	99.613253 
3640.000000	99.611943 
3639.000000	99.610830 
3638.000000	99.609842 
3637.000000	99.608530 
3636.000000	99.606691 
3635.000000	99.604839 
3634.000000	99.603786 
3633.000000	99.603703 
3632.000000	99.603870 
3631.000000	99.603618 
3630.000000	99.603351 
3629.000000	99.603586 
3628.000000	99.603604 
3627.000000	99.602522 
3626.000000	99.600423 
3625.000000	99.598406 
3624.000000	99.597686 
3623.000000	99.598534 
3622.000000	99.600271 
3621.000000	99.602090 
3620.000000	99.603470 
3619.000000	99.603928 
3618.000000	99.603164 
3617.000000	99.601427 
3616.000000	99.599560 
3615.000000	99.598719 
3614.000000	99.599544 
3613.000000	99.601493 
3612.000000	99.603390 
3611.000000	99.604656 
3610.000000	99.605842 
3609.000000	99.607739 
3608.000000	99.609897 
3607.000000	99.611085 
3606.000000	99.610949 
3605.000000	99.610251 
3604.000000	99.609893 
3603.000000	99.609984 
3602.000000	99.609899 
3601.000000	99.609103 
3600.000000	99.607703 
3599.000000	99.606330 
3598.000000	99.605531 
3597.000000	99.605228 
3596.000000	99.605067 
3595.000000	99.604915 
3594.000000	99.604895 
3593.000000	99.605029 
3592.000000	99.604870 
3591.000000	99.603857 
3590.000000	99.602226 
3589.000000	99.601036 
3588.000000	99.600755 
3587.000000	99.600722 
3586.000000	99.600596 
3585.000000	99.600742 
3584.000000	99.601302 
3583.000000	99.602012 
3582.000000	99.602713 
3581.000000	99.603364 
3580.000000	99.603693 
3579.000000	99.603133 
3578.000000	99.601302 
3577.000000	99.598447 
3576.000000	99.595266 
3575.000000	99.592511 
3574.000000	99.590738 
3573.000000	99.590247 
3572.000000	99.590913 
3571.000000	99.592185 
3570.000000	99.593678 
3569.000000	99.595750 
3568.000000	99.598779 
3567.000000	99.601882 
3566.000000	99.603546 
3565.000000	99.603359 
3564.000000	99.602192 
3563.000000	99.601371 
3562.000000	99.601691 
3561.000000	99.602790 
3560.000000	99.603386 
3559.000000	99.602399 
3558.000000	99.599964 
3557.000000	99.597445 
3556.000000	99.596330 
3555.000000	99.597052 
3554.000000	99.598807 
3553.000000	99.600287 
3552.000000	99.600648 
3551.000000	99.599718 
3550.000000	99.597586 
3549.000000	99.594553 
3548.000000	99.591470 
3547.000000	99.589460 
3546.000000	99.588989 
3545.000000	99.589362 
3544.000000	99.589599 
3543.000000	99.589587 
3542.000000	99.590023 
3541.000000	99.591352 
3540.000000	99.593010 
3539.000000	99.593744 
3538.000000	99.592672 
3537.000000	99.589972 
3536.000000	99.586747 
3535.000000	99.584145 
3534.000000	99.582560 
3533.000000	99.581600 
3532.000000	99.580624 
3531.000000	99.579327 
3530.000000	99.577884 
3529.000000	99.576687 
3528.000000	99.575978 
3527.000000	99.575773 
3526.000000	99.576096 
3525.000000	99.577134 
3524.000000	99.578985 
3523.000000	99.581290 
3522.000000	99.583328 
3521.000000	99.584536 
3520.000000	99.584837 
3519.000000	99.584468 
3518.000000	99.583652 
3517.000000	99.582451 
3516.000000	99.580879 
3515.000000	99.579049 
3514.000000	99.577139 
3513.000000	99.575277 
3512.000000	99.573539 
3511.000000	99.572045 
3510.000000	99.570933 
3509.000000	99.570083 
3508.000000	99.568828 
3507.000000	99.566300 
3506.000000	99.562456 
3505.000000	99.558761 
3504.000000	99.557277 
3503.000000	99.558790 
3502.000000	99.562208 
3501.000000	99.565546 
3500.000000	99.567522 
3499.000000	99.567969 
3498.000000	99.567205 
3497.000000	99.565652 
3496.000000	99.563832 
3495.000000	99.562218 
3494.000000	99.560968 
3493.000000	99.560037 
3492.000000	99.559514 
3491.000000	99.559573 
3490.000000	99.560034 
3489.000000	99.560305 
3488.000000	99.559914 
3487.000000	99.558974 
3486.000000	99.557981 
3485.000000	99.557304 
3484.000000	99.556980 
3483.000000	99.556874 
3482.000000	99.556835 
3481.000000	99.556725 
3480.000000	99.556444 
3479.000000	99.555999 
3478.000000	99.555506 
3477.000000	99.555125 
3476.000000	99.554937 
3475.000000	99.554847 
3474.000000	99.554615 
3473.000000	99.554049 
3472.000000	99.553192 
3471.000000	99.552299 
3470.000000	99.551613 
3469.000000	99.551170 
3468.000000	99.550847 
3467.000000	99.550543 
3466.000000	99.550259 
3465.000000	99.550034 
3464.000000	99.549850 
3463.000000	99.549622 
3462.000000	99.549269 
3461.000000	99.548739 
3460.000000	99.548047 
3459.000000	99.547310 
3458.000000	99.546714 
3457.000000	99.546402 
3456.000000	99.546318 
3455.000000	99.546246 
3454.000000	99.546023 
3453.000000	99.545666 
3452.000000	99.545272 
3451.000000	99.544876 
3450.000000	99.544495 
3449.000000	99.544262 
3448.000000	99.544322 
3447.000000	99.544501 
3446.000000	99.544281 
3445.000000	99.543334 
3444.000000	99.542062 
3443.000000	99.541367 
3442.000000	99.541735 
3441.000000	99.542670 
3440.000000	99.543091 
3439.000000	99.542375 
3438.000000	99.540801 
3437.000000	99.539161 
3436.000000	99.538046 
3435.000000	99.537563 
3434.000000	99.537573 
3433.000000	99.537961 
3432.000000	99.538640 
3431.000000	99.539450 
3430.000000	99.540218 
3429.000000	99.540983 
3428.000000	99.542053 
3427.000000	99.543624 
3426.000000	99.545342 
3425.000000	99.546457 
3424.000000	99.546501 
3423.000000	99.545680 
3422.000000	99.544544 
3421.000000	99.543427 
3420.000000	99.542406 
3419.000000	99.541681 
3418.000000	99.541667 
3417.000000	99.542613 
3416.000000	99.544152 
3415.000000	99.545256 
3414.000000	99.544831 
3413.000000	99.542560 
3412.000000	99.539287 
3411.000000	99.536454 
3410.000000	99.534900 
3409.000000	99.534427 
3408.000000	99.534467 
3407.000000	99.534776 
3406.000000	99.535280 
3405.000000	99.535654 
3404.000000	99.535595 
3403.000000	99.535430 
3402.000000	99.535910 
3401.000000	99.537275 
3400.000000	99.538827 
3399.000000	99.539552 
3398.000000	99.539024 
3397.000000	99.537626 
3396.000000	99.536166 
3395.000000	99.535231 
3394.000000	99.534783 
3393.000000	99.534378 
3392.000000	99.533780 
3391.000000	99.533230 
3390.000000	99.532959 
3389.000000	99.532673 
3388.000000	99.531857 
3387.000000	99.530525 
3386.000000	99.529369 
3385.000000	99.529125 
3384.000000	99.530008 
3383.000000	99.531684 
3382.000000	99.533498 
3381.000000	99.534856 
3380.000000	99.535746 
3379.000000	99.536811 
3378.000000	99.538496 
3377.000000	99.540143 
3376.000000	99.540528 
3375.000000	99.539416 
3374.000000	99.538013 
3373.000000	99.537550 
3372.000000	99.537858 
3371.000000	99.537960 
3370.000000	99.537683 
3369.000000	99.537858 
3368.000000	99.538947 
3367.000000	99.540251 
3366.000000	99.540833 
3365.000000	99.540672 
3364.000000	99.540398 
3363.000000	99.540164 
3362.000000	99.539334 
3361.000000	99.537384 
3360.000000	99.534771 
3359.000000	99.532729 
3358.000000	99.532211 
3357.000000	99.533194 
3356.000000	99.534827 
3355.000000	99.536038 
3354.000000	99.536208 
3353.000000	99.535476 
3352.000000	99.534580 
3351.000000	99.534263 
3350.000000	99.534642 
3349.000000	99.535171 
3348.000000	99.535290 
3347.000000	99.535040 
3346.000000	99.534951 
3345.000000	99.535428 
3344.000000	99.536429 
3343.000000	99.537626 
3342.000000	99.538675 
3341.000000	99.539346 
3340.000000	99.539644 
3339.000000	99.539847 
3338.000000	99.540287 
3337.000000	99.541038 
3336.000000	99.541932 
3335.000000	99.542873 
3334.000000	99.543973 
3333.000000	99.545306 
3332.000000	99.546640 
3331.000000	99.547478 
3330.000000	99.547343 
3329.000000	99.546117 
3328.000000	99.544240 
3327.000000	99.542572 
3326.000000	99.541764 
3325.000000	99.541706 
3324.000000	99.541785 
3323.000000	99.541699 
3322.000000	99.541812 
3321.000000	99.542675 
3320.000000	99.544416 
3319.000000	99.546683 
3318.000000	99.548917 
3317.000000	99.550509 
3316.000000	99.550968 
3315.000000	99.550312 
3314.000000	99.549283 
3313.000000	99.548812 
3312.000000	99.549211 
3311.000000	99.550032 
3310.000000	99.550648 
3309.000000	99.550812 
3308.000000	99.550701 
3307.000000	99.550673 
3306.000000	99.551014 
3305.000000	99.551752 
3304.000000	99.552623 
3303.000000	99.553298 
3302.000000	99.553612 
3301.000000	99.553447 
3300.000000	99.552468 
3299.000000	99.550280 
3298.000000	99.547025 
3297.000000	99.543717 
3296.000000	99.541659 
3295.000000	99.541508 
3294.000000	99.543003 
3293.000000	99.545341 
3292.000000	99.547791 
3291.000000	99.550039 
3290.000000	99.552048 
3289.000000	99.553670 
3288.000000	99.554526 
3287.000000	99.554392 
3286.000000	99.553760 
3285.000000	99.553745 
3284.000000	99.555071 
3283.000000	99.557179 
3282.000000	99.558610 
3281.000000	99.558400 
3280.000000	99.556805 
3279.000000	99.554760 
3278.000000	99.552986 
3277.000000	99.551796 
3276.000000	99.551393 
3275.000000	99.551799 
3274.000000	99.552498 
3273.000000	99.552616 
3272.000000	99.551673 
3271.000000	99.550035 
3270.000000	99.548575 
3269.000000	99.547983 
3268.000000	99.548411 
3267.000000	99.549506 
3266.000000	99.550592 
3265.000000	99.551032 
3264.000000	99.550682 
3263.000000	99.550044 
3262.000000	99.549848 
3261.000000	99.550443 
3260.000000	99.551662 
3259.000000	99.553172 
3258.000000	99.554797 
3257.000000	99.556419 
3256.000000	99.557677 
3255.000000	99.558030 
3254.000000	99.557239 
3253.000000	99.555707 
3252.000000	99.554327 
3251.000000	99.553818 
3250.000000	99.554253 
3249.000000	99.555214 
3248.000000	99.556186 
3247.000000	99.556887 
3246.000000	99.557274 
3245.000000	99.557390 
3244.000000	99.557274 
3243.000000	99.556953 
3242.000000	99.556467 
3241.000000	99.555946 
3240.000000	99.555597 
3239.000000	99.555577 
3238.000000	99.555875 
3237.000000	99.556350 
3236.000000	99.556855 
3235.000000	99.557286 
3234.000000	99.557540 
3233.000000	99.557549 
3232.000000	99.557386 
3231.000000	99.557243 
3230.000000	99.557266 
3229.000000	99.557438 
3228.000000	99.557656 
3227.000000	99.557874 
3226.000000	99.558113 
3225.000000	99.558386 
3224.000000	99.558668 
3223.000000	99.558921 
3222.000000	99.559130 
3221.000000	99.559318 
3220.000000	99.559521 
3219.000000	99.559747 
3218.000000	99.559980 
3217.000000	99.560199 
3216.000000	99.560393 
3215.000000	99.560579 
3214.000000	99.560780 
3213.000000	99.561009 
3212.000000	99.561267 
3211.000000	99.561542 
3210.000000	99.561816 
3209.000000	99.562074 
3208.000000	99.562316 
3207.000000	99.562562 
3206.000000	99.562829 
3205.000000	99.563125 
3204.000000	99.563441 
3203.000000	99.563760 
3202.000000	99.564075 
3201.000000	99.564393 
3200.000000	99.564739 
3199.000000	99.565137 
3198.000000	99.565597 
3197.000000	99.566089 
3196.000000	99.566547 
3195.000000	99.566899 
3194.000000	99.567111 
3193.000000	99.567230 
3192.000000	99.567363 
3191.000000	99.567575 
3190.000000	99.567832 
3189.000000	99.568067 
3188.000000	99.568305 
3187.000000	99.568652 
3186.000000	99.569158 
3185.000000	99.569783 
3184.000000	99.570477 
3183.000000	99.571166 
3182.000000	99.571637 
3181.000000	99.571623 
3180.000000	99.571086 
3179.000000	99.570407 
3178.000000	99.570083 
3177.000000	99.570258 
3176.000000	99.570702 
3175.000000	99.571110 
3174.000000	99.571386 
3173.000000	99.571579 
3172.000000	99.571791 
3171.000000	99.572158 
3170.000000	99.572731 
3169.000000	99.573338 
3168.000000	99.573730 
3167.000000	99.573899 
3166.000000	99.574084 
3165.000000	99.574426 
3164.000000	99.574796 
3163.000000	99.575000 
3162.000000	99.575020 
3161.000000	99.574978 
3160.000000	99.574969 
3159.000000	99.574975 
3158.000000	99.574904 
3157.000000	99.574710 
3156.000000	99.574489 
3155.000000	99.574378 
3154.000000	99.574360 
3153.000000	99.574276 
3152.000000	99.574055 
3151.000000	99.573836 
3150.000000	99.573789 
3149.000000	99.573886 
3148.000000	99.573950 
3147.000000	99.573899 
3146.000000	99.573816 
3145.000000	99.573806 
3144.000000	99.573881 
3143.000000	99.573987 
3142.000000	99.574075 
3141.000000	99.574125 
3140.000000	99.574146 
3139.000000	99.574171 
3138.000000	99.574241 
3137.000000	99.574362 
3136.000000	99.574501 
3135.000000	99.574620 
3134.000000	99.574708 
3133.000000	99.574770 
3132.000000	99.574811 
3131.000000	99.574853 
3130.000000	99.574940 
3129.000000	99.575094 
3128.000000	99.575303 
3127.000000	99.575520 
3126.000000	99.575701 
3125.000000	99.575833 
3124.000000	99.575928 
3123.000000	99.576002 
3122.000000	99.576054 
3121.000000	99.576075 
3120.000000	99.576078 
3119.000000	99.576103 
3118.000000	99.576196 
3117.000000	99.576374 
3116.000000	99.576608 
3115.000000	99.576837 
3114.000000	99.577027 
3113.000000	99.577190 
3112.000000	99.577370 
3111.000000	99.577602 
3110.000000	99.577911 
3109.000000	99.578312 
3108.000000	99.578758 
3107.000000	99.579103 
3106.000000	99.579204 
3105.000000	99.579117 
3104.000000	99.579145 
3103.000000	99.579540 
3102.000000	99.580197 
3101.000000	99.580735 
3100.000000	99.580986 
3099.000000	99.581194 
3098.000000	99.581572 
3097.000000	99.581893 
3096.000000	99.581856 
3095.000000	99.581695 
3094.000000	99.581982 
3093.000000	99.582762 
3092.000000	99.583342 
3091.000000	99.583091 
3090.000000	99.582080 
3089.000000	99.580817 
3088.000000	99.579680 
3087.000000	99.578834 
3086.000000	99.578348 
3085.000000	99.578050 
3084.000000	99.577573 
3083.000000	99.576844 
3082.000000	99.576338 
3081.000000	99.576659 
3080.000000	99.578019 
3079.000000	99.580114 
3078.000000	99.582293 
3077.000000	99.583835 
3076.000000	99.584369 
3075.000000	99.584174 
3074.000000	99.583873 
3073.000000	99.583651 
3072.000000	99.583121 
3071.000000	99.582073 
3070.000000	99.580921 
3069.000000	99.580202 
3068.000000	99.579951 
3067.000000	99.579830 
3066.000000	99.579618 
3065.000000	99.579334 
3064.000000	99.579023 
3063.000000	99.578607 
3062.000000	99.577893 
3061.000000	99.576682 
3060.000000	99.575118 
3059.000000	99.573886 
3058.000000	99.573707 
3057.000000	99.574512 
3056.000000	99.575365 
3055.000000	99.575450 
3054.000000	99.574898 
3053.000000	99.574431 
3052.000000	99.574448 
3051.000000	99.574715 
3050.000000	99.574758 
3049.000000	99.574346 
3048.000000	99.573627 
3047.000000	99.572986 
3046.000000	99.572736 
3045.000000	99.572859 
3044.000000	99.573024 
3043.000000	99.572929 
3042.000000	99.572619 
3041.000000	99.572390 
3040.000000	99.572406 
3039.000000	99.572449 
3038.000000	99.572120 
3037.000000	99.571264 
3036.000000	99.570122 
3035.000000	99.569100 
3034.000000	99.568399 
3033.000000	99.567903 
3032.000000	99.567413 
3031.000000	99.566861 
3030.000000	99.566295 
3029.000000	99.565702 
3028.000000	99.565003 
3027.000000	99.564194 
3026.000000	99.563379 
3025.000000	99.562619 
3024.000000	99.561862 
3023.000000	99.561070 
3022.000000	99.560303 
3021.000000	99.559589 
3020.000000	99.558796 
3019.000000	99.557746 
3018.000000	99.556427 
3017.000000	99.555024 
3016.000000	99.553756 
3015.000000	99.552730 
3014.000000	99.551940 
3013.000000	99.551286 
3012.000000	99.550575 
3011.000000	99.549590 
3010.000000	99.548245 
3009.000000	99.546673 
3008.000000	99.545157 
3007.000000	99.543920 
3006.000000	99.542986 
3005.000000	99.542206 
3004.000000	99.541378 
3003.000000	99.540323 
3002.000000	99.538895 
3001.000000	99.537043 
3000.000000	99.534920 
2999.000000	99.532859 
2998.000000	99.531083 
2997.000000	99.529484 
2996.000000	99.527743 
2995.000000	99.525675 
2994.000000	99.523391 
2993.000000	99.521199 
2992.000000	99.519344 
2991.000000	99.517833 
2990.000000	99.516395 
2989.000000	99.514655 
2988.000000	99.512410 
2987.000000	99.509833 
2986.000000	99.507457 
2985.000000	99.505831 
2984.000000	99.505042 
2983.000000	99.504460 
2982.000000	99.503069 
2981.000000	99.500333 
2980.000000	99.496920 
2979.000000	99.494305 
2978.000000	99.493228 
2977.000000	99.492696 
2976.000000	99.491057 
2975.000000	99.488061 
2974.000000	99.485113 
2973.000000	99.483240 
2972.000000	99.481548 
2971.000000	99.478337 
2970.000000	99.473271 
2969.000000	99.467664 
2968.000000	99.462910 
2967.000000	99.459390 
2966.000000	99.456823 
2965.000000	99.454710 
2964.000000	99.452148 
2963.000000	99.447995 
2962.000000	99.441879 
2961.000000	99.434948 
2960.000000	99.429355 
2959.000000	99.426845 
2958.000000	99.427579 
2957.000000	99.430095 
2956.000000	99.432474 
2955.000000	99.433711 
2954.000000	99.434032 
2953.000000	99.434023 
2952.000000	99.433837 
2951.000000	99.433210 
2950.000000	99.431859 
2949.000000	99.429800 
2948.000000	99.427486 
2947.000000	99.425378 
2946.000000	99.423025 
2945.000000	99.418986 
2944.000000	99.412445 
2943.000000	99.404529 
2942.000000	99.396930 
2941.000000	99.389398 
2940.000000	99.380132 
2939.000000	99.368868 
2938.000000	99.357781 
2937.000000	99.348363 
2936.000000	99.338903 
2935.000000	99.326645 
2934.000000	99.311596 
2933.000000	99.296599 
2932.000000	99.283937 
2931.000000	99.273249 
2930.000000	99.262771 
2929.000000	99.251434 
2928.000000	99.239509 
2927.000000	99.228120 
2926.000000	99.218684 
2925.000000	99.212480 
2924.000000	99.210282 
2923.000000	99.212129 
2922.000000	99.217300 
2921.000000	99.224761 
2920.000000	99.234167 
2919.000000	99.246260 
2918.000000	99.261448 
2917.000000	99.277923 
2916.000000	99.292340 
2915.000000	99.303111 
2914.000000	99.312153 
2913.000000	99.322466 
2912.000000	99.334623 
2911.000000	99.346661 
2910.000000	99.357179 
2909.000000	99.367332 
2908.000000	99.379303 
2907.000000	99.393273 
2906.000000	99.406375 
2905.000000	99.414816 
2904.000000	99.417229 
2903.000000	99.416007 
2902.000000	99.415525 
2901.000000	99.418568 
2900.000000	99.424744 
2899.000000	99.431848 
2898.000000	99.437892 
2897.000000	99.442010 
2896.000000	99.444406 
2895.000000	99.446348 
2894.000000	99.449796 
2893.000000	99.456047 
2892.000000	99.464325 
2891.000000	99.471936 
2890.000000	99.476216 
2889.000000	99.476772 
2888.000000	99.476027 
2887.000000	99.477159 
2886.000000	99.481068 
2885.000000	99.485611 
2884.000000	99.488215 
2883.000000	99.488629 
2882.000000	99.488322 
2881.000000	99.487874 
2880.000000	99.486567 
2879.000000	99.484620 
2878.000000	99.484058 
2877.000000	99.486289 
2876.000000	99.489696 
2875.000000	99.490788 
2874.000000	99.487458 
2873.000000	99.480651 
2872.000000	99.473370 
2871.000000	99.468564 
2870.000000	99.467576 
2869.000000	99.469805 
2868.000000	99.473596 
2867.000000	99.477286 
2866.000000	99.479264 
2865.000000	99.477714 
2864.000000	99.471703 
2863.000000	99.462688 
2862.000000	99.453549 
2861.000000	99.445563 
2860.000000	99.437559 
2859.000000	99.428679 
2858.000000	99.420319 
2857.000000	99.414032 
2856.000000	99.408897 
2855.000000	99.402798 
2854.000000	99.395846 
2853.000000	99.391025 
2852.000000	99.391460 
2851.000000	99.398015 
2850.000000	99.409227 
2849.000000	99.422538 
2848.000000	99.435885 
2847.000000	99.449095 
2846.000000	99.463690 
2845.000000	99.480656 
2844.000000	99.498557 
2843.000000	99.514459 
2842.000000	99.526413 
2841.000000	99.534391 
2840.000000	99.539376 
2839.000000	99.542636 
2838.000000	99.545566 
2837.000000	99.549037 
2836.000000	99.552686 
2835.000000	99.555616 
2834.000000	99.557742 
2833.000000	99.559557 
2832.000000	99.560738 
2831.000000	99.560306 
2830.000000	99.558633 
2829.000000	99.558174 
2828.000000	99.561230 
2827.000000	99.567301 
2826.000000	99.573322 
2825.000000	99.576475 
2824.000000	99.576383 
2823.000000	99.574822 
2822.000000	99.573815 
2821.000000	99.574181 
2820.000000	99.575625 
2819.000000	99.577709 
2818.000000	99.580310 
2817.000000	99.583171 
2816.000000	99.585531 
2815.000000	99.586605 
2814.000000	99.586337 
2813.000000	99.585485 
2812.000000	99.585020 
2811.000000	99.585463 
2810.000000	99.586536 
2809.000000	99.587309 
2808.000000	99.586912 
2807.000000	99.585348 
2806.000000	99.583548 
2805.000000	99.582571 
2804.000000	99.582843 
2803.000000	99.584060 
2802.000000	99.585463 
2801.000000	99.586195 
2800.000000	99.585888 
2799.000000	99.585153 
2798.000000	99.585208 
2797.000000	99.586826 
2796.000000	99.589833 
2795.000000	99.593484 
2794.000000	99.596877 
2793.000000	99.599041 
2792.000000	99.599388 
2791.000000	99.598375 
2790.000000	99.597166 
2789.000000	99.596456 
2788.000000	99.596001 
2787.000000	99.595453 
2786.000000	99.595086 
2785.000000	99.595354 
2784.000000	99.596190 
2783.000000	99.597197 
2782.000000	99.598164 
2781.000000	99.599034 
2780.000000	99.599633 
2779.000000	99.599770 
2778.000000	99.599544 
2777.000000	99.599321 
2776.000000	99.599361 
2775.000000	99.599595 
2774.000000	99.599796 
2773.000000	99.599851 
2772.000000	99.599852 
2771.000000	99.599954 
2770.000000	99.600200 
2769.000000	99.600485 
2768.000000	99.600683 
2767.000000	99.600790 
2766.000000	99.600892 
2765.000000	99.601020 
2764.000000	99.601123 
2763.000000	99.601191 
2762.000000	99.601304 
2761.000000	99.601493 
2760.000000	99.601656 
2759.000000	99.601685 
2758.000000	99.601619 
2757.000000	99.601582 
2756.000000	99.601605 
2755.000000	99.601645 
2754.000000	99.601741 
2753.000000	99.602020 
2752.000000	99.602469 
2751.000000	99.602809 
2750.000000	99.602762 
2749.000000	99.602298 
2748.000000	99.601667 
2747.000000	99.601217 
2746.000000	99.601096 
2745.000000	99.601235 
2744.000000	99.601442 
2743.000000	99.601564 
2742.000000	99.601565 
2741.000000	99.601506 
2740.000000	99.601491 
2739.000000	99.601602 
2738.000000	99.601851 
2737.000000	99.602164 
2736.000000	99.602445 
2735.000000	99.602654 
2734.000000	99.602843 
2733.000000	99.603103 
2732.000000	99.603467 
2731.000000	99.603865 
2730.000000	99.604177 
2729.000000	99.604360 
2728.000000	99.604504 
2727.000000	99.604742 
2726.000000	99.605091 
2725.000000	99.605440 
2724.000000	99.605737 
2723.000000	99.606096 
2722.000000	99.606608 
2721.000000	99.607122 
2720.000000	99.607366 
2719.000000	99.607282 
2718.000000	99.607077 
2717.000000	99.606949 
2716.000000	99.606919 
2715.000000	99.606980 
2714.000000	99.607213 
2713.000000	99.607629 
2712.000000	99.608029 
2711.000000	99.608197 
2710.000000	99.608170 
2709.000000	99.608175 
2708.000000	99.608340 
2707.000000	99.608573 
2706.000000	99.608722 
2705.000000	99.608781 
2704.000000	99.608868 
2703.000000	99.609066 
2702.000000	99.609360 
2701.000000	99.609686 
2700.000000	99.609980 
2699.000000	99.610202 
2698.000000	99.610350 
2697.000000	99.610444 
2696.000000	99.610500 
2695.000000	99.610525 
2694.000000	99.610536 
2693.000000	99.610541 
2692.000000	99.610527 
2691.000000	99.610469 
2690.000000	99.610384 
2689.000000	99.610327 
2688.000000	99.610335 
2687.000000	99.610392 
2686.000000	99.610453 
2685.000000	99.610486 
2684.000000	99.610482 
2683.000000	99.610442 
2682.000000	99.610375 
2681.000000	99.610302 
2680.000000	99.610241 
2679.000000	99.610196 
2678.000000	99.610164 
2677.000000	99.610142 
2676.000000	99.610126 
2675.000000	99.610114 
2674.000000	99.610101 
2673.000000	99.610085 
2672.000000	99.610063 
2671.000000	99.610036 
2670.000000	99.610009 
2669.000000	99.609990 
2668.000000	99.609981 
2667.000000	99.609986 
2666.000000	99.610001 
2665.000000	99.610026 
2664.000000	99.610055 
2663.000000	99.610084 
2662.000000	99.610113 
2661.000000	99.610141 
2660.000000	99.610166 
2659.000000	99.610184 
2658.000000	99.610190 
2657.000000	99.610183 
2656.000000	99.610168 
2655.000000	99.610156 
2654.000000	99.610154 
2653.000000	99.610167 
2652.000000	99.610194 
2651.000000	99.610234 
2650.000000	99.610279 
2649.000000	99.610322 
2648.000000	99.610358 
2647.000000	99.610387 
2646.000000	99.610413 
2645.000000	99.610444 
2644.000000	99.610483 
2643.000000	99.610532 
2642.000000	99.610590 
2641.000000	99.610660 
2640.000000	99.610742 
2639.000000	99.610838 
2638.000000	99.610942 
2637.000000	99.611050 
2636.000000	99.611156 
2635.000000	99.611252 
2634.000000	99.611334 
2633.000000	99.611401 
2632.000000	99.611464 
2631.000000	99.611528 
2630.000000	99.611588 
2629.000000	99.611626 
2628.000000	99.611625 
2627.000000	99.611591 
2626.000000	99.611557 
2625.000000	99.611546 
2624.000000	99.611535 
2623.000000	99.611488 
2622.000000	99.611413 
2621.000000	99.611367 
2620.000000	99.611371 
2619.000000	99.611350 
2618.000000	99.611210 
2617.000000	99.610945 
2616.000000	99.610661 
2615.000000	99.610467 
2614.000000	99.610399 
2613.000000	99.610436 
2612.000000	99.610517 
2611.000000	99.610543 
2610.000000	99.610436 
2609.000000	99.610266 
2608.000000	99.610245 
2607.000000	99.610507 
2606.000000	99.610899 
2605.000000	99.611092 
2604.000000	99.611005 
2603.000000	99.610952 
2602.000000	99.611245 
2601.000000	99.611704 
2600.000000	99.611800 
2599.000000	99.611319 
2598.000000	99.610588 
2597.000000	99.610061 
2596.000000	99.609774 
2595.000000	99.609513 
2594.000000	99.609253 
2593.000000	99.609187 
2592.000000	99.609360 
2591.000000	99.609526 
2590.000000	99.609436 
2589.000000	99.609152 
2588.000000	99.608980 
2587.000000	99.609077 
2586.000000	99.609259 
2585.000000	99.609271 
2584.000000	99.609121 
2583.000000	99.609036 
2582.000000	99.609100 
2581.000000	99.609103 
2580.000000	99.608867 
2579.000000	99.608589 
2578.000000	99.608659 
2577.000000	99.609081 
2576.000000	99.609357 
2575.000000	99.609169 
2574.000000	99.608926 
2573.000000	99.609267 
2572.000000	99.610222 
2571.000000	99.611161 
2570.000000	99.611563 
2569.000000	99.611553 
2568.000000	99.611608 
2567.000000	99.611981 
2566.000000	99.612534 
2565.000000	99.613009 
2564.000000	99.613251 
2563.000000	99.613246 
2562.000000	99.613117 
2561.000000	99.613069 
2560.000000	99.613260 
2559.000000	99.613646 
2558.000000	99.614050 
2557.000000	99.614398 
2556.000000	99.614815 
2555.000000	99.615451 
2554.000000	99.616269 
2553.000000	99.617035 
2552.000000	99.617593 
2551.000000	99.618045 
2550.000000	99.618603 
2549.000000	99.619231 
2548.000000	99.619595 
2547.000000	99.619492 
2546.000000	99.619193 
2545.000000	99.619173 
2544.000000	99.619605 
2543.000000	99.620213 
2542.000000	99.620566 
2541.000000	99.620469 
2540.000000	99.620075 
2539.000000	99.619592 
2538.000000	99.619098 
2537.000000	99.618652 
2536.000000	99.618447 
2535.000000	99.618673 
2534.000000	99.619254 
2533.000000	99.619845 
2532.000000	99.620158 
2531.000000	99.620239 
2530.000000	99.620323 
2529.000000	99.620504 
2528.000000	99.620654 
2527.000000	99.620649 
2526.000000	99.620544 
2525.000000	99.620447 
2524.000000	99.620329 
2523.000000	99.620096 
2522.000000	99.619797 
2521.000000	99.619640 
2520.000000	99.619765 
2519.000000	99.620074 
2518.000000	99.620276 
2517.000000	99.620167 
2516.000000	99.619815 
2515.000000	99.619529 
2514.000000	99.619555 
2513.000000	99.619861 
2512.000000	99.620199 
2511.000000	99.620368 
2510.000000	99.620359 
2509.000000	99.620242 
2508.000000	99.620042 
2507.000000	99.619751 
2506.000000	99.619321 
2505.000000	99.618616 
2504.000000	99.617555 
2503.000000	99.616448 
2502.000000	99.615948 
2501.000000	99.616355 
2500.000000	99.617231 
2499.000000	99.617739 
2498.000000	99.617643 
2497.000000	99.617443 
2496.000000	99.617684 
2495.000000	99.618347 
2494.000000	99.618997 
2493.000000	99.619346 
2492.000000	99.619498 
2491.000000	99.619706 
2490.000000	99.620075 
2489.000000	99.620485 
2488.000000	99.620704 
2487.000000	99.620596 
2486.000000	99.620270 
2485.000000	99.620053 
2484.000000	99.620225 
2483.000000	99.620772 
2482.000000	99.621457 
2481.000000	99.622106 
2480.000000	99.622750 
2479.000000	99.623447 
2478.000000	99.624076 
2477.000000	99.624443 
2476.000000	99.624541 
2475.000000	99.624529 
2474.000000	99.624502 
2473.000000	99.624389 
2472.000000	99.624130 
2471.000000	99.623887 
2470.000000	99.623899 
2469.000000	99.624182 
2468.000000	99.624563 
2467.000000	99.624963 
2466.000000	99.625516 
2465.000000	99.626325 
2464.000000	99.627209 
2463.000000	99.627823 
2462.000000	99.627993 
2461.000000	99.627875 
2460.000000	99.627754 
2459.000000	99.627800 
2458.000000	99.628053 
2457.000000	99.628445 
2456.000000	99.628828 
2455.000000	99.629022 
2454.000000	99.628997 
2453.000000	99.628921 
2452.000000	99.628998 
2451.000000	99.629309 
2450.000000	99.629814 
2449.000000	99.630423 
2448.000000	99.631028 
2447.000000	99.631483 
2446.000000	99.631656 
2445.000000	99.631532 
2444.000000	99.631273 
2443.000000	99.631145 
2442.000000	99.631311 
2441.000000	99.631705 
2440.000000	99.632081 
2439.000000	99.632243 
2438.000000	99.632237 
2437.000000	99.632287 
2436.000000	99.632583 
2435.000000	99.633137 
2434.000000	99.633791 
2433.000000	99.634292 
2432.000000	99.634461 
2431.000000	99.634296 
2430.000000	99.633963 
2429.000000	99.633640 
2428.000000	99.633402 
2427.000000	99.633259 
2426.000000	99.633220 
2425.000000	99.633262 
2424.000000	99.633274 
2423.000000	99.633128 
2422.000000	99.632807 
2421.000000	99.632443 
2420.000000	99.632210 
2419.000000	99.632202 
2418.000000	99.632396 
2417.000000	99.632665 
2416.000000	99.632783 
2415.000000	99.632581 
2414.000000	99.632092 
2413.000000	99.631524 
2412.000000	99.631071 
2411.000000	99.630755 
2410.000000	99.630490 
2409.000000	99.630209 
2408.000000	99.629936 
2407.000000	99.629740 
2406.000000	99.629662 
2405.000000	99.629672 
2404.000000	99.629668 
2403.000000	99.629569 
2402.000000	99.629397 
2401.000000	99.629263 
2400.000000	99.629225 
2399.000000	99.629193 
2398.000000	99.629021 
2397.000000	99.628680 
2396.000000	99.628303 
2395.000000	99.628062 
2394.000000	99.628021 
2393.000000	99.628113 
2392.000000	99.628195 
2391.000000	99.628147 
2390.000000	99.627927 
2389.000000	99.627573 
2388.000000	99.627190 
2387.000000	99.626913 
2386.000000	99.626850 
2385.000000	99.627017 
2384.000000	99.627315 
2383.000000	99.627615 
2382.000000	99.627871 
2381.000000	99.628165 
2380.000000	99.628578 
2379.000000	99.629027 
2378.000000	99.629276 
2377.000000	99.629150 
2376.000000	99.628714 
2375.000000	99.628291 
2374.000000	99.628213 
2373.000000	99.628603 
2372.000000	99.629389 
2371.000000	99.630359 
2370.000000	99.631248 
2369.000000	99.631799 
2368.000000	99.631884 
2367.000000	99.631626 
2366.000000	99.631309 
2365.000000	99.631095 
2364.000000	99.630902 
2363.000000	99.630600 
2362.000000	99.630257 
2361.000000	99.630125 
2360.000000	99.630377 
2359.000000	99.630933 
2358.000000	99.631528 
2357.000000	99.631933 
2356.000000	99.632123 
2355.000000	99.632257 
2354.000000	99.632469 
2353.000000	99.632641 
2352.000000	99.632578 
2351.000000	99.632322 
2350.000000	99.632150 
2349.000000	99.632272 
2348.000000	99.632608 
2347.000000	99.632863 
2346.000000	99.632834 
2345.000000	99.632642 
2344.000000	99.632497 
2343.000000	99.632386 
2342.000000	99.632304 
2341.000000	99.632484 
2340.000000	99.633125 
2339.000000	99.633936 
2338.000000	99.634350 
2337.000000	99.634141 
2336.000000	99.633664 
2335.000000	99.633360 
2334.000000	99.633147 
2333.000000	99.632423 
2332.000000	99.630961 
2331.000000	99.629606 
2330.000000	99.629511 
2329.000000	99.630678 
2328.000000	99.631854 
2327.000000	99.632177 
2326.000000	99.632081 
2325.000000	99.632376 
2324.000000	99.632975 
2323.000000	99.633156 
2322.000000	99.632723 
2321.000000	99.631981 
2320.000000	99.630904 
2319.000000	99.629025 
2318.000000	99.626487 
2317.000000	99.624259 
2316.000000	99.623247 
2315.000000	99.623749 
2314.000000	99.625775 
2313.000000	99.629055 
2312.000000	99.632643 
2311.000000	99.635352 
2310.000000	99.636899 
2309.000000	99.638137 
2308.000000	99.639541 
2307.000000	99.640125 
2306.000000	99.638627 
2305.000000	99.635248 
2304.000000	99.631638 
2303.000000	99.629505 
2302.000000	99.629334 
2301.000000	99.630374 
2300.000000	99.631533 
2299.000000	99.632228 
2298.000000	99.632374 
2297.000000	99.631768 
2296.000000	99.629870 
2295.000000	99.626615 
2294.000000	99.623130 
2293.000000	99.621032 
2292.000000	99.620761 
2291.000000	99.621075 
2290.000000	99.620416 
2289.000000	99.618596 
2288.000000	99.616750 
2287.000000	99.615897 
2286.000000	99.615914 
2285.000000	99.615905 
2284.000000	99.615252 
2283.000000	99.614231 
2282.000000	99.613738 
2281.000000	99.614355 
2280.000000	99.615642 
2279.000000	99.616469 
2278.000000	99.616280 
2277.000000	99.615788 
2276.000000	99.616148 
2275.000000	99.617610 
2274.000000	99.619350 
2273.000000	99.620620 
2272.000000	99.621674 
2271.000000	99.623253 
2270.000000	99.625361 
2269.000000	99.626863 
2268.000000	99.626461 
2267.000000	99.623855 
2266.000000	99.620086 
2265.000000	99.617006 
2264.000000	99.615923 
2263.000000	99.616698 
2262.000000	99.617831 
2261.000000	99.617712 
2260.000000	99.616228 
2259.000000	99.614926 
2258.000000	99.615437 
2257.000000	99.618031 
2256.000000	99.621767 
2255.000000	99.625445 
2254.000000	99.628168 
2253.000000	99.629270 
2252.000000	99.628452 
2251.000000	99.626334 
2250.000000	99.624409 
2249.000000	99.623858 
2248.000000	99.624561 
2247.000000	99.625478 
2246.000000	99.625770 
2245.000000	99.625354 
2244.000000	99.624555 
2243.000000	99.623709 
2242.000000	99.623190 
2241.000000	99.623389 
2240.000000	99.624341 
2239.000000	99.625388 
2238.000000	99.625510 
2237.000000	99.624229 
2236.000000	99.622203 
2235.000000	99.620807 
2234.000000	99.620950 
2233.000000	99.622407 
2232.000000	99.624413 
2231.000000	99.626706 
2230.000000	99.629530 
2229.000000	99.632711 
2228.000000	99.635239 
2227.000000	99.636101 
2226.000000	99.635224 
2225.000000	99.633488 
2224.000000	99.632114 
2223.000000	99.631937 
2222.000000	99.632812 
2221.000000	99.633432 
2220.000000	99.632219 
2219.000000	99.628744 
2218.000000	99.624186 
2217.000000	99.620415 
2216.000000	99.618495 
2215.000000	99.618347 
2214.000000	99.619240 
2213.000000	99.620173 
2212.000000	99.620290 
2211.000000	99.619516 
2210.000000	99.618768 
2209.000000	99.619018 
2208.000000	99.620139 
2207.000000	99.621089 
2206.000000	99.621252 
2205.000000	99.620999 
2204.000000	99.620777 
2203.000000	99.620316 
2202.000000	99.619256 
2201.000000	99.618104 
2200.000000	99.617849 
2199.000000	99.618681 
2198.000000	99.619658 
2197.000000	99.619700 
2196.000000	99.618696 
2195.000000	99.617280 
2194.000000	99.616066 
2193.000000	99.615307 
2192.000000	99.615132 
2191.000000	99.615611 
2190.000000	99.616453 
2189.000000	99.617019 
2188.000000	99.616919 
2187.000000	99.616322 
2186.000000	99.615622 
2185.000000	99.614969 
2184.000000	99.614304 
2183.000000	99.613731 
2182.000000	99.613548 
2181.000000	99.613863 
2180.000000	99.614461 
2179.000000	99.615095 
2178.000000	99.615737 
2177.000000	99.616420 
2176.000000	99.617096 
2175.000000	99.617744 
2174.000000	99.618448 
2173.000000	99.619245 
2172.000000	99.620011 
2171.000000	99.620582 
2170.000000	99.620909 
2169.000000	99.621053 
2168.000000	99.621105 
2167.000000	99.621153 
2166.000000	99.621275 
2165.000000	99.621506 
2164.000000	99.621787 
2163.000000	99.622004 
2162.000000	99.622111 
2161.000000	99.622135 
2160.000000	99.622142 
2159.000000	99.622194 
2158.000000	99.622335 
2157.000000	99.622553 
2156.000000	99.622739 
2155.000000	99.622783 
2154.000000	99.622659 
2153.000000	99.622459 
2152.000000	99.622365 
2151.000000	99.622491 
2150.000000	99.622825 
2149.000000	99.623207 
2148.000000	99.623450 
2147.000000	99.623505 
2146.000000	99.623502 
2145.000000	99.623635 
2144.000000	99.623946 
2143.000000	99.624307 
2142.000000	99.624595 
2141.000000	99.624838 
2140.000000	99.625126 
2139.000000	99.625435 
2138.000000	99.625605 
2137.000000	99.625533 
2136.000000	99.625308 
2135.000000	99.625157 
2134.000000	99.625217 
2133.000000	99.625338 
2132.000000	99.625187 
2131.000000	99.624555 
2130.000000	99.623521 
2129.000000	99.622337 
2128.000000	99.621253 
2127.000000	99.620522 
2126.000000	99.620450 
2125.000000	99.621203 
2124.000000	99.622507 
2123.000000	99.623655 
2122.000000	99.624039 
2121.000000	99.623598 
2120.000000	99.622843 
2119.000000	99.622512 
2118.000000	99.623003 
2117.000000	99.624162 
2116.000000	99.625553 
2115.000000	99.626858 
2114.000000	99.627997 
2113.000000	99.628867 
2112.000000	99.629231 
2111.000000	99.629042 
2110.000000	99.628678 
2109.000000	99.628631 
2108.000000	99.629002 
2107.000000	99.629484 
2106.000000	99.629812 
2105.000000	99.630045 
2104.000000	99.630376 
2103.000000	99.630826 
2102.000000	99.631237 
2101.000000	99.631487 
2100.000000	99.631590 
2099.000000	99.631644 
2098.000000	99.631751 
2097.000000	99.631967 
2096.000000	99.632274 
2095.000000	99.632617 
2094.000000	99.632938 
2093.000000	99.633208 
2092.000000	99.633436 
2091.000000	99.633644 
2090.000000	99.633861 
2089.000000	99.634108 
2088.000000	99.634400 
2087.000000	99.634731 
2086.000000	99.635078 
2085.000000	99.635417 
2084.000000	99.635728 
2083.000000	99.636009 
2082.000000	99.636264 
2081.000000	99.636509 
2080.000000	99.636759 
2079.000000	99.637021 
2078.000000	99.637281 
2077.000000	99.637511 
2076.000000	99.637692 
2075.000000	99.637828 
2074.000000	99.637945 
2073.000000	99.638074 
2072.000000	99.638236 
2071.000000	99.638443 
2070.000000	99.638698 
2069.000000	99.638992 
2068.000000	99.639310 
2067.000000	99.639641 
2066.000000	99.639990 
2065.000000	99.640365 
2064.000000	99.640768 
2063.000000	99.641187 
2062.000000	99.641609 
2061.000000	99.642026 
2060.000000	99.642442 
2059.000000	99.642857 
2058.000000	99.643269 
2057.000000	99.643674 
2056.000000	99.644077 
2055.000000	99.644484 
2054.000000	99.644902 
2053.000000	99.645334 
2052.000000	99.645784 
2051.000000	99.646251 
2050.000000	99.646742 
2049.000000	99.647260 
2048.000000	99.647800 
2047.000000	99.648331 
2046.000000	99.648811 
2045.000000	99.649225 
2044.000000	99.649605 
2043.000000	99.650001 
2042.000000	99.650440 
2041.000000	99.650901 
2040.000000	99.651336 
2039.000000	99.651703 
2038.000000	99.651989 
2037.000000	99.652203 
2036.000000	99.652372 
2035.000000	99.652529 
2034.000000	99.652691 
2033.000000	99.652852 
2032.000000	99.652987 
2031.000000	99.653083 
2030.000000	99.653143 
2029.000000	99.653171 
2028.000000	99.653166 
2027.000000	99.653126 
2026.000000	99.653058 
2025.000000	99.652974 
2024.000000	99.652872 
2023.000000	99.652738 
2022.000000	99.652558 
2021.000000	99.652333 
2020.000000	99.652085 
2019.000000	99.651838 
2018.000000	99.651616 
2017.000000	99.651431 
2016.000000	99.651284 
2015.000000	99.651166 
2014.000000	99.651056 
2013.000000	99.650926 
2012.000000	99.650750 
2011.000000	99.650513 
2010.000000	99.650222 
2009.000000	99.649904 
2008.000000	99.649580 
2007.000000	99.649247 
2006.000000	99.648886 
2005.000000	99.648491 
2004.000000	99.648092 
2003.000000	99.647730 
2002.000000	99.647416 
2001.000000	99.647114 
2000.000000	99.646778 
1999.000000	99.646403 
1998.000000	99.646034 
1997.000000	99.645728 
1996.000000	99.645519 
1995.000000	99.645406 
1994.000000	99.645364 
1993.000000	99.645363 
1992.000000	99.645383 
1991.000000	99.645425 
1990.000000	99.645504 
1989.000000	99.645624 
1988.000000	99.645768 
1987.000000	99.645904 
1986.000000	99.646016 
1985.000000	99.646106 
1984.000000	99.646182 
1983.000000	99.646248 
1982.000000	99.646309 
1981.000000	99.646367 
1980.000000	99.646427 
1979.000000	99.646490 
1978.000000	99.646557 
1977.000000	99.646618 
1976.000000	99.646662 
1975.000000	99.646678 
1974.000000	99.646667 
1973.000000	99.646640 
1972.000000	99.646618 
1971.000000	99.646625 
1970.000000	99.646686 
1969.000000	99.646814 
1968.000000	99.646998 
1967.000000	99.647201 
1966.000000	99.647379 
1965.000000	99.647514 
1964.000000	99.647622 
1963.000000	99.647741 
1962.000000	99.647893 
1961.000000	99.648075 
1960.000000	99.648262 
1959.000000	99.648434 
1958.000000	99.648584 
1957.000000	99.648709 
1956.000000	99.648806 
1955.000000	99.648868 
1954.000000	99.648893 
1953.000000	99.648888 
1952.000000	99.648858 
1951.000000	99.648801 
1950.000000	99.648711 
1949.000000	99.648578 
1948.000000	99.648400 
1947.000000	99.648181 
1946.000000	99.647941 
1945.000000	99.647706 
1944.000000	99.647497 
1943.000000	99.647329 
1942.000000	99.647209 
1941.000000	99.647142 
1940.000000	99.647125 
1939.000000	99.647141 
1938.000000	99.647170 
1937.000000	99.647194 
1936.000000	99.647206 
1935.000000	99.647205 
1934.000000	99.647189 
1933.000000	99.647156 
1932.000000	99.647104 
1931.000000	99.647036 
1930.000000	99.646954 
1929.000000	99.646858 
1928.000000	99.646745 
1927.000000	99.646593 
1926.000000	99.646361 
1925.000000	99.646034 
1924.000000	99.645683 
1923.000000	99.645427 
1922.000000	99.645308 
1921.000000	99.645248 
1920.000000	99.645211 
1919.000000	99.645216 
1918.000000	99.645226 
1917.000000	99.645154 
1916.000000	99.644957 
1915.000000	99.644701 
1914.000000	99.644508 
1913.000000	99.644456 
1912.000000	99.644527 
1911.000000	99.644605 
1910.000000	99.644567 
1909.000000	99.644390 
1908.000000	99.644181 
1907.000000	99.644088 
1906.000000	99.644166 
1905.000000	99.644368 
1904.000000	99.644573 
1903.000000	99.644683 
1902.000000	99.644685 
1901.000000	99.644634 
1900.000000	99.644575 
1899.000000	99.644486 
1898.000000	99.644304 
1897.000000	99.643998 
1896.000000	99.643608 
1895.000000	99.643219 
1894.000000	99.642922 
1893.000000	99.642760 
1892.000000	99.642728 
1891.000000	99.642784 
1890.000000	99.642874 
1889.000000	99.642953 
1888.000000	99.642998 
1887.000000	99.643006 
1886.000000	99.642990 
1885.000000	99.642969 
1884.000000	99.642955 
1883.000000	99.642949 
1882.000000	99.642942 
1881.000000	99.642928 
1880.000000	99.642904 
1879.000000	99.642873 
1878.000000	99.642831 
1877.000000	99.642764 
1876.000000	99.642670 
1875.000000	99.642567 
1874.000000	99.642482 
1873.000000	99.642432 
1872.000000	99.642408 
1871.000000	99.642392 
1870.000000	99.642371 
1869.000000	99.642339 
1868.000000	99.642295 
1867.000000	99.642242 
1866.000000	99.642185 
1865.000000	99.642131 
1864.000000	99.642083 
1863.000000	99.642044 
1862.000000	99.642016 
1861.000000	99.642004 
1860.000000	99.642012 
1859.000000	99.642040 
1858.000000	99.642085 
1857.000000	99.642144 
1856.000000	99.642216 
1855.000000	99.642297 
1854.000000	99.642383 
1853.000000	99.642464 
1852.000000	99.642532 
1851.000000	99.642581 
1850.000000	99.642610 
1849.000000	99.642620 
1848.000000	99.642613 
1847.000000	99.642592 
1846.000000	99.642560 
1845.000000	99.642524 
1844.000000	99.642494 
1843.000000	99.642471 
1842.000000	99.642455 
1841.000000	99.642436 
1840.000000	99.642387 
1839.000000	99.642328 
1838.000000	99.642370 
1837.000000	99.642637 
1836.000000	99.643086 
1835.000000	99.643527 
1834.000000	99.643802 
1833.000000	99.643843 
1832.000000	99.643664 
1831.000000	99.643220 
1830.000000	99.642653 
1829.000000	99.642319 
1828.000000	99.642376 
1827.000000	99.642686 
1826.000000	99.642980 
1825.000000	99.643079 
1824.000000	99.642986 
1823.000000	99.642815 
1822.000000	99.642663 
1821.000000	99.642538 
1820.000000	99.642334 
1819.000000	99.641926 
1818.000000	99.641371 
1817.000000	99.640922 
1816.000000	99.640737 
1815.000000	99.640677 
1814.000000	99.640502 
1813.000000	99.640179 
1812.000000	99.639877 
1811.000000	99.639671 
1810.000000	99.639495 
1809.000000	99.639337 
1808.000000	99.639266 
1807.000000	99.639299 
1806.000000	99.639321 
1805.000000	99.639191 
1804.000000	99.638900 
1803.000000	99.638591 
1802.000000	99.638393 
1801.000000	99.638258 
1800.000000	99.638071 
1799.000000	99.637865 
1798.000000	99.637758 
1797.000000	99.637664 
1796.000000	99.637354 
1795.000000	99.636785 
1794.000000	99.636157 
1793.000000	99.635640 
1792.000000	99.635200 
1791.000000	99.634775 
1790.000000	99.634446 
1789.000000	99.634232 
1788.000000	99.633966 
1787.000000	99.633505 
1786.000000	99.632919 
1785.000000	99.632359 
1784.000000	99.631849 
1783.000000	99.631339 
1782.000000	99.630725 
1781.000000	99.629754 
1780.000000	99.628256 
1779.000000	99.626589 
1778.000000	99.625565 
1777.000000	99.625697 
1776.000000	99.626718 
1775.000000	99.627690 
1774.000000	99.627335 
1773.000000	99.624788 
1772.000000	99.620912 
1771.000000	99.618010 
1770.000000	99.617303 
1769.000000	99.618016 
1768.000000	99.618497 
1767.000000	99.617917 
1766.000000	99.616987 
1765.000000	99.616692 
1764.000000	99.616845 
1763.000000	99.616253 
1762.000000	99.614197 
1761.000000	99.611444 
1760.000000	99.609246 
1759.000000	99.608058 
1758.000000	99.607603 
1757.000000	99.607017 
1756.000000	99.605037 
1755.000000	99.600622 
1754.000000	99.593862 
1753.000000	99.586510 
1752.000000	99.581806 
1751.000000	99.582072 
1750.000000	99.585286 
1749.000000	99.586561 
1748.000000	99.583916 
1747.000000	99.579458 
1746.000000	99.575819 
1745.000000	99.573788 
1744.000000	99.572748 
1743.000000	99.571843 
1742.000000	99.570850 
1741.000000	99.570489 
1740.000000	99.571695 
1739.000000	99.574216 
1738.000000	99.576335 
1737.000000	99.576998 
1736.000000	99.576532 
1735.000000	99.576702 
1734.000000	99.579564 
1733.000000	99.583448 
1732.000000	99.585315 
1731.000000	99.585460 
1730.000000	99.585422 
1729.000000	99.585606 
1728.000000	99.586099 
1727.000000	99.587329 
1726.000000	99.589638 
1725.000000	99.592529 
1724.000000	99.594888 
1723.000000	99.595836 
1722.000000	99.595352 
1721.000000	99.593788 
1720.000000	99.591680 
1719.000000	99.590230 
1718.000000	99.591426 
1717.000000	99.595339 
1716.000000	99.598686 
1715.000000	99.599889 
1714.000000	99.600864 
1713.000000	99.602674 
1712.000000	99.604133 
1711.000000	99.604364 
1710.000000	99.604300 
1709.000000	99.605224 
1708.000000	99.607142 
1707.000000	99.609242 
1706.000000	99.611506 
1705.000000	99.614559 
1704.000000	99.618093 
1703.000000	99.621516 
1702.000000	99.624444 
1701.000000	99.626651 
1700.000000	99.627563 
1699.000000	99.626552 
1698.000000	99.624775 
1697.000000	99.623749 
1696.000000	99.623841 
1695.000000	99.624526 
1694.000000	99.625043 
1693.000000	99.625253 
1692.000000	99.625531 
1691.000000	99.626306 
1690.000000	99.627664 
1689.000000	99.628989 
1688.000000	99.629631 
1687.000000	99.629808 
1686.000000	99.630198 
1685.000000	99.631317 
1684.000000	99.632607 
1683.000000	99.633114 
1682.000000	99.633257 
1681.000000	99.633672 
1680.000000	99.634217 
1679.000000	99.634474 
1678.000000	99.634578 
1677.000000	99.635068 
1676.000000	99.636271 
1675.000000	99.637694 
1674.000000	99.638383 
1673.000000	99.638233 
1672.000000	99.637817 
1671.000000	99.637475 
1670.000000	99.637204 
1669.000000	99.636926 
1668.000000	99.636756 
1667.000000	99.636863 
1666.000000	99.637213 
1665.000000	99.637659 
1664.000000	99.638059 
1663.000000	99.638332 
1662.000000	99.638368 
1661.000000	99.638065 
1660.000000	99.637587 
1659.000000	99.637225 
1658.000000	99.637200 
1657.000000	99.637543 
1656.000000	99.638184 
1655.000000	99.638734 
1654.000000	99.638667 
1653.000000	99.638075 
1652.000000	99.637407 
1651.000000	99.636770 
1650.000000	99.636188 
1649.000000	99.635767 
1648.000000	99.635353 
1647.000000	99.635155 
1646.000000	99.635455 
1645.000000	99.636042 
1644.000000	99.636368 
1643.000000	99.636355 
1642.000000	99.636107 
1641.000000	99.635593 
1640.000000	99.634770 
1639.000000	99.633932 
1638.000000	99.633598 
1637.000000	99.633912 
1636.000000	99.634443 
1635.000000	99.634890 
1634.000000	99.635511 
1633.000000	99.636472 
1632.000000	99.637421 
1631.000000	99.637977 
1630.000000	99.638253 
1629.000000	99.638630 
1628.000000	99.639127 
1627.000000	99.639339 
1626.000000	99.639033 
1625.000000	99.638421 
1624.000000	99.637934 
1623.000000	99.637908 
1622.000000	99.638302 
1621.000000	99.638803 
1620.000000	99.639210 
1619.000000	99.639376 
1618.000000	99.639090 
1617.000000	99.638425 
1616.000000	99.637993 
1615.000000	99.638306 
1614.000000	99.639246 
1613.000000	99.640389 
1612.000000	99.641393 
1611.000000	99.642183 
1610.000000	99.642819 
1609.000000	99.643267 
1608.000000	99.643465 
1607.000000	99.643496 
1606.000000	99.643501 
1605.000000	99.643548 
1604.000000	99.643680 
1603.000000	99.643925 
1602.000000	99.644258 
1601.000000	99.644620 
1600.000000	99.644995 
1599.000000	99.645400 
1598.000000	99.645810 
1597.000000	99.646155 
1596.000000	99.646382 
1595.000000	99.646512 
1594.000000	99.646620 
1593.000000	99.646777 
1592.000000	99.647003 
1591.000000	99.647270 
1590.000000	99.647524 
1589.000000	99.647722 
1588.000000	99.647870 
1587.000000	99.648017 
1586.000000	99.648201 
1585.000000	99.648407 
1584.000000	99.648597 
1583.000000	99.648753 
1582.000000	99.648888 
1581.000000	99.649015 
1580.000000	99.649136 
1579.000000	99.649246 
1578.000000	99.649336 
1577.000000	99.649397 
1576.000000	99.649443 
1575.000000	99.649473 
1574.000000	99.649448 
1573.000000	99.649343 
1572.000000	99.649184 
1571.000000	99.649030 
1570.000000	99.648992 
1569.000000	99.649130 
1568.000000	99.649407 
1567.000000	99.649741 
1566.000000	99.650019 
1565.000000	99.650108 
1564.000000	99.649994 
1563.000000	99.649798 
1562.000000	99.649651 
1561.000000	99.649467 
1560.000000	99.649202 
1559.000000	99.649250 
1558.000000	99.649732 
1557.000000	99.650189 
1556.000000	99.650475 
1555.000000	99.650760 
1554.000000	99.650802 
1553.000000	99.650451 
1552.000000	99.649794 
1551.000000	99.649191 
1550.000000	99.648917 
1549.000000	99.649022 
1548.000000	99.649295 
1547.000000	99.649534 
1546.000000	99.649674 
1545.000000	99.649779 
1544.000000	99.649935 
1543.000000	99.650060 
1542.000000	99.649895 
1541.000000	99.649205 
1540.000000	99.648132 
1539.000000	99.647377 
1538.000000	99.647253 
1537.000000	99.647406 
1536.000000	99.647606 
1535.000000	99.647848 
1534.000000	99.648414 
1533.000000	99.649440 
1532.000000	99.650452 
1531.000000	99.650966 
1530.000000	99.651113 
1529.000000	99.651193 
1528.000000	99.651250 
1527.000000	99.651164 
1526.000000	99.650965 
1525.000000	99.650811 
1524.000000	99.650697 
1523.000000	99.650403 
1522.000000	99.649934 
1521.000000	99.649766 
1520.000000	99.650167 
1519.000000	99.650937 
1518.000000	99.651903 
1517.000000	99.652861 
1516.000000	99.653270 
1515.000000	99.652768 
1514.000000	99.651669 
1513.000000	99.650739 
1512.000000	99.650517 
1511.000000	99.650855 
1510.000000	99.651222 
1509.000000	99.651315 
1508.000000	99.651187 
1507.000000	99.650984 
1506.000000	99.650894 
1505.000000	99.650734 
1504.000000	99.650121 
1503.000000	99.649050 
1502.000000	99.647377 
1501.000000	99.645368 
1500.000000	99.644057 
1499.000000	99.644573 
1498.000000	99.646624 
1497.000000	99.648384 
1496.000000	99.647911 
1495.000000	99.645150 
1494.000000	99.642118 
1493.000000	99.640574 
1492.000000	99.640354 
1491.000000	99.639859 
1490.000000	99.638049 
1489.000000	99.635857 
1488.000000	99.634383 
1487.000000	99.633631 
1486.000000	99.633991 
1485.000000	99.635922 
1484.000000	99.639081 
1483.000000	99.642054 
1482.000000	99.642824 
1481.000000	99.640669 
1480.000000	99.636956 
1479.000000	99.633541 
1478.000000	99.630856 
1477.000000	99.628240 
1476.000000	99.625025 
1475.000000	99.620976 
1474.000000	99.615788 
1473.000000	99.609278 
1472.000000	99.602469 
1471.000000	99.596824 
1470.000000	99.593325 
1469.000000	99.592375 
1468.000000	99.593601 
1467.000000	99.595799 
1466.000000	99.597347 
1465.000000	99.597190 
1464.000000	99.595886 
1463.000000	99.594556 
1462.000000	99.593593 
1461.000000	99.592560 
1460.000000	99.590763 
1459.000000	99.587885 
1458.000000	99.584606 
1457.000000	99.583217 
1456.000000	99.584444 
1455.000000	99.586449 
1454.000000	99.588974 
1453.000000	99.593106 
1452.000000	99.597730 
1451.000000	99.600181 
1450.000000	99.599154 
1449.000000	99.596449 
1448.000000	99.594786 
1447.000000	99.595038 
1446.000000	99.596152 
1445.000000	99.597416 
1444.000000	99.598999 
1443.000000	99.600493 
1442.000000	99.601106 
1441.000000	99.600914 
1440.000000	99.600851 
1439.000000	99.601123 
1438.000000	99.600585 
1437.000000	99.598735 
1436.000000	99.597322 
1435.000000	99.597908 
1434.000000	99.599918 
1433.000000	99.601951 
1432.000000	99.602759 
1431.000000	99.602093 
1430.000000	99.600962 
1429.000000	99.600571 
1428.000000	99.600961 
1427.000000	99.601297 
1426.000000	99.601021 
1425.000000	99.600477 
1424.000000	99.600861 
1423.000000	99.602717 
1422.000000	99.605176 
1421.000000	99.606950 
1420.000000	99.607519 
1419.000000	99.607258 
1418.000000	99.606470 
1417.000000	99.605194 
1416.000000	99.603631 
1415.000000	99.602083 
1414.000000	99.600643 
1413.000000	99.599125 
1412.000000	99.597323 
1411.000000	99.595548 
1410.000000	99.594719 
1409.000000	99.595684 
1408.000000	99.598207 
1407.000000	99.601030 
1406.000000	99.603136 
1405.000000	99.604566 
1404.000000	99.605859 
1403.000000	99.606880 
1402.000000	99.607197 
1401.000000	99.607094 
1400.000000	99.607390 
1399.000000	99.608387 
1398.000000	99.609283 
1397.000000	99.609223 
1396.000000	99.608288 
1395.000000	99.607358 
1394.000000	99.607136 
1393.000000	99.607595 
1392.000000	99.608457 
1391.000000	99.609395 
1390.000000	99.610153 
1389.000000	99.610845 
1388.000000	99.611960 
1387.000000	99.613658 
1386.000000	99.615124 
1385.000000	99.615298 
1384.000000	99.614011 
1383.000000	99.612017 
1382.000000	99.610363 
1381.000000	99.609650 
1380.000000	99.609834 
1379.000000	99.610747 
1378.000000	99.612300 
1377.000000	99.614123 
1376.000000	99.615587 
1375.000000	99.616420 
1374.000000	99.616971 
1373.000000	99.617669 
1372.000000	99.618459 
1371.000000	99.619147 
1370.000000	99.619901 
1369.000000	99.621063 
1368.000000	99.622724 
1367.000000	99.624479 
1366.000000	99.625773 
1365.000000	99.626430 
1364.000000	99.626753 
1363.000000	99.627216 
1362.000000	99.628008 
1361.000000	99.628920 
1360.000000	99.629804 
1359.000000	99.630809 
1358.000000	99.632015 
1357.000000	99.633124 
1356.000000	99.633798 
1355.000000	99.634156 
1354.000000	99.634695 
1353.000000	99.635707 
1352.000000	99.637009 
1351.000000	99.638284 
1350.000000	99.639430 
1349.000000	99.640403 
1348.000000	99.641091 
1347.000000	99.641506 
1346.000000	99.641926 
1345.000000	99.642577 
1344.000000	99.643356 
1343.000000	99.644023 
1342.000000	99.644538 
1341.000000	99.645041 
1340.000000	99.645589 
1339.000000	99.646102 
1338.000000	99.646545 
1337.000000	99.646997 
1336.000000	99.647527 
1335.000000	99.648115 
1334.000000	99.648691 
1333.000000	99.649198 
1332.000000	99.649625 
1331.000000	99.649996 
1330.000000	99.650334 
1329.000000	99.650649 
1328.000000	99.650950 
1327.000000	99.651263 
1326.000000	99.651610 
1325.000000	99.651981 
1324.000000	99.652315 
1323.000000	99.652547 
1322.000000	99.652668 
1321.000000	99.652739 
1320.000000	99.652828 
1319.000000	99.652940 
1318.000000	99.653029 
1317.000000	99.653061 
1316.000000	99.653064 
1315.000000	99.653096 
1314.000000	99.653175 
1313.000000	99.653249 
1312.000000	99.653263 
1311.000000	99.653231 
1310.000000	99.653208 
1309.000000	99.653202 
1308.000000	99.653167 
1307.000000	99.653083 
1306.000000	99.653000 
1305.000000	99.653004 
1304.000000	99.653126 
1303.000000	99.653307 
1302.000000	99.653415 
1301.000000	99.653324 
1300.000000	99.652986 
1299.000000	99.652546 
1298.000000	99.652303 
1297.000000	99.652463 
1296.000000	99.652921 
1295.000000	99.653345 
1294.000000	99.653518 
1293.000000	99.653463 
1292.000000	99.653311 
1291.000000	99.653243 
1290.000000	99.653461 
1289.000000	99.653901 
1288.000000	99.654050 
1287.000000	99.653472 
1286.000000	99.652473 
1285.000000	99.651857 
1284.000000	99.651896 
1283.000000	99.651950 
1282.000000	99.651357 
1281.000000	99.650350 
1280.000000	99.649713 
1279.000000	99.649836 
1278.000000	99.650497 
1277.000000	99.651366 
1276.000000	99.652196 
1275.000000	99.652621 
1274.000000	99.652301 
1273.000000	99.651487 
1272.000000	99.651001 
1271.000000	99.651456 
1270.000000	99.652695 
1269.000000	99.654067 
1268.000000	99.655001 
1267.000000	99.655200 
1266.000000	99.654607 
1265.000000	99.653538 
1264.000000	99.652681 
1263.000000	99.652549 
1262.000000	99.652780 
1261.000000	99.652146 
1260.000000	99.649591 
1259.000000	99.645405 
1258.000000	99.641089 
1257.000000	99.637974 
1256.000000	99.636295 
1255.000000	99.635672 
1254.000000	99.635743 
1253.000000	99.635721 
1252.000000	99.633987 
1251.000000	99.629495 
1250.000000	99.623858 
1249.000000	99.620886 
1248.000000	99.623219 
1247.000000	99.629679 
1246.000000	99.636174 
1245.000000	99.639087 
1244.000000	99.637600 
1243.000000	99.633488 
1242.000000	99.629583 
1241.000000	99.628074 
1240.000000	99.629296 
1239.000000	99.631671 
1238.000000	99.632960 
1237.000000	99.631837 
1236.000000	99.628385 
1235.000000	99.623542 
1234.000000	99.618428 
1233.000000	99.614042 
1232.000000	99.611082 
1231.000000	99.609772 
1230.000000	99.609833 
1229.000000	99.610541 
1228.000000	99.610609 
1227.000000	99.608197 
1226.000000	99.601635 
1225.000000	99.590623 
1224.000000	99.576785 
1223.000000	99.562817 
1222.000000	99.550746 
1221.000000	99.540876 
1220.000000	99.532366 
1219.000000	99.524494 
1218.000000	99.517069 
1217.000000	99.509897 
1216.000000	99.502456 
1215.000000	99.494375 
1214.000000	99.485844 
1213.000000	99.477143 
1212.000000	99.467838 
1211.000000	99.456847 
1210.000000	99.443452 
1209.000000	99.428118 
1208.000000	99.412362 
1207.000000	99.397867 
1206.000000	99.385501 
1205.000000	99.374765 
1204.000000	99.364077 
1203.000000	99.352064 
1202.000000	99.339065 
1201.000000	99.327167 
1200.000000	99.318096 
1199.000000	99.310900 
1198.000000	99.302316 
1197.000000	99.289953 
1196.000000	99.274673 
1195.000000	99.259359 
1194.000000	99.245820 
1193.000000	99.233738 
1192.000000	99.222348 
1191.000000	99.211554 
1190.000000	99.200840 
1189.000000	99.188502 
1188.000000	99.173262 
1187.000000	99.156001 
1186.000000	99.138688 
1185.000000	99.121882 
1184.000000	99.104556 
1183.000000	99.086320 
1182.000000	99.068500 
1181.000000	99.052449 
1180.000000	99.037640 
1179.000000	99.022071 
1178.000000	99.004296 
1177.000000	98.984794 
1176.000000	98.965581 
1175.000000	98.948561 
1174.000000	98.933884 
1173.000000	98.919718 
1172.000000	98.903690 
1171.000000	98.884491 
1170.000000	98.862254 
1169.000000	98.838303 
1168.000000	98.815285 
1167.000000	98.796876 
1166.000000	98.785926 
1165.000000	98.782499 
1164.000000	98.784255 
1163.000000	98.788955 
1162.000000	98.796165 
1161.000000	98.806133 
1160.000000	98.817308 
1159.000000	98.825674 
1158.000000	98.827222 
1157.000000	98.821220 
1156.000000	98.810666 
1155.000000	98.799150 
1154.000000	98.787445 
1153.000000	98.773843 
1152.000000	98.757508 
1151.000000	98.740021 
1150.000000	98.723126 
1149.000000	98.706529 
1148.000000	98.689386 
1147.000000	98.672834 
1146.000000	98.658898 
1145.000000	98.647085 
1144.000000	98.634208 
1143.000000	98.618173 
1142.000000	98.600333 
1141.000000	98.583350 
1140.000000	98.568106 
1139.000000	98.553814 
1138.000000	98.539787 
1137.000000	98.525422 
1136.000000	98.509071 
1135.000000	98.489012 
1134.000000	98.465974 
1133.000000	98.443203 
1132.000000	98.423148 
1131.000000	98.404983 
1130.000000	98.386359 
1129.000000	98.366787 
1128.000000	98.347831 
1127.000000	98.330125 
1126.000000	98.311868 
1125.000000	98.290980 
1124.000000	98.267488 
1123.000000	98.242851 
1122.000000	98.218031 
1121.000000	98.193704 
1120.000000	98.171780 
1119.000000	98.154778 
1118.000000	98.143230 
1117.000000	98.134633 
1116.000000	98.125094 
1115.000000	98.111552 
1114.000000	98.093154 
1113.000000	98.071891 
1112.000000	98.051613 
1111.000000	98.034812 
1110.000000	98.020132 
1109.000000	98.004326 
1108.000000	97.986643 
1107.000000	97.969577 
1106.000000	97.955322 
1105.000000	97.943455 
1104.000000	97.932490 
1103.000000	97.921767 
1102.000000	97.911035 
1101.000000	97.900252 
1100.000000	97.890599 
1099.000000	97.883552 
1098.000000	97.878167 
1097.000000	97.870697 
1096.000000	97.858824 
1095.000000	97.844873 
1094.000000	97.833197 
1093.000000	97.825164 
1092.000000	97.818373 
1091.000000	97.810365 
1090.000000	97.801657 
1089.000000	97.794781 
1088.000000	97.790970 
1087.000000	97.788218 
1086.000000	97.782947 
1085.000000	97.773857 
1084.000000	97.763544 
1083.000000	97.755798 
1082.000000	97.752206 
1081.000000	97.752417 
1080.000000	97.756118 
1079.000000	97.762077 
1078.000000	97.765931 
1077.000000	97.762430 
1076.000000	97.750729 
1075.000000	97.735106 
1074.000000	97.719569 
1073.000000	97.703785 
1072.000000	97.685130 
1071.000000	97.662011 
1070.000000	97.633649 
1069.000000	97.599186 
1068.000000	97.559560 
1067.000000	97.518901 
1066.000000	97.481679 
1065.000000	97.448753 
1064.000000	97.417286 
1063.000000	97.383628 
1062.000000	97.345797 
1061.000000	97.305109 
1060.000000	97.266388 
1059.000000	97.234488 
1058.000000	97.209252 
1057.000000	97.185849 
1056.000000	97.161280 
1055.000000	97.137809 
1054.000000	97.117810 
1053.000000	97.097783 
1052.000000	97.071170 
1051.000000	97.036377 
1050.000000	96.998519 
1049.000000	96.962995 
1048.000000	96.930369 
1047.000000	96.897847 
1046.000000	96.863042 
1045.000000	96.825869 
1044.000000	96.788683 
1043.000000	96.755103 
1042.000000	96.727437 
1041.000000	96.704788 
1040.000000	96.683936 
1039.000000	96.661885 
1038.000000	96.637839 
1037.000000	96.613804 
1036.000000	96.593437 
1035.000000	96.579237 
1034.000000	96.570690 
1033.000000	96.566062 
1032.000000	96.565124 
1031.000000	96.567791 
1030.000000	96.570589 
1029.000000	96.568303 
1028.000000	96.560599 
1027.000000	96.553814 
1026.000000	96.553832 
1025.000000	96.559440 
1024.000000	96.565276 
1023.000000	96.569852 
1022.000000	96.577061 
1021.000000	96.589242 
1020.000000	96.601664 
1019.000000	96.606311 
1018.000000	96.601123 
1017.000000	96.593311 
1016.000000	96.591905 
1015.000000	96.598270 
1014.000000	96.606428 
1013.000000	96.612442 
1012.000000	96.619370 
1011.000000	96.630674 
1010.000000	96.642803 
1009.000000	96.649161 
1008.000000	96.649608 
1007.000000	96.650669 
1006.000000	96.656612 
1005.000000	96.665743 
1004.000000	96.676590 
1003.000000	96.692156 
1002.000000	96.714538 
1001.000000	96.738991 
1000.000000	96.757602 
999.000000	 96.767792 
998.000000	 96.774136 
997.000000	 96.782248 
996.000000	 96.793640 
995.000000	 96.806998 
994.000000	 96.822206 
993.000000	 96.841095 
992.000000	 96.863985 
991.000000	 96.887281 
990.000000	 96.907141 
989.000000	 96.925872 
988.000000	 96.950984 
987.000000	 96.985240 
986.000000	 97.020681 
985.000000	 97.047413 
984.000000	 97.067300 
983.000000	 97.092603 
982.000000	 97.130062 
981.000000	 97.172385 
980.000000	 97.208409 
979.000000	 97.237434 
978.000000	 97.268732 
977.000000	 97.309286 
976.000000	 97.357037 
975.000000	 97.405450 
974.000000	 97.450592 
973.000000	 97.492574 
972.000000	 97.532707 
971.000000	 97.571527 
970.000000	 97.609350 
969.000000	 97.647554 
968.000000	 97.688115 
967.000000	 97.731034 
966.000000	 97.772962 
965.000000	 97.810264 
964.000000	 97.843479 
963.000000	 97.876532 
962.000000	 97.911038 
961.000000	 97.944178 
960.000000	 97.973861 
959.000000	 98.003023 
958.000000	 98.035680 
957.000000	 98.070506 
956.000000	 98.102281 
955.000000	 98.129110 
954.000000	 98.154303 
953.000000	 98.180562 
952.000000	 98.205728 
951.000000	 98.226157 
950.000000	 98.241970 
949.000000	 98.256816 
948.000000	 98.273615 
947.000000	 98.292137 
946.000000	 98.309924 
945.000000	 98.324246 
944.000000	 98.333781 
943.000000	 98.339874 
942.000000	 98.346518 
941.000000	 98.358344 
940.000000	 98.377520 
939.000000	 98.401569 
938.000000	 98.423999 
937.000000	 98.438670 
936.000000	 98.445221 
935.000000	 98.449550 
934.000000	 98.457439 
933.000000	 98.468599 
932.000000	 98.479102 
931.000000	 98.488316 
930.000000	 98.499638 
929.000000	 98.514253 
928.000000	 98.528698 
927.000000	 98.540797 
926.000000	 98.554238 
925.000000	 98.573425 
924.000000	 98.595793 
923.000000	 98.613453 
922.000000	 98.622331 
921.000000	 98.626161 
920.000000	 98.630766 
919.000000	 98.637377 
918.000000	 98.643468 
917.000000	 98.648181 
916.000000	 98.654136 
915.000000	 98.663791 
914.000000	 98.676180 
913.000000	 98.688718 
912.000000	 98.701315 
911.000000	 98.716471 
910.000000	 98.734773 
909.000000	 98.752621 
908.000000	 98.766678 
907.000000	 98.779330 
906.000000	 98.796530 
905.000000	 98.820321 
904.000000	 98.846465 
903.000000	 98.870097 
902.000000	 98.890930 
901.000000	 98.911016 
900.000000	 98.930360 
899.000000	 98.948127 
898.000000	 98.966653 
897.000000	 98.990136 
896.000000	 99.018706 
895.000000	 99.046471 
894.000000	 99.067061 
893.000000	 99.079866 
892.000000	 99.090103 
891.000000	 99.103447 
890.000000	 99.120855 
889.000000	 99.138388 
888.000000	 99.152144 
887.000000	 99.163228 
886.000000	 99.176773 
885.000000	 99.195477 
884.000000	 99.215898 
883.000000	 99.232760 
882.000000	 99.245252 
881.000000	 99.256771 
880.000000	 99.269530 
879.000000	 99.282258 
878.000000	 99.293152 
877.000000	 99.302664 
876.000000	 99.313266 
875.000000	 99.328023 
874.000000	 99.348669 
873.000000	 99.373127 
872.000000	 99.395876 
871.000000	 99.413074 
870.000000	 99.426345 
869.000000	 99.439050 
868.000000	 99.450493 
867.000000	 99.457675 
866.000000	 99.461547 
865.000000	 99.467327 
864.000000	 99.478373 
863.000000	 99.493099 
862.000000	 99.508306 
861.000000	 99.522273 
860.000000	 99.534156 
859.000000	 99.543888 
858.000000	 99.553348 
857.000000	 99.564135 
856.000000	 99.574084 
855.000000	 99.580405 
854.000000	 99.586458 
853.000000	 99.599315 
852.000000	 99.618184 
851.000000	 99.631878 
850.000000	 99.632580 
849.000000	 99.626848 
848.000000	 99.627278 
847.000000	 99.636357 
846.000000	 99.644931 
845.000000	 99.645214 
844.000000	 99.639253 
843.000000	 99.634379 
842.000000	 99.634960 
841.000000	 99.639885 
840.000000	 99.645229 
839.000000	 99.647682 
838.000000	 99.646254 
837.000000	 99.641435 
836.000000	 99.633409 
835.000000	 99.622868 
834.000000	 99.613287 
833.000000	 99.608592 
832.000000	 99.606954 
831.000000	 99.601322 
830.000000	 99.590217 
829.000000	 99.584400 
828.000000	 99.596036 
827.000000	 99.621831 
826.000000	 99.644222 
825.000000	 99.651320 
824.000000	 99.648497 
823.000000	 99.647203 
822.000000	 99.650123 
821.000000	 99.653478 
820.000000	 99.657231 
819.000000	 99.663896 
818.000000	 99.669540 
817.000000	 99.664342 
816.000000	 99.644418 
815.000000	 99.618390 
814.000000	 99.598042 
813.000000	 99.583881 
812.000000	 99.564324 
811.000000	 99.528857 
810.000000	 99.477546 
809.000000	 99.416379 
808.000000	 99.347533 
807.000000	 99.268381 
806.000000	 99.178669 
805.000000	 99.084803 
804.000000	 98.996166 
803.000000	 98.918549 
802.000000	 98.851851 
801.000000	 98.794303 
800.000000	 98.748736 
799.000000	 98.722722 
798.000000	 98.720756 
797.000000	 98.738170 
796.000000	 98.765530 
795.000000	 98.797347 
794.000000	 98.832024 
793.000000	 98.864192 
792.000000	 98.884681 
791.000000	 98.891788 
790.000000	 98.896060 
789.000000	 98.906802 
788.000000	 98.917546 
787.000000	 98.913137 
786.000000	 98.890007 
785.000000	 98.859970 
784.000000	 98.832257 
783.000000	 98.801652 
782.000000	 98.760516 
781.000000	 98.716091 
780.000000	 98.687127 
779.000000	 98.684583 
778.000000	 98.701979 
777.000000	 98.724775 
776.000000	 98.744673 
775.000000	 98.763261 
774.000000	 98.785776 
773.000000	 98.815111 
772.000000	 98.850667 
771.000000	 98.889342 
770.000000	 98.925726 
769.000000	 98.952517 
768.000000	 98.964057 
767.000000	 98.962577 
766.000000	 98.960156 
765.000000	 98.969940 
764.000000	 98.993285 
763.000000	 99.018205 
762.000000	 99.032559 
761.000000	 99.036310 
760.000000	 99.038471 
759.000000	 99.045525 
758.000000	 99.057556 
757.000000	 99.073753 
756.000000	 99.095357 
755.000000	 99.121442 
754.000000	 99.146101 
753.000000	 99.162844 
752.000000	 99.170133 
751.000000	 99.171494 
750.000000	 99.172376 
749.000000	 99.178005 
748.000000	 99.191615 
747.000000	 99.211440 
746.000000	 99.230146 
745.000000	 99.240752 
744.000000	 99.244268 
743.000000	 99.249615 
742.000000	 99.264778 
741.000000	 99.289297 
740.000000	 99.316386 
739.000000	 99.340522 
738.000000	 99.361171 
737.000000	 99.379922 
736.000000	 99.396531 
735.000000	 99.408918 
734.000000	 99.415752 
733.000000	 99.418122 
732.000000	 99.419016 
731.000000	 99.421017 
730.000000	 99.424255 
729.000000	 99.426951 
728.000000	 99.428538 
727.000000	 99.431232 
726.000000	 99.436978 
725.000000	 99.444354 
724.000000	 99.451302 
723.000000	 99.459913 
722.000000	 99.474230 
721.000000	 99.492496 
720.000000	 99.506242 
719.000000	 99.510138 
718.000000	 99.508706 
717.000000	 99.509434 
716.000000	 99.512671 
715.000000	 99.513350 
714.000000	 99.510961 
713.000000	 99.512448 
712.000000	 99.524409 
711.000000	 99.545318 
710.000000	 99.566341 
709.000000	 99.578291 
708.000000	 99.578137 
707.000000	 99.570691 
706.000000	 99.563417 
705.000000	 99.558815 
704.000000	 99.554088 
703.000000	 99.548246 
702.000000	 99.543812 
701.000000	 99.538158 
700.000000	 99.519599 
699.000000	 99.479575 
698.000000	 99.425964 
697.000000	 99.377931 
696.000000	 99.348129 
695.000000	 99.336718 
694.000000	 99.341228 
693.000000	 99.361922 
692.000000	 99.394426 
691.000000	 99.425804 
690.000000	 99.444730 
689.000000	 99.452687 
688.000000	 99.460214 
687.000000	 99.474051 
686.000000	 99.491918 
685.000000	 99.507785 
684.000000	 99.518377 
683.000000	 99.525062 
682.000000	 99.530913 
681.000000	 99.536070 
680.000000	 99.537598 
679.000000	 99.536054 
678.000000	 99.538898 
677.000000	 99.551431 
676.000000	 99.567645 
675.000000	 99.577726 
674.000000	 99.582019 
673.000000	 99.590113 
672.000000	 99.606591 
671.000000	 99.625373 
670.000000	 99.638160 
669.000000	 99.640228 
668.000000	 99.630916 
667.000000	 99.614838 
666.000000	 99.599123 
665.000000	 99.591596 
664.000000	 99.598941 
663.000000	 99.618608 
662.000000	 99.636820 
661.000000	 99.639828 
660.000000	 99.627139 
659.000000	 99.610793 
658.000000	 99.603844 
657.000000	 99.607920 
656.000000	 99.615308 
655.000000	 99.620890 
654.000000	 99.627885 
653.000000	 99.639697 
652.000000	 99.651788 
651.000000	 99.657213 
650.000000	 99.656775 

