4000.000000	99.197762 
3999.000000	99.198958 
3998.000000	99.198985 
3997.000000	99.197009 
3996.000000	99.192941 
3995.000000	99.187833 
3994.000000	99.183666 
3993.000000	99.182346 
3992.000000	99.184239 
3991.000000	99.187519 
3990.000000	99.189402 
3989.000000	99.188598 
3988.000000	99.186619 
3987.000000	99.186391 
3986.000000	99.189418 
3985.000000	99.194263 
3984.000000	99.197704 
3983.000000	99.197340 
3982.000000	99.193342 
3981.000000	99.187995 
3980.000000	99.183562 
3979.000000	99.180662 
3978.000000	99.178796 
3977.000000	99.178031 
3976.000000	99.179573 
3975.000000	99.184439 
3974.000000	99.191836 
3973.000000	99.199076 
3972.000000	99.203264 
3971.000000	99.203400 
3970.000000	99.201025 
3969.000000	99.198681 
3968.000000	99.197719 
3967.000000	99.197521 
3966.000000	99.196687 
3965.000000	99.194776 
3964.000000	99.192442 
3963.000000	99.190153 
3962.000000	99.187484 
3961.000000	99.183996 
3960.000000	99.180258 
3959.000000	99.177661 
3958.000000	99.177137 
3957.000000	99.178192 
3956.000000	99.179529 
3955.000000	99.180221 
3954.000000	99.179999 
3953.000000	99.178667 
3952.000000	99.175859 
3951.000000	99.172061 
3950.000000	99.169055 
3949.000000	99.168636 
3948.000000	99.170752 
3947.000000	99.173372 
3946.000000	99.174694 
3945.000000	99.175037 
3944.000000	99.176284 
3943.000000	99.179233 
3942.000000	99.182324 
3941.000000	99.183359 
3940.000000	99.181482 
3939.000000	99.176990 
3938.000000	99.170412 
3937.000000	99.162552 
3936.000000	99.155433 
3935.000000	99.152138 
3934.000000	99.155075 
3933.000000	99.163941 
3932.000000	99.175133 
3931.000000	99.183626 
3930.000000	99.186088 
3929.000000	99.182834 
3928.000000	99.177214 
3927.000000	99.173123 
3926.000000	99.172966 
3925.000000	99.176267 
3924.000000	99.179452 
3923.000000	99.178852 
3922.000000	99.174103 
3921.000000	99.168506 
3920.000000	99.166137 
3919.000000	99.168749 
3918.000000	99.174970 
3917.000000	99.181573 
3916.000000	99.185618 
3915.000000	99.186417 
3914.000000	99.186076 
3913.000000	99.187711 
3912.000000	99.192389 
3911.000000	99.198255 
3910.000000	99.202631 
3909.000000	99.204397 
3908.000000	99.204122 
3907.000000	99.202334 
3906.000000	99.198373 
3905.000000	99.191242 
3904.000000	99.180901 
3903.000000	99.169459 
3902.000000	99.161093 
3901.000000	99.159442 
3900.000000	99.164707 
3899.000000	99.172783 
3898.000000	99.178367 
3897.000000	99.179398 
3896.000000	99.177384 
3895.000000	99.174545 
3894.000000	99.171953 
3893.000000	99.169718 
3892.000000	99.167907 
3891.000000	99.166433 
3890.000000	99.164522 
3889.000000	99.161585 
3888.000000	99.158499 
3887.000000	99.157801 
3886.000000	99.161017 
3885.000000	99.165669 
3884.000000	99.167231 
3883.000000	99.164881 
3882.000000	99.162690 
3881.000000	99.164576 
3880.000000	99.169327 
3879.000000	99.171717 
3878.000000	99.169109 
3877.000000	99.164393 
3876.000000	99.162626 
3875.000000	99.165706 
3874.000000	99.169911 
3873.000000	99.169490 
3872.000000	99.163616 
3871.000000	99.158242 
3870.000000	99.159291 
3869.000000	99.165128 
3868.000000	99.169236 
3867.000000	99.168981 
3866.000000	99.167965 
3865.000000	99.170339 
3864.000000	99.174573 
3863.000000	99.176072 
3862.000000	99.173823 
3861.000000	99.170940 
3860.000000	99.170291 
3859.000000	99.172120 
3858.000000	99.174469 
3857.000000	99.175471 
3856.000000	99.174786 
3855.000000	99.175156 
3854.000000	99.180329 
3853.000000	99.188828 
3852.000000	99.194578 
3851.000000	99.195196 
3850.000000	99.193201 
3849.000000	99.191450 
3848.000000	99.190221 
3847.000000	99.187885 
3846.000000	99.183490 
3845.000000	99.177860 
3844.000000	99.172957 
3843.000000	99.171056 
3842.000000	99.172894 
3841.000000	99.176881 
3840.000000	99.180772 
3839.000000	99.183047 
3838.000000	99.183110 
3837.000000	99.181842 
3836.000000	99.180839 
3835.000000	99.181451 
3834.000000	99.184246 
3833.000000	99.189021 
3832.000000	99.194729 
3831.000000	99.199071 
3830.000000	99.199586 
3829.000000	99.195844 
3828.000000	99.190081 
3827.000000	99.185810 
3826.000000	99.184876 
3825.000000	99.185581 
3824.000000	99.184803 
3823.000000	99.182276 
3822.000000	99.181264 
3821.000000	99.184270 
3820.000000	99.188872 
3819.000000	99.191212 
3818.000000	99.191274 
3817.000000	99.192386 
3816.000000	99.196180 
3815.000000	99.199004 
3814.000000	99.196248 
3813.000000	99.189059 
3812.000000	99.183372 
3811.000000	99.183230 
3810.000000	99.187479 
3809.000000	99.192357 
3808.000000	99.195777 
3807.000000	99.197999 
3806.000000	99.198644 
3805.000000	99.195875 
3804.000000	99.189862 
3803.000000	99.184428 
3802.000000	99.183776 
3801.000000	99.187216 
3800.000000	99.189182 
3799.000000	99.186440 
3798.000000	99.181534 
3797.000000	99.178860 
3796.000000	99.179752 
3795.000000	99.181692 
3794.000000	99.181837 
3793.000000	99.179939 
3792.000000	99.177819 
3791.000000	99.176971 
3790.000000	99.177533 
3789.000000	99.178600 
3788.000000	99.178852 
3787.000000	99.177355 
3786.000000	99.174791 
3785.000000	99.173378 
3784.000000	99.174783 
3783.000000	99.178194 
3782.000000	99.181387 
3781.000000	99.183290 
3780.000000	99.184551 
3779.000000	99.185784 
3778.000000	99.186282 
3777.000000	99.185075 
3776.000000	99.182348 
3775.000000	99.179401 
3774.000000	99.177047 
3773.000000	99.174991 
3772.000000	99.173056 
3771.000000	99.172075 
3770.000000	99.172179 
3769.000000	99.171562 
3768.000000	99.169094 
3767.000000	99.166618 
3766.000000	99.166852 
3765.000000	99.169818 
3764.000000	99.172314 
3763.000000	99.171587 
3762.000000	99.168674 
3761.000000	99.166971 
3760.000000	99.167873 
3759.000000	99.169344 
3758.000000	99.169712 
3757.000000	99.170324 
3756.000000	99.172680 
3755.000000	99.176261 
3754.000000	99.179665 
3753.000000	99.182535 
3752.000000	99.185050 
3751.000000	99.186179 
3750.000000	99.185485 
3749.000000	99.184867 
3748.000000	99.185849 
3747.000000	99.188177 
3746.000000	99.191535 
3745.000000	99.195758 
3744.000000	99.197812 
3743.000000	99.193010 
3742.000000	99.181436 
3741.000000	99.168151 
3740.000000	99.157275 
3739.000000	99.148960 
3738.000000	99.142274 
3737.000000	99.138842 
3736.000000	99.140121 
3735.000000	99.143369 
3734.000000	99.144510 
3733.000000	99.144500 
3732.000000	99.147129 
3731.000000	99.152085 
3730.000000	99.155358 
3729.000000	99.154709 
3728.000000	99.152439 
3727.000000	99.152274 
3726.000000	99.154298 
3725.000000	99.155160 
3724.000000	99.153284 
3723.000000	99.151168 
3722.000000	99.151722 
3721.000000	99.155024 
3720.000000	99.158607 
3719.000000	99.159631 
3718.000000	99.157151 
3717.000000	99.152155 
3716.000000	99.145248 
3715.000000	99.136424 
3714.000000	99.126981 
3713.000000	99.120441 
3712.000000	99.119435 
3711.000000	99.122158 
3710.000000	99.123869 
3709.000000	99.120962 
3708.000000	99.113232 
3707.000000	99.103009 
3706.000000	99.092694 
3705.000000	99.083459 
3704.000000	99.075336 
3703.000000	99.067981 
3702.000000	99.060969 
3701.000000	99.053955 
3700.000000	99.046870 
3699.000000	99.039992 
3698.000000	99.033954 
3697.000000	99.029675 
3696.000000	99.027503 
3695.000000	99.027195 
3694.000000	99.028804 
3693.000000	99.032121 
3692.000000	99.034880 
3691.000000	99.033290 
3690.000000	99.026067 
3689.000000	99.016862 
3688.000000	99.010431 
3687.000000	99.007306 
3686.000000	99.005185 
3685.000000	99.003778 
3684.000000	99.004720 
3683.000000	99.008036 
3682.000000	99.010681 
3681.000000	99.009396 
3680.000000	99.003737 
3679.000000	98.995202 
3678.000000	98.985242 
3677.000000	98.976224 
3676.000000	98.971422 
3675.000000	98.969410 
3674.000000	98.964028 
3673.000000	98.952283 
3672.000000	98.937648 
3671.000000	98.927161 
3670.000000	98.924629 
3669.000000	98.926361 
3668.000000	98.927012 
3667.000000	98.925983 
3666.000000	98.924956 
3665.000000	98.923778 
3664.000000	98.920446 
3663.000000	98.913650 
3662.000000	98.904372 
3661.000000	98.894447 
3660.000000	98.884512 
3659.000000	98.874498 
3658.000000	98.865526 
3657.000000	98.859754 
3656.000000	98.857387 
3655.000000	98.855279 
3654.000000	98.850200 
3653.000000	98.841357 
3652.000000	98.829091 
3651.000000	98.813439 
3650.000000	98.795367 
3649.000000	98.779141 
3648.000000	98.769915 
3647.000000	98.768406 
3646.000000	98.771351 
3645.000000	98.776137 
3644.000000	98.782266 
3643.000000	98.789287 
3642.000000	98.795600 
3641.000000	98.799168 
3640.000000	98.799225 
3639.000000	98.796558 
3638.000000	98.791991 
3637.000000	98.785592 
3636.000000	98.777394 
3635.000000	98.768237 
3634.000000	98.758973 
3633.000000	98.749386 
3632.000000	98.739159 
3631.000000	98.729406 
3630.000000	98.722434 
3629.000000	98.718136 
3628.000000	98.712460 
3627.000000	98.703722 
3626.000000	98.695719 
3625.000000	98.692061 
3624.000000	98.691965 
3623.000000	98.692046 
3622.000000	98.690507 
3621.000000	98.689687 
3620.000000	98.693195 
3619.000000	98.700687 
3618.000000	98.708292 
3617.000000	98.714202 
3616.000000	98.720026 
3615.000000	98.727837 
3614.000000	98.737106 
3613.000000	98.744984 
3612.000000	98.749903 
3611.000000	98.753918 
3610.000000	98.760197 
3609.000000	98.768657 
3608.000000	98.775510 
3607.000000	98.778080 
3606.000000	98.778630 
3605.000000	98.781467 
3604.000000	98.788108 
3603.000000	98.796771 
3602.000000	98.805114 
3601.000000	98.812635 
3600.000000	98.819303 
3599.000000	98.823595 
3598.000000	98.823947 
3597.000000	98.821114 
3596.000000	98.817989 
3595.000000	98.817883 
3594.000000	98.821789 
3593.000000	98.827616 
3592.000000	98.832216 
3591.000000	98.833009 
3590.000000	98.829439 
3589.000000	98.823675 
3588.000000	98.819493 
3587.000000	98.818232 
3586.000000	98.818382 
3585.000000	98.819413 
3584.000000	98.822926 
3583.000000	98.829436 
3582.000000	98.836610 
3581.000000	98.841079 
3580.000000	98.841422 
3579.000000	98.838653 
3578.000000	98.834097 
3577.000000	98.828328 
3576.000000	98.822297 
3575.000000	98.818134 
3574.000000	98.817591 
3573.000000	98.819541 
3572.000000	98.820643 
3571.000000	98.818167 
3570.000000	98.811510 
3569.000000	98.802303 
3568.000000	98.793948 
3567.000000	98.789428 
3566.000000	98.789143 
3565.000000	98.791826 
3564.000000	98.796613 
3563.000000	98.803014 
3562.000000	98.809838 
3561.000000	98.814840 
3560.000000	98.816083 
3559.000000	98.813414 
3558.000000	98.808744 
3557.000000	98.804710 
3556.000000	98.803136 
3555.000000	98.804154 
3554.000000	98.806365 
3553.000000	98.807331 
3552.000000	98.804762 
3551.000000	98.798352 
3550.000000	98.790105 
3549.000000	98.782631 
3548.000000	98.777540 
3547.000000	98.774826 
3546.000000	98.773463 
3545.000000	98.772041 
3544.000000	98.769842 
3543.000000	98.767949 
3542.000000	98.769085 
3541.000000	98.775142 
3540.000000	98.784708 
3539.000000	98.793103 
3538.000000	98.795784 
3537.000000	98.792118 
3536.000000	98.785746 
3535.000000	98.781131 
3534.000000	98.779670 
3533.000000	98.779615 
3532.000000	98.778910 
3531.000000	98.777371 
3530.000000	98.775838 
3529.000000	98.774040 
3528.000000	98.770655 
3527.000000	98.765608 
3526.000000	98.761076 
3525.000000	98.759433 
3524.000000	98.760739 
3523.000000	98.762813 
3522.000000	98.763728 
3521.000000	98.763368 
3520.000000	98.762960 
3519.000000	98.763869 
3518.000000	98.766891 
3517.000000	98.771712 
3516.000000	98.776487 
3515.000000	98.778565 
3514.000000	98.776004 
3513.000000	98.768851 
3512.000000	98.759316 
3511.000000	98.750881 
3510.000000	98.746429 
3509.000000	98.746429 
3508.000000	98.748833 
3507.000000	98.751086 
3506.000000	98.752192 
3505.000000	98.752425 
3504.000000	98.751798 
3503.000000	98.750022 
3502.000000	98.748301 
3501.000000	98.749461 
3500.000000	98.754710 
3499.000000	98.760971 
3498.000000	98.762934 
3497.000000	98.758331 
3496.000000	98.750327 
3495.000000	98.744088 
3494.000000	98.741846 
3493.000000	98.741920 
3492.000000	98.741913 
3491.000000	98.741424 
3490.000000	98.741654 
3489.000000	98.743191 
3488.000000	98.744800 
3487.000000	98.744232 
3486.000000	98.740276 
3485.000000	98.734141 
3484.000000	98.728684 
3483.000000	98.726132 
3482.000000	98.726349 
3481.000000	98.727525 
3480.000000	98.728318 
3479.000000	98.728677 
3478.000000	98.728652 
3477.000000	98.727614 
3476.000000	98.725405 
3475.000000	98.723567 
3474.000000	98.724130 
3473.000000	98.726928 
3472.000000	98.729190 
3471.000000	98.728547 
3470.000000	98.725868 
3469.000000	98.724215 
3468.000000	98.725193 
3467.000000	98.727055 
3466.000000	98.726793 
3465.000000	98.723419 
3464.000000	98.718645 
3463.000000	98.714768 
3462.000000	98.712637 
3461.000000	98.711872 
3460.000000	98.712190 
3459.000000	98.713648 
3458.000000	98.715613 
3457.000000	98.716225 
3456.000000	98.713650 
3455.000000	98.707976 
3454.000000	98.701390 
3453.000000	98.696363 
3452.000000	98.693589 
3451.000000	98.691815 
3450.000000	98.689474 
3449.000000	98.686260 
3448.000000	98.683037 
3447.000000	98.680460 
3446.000000	98.678080 
3445.000000	98.675165 
3444.000000	98.672070 
3443.000000	98.670154 
3442.000000	98.670190 
3441.000000	98.671171 
3440.000000	98.671179 
3439.000000	98.669229 
3438.000000	98.665814 
3437.000000	98.661842 
3436.000000	98.657852 
3435.000000	98.654492 
3434.000000	98.652812 
3433.000000	98.653404 
3432.000000	98.655255 
3431.000000	98.656336 
3430.000000	98.655572 
3429.000000	98.653918 
3428.000000	98.653194 
3427.000000	98.653840 
3426.000000	98.654096 
3425.000000	98.651529 
3424.000000	98.645416 
3423.000000	98.637565 
3422.000000	98.630768 
3421.000000	98.626683 
3420.000000	98.625499 
3419.000000	98.627111 
3418.000000	98.631470 
3417.000000	98.637421 
3416.000000	98.642202 
3415.000000	98.643117 
3414.000000	98.639860 
3413.000000	98.634804 
3412.000000	98.630982 
3411.000000	98.629948 
3410.000000	98.631079 
3409.000000	98.632217 
3408.000000	98.630981 
3407.000000	98.626325 
3406.000000	98.619524 
3405.000000	98.613570 
3404.000000	98.611118 
3403.000000	98.612627 
3402.000000	98.616217 
3401.000000	98.619416 
3400.000000	98.621186 
3399.000000	98.622450 
3398.000000	98.624690 
3397.000000	98.627952 
3396.000000	98.630273 
3395.000000	98.629145 
3394.000000	98.623614 
3393.000000	98.615155 
3392.000000	98.606814 
3391.000000	98.601412 
3390.000000	98.600278 
3389.000000	98.603133 
3388.000000	98.608715 
3387.000000	98.615387 
3386.000000	98.621557 
3385.000000	98.626132 
3384.000000	98.628818 
3383.000000	98.629806 
3382.000000	98.628979 
3381.000000	98.625921 
3380.000000	98.621082 
3379.000000	98.616584 
3378.000000	98.614874 
3377.000000	98.616286 
3376.000000	98.618623 
3375.000000	98.619566 
3374.000000	98.619004 
3373.000000	98.618570 
3372.000000	98.619362 
3371.000000	98.620812 
3370.000000	98.621541 
3369.000000	98.620588 
3368.000000	98.617908 
3367.000000	98.614453 
3366.000000	98.611955 
3365.000000	98.611826 
3364.000000	98.613878 
3363.000000	98.616539 
3362.000000	98.618634 
3361.000000	98.620320 
3360.000000	98.621868 
3359.000000	98.622330 
3358.000000	98.620549 
3357.000000	98.617386 
3356.000000	98.615698 
3355.000000	98.617338 
3354.000000	98.620739 
3353.000000	98.622288 
3352.000000	98.619978 
3351.000000	98.615312 
3350.000000	98.611747 
3349.000000	98.611695 
3348.000000	98.614978 
3347.000000	98.619387 
3346.000000	98.622285 
3345.000000	98.622232 
3344.000000	98.619882 
3343.000000	98.617539 
3342.000000	98.617199 
3341.000000	98.618673 
3340.000000	98.619787 
3339.000000	98.618725 
3338.000000	98.616006 
3337.000000	98.613834 
3336.000000	98.613695 
3335.000000	98.615101 
3334.000000	98.616835 
3333.000000	98.618811 
3332.000000	98.622055 
3331.000000	98.626866 
3330.000000	98.631567 
3329.000000	98.633574 
3328.000000	98.631869 
3327.000000	98.628156 
3326.000000	98.625272 
3325.000000	98.624335 
3324.000000	98.623681 
3323.000000	98.621021 
3322.000000	98.616520 
3321.000000	98.613191 
3320.000000	98.614009 
3319.000000	98.619025 
3318.000000	98.625587 
3317.000000	98.630843 
3316.000000	98.633388 
3315.000000	98.633165 
3314.000000	98.631203 
3313.000000	98.629712 
3312.000000	98.630993 
3311.000000	98.635126 
3310.000000	98.639240 
3309.000000	98.640074 
3308.000000	98.637171 
3307.000000	98.633001 
3306.000000	98.630404 
3305.000000	98.630749 
3304.000000	98.634085 
3303.000000	98.639481 
3302.000000	98.644671 
3301.000000	98.646572 
3300.000000	98.643479 
3299.000000	98.636925 
3298.000000	98.630874 
3297.000000	98.628715 
3296.000000	98.630681 
3295.000000	98.633838 
3294.000000	98.634737 
3293.000000	98.632601 
3292.000000	98.630047 
3291.000000	98.630220 
3290.000000	98.633177 
3289.000000	98.635853 
3288.000000	98.635681 
3287.000000	98.633363 
3286.000000	98.631561 
3285.000000	98.631664 
3284.000000	98.632826 
3283.000000	98.633856 
3282.000000	98.634973 
3281.000000	98.637357 
3280.000000	98.641495 
3279.000000	98.646367 
3278.000000	98.650073 
3277.000000	98.651195 
3276.000000	98.649690 
3275.000000	98.646608 
3274.000000	98.643131 
3273.000000	98.640090 
3272.000000	98.638237 
3271.000000	98.638328 
3270.000000	98.640574 
3269.000000	98.644322 
3268.000000	98.648514 
3267.000000	98.652170 
3266.000000	98.654333 
3265.000000	98.654319 
3264.000000	98.652639 
3263.000000	98.651289 
3262.000000	98.652400 
3261.000000	98.656472 
3260.000000	98.662185 
3259.000000	98.667624 
3258.000000	98.671459 
3257.000000	98.673485 
3256.000000	98.674660 
3255.000000	98.676400 
3254.000000	98.679261 
3253.000000	98.682518 
3252.000000	98.685325 
3251.000000	98.687843 
3250.000000	98.690561 
3249.000000	98.693027 
3248.000000	98.694143 
3247.000000	98.693565 
3246.000000	98.692018 
3245.000000	98.690323 
3244.000000	98.688915 
3243.000000	98.688211 
3242.000000	98.688464 
3241.000000	98.689062 
3240.000000	98.689075 
3239.000000	98.689091 
3238.000000	98.691770 
3237.000000	98.699632 
3236.000000	98.712125 
3235.000000	98.725155 
3234.000000	98.733665 
3233.000000	98.735146 
3232.000000	98.731295 
3231.000000	98.726520 
3230.000000	98.724469 
3229.000000	98.725627 
3228.000000	98.727915 
3227.000000	98.729028 
3226.000000	98.727849 
3225.000000	98.724385 
3224.000000	98.719579 
3223.000000	98.715336 
3222.000000	98.713627 
3221.000000	98.714818 
3220.000000	98.717256 
3219.000000	98.719011 
3218.000000	98.719882 
3217.000000	98.721466 
3216.000000	98.725533 
3215.000000	98.732399 
3214.000000	98.740457 
3213.000000	98.746950 
3212.000000	98.749510 
3211.000000	98.747535 
3210.000000	98.742522 
3209.000000	98.737227 
3208.000000	98.734180 
3207.000000	98.734260 
3206.000000	98.736240 
3205.000000	98.737992 
3204.000000	98.738591 
3203.000000	98.739015 
3202.000000	98.740523 
3201.000000	98.742932 
3200.000000	98.745253 
3199.000000	98.747443 
3198.000000	98.750345 
3197.000000	98.754034 
3196.000000	98.757563 
3195.000000	98.760570 
3194.000000	98.763808 
3193.000000	98.767388 
3192.000000	98.769561 
3191.000000	98.768277 
3190.000000	98.763549 
3189.000000	98.757570 
3188.000000	98.752923 
3187.000000	98.751324 
3186.000000	98.753504 
3185.000000	98.759040 
3184.000000	98.766022 
3183.000000	98.771707 
3182.000000	98.774327 
3181.000000	98.774540 
3180.000000	98.775008 
3179.000000	98.778158 
3178.000000	98.783872 
3177.000000	98.789393 
3176.000000	98.791975 
3175.000000	98.791659 
3174.000000	98.790935 
3173.000000	98.791639 
3172.000000	98.792941 
3171.000000	98.792847 
3170.000000	98.791016 
3169.000000	98.789185 
3168.000000	98.789018 
3167.000000	98.790430 
3166.000000	98.792269 
3165.000000	98.793943 
3164.000000	98.795855 
3163.000000	98.798424 
3162.000000	98.801249 
3161.000000	98.803521 
3160.000000	98.805000 
3159.000000	98.806084 
3158.000000	98.806805 
3157.000000	98.806332 
3156.000000	98.804075 
3155.000000	98.800929 
3154.000000	98.798549 
3153.000000	98.797327 
3152.000000	98.796028 
3151.000000	98.793860 
3150.000000	98.792083 
3149.000000	98.792730 
3148.000000	98.796184 
3147.000000	98.800849 
3146.000000	98.805045 
3145.000000	98.808424 
3144.000000	98.811453 
3143.000000	98.814297 
3142.000000	98.816638 
3141.000000	98.818161 
3140.000000	98.818741 
3139.000000	98.818335 
3138.000000	98.817087 
3137.000000	98.815616 
3136.000000	98.815017 
3135.000000	98.816373 
3134.000000	98.820002 
3133.000000	98.824872 
3132.000000	98.828708 
3131.000000	98.829185 
3130.000000	98.825738 
3129.000000	98.820636 
3128.000000	98.817994 
3127.000000	98.820977 
3126.000000	98.829252 
3125.000000	98.838983 
3124.000000	98.845517 
3123.000000	98.846506 
3122.000000	98.843022 
3121.000000	98.838209 
3120.000000	98.835000 
3119.000000	98.834650 
3118.000000	98.836627 
3117.000000	98.839478 
3116.000000	98.841964 
3115.000000	98.843705 
3114.000000	98.844957 
3113.000000	98.845942 
3112.000000	98.846523 
3111.000000	98.846518 
3110.000000	98.846195 
3109.000000	98.846306 
3108.000000	98.847447 
3107.000000	98.849177 
3106.000000	98.849909 
3105.000000	98.848258 
3104.000000	98.844887 
3103.000000	98.842596 
3102.000000	98.843962 
3101.000000	98.848819 
3100.000000	98.854542 
3099.000000	98.858743 
3098.000000	98.861057 
3097.000000	98.862350 
3096.000000	98.863191 
3095.000000	98.863643 
3094.000000	98.863770 
3093.000000	98.863455 
3092.000000	98.862060 
3091.000000	98.859348 
3090.000000	98.856777 
3089.000000	98.856789 
3088.000000	98.860149 
3087.000000	98.864620 
3086.000000	98.867121 
3085.000000	98.866886 
3084.000000	98.865606 
3083.000000	98.864565 
3082.000000	98.862933 
3081.000000	98.859556 
3080.000000	98.855605 
3079.000000	98.854231 
3078.000000	98.857553 
3077.000000	98.864613 
3076.000000	98.872275 
3075.000000	98.877504 
3074.000000	98.878869 
3073.000000	98.876877 
3072.000000	98.873390 
3071.000000	98.870210 
3070.000000	98.867705 
3069.000000	98.864984 
3068.000000	98.861643 
3067.000000	98.859006 
3066.000000	98.859308 
3065.000000	98.863781 
3064.000000	98.871414 
3063.000000	98.879076 
3062.000000	98.882901 
3061.000000	98.880636 
3060.000000	98.873602 
3059.000000	98.866044 
3058.000000	98.861935 
3057.000000	98.862462 
3056.000000	98.866530 
3055.000000	98.872707 
3054.000000	98.879616 
3053.000000	98.885063 
3052.000000	98.886396 
3051.000000	98.882579 
3050.000000	98.875655 
3049.000000	98.869785 
3048.000000	98.868466 
3047.000000	98.872006 
3046.000000	98.877225 
3045.000000	98.879982 
3044.000000	98.878791 
3043.000000	98.875996 
3042.000000	98.875114 
3041.000000	98.877274 
3040.000000	98.880672 
3039.000000	98.882938 
3038.000000	98.883023 
3037.000000	98.880983 
3036.000000	98.877046 
3035.000000	98.871447 
3034.000000	98.864581 
3033.000000	98.856884 
3032.000000	98.848856 
3031.000000	98.841397 
3030.000000	98.835798 
3029.000000	98.833120 
3028.000000	98.833626 
3027.000000	98.836575 
3026.000000	98.840145 
3025.000000	98.841713 
3024.000000	98.839144 
3023.000000	98.832414 
3022.000000	98.823684 
3021.000000	98.815180 
3020.000000	98.806973 
3019.000000	98.797271 
3018.000000	98.785174 
3017.000000	98.772678 
3016.000000	98.763162 
3015.000000	98.757667 
3014.000000	98.753568 
3013.000000	98.747722 
3012.000000	98.740288 
3011.000000	98.734023 
3010.000000	98.729984 
3009.000000	98.725737 
3008.000000	98.718604 
3007.000000	98.709158 
3006.000000	98.700107 
3005.000000	98.692599 
3004.000000	98.685334 
3003.000000	98.677136 
3002.000000	98.668757 
3001.000000	98.661690 
3000.000000	98.656226 
2999.000000	98.651438 
2998.000000	98.646641 
2997.000000	98.642318 
2996.000000	98.639445 
2995.000000	98.637736 
2994.000000	98.634530 
2993.000000	98.626169 
2992.000000	98.611238 
2991.000000	98.592359 
2990.000000	98.574448 
2989.000000	98.561554 
2988.000000	98.555547 
2987.000000	98.556601 
2986.000000	98.563268 
2985.000000	98.572188 
2984.000000	98.579249 
2983.000000	98.581935 
2982.000000	98.580307 
2981.000000	98.575987 
2980.000000	98.570951 
2979.000000	98.567045 
2978.000000	98.565191 
2977.000000	98.564333 
2976.000000	98.561882 
2975.000000	98.555949 
2974.000000	98.547059 
2973.000000	98.537637 
2972.000000	98.530229 
2971.000000	98.526120 
2970.000000	98.524825 
2969.000000	98.524460 
2968.000000	98.523147 
2967.000000	98.520585 
2966.000000	98.518128 
2965.000000	98.517177 
2964.000000	98.517794 
2963.000000	98.518900 
2962.000000	98.519363 
2961.000000	98.518756 
2960.000000	98.517441 
2959.000000	98.516256 
2958.000000	98.515934 
2957.000000	98.516701 
2956.000000	98.518519 
2955.000000	98.521621 
2954.000000	98.526493 
2953.000000	98.533311 
2952.000000	98.541551 
2951.000000	98.550034 
2950.000000	98.557153 
2949.000000	98.561313 
2948.000000	98.561631 
2947.000000	98.558360 
2946.000000	98.552746 
2945.000000	98.546625 
2944.000000	98.541749 
2943.000000	98.538288 
2942.000000	98.533536 
2941.000000	98.523332 
2940.000000	98.506107 
2939.000000	98.485280 
2938.000000	98.466513 
2937.000000	98.452720 
2936.000000	98.442460 
2935.000000	98.432632 
2934.000000	98.421241 
2933.000000	98.407440 
2932.000000	98.390592 
2931.000000	98.370459 
2930.000000	98.348088 
2929.000000	98.325897 
2928.000000	98.306502 
2927.000000	98.290887 
2926.000000	98.277479 
2925.000000	98.263816 
2924.000000	98.249972 
2923.000000	98.239613 
2922.000000	98.236593 
2921.000000	98.240948 
2920.000000	98.249534 
2919.000000	98.260043 
2918.000000	98.272809 
2917.000000	98.288678 
2916.000000	98.306933 
2915.000000	98.325960 
2914.000000	98.344872 
2913.000000	98.363819 
2912.000000	98.383392 
2911.000000	98.403993 
2910.000000	98.424964 
2909.000000	98.444165 
2908.000000	98.459264 
2907.000000	98.469851 
2906.000000	98.477463 
2905.000000	98.483283 
2904.000000	98.486747 
2903.000000	98.487121 
2902.000000	98.485949 
2901.000000	98.487723 
2900.000000	98.496797 
2899.000000	98.514161 
2898.000000	98.535535 
2897.000000	98.553603 
2896.000000	98.563547 
2895.000000	98.566886 
2894.000000	98.569283 
2893.000000	98.574677 
2892.000000	98.582656 
2891.000000	98.590977 
2890.000000	98.598606 
2889.000000	98.605484 
2888.000000	98.611166 
2887.000000	98.615330 
2886.000000	98.618885 
2885.000000	98.623204 
2884.000000	98.628556 
2883.000000	98.634300 
2882.000000	98.640319 
2881.000000	98.647252 
2880.000000	98.655293 
2879.000000	98.663534 
2878.000000	98.670697 
2877.000000	98.676094 
2876.000000	98.679832 
2875.000000	98.682447 
2874.000000	98.684476 
2873.000000	98.686243 
2872.000000	98.687893 
2871.000000	98.689388 
2870.000000	98.690390 
2869.000000	98.690585 
2868.000000	98.690572 
2867.000000	98.691923 
2866.000000	98.695347 
2865.000000	98.698849 
2864.000000	98.698793 
2863.000000	98.693145 
2862.000000	98.682914 
2861.000000	98.670388 
2860.000000	98.657123 
2859.000000	98.644070 
2858.000000	98.632159 
2857.000000	98.621584 
2856.000000	98.611367 
2855.000000	98.600970 
2854.000000	98.592160 
2853.000000	98.588304 
2852.000000	98.591895 
2851.000000	98.603251 
2850.000000	98.621348 
2849.000000	98.644946 
2848.000000	98.672792 
2847.000000	98.703247 
2846.000000	98.734052 
2845.000000	98.762430 
2844.000000	98.785859 
2843.000000	98.803391 
2842.000000	98.816433 
2841.000000	98.827792 
2840.000000	98.839521 
2839.000000	98.851571 
2838.000000	98.862577 
2837.000000	98.871869 
2836.000000	98.880355 
2835.000000	98.889175 
2834.000000	98.897809 
2833.000000	98.904349 
2832.000000	98.907867 
2831.000000	98.909630 
2830.000000	98.911266 
2829.000000	98.912540 
2828.000000	98.912245 
2827.000000	98.911038 
2826.000000	98.911827 
2825.000000	98.916685 
2824.000000	98.924389 
2823.000000	98.931693 
2822.000000	98.936397 
2821.000000	98.938598 
2820.000000	98.939621 
2819.000000	98.940711 
2818.000000	98.942546 
2817.000000	98.945157 
2816.000000	98.947951 
2815.000000	98.950046 
2814.000000	98.950763 
2813.000000	98.949975 
2812.000000	98.948347 
2811.000000	98.947350 
2810.000000	98.948557 
2809.000000	98.952424 
2808.000000	98.957726 
2807.000000	98.962379 
2806.000000	98.964843 
2805.000000	98.964927 
2804.000000	98.963722 
2803.000000	98.962917 
2802.000000	98.963776 
2801.000000	98.966297 
2800.000000	98.969315 
2799.000000	98.971488 
2798.000000	98.972117 
2797.000000	98.971119 
2796.000000	98.968768 
2795.000000	98.965842 
2794.000000	98.963771 
2793.000000	98.963922 
2792.000000	98.966311 
2791.000000	98.969228 
2790.000000	98.970735 
2789.000000	98.970830 
2788.000000	98.971707 
2787.000000	98.975220 
2786.000000	98.980219 
2785.000000	98.983207 
2784.000000	98.982008 
2783.000000	98.978088 
2782.000000	98.974872 
2781.000000	98.974360 
2780.000000	98.976059 
2779.000000	98.978567 
2778.000000	98.981142 
2777.000000	98.983808 
2776.000000	98.986797 
2775.000000	98.990111 
2774.000000	98.993241 
2773.000000	98.995502 
2772.000000	98.997047 
2771.000000	98.999067 
2770.000000	99.002122 
2769.000000	99.004653 
2768.000000	99.004450 
2767.000000	99.001672 
2766.000000	98.999102 
2765.000000	98.998751 
2764.000000	98.999295 
2763.000000	98.997778 
2762.000000	98.993320 
2761.000000	98.988070 
2760.000000	98.984752 
2759.000000	98.984263 
2758.000000	98.985888 
2757.000000	98.988900 
2756.000000	98.992960 
2755.000000	98.997069 
2754.000000	98.999238 
2753.000000	98.998152 
2752.000000	98.995043 
2751.000000	98.993024 
2750.000000	98.994131 
2749.000000	98.997489 
2748.000000	99.000701 
2747.000000	99.002455 
2746.000000	99.003207 
2745.000000	99.003752 
2744.000000	99.004033 
2743.000000	99.003447 
2742.000000	99.001810 
2741.000000	98.999780 
2740.000000	98.998432 
2739.000000	98.998319 
2738.000000	98.998983 
2737.000000	98.999767 
2736.000000	99.001080 
2735.000000	99.003985 
2734.000000	99.008136 
2733.000000	99.011057 
2732.000000	99.010466 
2731.000000	99.006886 
2730.000000	99.003064 
2729.000000	99.001135 
2728.000000	99.001090 
2727.000000	99.001653 
2726.000000	99.001609 
2725.000000	99.000519 
2724.000000	98.999219 
2723.000000	98.999650 
2722.000000	99.003266 
2721.000000	99.009319 
2720.000000	99.015292 
2719.000000	99.019042 
2718.000000	99.020058 
2717.000000	99.019009 
2716.000000	99.017074 
2715.000000	99.015645 
2714.000000	99.015641 
2713.000000	99.016725 
2712.000000	99.017786 
2711.000000	99.018370 
2710.000000	99.019079 
2709.000000	99.020472 
2708.000000	99.022142 
2707.000000	99.022971 
2706.000000	99.021972 
2705.000000	99.019136 
2704.000000	99.016014 
2703.000000	99.015056 
2702.000000	99.017435 
2701.000000	99.021572 
2700.000000	99.024731 
2699.000000	99.026090 
2698.000000	99.027333 
2697.000000	99.030019 
2696.000000	99.033295 
2695.000000	99.034688 
2694.000000	99.032797 
2693.000000	99.028880 
2692.000000	99.025930 
2691.000000	99.025998 
2690.000000	99.028104 
2689.000000	99.029101 
2688.000000	99.027128 
2687.000000	99.023746 
2686.000000	99.022144 
2685.000000	99.023709 
2684.000000	99.027182 
2683.000000	99.030547 
2682.000000	99.032481 
2681.000000	99.032226 
2680.000000	99.029607 
2679.000000	99.025652 
2678.000000	99.022324 
2677.000000	99.021259 
2676.000000	99.023107 
2675.000000	99.027647 
2674.000000	99.033545 
2673.000000	99.038265 
2672.000000	99.039606 
2671.000000	99.037600 
2670.000000	99.034072 
2669.000000	99.030426 
2668.000000	99.027010 
2667.000000	99.024460 
2666.000000	99.023956 
2665.000000	99.025479 
2664.000000	99.027152 
2663.000000	99.027259 
2662.000000	99.026264 
2661.000000	99.026119 
2660.000000	99.027979 
2659.000000	99.031136 
2658.000000	99.033856 
2657.000000	99.035048 
2656.000000	99.035283 
2655.000000	99.036005 
2654.000000	99.037487 
2653.000000	99.038255 
2652.000000	99.037466 
2651.000000	99.036979 
2650.000000	99.039245 
2649.000000	99.043352 
2648.000000	99.045403 
2647.000000	99.043522 
2646.000000	99.040690 
2645.000000	99.041302 
2644.000000	99.045933 
2643.000000	99.050694 
2642.000000	99.051225 
2641.000000	99.046730 
2640.000000	99.040633 
2639.000000	99.037631 
2638.000000	99.039449 
2637.000000	99.043258 
2636.000000	99.044938 
2635.000000	99.043640 
2634.000000	99.041933 
2633.000000	99.041886 
2632.000000	99.043106 
2631.000000	99.044937 
2630.000000	99.048047 
2629.000000	99.052457 
2628.000000	99.055958 
2627.000000	99.056453 
2626.000000	99.054829 
2625.000000	99.053822 
2624.000000	99.054754 
2623.000000	99.056684 
2622.000000	99.058027 
2621.000000	99.057694 
2620.000000	99.055273 
2619.000000	99.051467 
2618.000000	99.048079 
2617.000000	99.046551 
2616.000000	99.046824 
2615.000000	99.048295 
2614.000000	99.051145 
2613.000000	99.055685 
2612.000000	99.060859 
2611.000000	99.064505 
2610.000000	99.065064 
2609.000000	99.062622 
2608.000000	99.058687 
2607.000000	99.055370 
2606.000000	99.054226 
2605.000000	99.055344 
2604.000000	99.057883 
2603.000000	99.061493 
2602.000000	99.066397 
2601.000000	99.071969 
2600.000000	99.076430 
2599.000000	99.078411 
2598.000000	99.077778 
2597.000000	99.074634 
2596.000000	99.068903 
2595.000000	99.061599 
2594.000000	99.055198 
2593.000000	99.051680 
2592.000000	99.050987 
2591.000000	99.052081 
2590.000000	99.054464 
2589.000000	99.057848 
2588.000000	99.061288 
2587.000000	99.063681 
2586.000000	99.064643 
2585.000000	99.064436 
2584.000000	99.063645 
2583.000000	99.063096 
2582.000000	99.063127 
2581.000000	99.062858 
2580.000000	99.061360 
2579.000000	99.059555 
2578.000000	99.059261 
2577.000000	99.060066 
2576.000000	99.059216 
2575.000000	99.055469 
2574.000000	99.051196 
2573.000000	99.049434 
2572.000000	99.050428 
2571.000000	99.052361 
2570.000000	99.053968 
2569.000000	99.054899 
2568.000000	99.054694 
2567.000000	99.053075 
2566.000000	99.050720 
2565.000000	99.048787 
2564.000000	99.048265 
2563.000000	99.050238 
2562.000000	99.055381 
2561.000000	99.062181 
2560.000000	99.066886 
2559.000000	99.066488 
2558.000000	99.061257 
2557.000000	99.054112 
2556.000000	99.048790 
2555.000000	99.048712 
2554.000000	99.055098 
2553.000000	99.064640 
2552.000000	99.070927 
2551.000000	99.070260 
2550.000000	99.065142 
2549.000000	99.060713 
2548.000000	99.059020 
2547.000000	99.058332 
2546.000000	99.056839 
2545.000000	99.054983 
2544.000000	99.054440 
2543.000000	99.056109 
2542.000000	99.058779 
2541.000000	99.059252 
2540.000000	99.054906 
2539.000000	99.046918 
2538.000000	99.039636 
2537.000000	99.035868 
2536.000000	99.034414 
2535.000000	99.033232 
2534.000000	99.032732 
2533.000000	99.033871 
2532.000000	99.035102 
2531.000000	99.034382 
2530.000000	99.033219 
2529.000000	99.035317 
2528.000000	99.040928 
2527.000000	99.045388 
2526.000000	99.044443 
2525.000000	99.039270 
2524.000000	99.035077 
2523.000000	99.035743 
2522.000000	99.040727 
2521.000000	99.046443 
2520.000000	99.049497 
2519.000000	99.048596 
2518.000000	99.044337 
2517.000000	99.038349 
2516.000000	99.032868 
2515.000000	99.030051 
2514.000000	99.030486 
2513.000000	99.032748 
2512.000000	99.035444 
2511.000000	99.039088 
2510.000000	99.044459 
2509.000000	99.049841 
2508.000000	99.052373 
2507.000000	99.052184 
2506.000000	99.052466 
2505.000000	99.054569 
2504.000000	99.055608 
2503.000000	99.052420 
2502.000000	99.045836 
2501.000000	99.039447 
2500.000000	99.035974 
2499.000000	99.036399 
2498.000000	99.040710 
2497.000000	99.047187 
2496.000000	99.052246 
2495.000000	99.053210 
2494.000000	99.050895 
2493.000000	99.048267 
2492.000000	99.047447 
2491.000000	99.049023 
2490.000000	99.052928 
2489.000000	99.058568 
2488.000000	99.065137 
2487.000000	99.072652 
2486.000000	99.080921 
2485.000000	99.086606 
2484.000000	99.084252 
2483.000000	99.072767 
2482.000000	99.058719 
2481.000000	99.050152 
2480.000000	99.048459 
2479.000000	99.049155 
2478.000000	99.048955 
2477.000000	99.048363 
2476.000000	99.048207 
2475.000000	99.048005 
2474.000000	99.048316 
2473.000000	99.050967 
2472.000000	99.055596 
2471.000000	99.058806 
2470.000000	99.058257 
2469.000000	99.055449 
2468.000000	99.053099 
2467.000000	99.051751 
2466.000000	99.050471 
2465.000000	99.049191 
2464.000000	99.048587 
2463.000000	99.048571 
2462.000000	99.048338 
2461.000000	99.047350 
2460.000000	99.045470 
2459.000000	99.042893 
2458.000000	99.040701 
2457.000000	99.040488 
2456.000000	99.042387 
2455.000000	99.044342 
2454.000000	99.044513 
2453.000000	99.043726 
2452.000000	99.044077 
2451.000000	99.045408 
2450.000000	99.044898 
2449.000000	99.040754 
2448.000000	99.035156 
2447.000000	99.032526 
2446.000000	99.035243 
2445.000000	99.041696 
2444.000000	99.048106 
2443.000000	99.051387 
2442.000000	99.050521 
2441.000000	99.046678 
2440.000000	99.042796 
2439.000000	99.042010 
2438.000000	99.045079 
2437.000000	99.049426 
2436.000000	99.051580 
2435.000000	99.050576 
2434.000000	99.048362 
2433.000000	99.047332 
2432.000000	99.048447 
2431.000000	99.051418 
2430.000000	99.055128 
2429.000000	99.057470 
2428.000000	99.056228 
2427.000000	99.051160 
2426.000000	99.044721 
2425.000000	99.040192 
2424.000000	99.039427 
2423.000000	99.042401 
2422.000000	99.047879 
2421.000000	99.053747 
2420.000000	99.057312 
2419.000000	99.056342 
2418.000000	99.050394 
2417.000000	99.041463 
2416.000000	99.033331 
2415.000000	99.029389 
2414.000000	99.030070 
2413.000000	99.032528 
2412.000000	99.033641 
2411.000000	99.033047 
2410.000000	99.032519 
2409.000000	99.032964 
2408.000000	99.033442 
2407.000000	99.032977 
2406.000000	99.031932 
2405.000000	99.031416 
2404.000000	99.032371 
2403.000000	99.035098 
2402.000000	99.038546 
2401.000000	99.040260 
2400.000000	99.038398 
2399.000000	99.033765 
2398.000000	99.028819 
2397.000000	99.025157 
2396.000000	99.023237 
2395.000000	99.023624 
2394.000000	99.026250 
2393.000000	99.028821 
2392.000000	99.028491 
2391.000000	99.025335 
2390.000000	99.022092 
2389.000000	99.020616 
2388.000000	99.021063 
2387.000000	99.024295 
2386.000000	99.031463 
2385.000000	99.040269 
2384.000000	99.045193 
2383.000000	99.043593 
2382.000000	99.038941 
2381.000000	99.035900 
2380.000000	99.034658 
2379.000000	99.032773 
2378.000000	99.030422 
2377.000000	99.030362 
2376.000000	99.033535 
2375.000000	99.037647 
2374.000000	99.039621 
2373.000000	99.037492 
2372.000000	99.030940 
2371.000000	99.022386 
2370.000000	99.016401 
2369.000000	99.015679 
2368.000000	99.018514 
2367.000000	99.021929 
2366.000000	99.025754 
2365.000000	99.031803 
2364.000000	99.039989 
2363.000000	99.047658 
2362.000000	99.052170 
2361.000000	99.052383 
2360.000000	99.049433 
2359.000000	99.045363 
2358.000000	99.041032 
2357.000000	99.036960 
2356.000000	99.035630 
2355.000000	99.039922 
2354.000000	99.046349 
2353.000000	99.049489 
2352.000000	99.048225 
2351.000000	99.046000 
2350.000000	99.046118 
2349.000000	99.047990 
2348.000000	99.049652 
2347.000000	99.049725 
2346.000000	99.050378 
2345.000000	99.054975 
2344.000000	99.062630 
2343.000000	99.069814 
2342.000000	99.072339 
2341.000000	99.069784 
2340.000000	99.065158 
2339.000000	99.063836 
2338.000000	99.067593 
2337.000000	99.071852 
2336.000000	99.070827 
2335.000000	99.063124 
2334.000000	99.053482 
2333.000000	99.048169 
2332.000000	99.050278 
2331.000000	99.054763 
2330.000000	99.055984 
2329.000000	99.053256 
2328.000000	99.054329 
2327.000000	99.063196 
2326.000000	99.077210 
2325.000000	99.088940 
2324.000000	99.094120 
2323.000000	99.094206 
2322.000000	99.093704 
2321.000000	99.095318 
2320.000000	99.096443 
2319.000000	99.092169 
2318.000000	99.082412 
2317.000000	99.072352 
2316.000000	99.067638 
2315.000000	99.067450 
2314.000000	99.068606 
2313.000000	99.069092 
2312.000000	99.070823 
2311.000000	99.073658 
2310.000000	99.075783 
2309.000000	99.074942 
2308.000000	99.072249 
2307.000000	99.069305 
2306.000000	99.067313 
2305.000000	99.066152 
2304.000000	99.066265 
2303.000000	99.067608 
2302.000000	99.069883 
2301.000000	99.072050 
2300.000000	99.074096 
2299.000000	99.076238 
2298.000000	99.078613 
2297.000000	99.079276 
2296.000000	99.076065 
2295.000000	99.068599 
2294.000000	99.060678 
2293.000000	99.057803 
2292.000000	99.063273 
2291.000000	99.074837 
2290.000000	99.086276 
2289.000000	99.092120 
2288.000000	99.091805 
2287.000000	99.088981 
2286.000000	99.086431 
2285.000000	99.082687 
2284.000000	99.074710 
2283.000000	99.063866 
2282.000000	99.056251 
2281.000000	99.056044 
2280.000000	99.060262 
2279.000000	99.062802 
2278.000000	99.061883 
2277.000000	99.060825 
2276.000000	99.062162 
2275.000000	99.064292 
2274.000000	99.064664 
2273.000000	99.063473 
2272.000000	99.062979 
2271.000000	99.064634 
2270.000000	99.068410 
2269.000000	99.073602 
2268.000000	99.079062 
2267.000000	99.083070 
2266.000000	99.084049 
2265.000000	99.081130 
2264.000000	99.074091 
2263.000000	99.063807 
2262.000000	99.053436 
2261.000000	99.047773 
2260.000000	99.049593 
2259.000000	99.056842 
2258.000000	99.064337 
2257.000000	99.068428 
2256.000000	99.069165 
2255.000000	99.068357 
2254.000000	99.067158 
2253.000000	99.066527 
2252.000000	99.068642 
2251.000000	99.075334 
2250.000000	99.084798 
2249.000000	99.091586 
2248.000000	99.091148 
2247.000000	99.084082 
2246.000000	99.074383 
2245.000000	99.065416 
2244.000000	99.058971 
2243.000000	99.056727 
2242.000000	99.059746 
2241.000000	99.066680 
2240.000000	99.075208 
2239.000000	99.085168 
2238.000000	99.096943 
2237.000000	99.106393 
2236.000000	99.105816 
2235.000000	99.092749 
2234.000000	99.075048 
2233.000000	99.064069 
2232.000000	99.063958 
2231.000000	99.069840 
2230.000000	99.074717 
2229.000000	99.075328 
2228.000000	99.072561 
2227.000000	99.069303 
2226.000000	99.068067 
2225.000000	99.069048 
2224.000000	99.070727 
2223.000000	99.072900 
2222.000000	99.076834 
2221.000000	99.080776 
2220.000000	99.078729 
2219.000000	99.067914 
2218.000000	99.055599 
2217.000000	99.053331 
2216.000000	99.063893 
2215.000000	99.078224 
2214.000000	99.085890 
2213.000000	99.084548 
2212.000000	99.078046 
2211.000000	99.070205 
2210.000000	99.064250 
2209.000000	99.064964 
2208.000000	99.075313 
2207.000000	99.090088 
2206.000000	99.097041 
2205.000000	99.087794 
2204.000000	99.067592 
2203.000000	99.052007 
2202.000000	99.052849 
2201.000000	99.067325 
2200.000000	99.081497 
2199.000000	99.084100 
2198.000000	99.075949 
2197.000000	99.066365 
2196.000000	99.062988 
2195.000000	99.066662 
2194.000000	99.074121 
2193.000000	99.081858 
2192.000000	99.087125 
2191.000000	99.088764 
2190.000000	99.089493 
2189.000000	99.095107 
2188.000000	99.107455 
2187.000000	99.118246 
2186.000000	99.114315 
2185.000000	99.092249 
2184.000000	99.065301 
2183.000000	99.051132 
2182.000000	99.053442 
2181.000000	99.060196 
2180.000000	99.060329 
2179.000000	99.056310 
2178.000000	99.057435 
2177.000000	99.066633 
2176.000000	99.078974 
2175.000000	99.089626 
2174.000000	99.097320 
2173.000000	99.102070 
2172.000000	99.105825 
2171.000000	99.114403 
2170.000000	99.132241 
2169.000000	99.154535 
2168.000000	99.170176 
2167.000000	99.173578 
2166.000000	99.168688 
2165.000000	99.161501 
2164.000000	99.155475 
2163.000000	99.155314 
2162.000000	99.165816 
2161.000000	99.180907 
2160.000000	99.181278 
2159.000000	99.152785 
2158.000000	99.104189 
2157.000000	99.057815 
2156.000000	99.026633 
2155.000000	99.009939 
2154.000000	99.005330 
2153.000000	99.012976 
2152.000000	99.029245 
2151.000000	99.044960 
2150.000000	99.053164 
2149.000000	99.055801 
2148.000000	99.061035 
2147.000000	99.074495 
2146.000000	99.092886 
2145.000000	99.105421 
2144.000000	99.102940 
2143.000000	99.086718 
2142.000000	99.066951 
2141.000000	99.052101 
2140.000000	99.042060 
2139.000000	99.033151 
2138.000000	99.026197 
2137.000000	99.025328 
2136.000000	99.030478 
2135.000000	99.036203 
2134.000000	99.038845 
2133.000000	99.040918 
2132.000000	99.046055 
2131.000000	99.051768 
2130.000000	99.050074 
2129.000000	99.035775 
2128.000000	99.013126 
2127.000000	98.993297 
2126.000000	98.985239 
2125.000000	98.989614 
2124.000000	99.001428 
2123.000000	99.016495 
2122.000000	99.033010 
2121.000000	99.048074 
2120.000000	99.057017 
2119.000000	99.057918 
2118.000000	99.054414 
2117.000000	99.052059 
2116.000000	99.053101 
2115.000000	99.056109 
2114.000000	99.059177 
2113.000000	99.061578 
2112.000000	99.063257 
2111.000000	99.064732 
2110.000000	99.067143 
2109.000000	99.070725 
2108.000000	99.073117 
2107.000000	99.070443 
2106.000000	99.060731 
2105.000000	99.046349 
2104.000000	99.033184 
2103.000000	99.026894 
2102.000000	99.028686 
2101.000000	99.034227 
2100.000000	99.037628 
2099.000000	99.036811 
2098.000000	99.034298 
2097.000000	99.033378 
2096.000000	99.035377 
2095.000000	99.040535 
2094.000000	99.048554 
2093.000000	99.056829 
2092.000000	99.060742 
2091.000000	99.058227 
2090.000000	99.053086 
2089.000000	99.051590 
2088.000000	99.055441 
2087.000000	99.059205 
2086.000000	99.055312 
2085.000000	99.041957 
2084.000000	99.026660 
2083.000000	99.021235 
2082.000000	99.031489 
2081.000000	99.051431 
2080.000000	99.069013 
2079.000000	99.077907 
2078.000000	99.081968 
2077.000000	99.088301 
2076.000000	99.098277 
2075.000000	99.106165 
2074.000000	99.104760 
2073.000000	99.091944 
2072.000000	99.073583 
2071.000000	99.059961 
2070.000000	99.057072 
2069.000000	99.060731 
2068.000000	99.060963 
2067.000000	99.052508 
2066.000000	99.039387 
2065.000000	99.030333 
2064.000000	99.032415 
2063.000000	99.047631 
2062.000000	99.070247 
2061.000000	99.086978 
2060.000000	99.086882 
2059.000000	99.074168 
2058.000000	99.065682 
2057.000000	99.072275 
2056.000000	99.087562 
2055.000000	99.098850 
2054.000000	99.103654 
2053.000000	99.109227 
2052.000000	99.119559 
2051.000000	99.130150 
2050.000000	99.134793 
2049.000000	99.132070 
2048.000000	99.124956 
2047.000000	99.118114 
2046.000000	99.116391 
2045.000000	99.121765 
2044.000000	99.129989 
2043.000000	99.133401 
2042.000000	99.128677 
2041.000000	99.119933 
2040.000000	99.113364 
2039.000000	99.110893 
2038.000000	99.110252 
2037.000000	99.109056 
2036.000000	99.106479 
2035.000000	99.100714 
2034.000000	99.087206 
2033.000000	99.063710 
2032.000000	99.038935 
2031.000000	99.031107 
2030.000000	99.051093 
2029.000000	99.086755 
2028.000000	99.110648 
2027.000000	99.106095 
2026.000000	99.080635 
2025.000000	99.054107 
2024.000000	99.040687 
2023.000000	99.044497 
2022.000000	99.063226 
2021.000000	99.088098 
2020.000000	99.105685 
2019.000000	99.107865 
2018.000000	99.098256 
2017.000000	99.084946 
2016.000000	99.070730 
2015.000000	99.056074 
2014.000000	99.046526 
2013.000000	99.047986 
2012.000000	99.056815 
2011.000000	99.063003 
2010.000000	99.063149 
2009.000000	99.063664 
2008.000000	99.070602 
2007.000000	99.082456 
2006.000000	99.093942 
2005.000000	99.101401 
2004.000000	99.103296 
2003.000000	99.100027 
2002.000000	99.094525 
2001.000000	99.089393 
2000.000000	99.082811 
1999.000000	99.070539 
1998.000000	99.052411 
1997.000000	99.033748 
1996.000000	99.020235 
1995.000000	99.014085 
1994.000000	99.015323 
1993.000000	99.023376 
1992.000000	99.035564 
1991.000000	99.046272 
1990.000000	99.050179 
1989.000000	99.046310 
1988.000000	99.039795 
1987.000000	99.040196 
1986.000000	99.055304 
1985.000000	99.083679 
1984.000000	99.114066 
1983.000000	99.134005 
1982.000000	99.138339 
1981.000000	99.129455 
1980.000000	99.113042 
1979.000000	99.096077 
1978.000000	99.085171 
1977.000000	99.081081 
1976.000000	99.076554 
1975.000000	99.064921 
1974.000000	99.049804 
1973.000000	99.041707 
1972.000000	99.045458 
1971.000000	99.055566 
1970.000000	99.064508 
1969.000000	99.071276 
1968.000000	99.079427 
1967.000000	99.089306 
1966.000000	99.096325 
1965.000000	99.097366 
1964.000000	99.095372 
1963.000000	99.095668 
1962.000000	99.099528 
1961.000000	99.103094 
1960.000000	99.101907 
1959.000000	99.094442 
1958.000000	99.081410 
1957.000000	99.064808 
1956.000000	99.048660 
1955.000000	99.037477 
1954.000000	99.031397 
1953.000000	99.025003 
1952.000000	99.014053 
1951.000000	99.002188 
1950.000000	98.997531 
1949.000000	99.003115 
1948.000000	99.013658 
1947.000000	99.021978 
1946.000000	99.024916 
1945.000000	99.022412 
1944.000000	99.015087 
1943.000000	99.005207 
1942.000000	98.996886 
1941.000000	98.992030 
1940.000000	98.988768 
1939.000000	98.985689 
1938.000000	98.984718 
1937.000000	98.988663 
1936.000000	98.997288 
1935.000000	99.006628 
1934.000000	99.011427 
1933.000000	99.008665 
1932.000000	99.000545 
1931.000000	98.994312 
1930.000000	98.997078 
1929.000000	99.008915 
1928.000000	99.021855 
1927.000000	99.027015 
1926.000000	99.021477 
1925.000000	99.007824 
1924.000000	98.991192 
1923.000000	98.978197 
1922.000000	98.975157 
1921.000000	98.983340 
1920.000000	98.997374 
1919.000000	99.009517 
1918.000000	99.014726 
1917.000000	99.012435 
1916.000000	99.005540 
1915.000000	98.999210 
1914.000000	98.998663 
1913.000000	99.004925 
1912.000000	99.012970 
1911.000000	99.016291 
1910.000000	99.013137 
1909.000000	99.006943 
1908.000000	99.002369 
1907.000000	99.003132 
1906.000000	99.010986 
1905.000000	99.022221 
1904.000000	99.027499 
1903.000000	99.019453 
1902.000000	99.000564 
1901.000000	98.980853 
1900.000000	98.968721 
1899.000000	98.966184 
1898.000000	98.970813 
1897.000000	98.977953 
1896.000000	98.982202 
1895.000000	98.981070 
1894.000000	98.977832 
1893.000000	98.977525 
1892.000000	98.980551 
1891.000000	98.983075 
1890.000000	98.982818 
1889.000000	98.981697 
1888.000000	98.982236 
1887.000000	98.984662 
1886.000000	98.987470 
1885.000000	98.988212 
1884.000000	98.984857 
1883.000000	98.978364 
1882.000000	98.972951 
1881.000000	98.971915 
1880.000000	98.974058 
1879.000000	98.975530 
1878.000000	98.973708 
1877.000000	98.968225 
1876.000000	98.960984 
1875.000000	98.956993 
1874.000000	98.962050 
1873.000000	98.976049 
1872.000000	98.990237 
1871.000000	98.994351 
1870.000000	98.986258 
1869.000000	98.973334 
1868.000000	98.962697 
1867.000000	98.954479 
1866.000000	98.947370 
1865.000000	98.942499 
1864.000000	98.941454 
1863.000000	98.945140 
1862.000000	98.953872 
1861.000000	98.965565 
1860.000000	98.974735 
1859.000000	98.977323 
1858.000000	98.976195 
1857.000000	98.977773 
1856.000000	98.983911 
1855.000000	98.991119 
1854.000000	98.996112 
1853.000000	98.998054 
1852.000000	98.996552 
1851.000000	98.991122 
1850.000000	98.983944 
1849.000000	98.979255 
1848.000000	98.978779 
1847.000000	98.980221 
1846.000000	98.981214 
1845.000000	98.981351 
1844.000000	98.980077 
1843.000000	98.976740 
1842.000000	98.973270 
1841.000000	98.972577 
1840.000000	98.975445 
1839.000000	98.980458 
1838.000000	98.985854 
1837.000000	98.990281 
1836.000000	98.992472 
1835.000000	98.992037 
1834.000000	98.990660 
1833.000000	98.991047 
1832.000000	98.994429 
1831.000000	98.998637 
1830.000000	99.000041 
1829.000000	98.997775 
1828.000000	98.994864 
1827.000000	98.994175 
1826.000000	98.995958 
1825.000000	98.999255 
1824.000000	99.002562 
1823.000000	99.003781 
1822.000000	99.001191 
1821.000000	98.993963 
1820.000000	98.982949 
1819.000000	98.971237 
1818.000000	98.963217 
1817.000000	98.961554 
1816.000000	98.964212 
1815.000000	98.966624 
1814.000000	98.967406 
1813.000000	98.969921 
1812.000000	98.977776 
1811.000000	98.989376 
1810.000000	98.999782 
1809.000000	99.007115 
1808.000000	99.011962 
1807.000000	99.012773 
1806.000000	99.007233 
1805.000000	98.996976 
1804.000000	98.987489 
1803.000000	98.983306 
1802.000000	98.985191 
1801.000000	98.991449 
1800.000000	98.997931 
1799.000000	99.000208 
1798.000000	98.998154 
1797.000000	98.995562 
1796.000000	98.995535 
1795.000000	98.998460 
1794.000000	99.002888 
1793.000000	99.006417 
1792.000000	99.007447 
1791.000000	99.006574 
1790.000000	99.005709 
1789.000000	99.006538 
1788.000000	99.008769 
1787.000000	99.010349 
1786.000000	99.009969 
1785.000000	99.008411 
1784.000000	99.006122 
1783.000000	99.002546 
1782.000000	98.998331 
1781.000000	98.995674 
1780.000000	98.994498 
1779.000000	98.992059 
1778.000000	98.987704 
1777.000000	98.984325 
1776.000000	98.984541 
1775.000000	98.989189 
1774.000000	98.998259 
1773.000000	99.009538 
1772.000000	99.017551 
1771.000000	99.018825 
1770.000000	99.015212 
1769.000000	99.009599 
1768.000000	99.004054 
1767.000000	98.999122 
1766.000000	98.994485 
1765.000000	98.990860 
1764.000000	98.989131 
1763.000000	98.989298 
1762.000000	98.989818 
1761.000000	98.988711 
1760.000000	98.985580 
1759.000000	98.981790 
1758.000000	98.978495 
1757.000000	98.975805 
1756.000000	98.972333 
1755.000000	98.966448 
1754.000000	98.957114 
1753.000000	98.943506 
1752.000000	98.927571 
1751.000000	98.916523 
1750.000000	98.916013 
1749.000000	98.921753 
1748.000000	98.924860 
1747.000000	98.920107 
1746.000000	98.908881 
1745.000000	98.896977 
1744.000000	98.890368 
1743.000000	98.890916 
1742.000000	98.894683 
1741.000000	98.897232 
1740.000000	98.898528 
1739.000000	98.901105 
1738.000000	98.904408 
1737.000000	98.904861 
1736.000000	98.900238 
1735.000000	98.892171 
1734.000000	98.885961 
1733.000000	98.886053 
1732.000000	98.892492 
1731.000000	98.903797 
1730.000000	98.917471 
1729.000000	98.929126 
1728.000000	98.934922 
1727.000000	98.935113 
1726.000000	98.932904 
1725.000000	98.930699 
1724.000000	98.929288 
1723.000000	98.930293 
1722.000000	98.935691 
1721.000000	98.945280 
1720.000000	98.955152 
1719.000000	98.958909 
1718.000000	98.952073 
1717.000000	98.939927 
1716.000000	98.932019 
1715.000000	98.929228 
1714.000000	98.927956 
1713.000000	98.926545 
1712.000000	98.924930 
1711.000000	98.923648 
1710.000000	98.923417 
1709.000000	98.924310 
1708.000000	98.924974 
1707.000000	98.923986 
1706.000000	98.924140 
1705.000000	98.929600 
1704.000000	98.936473 
1703.000000	98.934318 
1702.000000	98.918917 
1701.000000	98.900673 
1700.000000	98.896509 
1699.000000	98.904019 
1698.000000	98.909152 
1697.000000	98.908097 
1696.000000	98.904745 
1695.000000	98.901796 
1694.000000	98.899634 
1693.000000	98.897244 
1692.000000	98.891505 
1691.000000	98.882083 
1690.000000	98.873204 
1689.000000	98.868847 
1688.000000	98.866672 
1687.000000	98.860140 
1686.000000	98.846863 
1685.000000	98.831518 
1684.000000	98.822707 
1683.000000	98.821830 
1682.000000	98.822278 
1681.000000	98.820084 
1680.000000	98.816806 
1679.000000	98.814957 
1678.000000	98.813942 
1677.000000	98.810850 
1676.000000	98.803532 
1675.000000	98.794024 
1674.000000	98.786330 
1673.000000	98.781595 
1672.000000	98.777573 
1671.000000	98.773061 
1670.000000	98.768861 
1669.000000	98.765328 
1668.000000	98.761998 
1667.000000	98.758546 
1666.000000	98.753092 
1665.000000	98.743526 
1664.000000	98.730902 
1663.000000	98.720246 
1662.000000	98.715578 
1661.000000	98.715024 
1660.000000	98.713370 
1659.000000	98.709063 
1658.000000	98.704862 
1657.000000	98.701600 
1656.000000	98.694721 
1655.000000	98.680406 
1654.000000	98.662881 
1653.000000	98.646796 
1652.000000	98.634574 
1651.000000	98.633665 
1650.000000	98.637403 
1649.000000	98.635343 
1648.000000	98.626225 
1647.000000	98.615973 
1646.000000	98.610403 
1645.000000	98.611812 
1644.000000	98.619523 
1643.000000	98.629587 
1642.000000	98.637281 
1641.000000	98.641394 
1640.000000	98.643514 
1639.000000	98.645045 
1638.000000	98.646165 
1637.000000	98.647028 
1636.000000	98.648177 
1635.000000	98.650230 
1634.000000	98.656184 
1633.000000	98.665543 
1632.000000	98.674361 
1631.000000	98.680667 
1630.000000	98.685155 
1629.000000	98.688724 
1628.000000	98.691647 
1627.000000	98.694852 
1626.000000	98.699799 
1625.000000	98.707249 
1624.000000	98.716348 
1623.000000	98.725569 
1622.000000	98.734164 
1621.000000	98.741849 
1620.000000	98.747022 
1619.000000	98.748736 
1618.000000	98.749434 
1617.000000	98.752326 
1616.000000	98.757066 
1615.000000	98.762211 
1614.000000	98.766605 
1613.000000	98.769209 
1612.000000	98.770930 
1611.000000	98.773118 
1610.000000	98.775643 
1609.000000	98.777941 
1608.000000	98.780506 
1607.000000	98.784252 
1606.000000	98.788364 
1605.000000	98.791252 
1604.000000	98.792834 
1603.000000	98.795280 
1602.000000	98.800185 
1601.000000	98.805846 
1600.000000	98.809797 
1599.000000	98.812597 
1598.000000	98.816664 
1597.000000	98.822589 
1596.000000	98.828711 
1595.000000	98.833902 
1594.000000	98.838615 
1593.000000	98.842925 
1592.000000	98.846020 
1591.000000	98.848113 
1590.000000	98.850558 
1589.000000	98.853297 
1588.000000	98.854608 
1587.000000	98.854143 
1586.000000	98.853554 
1585.000000	98.853713 
1584.000000	98.853510 
1583.000000	98.851602 
1582.000000	98.849322 
1581.000000	98.848783 
1580.000000	98.849634 
1579.000000	98.849733 
1578.000000	98.848546 
1577.000000	98.846761 
1576.000000	98.844240 
1575.000000	98.843959 
1574.000000	98.849274 
1573.000000	98.855568 
1572.000000	98.856738 
1571.000000	98.853618 
1570.000000	98.853166 
1569.000000	98.858913 
1568.000000	98.865752 
1567.000000	98.868040 
1566.000000	98.865751 
1565.000000	98.862331 
1564.000000	98.860898 
1563.000000	98.861000 
1562.000000	98.860703 
1561.000000	98.858608 
1560.000000	98.852928 
1559.000000	98.843343 
1558.000000	98.833617 
1557.000000	98.829694 
1556.000000	98.830915 
1555.000000	98.831186 
1554.000000	98.827635 
1553.000000	98.821382 
1552.000000	98.815192 
1551.000000	98.811840 
1550.000000	98.813703 
1549.000000	98.818855 
1548.000000	98.821520 
1547.000000	98.818236 
1546.000000	98.810483 
1545.000000	98.803604 
1544.000000	98.801369 
1543.000000	98.801288 
1542.000000	98.800518 
1541.000000	98.801100 
1540.000000	98.802113 
1539.000000	98.799627 
1538.000000	98.799528 
1537.000000	98.805608 
1536.000000	98.812934 
1535.000000	98.817604 
1534.000000	98.822012 
1533.000000	98.829440 
1532.000000	98.836662 
1531.000000	98.838840 
1530.000000	98.837286 
1529.000000	98.836704 
1528.000000	98.839507 
1527.000000	98.844791 
1526.000000	98.850451 
1525.000000	98.855162 
1524.000000	98.857996 
1523.000000	98.859192 
1522.000000	98.862594 
1521.000000	98.870641 
1520.000000	98.876326 
1519.000000	98.872784 
1518.000000	98.862408 
1517.000000	98.854283 
1516.000000	98.854664 
1515.000000	98.859975 
1514.000000	98.864519 
1513.000000	98.866917 
1512.000000	98.868222 
1511.000000	98.869085 
1510.000000	98.868268 
1509.000000	98.866514 
1508.000000	98.871796 
1507.000000	98.892026 
1506.000000	98.909658 
1505.000000	98.911049 
1504.000000	98.908859 
1503.000000	98.909927 
1502.000000	98.913767 
1501.000000	98.919998 
1500.000000	98.927850 
1499.000000	98.935209 
1498.000000	98.939767 
1497.000000	98.942775 
1496.000000	98.947141 
1495.000000	98.950931 
1494.000000	98.949068 
1493.000000	98.939502 
1492.000000	98.924572 
1491.000000	98.910876 
1490.000000	98.905257 
1489.000000	98.907731 
1488.000000	98.910865 
1487.000000	98.909985 
1486.000000	98.907951 
1485.000000	98.907904 
1484.000000	98.908798 
1483.000000	98.908078 
1482.000000	98.904781 
1481.000000	98.899848 
1480.000000	98.894279 
1479.000000	98.887894 
1478.000000	98.880716 
1477.000000	98.873778 
1476.000000	98.867718 
1475.000000	98.859891 
1474.000000	98.848665 
1473.000000	98.838916 
1472.000000	98.834909 
1471.000000	98.831528 
1470.000000	98.823780 
1469.000000	98.814073 
1468.000000	98.807064 
1467.000000	98.804471 
1466.000000	98.804931 
1465.000000	98.806753 
1464.000000	98.808151 
1463.000000	98.808109 
1462.000000	98.807555 
1461.000000	98.808115 
1460.000000	98.809580 
1459.000000	98.809478 
1458.000000	98.804935 
1457.000000	98.796652 
1456.000000	98.788826 
1455.000000	98.784141 
1454.000000	98.782808 
1453.000000	98.783614 
1452.000000	98.785337 
1451.000000	98.787024 
1450.000000	98.788613 
1449.000000	98.791491 
1448.000000	98.796134 
1447.000000	98.799760 
1446.000000	98.799991 
1445.000000	98.798701 
1444.000000	98.798060 
1443.000000	98.797637 
1442.000000	98.796136 
1441.000000	98.793742 
1440.000000	98.791859 
1439.000000	98.791416 
1438.000000	98.791430 
1437.000000	98.790500 
1436.000000	98.788065 
1435.000000	98.783174 
1434.000000	98.776760 
1433.000000	98.772259 
1432.000000	98.772024 
1431.000000	98.775954 
1430.000000	98.781183 
1429.000000	98.784689 
1428.000000	98.785611 
1427.000000	98.783735 
1426.000000	98.778513 
1425.000000	98.770697 
1424.000000	98.764232 
1423.000000	98.762357 
1422.000000	98.761863 
1421.000000	98.757625 
1420.000000	98.749373 
1419.000000	98.742752 
1418.000000	98.739472 
1417.000000	98.734968 
1416.000000	98.728578 
1415.000000	98.722145 
1414.000000	98.715051 
1413.000000	98.705417 
1412.000000	98.694771 
1411.000000	98.687581 
1410.000000	98.684724 
1409.000000	98.683333 
1408.000000	98.682459 
1407.000000	98.683153 
1406.000000	98.685312 
1405.000000	98.688867 
1404.000000	98.695830 
1403.000000	98.706350 
1402.000000	98.715771 
1401.000000	98.720045 
1400.000000	98.720579 
1399.000000	98.722182 
1398.000000	98.724062 
1397.000000	98.719679 
1396.000000	98.707534 
1395.000000	98.696005 
1394.000000	98.695213 
1393.000000	98.706393 
1392.000000	98.725193 
1391.000000	98.746394 
1390.000000	98.764226 
1389.000000	98.774216 
1388.000000	98.776388 
1387.000000	98.775136 
1386.000000	98.773379 
1385.000000	98.770897 
1384.000000	98.767699 
1383.000000	98.764894 
1382.000000	98.763173 
1381.000000	98.763121 
1380.000000	98.765554 
1379.000000	98.770528 
1378.000000	98.776179 
1377.000000	98.779799 
1376.000000	98.781277 
1375.000000	98.784561 
1374.000000	98.793600 
1373.000000	98.805994 
1372.000000	98.815693 
1371.000000	98.821355 
1370.000000	98.827141 
1369.000000	98.835730 
1368.000000	98.845611 
1367.000000	98.853871 
1366.000000	98.859194 
1365.000000	98.862141 
1364.000000	98.863898 
1363.000000	98.866651 
1362.000000	98.872516 
1361.000000	98.880256 
1360.000000	98.886554 
1359.000000	98.890481 
1358.000000	98.894296 
1357.000000	98.900161 
1356.000000	98.907566 
1355.000000	98.914337 
1354.000000	98.919056 
1353.000000	98.921318 
1352.000000	98.920213 
1351.000000	98.915223 
1350.000000	98.909586 
1349.000000	98.907130 
1348.000000	98.908575 
1347.000000	98.912198 
1346.000000	98.916959 
1345.000000	98.922235 
1344.000000	98.926134 
1343.000000	98.926743 
1342.000000	98.924708 
1341.000000	98.922414 
1340.000000	98.921177 
1339.000000	98.920805 
1338.000000	98.921226 
1337.000000	98.923134 
1336.000000	98.926484 
1335.000000	98.929666 
1334.000000	98.931493 
1333.000000	98.932817 
1332.000000	98.935104 
1331.000000	98.938545 
1330.000000	98.942035 
1329.000000	98.943798 
1328.000000	98.942490 
1327.000000	98.938556 
1326.000000	98.934541 
1325.000000	98.932147 
1324.000000	98.931181 
1323.000000	98.930881 
1322.000000	98.930983 
1321.000000	98.931177 
1320.000000	98.930813 
1319.000000	98.929717 
1318.000000	98.928357 
1317.000000	98.926934 
1316.000000	98.924907 
1315.000000	98.921982 
1314.000000	98.919049 
1313.000000	98.917747 
1312.000000	98.919015 
1311.000000	98.922310 
1310.000000	98.926254 
1309.000000	98.929505 
1308.000000	98.931150 
1307.000000	98.930597 
1306.000000	98.928019 
1305.000000	98.924290 
1304.000000	98.921283 
1303.000000	98.920963 
1302.000000	98.923891 
1301.000000	98.928476 
1300.000000	98.932001 
1299.000000	98.932359 
1298.000000	98.929102 
1297.000000	98.923501 
1296.000000	98.917725 
1295.000000	98.913952 
1294.000000	98.913287 
1293.000000	98.915050 
1292.000000	98.916934 
1291.000000	98.916216 
1290.000000	98.911922 
1289.000000	98.906189 
1288.000000	98.902444 
1287.000000	98.901416 
1286.000000	98.899829 
1285.000000	98.894461 
1284.000000	98.886646 
1283.000000	98.880703 
1282.000000	98.878363 
1281.000000	98.877159 
1280.000000	98.874527 
1279.000000	98.870967 
1278.000000	98.867776 
1277.000000	98.864170 
1276.000000	98.858554 
1275.000000	98.851591 
1274.000000	98.845744 
1273.000000	98.842273 
1272.000000	98.840234 
1271.000000	98.837920 
1270.000000	98.833893 
1269.000000	98.827355 
1268.000000	98.819050 
1267.000000	98.811199 
1266.000000	98.804950 
1265.000000	98.798865 
1264.000000	98.791231 
1263.000000	98.782544 
1262.000000	98.774143 
1261.000000	98.765882 
1260.000000	98.757373 
1259.000000	98.750395 
1258.000000	98.746989 
1257.000000	98.745932 
1256.000000	98.743713 
1255.000000	98.738916 
1254.000000	98.733331 
1253.000000	98.728756 
1252.000000	98.724945 
1251.000000	98.721267 
1250.000000	98.718104 
1249.000000	98.715846 
1248.000000	98.714243 
1247.000000	98.713217 
1246.000000	98.712275 
1245.000000	98.708913 
1244.000000	98.700093 
1243.000000	98.686695 
1242.000000	98.674767 
1241.000000	98.670456 
1240.000000	98.674127 
1239.000000	98.680188 
1238.000000	98.682095 
1237.000000	98.677148 
1236.000000	98.667317 
1235.000000	98.656500 
1234.000000	98.646993 
1233.000000	98.638232 
1232.000000	98.628757 
1231.000000	98.618352 
1230.000000	98.607449 
1229.000000	98.595517 
1228.000000	98.581945 
1227.000000	98.568303 
1226.000000	98.557645 
1225.000000	98.550771 
1224.000000	98.544608 
1223.000000	98.535150 
1222.000000	98.521161 
1221.000000	98.504529 
1220.000000	98.488016 
1219.000000	98.473249 
1218.000000	98.459751 
1217.000000	98.445216 
1216.000000	98.427388 
1215.000000	98.406156 
1214.000000	98.383421 
1213.000000	98.360792 
1212.000000	98.338051 
1211.000000	98.313787 
1210.000000	98.286916 
1209.000000	98.257616 
1208.000000	98.227465 
1207.000000	98.198597 
1206.000000	98.172130 
1205.000000	98.147477 
1204.000000	98.123421 
1203.000000	98.099114 
1202.000000	98.073526 
1201.000000	98.045110 
1200.000000	98.013484 
1199.000000	97.980845 
1198.000000	97.950158 
1197.000000	97.922298 
1196.000000	97.896052 
1195.000000	97.870034 
1194.000000	97.843183 
1193.000000	97.814177 
1192.000000	97.782403 
1191.000000	97.749356 
1190.000000	97.717443 
1189.000000	97.687517 
1188.000000	97.659014 
1187.000000	97.631866 
1186.000000	97.606202 
1185.000000	97.580225 
1184.000000	97.550559 
1183.000000	97.515536 
1182.000000	97.477053 
1181.000000	97.438632 
1180.000000	97.402391 
1179.000000	97.368030 
1178.000000	97.333662 
1177.000000	97.297230 
1176.000000	97.257878 
1175.000000	97.216358 
1174.000000	97.174001 
1173.000000	97.131458 
1172.000000	97.088818 
1171.000000	97.046301 
1170.000000	97.004129 
1169.000000	96.962229 
1168.000000	96.920643 
1167.000000	96.879767 
1166.000000	96.840270 
1165.000000	96.804340 
1164.000000	96.777484 
1163.000000	96.766703 
1162.000000	96.774641 
1161.000000	96.796083 
1160.000000	96.821186 
1159.000000	96.841528 
1158.000000	96.852881 
1157.000000	96.854037 
1156.000000	96.844853 
1155.000000	96.825386 
1154.000000	96.796211 
1153.000000	96.759601 
1152.000000	96.720132 
1151.000000	96.682686 
1150.000000	96.649004 
1149.000000	96.617184 
1148.000000	96.584824 
1147.000000	96.551064 
1146.000000	96.515361 
1145.000000	96.476970 
1144.000000	96.437113 
1143.000000	96.399438 
1142.000000	96.366116 
1141.000000	96.334799 
1140.000000	96.301239 
1139.000000	96.263572 
1138.000000	96.222592 
1137.000000	96.179545 
1136.000000	96.135696 
1135.000000	96.092745 
1134.000000	96.051434 
1133.000000	96.010400 
1132.000000	95.967924 
1131.000000	95.923920 
1130.000000	95.878912 
1129.000000	95.832171 
1128.000000	95.782300 
1127.000000	95.728823 
1126.000000	95.672390 
1125.000000	95.614652 
1124.000000	95.558419 
1123.000000	95.505856 
1122.000000	95.455414 
1121.000000	95.402865 
1120.000000	95.346714 
1119.000000	95.290145 
1118.000000	95.236112 
1117.000000	95.183374 
1116.000000	95.129718 
1115.000000	95.076416 
1114.000000	95.026418 
1113.000000	94.979802 
1112.000000	94.934044 
1111.000000	94.887860 
1110.000000	94.842203 
1109.000000	94.797867 
1108.000000	94.754226 
1107.000000	94.709998 
1106.000000	94.664395 
1105.000000	94.617793 
1104.000000	94.571442 
1103.000000	94.526003 
1102.000000	94.481032 
1101.000000	94.436824 
1100.000000	94.395882 
1099.000000	94.358656 
1098.000000	94.321338 
1097.000000	94.280154 
1096.000000	94.237004 
1095.000000	94.196334 
1094.000000	94.157505 
1093.000000	94.115710 
1092.000000	94.070227 
1091.000000	94.025541 
1090.000000	93.983206 
1089.000000	93.938875 
1088.000000	93.889927 
1087.000000	93.840613 
1086.000000	93.796497 
1085.000000	93.758014 
1084.000000	93.722205 
1083.000000	93.686692 
1082.000000	93.649431 
1081.000000	93.608539 
1080.000000	93.565073 
1079.000000	93.522774 
1078.000000	93.483292 
1077.000000	93.445122 
1076.000000	93.408279 
1075.000000	93.375235 
1074.000000	93.345340 
1073.000000	93.312863 
1072.000000	93.272195 
1071.000000	93.220396 
1070.000000	93.153903 
1069.000000	93.069711 
1068.000000	92.973525 
1067.000000	92.881066 
1066.000000	92.805832 
1065.000000	92.748104 
1064.000000	92.698616 
1063.000000	92.648241 
1062.000000	92.590828 
1061.000000	92.522308 
1060.000000	92.443530 
1059.000000	92.362419 
1058.000000	92.288687 
1057.000000	92.225974 
1056.000000	92.169901 
1055.000000	92.111600 
1054.000000	92.042768 
1053.000000	91.961134 
1052.000000	91.872441 
1051.000000	91.783809 
1050.000000	91.695033 
1049.000000	91.601519 
1048.000000	91.505044 
1047.000000	91.413479 
1046.000000	91.328976 
1045.000000	91.244356 
1044.000000	91.153230 
1043.000000	91.057176 
1042.000000	90.960871 
1041.000000	90.866052 
1040.000000	90.773173 
1039.000000	90.684062 
1038.000000	90.600140 
1037.000000	90.522148 
1036.000000	90.453107 
1035.000000	90.396602 
1034.000000	90.350737 
1033.000000	90.308773 
1032.000000	90.266584 
1031.000000	90.224505 
1030.000000	90.182547 
1029.000000	90.141002 
1028.000000	90.106057 
1027.000000	90.086509 
1026.000000	90.082493 
1025.000000	90.084120 
1024.000000	90.082712 
1023.000000	90.076429 
1022.000000	90.064161 
1021.000000	90.042709 
1020.000000	90.013234 
1019.000000	89.983122 
1018.000000	89.957559 
1017.000000	89.934857 
1016.000000	89.912649 
1015.000000	89.892495 
1014.000000	89.875479 
1013.000000	89.858946 
1012.000000	89.840525 
1011.000000	89.820784 
1010.000000	89.800554 
1009.000000	89.780824 
1008.000000	89.765921 
1007.000000	89.760505 
1006.000000	89.762307 
1005.000000	89.764300 
1004.000000	89.765058 
1003.000000	89.770103 
1002.000000	89.781979 
1001.000000	89.796533 
1000.000000	89.810728 
999.000000	 89.826413 
998.000000	 89.843930 
997.000000	 89.859477 
996.000000	 89.872267 
995.000000	 89.887885 
994.000000	 89.910930 
993.000000	 89.939314 
992.000000	 89.968351 
991.000000	 89.995669 
990.000000	 90.020577 
989.000000	 90.043972 
988.000000	 90.070274 
987.000000	 90.104037 
986.000000	 90.143603 
985.000000	 90.183952 
984.000000	 90.226313 
983.000000	 90.277932 
982.000000	 90.341001 
981.000000	 90.408968 
980.000000	 90.475856 
979.000000	 90.542524 
978.000000	 90.611749 
977.000000	 90.683929 
976.000000	 90.760145 
975.000000	 90.843059 
974.000000	 90.931886 
973.000000	 91.021843 
972.000000	 91.110635 
971.000000	 91.200092 
970.000000	 91.290111 
969.000000	 91.377436 
968.000000	 91.462549 
967.000000	 91.551135 
966.000000	 91.645418 
965.000000	 91.739658 
964.000000	 91.827599 
963.000000	 91.909431 
962.000000	 91.988352 
961.000000	 92.065078 
960.000000	 92.139362 
959.000000	 92.212813 
958.000000	 92.286467 
957.000000	 92.358497 
956.000000	 92.427227 
955.000000	 92.493712 
954.000000	 92.559132 
953.000000	 92.622338 
952.000000	 92.681761 
951.000000	 92.736909 
950.000000	 92.786622 
949.000000	 92.829136 
948.000000	 92.865542 
947.000000	 92.900064 
946.000000	 92.935274 
945.000000	 92.969936 
944.000000	 93.002507 
943.000000	 93.032979 
942.000000	 93.059958 
941.000000	 93.080328 
940.000000	 93.094175 
939.000000	 93.106459 
938.000000	 93.121393 
937.000000	 93.138393 
936.000000	 93.155692 
935.000000	 93.174171 
934.000000	 93.194747 
933.000000	 93.215234 
932.000000	 93.233154 
931.000000	 93.249609 
930.000000	 93.267830 
929.000000	 93.289611 
928.000000	 93.314731 
927.000000	 93.341576 
926.000000	 93.366820 
925.000000	 93.387002 
924.000000	 93.401974 
923.000000	 93.414457 
922.000000	 93.425298 
921.000000	 93.432227 
920.000000	 93.434523 
919.000000	 93.435323 
918.000000	 93.437376 
917.000000	 93.439912 
916.000000	 93.442046 
915.000000	 93.446023 
914.000000	 93.454533 
913.000000	 93.467763 
912.000000	 93.485797 
911.000000	 93.511000 
910.000000	 93.544852 
909.000000	 93.584748 
908.000000	 93.627102 
907.000000	 93.672198 
906.000000	 93.723637 
905.000000	 93.784331 
904.000000	 93.854817 
903.000000	 93.933894 
902.000000	 94.018940 
901.000000	 94.106639 
900.000000	 94.194696 
899.000000	 94.282098 
898.000000	 94.367241 
897.000000	 94.447302 
896.000000	 94.520246 
895.000000	 94.586739 
894.000000	 94.649858 
893.000000	 94.713606 
892.000000	 94.781157 
891.000000	 94.852874 
890.000000	 94.925834 
889.000000	 94.996530 
888.000000	 95.063736 
887.000000	 95.127268 
886.000000	 95.184694 
885.000000	 95.231961 
884.000000	 95.268224 
883.000000	 95.298493 
882.000000	 95.330328 
881.000000	 95.368407 
880.000000	 95.412543 
879.000000	 95.459750 
878.000000	 95.507343 
877.000000	 95.554465 
876.000000	 95.601113 
875.000000	 95.646212 
874.000000	 95.687991 
873.000000	 95.727081 
872.000000	 95.767900 
871.000000	 95.814921 
870.000000	 95.867409 
869.000000	 95.919334 
868.000000	 95.965245 
867.000000	 96.005861 
866.000000	 96.047428 
865.000000	 96.095303 
864.000000	 96.148395 
863.000000	 96.200741 
862.000000	 96.248654 
861.000000	 96.294521 
860.000000	 96.342205 
859.000000	 96.390891 
858.000000	 96.436598 
857.000000	 96.478547 
856.000000	 96.519659 
855.000000	 96.560331 
854.000000	 96.595999 
853.000000	 96.622818 
852.000000	 96.642611 
851.000000	 96.659984 
850.000000	 96.677030 
849.000000	 96.693167 
848.000000	 96.708072 
847.000000	 96.722101 
846.000000	 96.735022 
845.000000	 96.746687 
844.000000	 96.758115 
843.000000	 96.769515 
842.000000	 96.777321 
841.000000	 96.775204 
840.000000	 96.759164 
839.000000	 96.731618 
838.000000	 96.700138 
837.000000	 96.671212 
836.000000	 96.644803 
835.000000	 96.616228 
834.000000	 96.584182 
833.000000	 96.554392 
832.000000	 96.532126 
831.000000	 96.513454 
830.000000	 96.490608 
829.000000	 96.467040 
828.000000	 96.458927 
827.000000	 96.475828 
826.000000	 96.505745 
825.000000	 96.528081 
824.000000	 96.537762 
823.000000	 96.546601 
822.000000	 96.563161 
821.000000	 96.582515 
820.000000	 96.596326 
819.000000	 96.603108 
818.000000	 96.606075 
817.000000	 96.606914 
816.000000	 96.604048 
815.000000	 96.593703 
814.000000	 96.571138 
813.000000	 96.533095 
812.000000	 96.479934 
811.000000	 96.413691 
810.000000	 96.333868 
809.000000	 96.236842 
808.000000	 96.119006 
807.000000	 95.978329 
806.000000	 95.813916 
805.000000	 95.628033 
804.000000	 95.430085 
803.000000	 95.236168 
802.000000	 95.062767 
801.000000	 94.921554 
800.000000	 94.818409 
799.000000	 94.752621 
798.000000	 94.717226 
797.000000	 94.705440 
796.000000	 94.717067 
795.000000	 94.754287 
794.000000	 94.812635 
793.000000	 94.881579 
792.000000	 94.951876 
791.000000	 95.015796 
790.000000	 95.062583 
789.000000	 95.082880 
788.000000	 95.078645 
787.000000	 95.061449 
786.000000	 95.039035 
785.000000	 95.008771 
784.000000	 94.965321 
783.000000	 94.908791 
782.000000	 94.844085 
781.000000	 94.778769 
780.000000	 94.723792 
779.000000	 94.690062 
778.000000	 94.681259 
777.000000	 94.694765 
776.000000	 94.730197 
775.000000	 94.789576 
774.000000	 94.867374 
773.000000	 94.948827 
772.000000	 95.022179 
771.000000	 95.086137 
770.000000	 95.141917 
769.000000	 95.185169 
768.000000	 95.211716 
767.000000	 95.226341 
766.000000	 95.238827 
765.000000	 95.252828 
764.000000	 95.263777 
763.000000	 95.266840 
762.000000	 95.262945 
761.000000	 95.257321 
760.000000	 95.255241 
759.000000	 95.259280 
758.000000	 95.268536 
757.000000	 95.280220 
756.000000	 95.292570 
755.000000	 95.306028 
754.000000	 95.322110 
753.000000	 95.342314 
752.000000	 95.367358 
751.000000	 95.395061 
750.000000	 95.419549 
749.000000	 95.435223 
748.000000	 95.441965 
747.000000	 95.445595 
746.000000	 95.454286 
745.000000	 95.475095 
744.000000	 95.510035 
743.000000	 95.552122 
742.000000	 95.589241 
741.000000	 95.617158 
740.000000	 95.645536 
739.000000	 95.685774 
738.000000	 95.736149 
737.000000	 95.785536 
736.000000	 95.828756 
735.000000	 95.869815 
734.000000	 95.911360 
733.000000	 95.949942 
732.000000	 95.982339 
731.000000	 96.007985 
730.000000	 96.024132 
729.000000	 96.027366 
728.000000	 96.020939 
727.000000	 96.013913 
726.000000	 96.012219 
725.000000	 96.015807 
724.000000	 96.025126 
723.000000	 96.043016 
722.000000	 96.068051 
721.000000	 96.093065 
720.000000	 96.113317 
719.000000	 96.130658 
718.000000	 96.147306 
717.000000	 96.161504 
716.000000	 96.172739 
715.000000	 96.185209 
714.000000	 96.201915 
713.000000	 96.219882 
712.000000	 96.234072 
711.000000	 96.242269 
710.000000	 96.243884 
709.000000	 96.238886 
708.000000	 96.229834 
707.000000	 96.219967 
706.000000	 96.208679 
705.000000	 96.192004 
704.000000	 96.167602 
703.000000	 96.135861 
702.000000	 96.094223 
701.000000	 96.036737 
700.000000	 95.961888 
699.000000	 95.873602 
698.000000	 95.775482 
697.000000	 95.670751 
696.000000	 95.570028 
695.000000	 95.493764 
694.000000	 95.460106 
693.000000	 95.474758 
692.000000	 95.531447 
691.000000	 95.610876 
690.000000	 95.684399 
689.000000	 95.732062 
688.000000	 95.760918 
687.000000	 95.794377 
686.000000	 95.837798 
685.000000	 95.872429 
684.000000	 95.886617 
683.000000	 95.891311 
682.000000	 95.900222 
681.000000	 95.913914 
680.000000	 95.931260 
679.000000	 95.955990 
678.000000	 95.980361 
677.000000	 95.985875 
676.000000	 95.970811 
675.000000	 95.956189 
674.000000	 95.959661 
673.000000	 95.975030 
672.000000	 95.981722 
671.000000	 95.965556 
670.000000	 95.922585 
669.000000	 95.866316 
668.000000	 95.845432 
667.000000	 95.892676 
666.000000	 95.985170 
665.000000	 96.094703 
664.000000	 96.185361 
663.000000	 96.227741 
662.000000	 96.224057 
661.000000	 96.208846 
660.000000	 96.210397 
659.000000	 96.222224 
658.000000	 96.217123 
657.000000	 96.182363 
656.000000	 96.130886 
655.000000	 96.083363 
654.000000	 96.052705 
653.000000	 96.034594 
652.000000	 96.011127 
651.000000	 95.977584 
650.000000	 95.958473 

