4000.000000	98.962924 
3999.000000	98.962483 
3998.000000	98.962210 
3997.000000	98.962461 
3996.000000	98.963129 
3995.000000	98.963746 
3994.000000	98.964005 
3993.000000	98.964025 
3992.000000	98.964078 
3991.000000	98.964126 
3990.000000	98.963804 
3989.000000	98.962840 
3988.000000	98.961406 
3987.000000	98.960036 
3986.000000	98.959255 
3985.000000	98.959329 
3984.000000	98.960160 
3983.000000	98.961339 
3982.000000	98.962394 
3981.000000	98.963103 
3980.000000	98.963567 
3979.000000	98.963963 
3978.000000	98.964287 
3977.000000	98.964401 
3976.000000	98.964231 
3975.000000	98.963775 
3974.000000	98.962965 
3973.000000	98.961739 
3972.000000	98.960293 
3971.000000	98.959136 
3970.000000	98.958785 
3969.000000	98.959381 
3968.000000	98.960573 
3967.000000	98.961691 
3966.000000	98.962162 
3965.000000	98.961799 
3964.000000	98.960805 
3963.000000	98.959617 
3962.000000	98.958630 
3961.000000	98.957982 
3960.000000	98.957500 
3959.000000	98.956853 
3958.000000	98.955936 
3957.000000	98.955058 
3956.000000	98.954654 
3955.000000	98.954808 
3954.000000	98.955153 
3953.000000	98.955283 
3952.000000	98.955133 
3951.000000	98.954923 
3950.000000	98.954780 
3949.000000	98.954543 
3948.000000	98.954065 
3947.000000	98.953607 
3946.000000	98.953652 
3945.000000	98.954271 
3944.000000	98.954863 
3943.000000	98.954664 
3942.000000	98.953487 
3941.000000	98.951919 
3940.000000	98.950632 
3939.000000	98.949693 
3938.000000	98.948835 
3937.000000	98.947937 
3936.000000	98.947099 
3935.000000	98.946410 
3934.000000	98.945919 
3933.000000	98.945841 
3932.000000	98.946373 
3931.000000	98.947430 
3930.000000	98.948618 
3929.000000	98.949461 
3928.000000	98.949787 
3927.000000	98.949584 
3926.000000	98.948691 
3925.000000	98.947052 
3924.000000	98.945193 
3923.000000	98.943820 
3922.000000	98.942668 
3921.000000	98.940922 
3920.000000	98.938875 
3919.000000	98.937879 
3918.000000	98.938588 
3917.000000	98.940231 
3916.000000	98.941911 
3915.000000	98.943648 
3914.000000	98.945552 
3913.000000	98.947026 
3912.000000	98.947490 
3911.000000	98.946752 
3910.000000	98.945149 
3909.000000	98.943130 
3908.000000	98.941085 
3907.000000	98.939329 
3906.000000	98.937844 
3905.000000	98.936229 
3904.000000	98.934172 
3903.000000	98.932334 
3902.000000	98.931783 
3901.000000	98.932316 
3900.000000	98.932568 
3899.000000	98.931961 
3898.000000	98.931291 
3897.000000	98.931107 
3896.000000	98.930936 
3895.000000	98.930475 
3894.000000	98.930794 
3893.000000	98.932710 
3892.000000	98.935086 
3891.000000	98.935904 
3890.000000	98.935470 
3889.000000	98.935590 
3888.000000	98.936457 
3887.000000	98.936929 
3886.000000	98.936258 
3885.000000	98.934819 
3884.000000	98.934094 
3883.000000	98.934555 
3882.000000	98.934924 
3881.000000	98.934247 
3880.000000	98.932795 
3879.000000	98.931671 
3878.000000	98.931843 
3877.000000	98.932816 
3876.000000	98.933253 
3875.000000	98.932216 
3874.000000	98.929699 
3873.000000	98.926877 
3872.000000	98.924796 
3871.000000	98.923011 
3870.000000	98.920711 
3869.000000	98.918915 
3868.000000	98.919840 
3867.000000	98.923181 
3866.000000	98.926161 
3865.000000	98.927654 
3864.000000	98.928811 
3863.000000	98.930494 
3862.000000	98.932425 
3861.000000	98.933868 
3860.000000	98.934585 
3859.000000	98.934313 
3858.000000	98.932713 
3857.000000	98.930128 
3856.000000	98.928073 
3855.000000	98.928082 
3854.000000	98.928327 
3853.000000	98.924578 
3852.000000	98.919478 
3851.000000	98.919083 
3850.000000	98.922059 
3849.000000	98.924476 
3848.000000	98.925810 
3847.000000	98.926880 
3846.000000	98.927642 
3845.000000	98.927653 
3844.000000	98.927003 
3843.000000	98.925973 
3842.000000	98.924911 
3841.000000	98.924192 
3840.000000	98.924568 
3839.000000	98.926846 
3838.000000	98.930797 
3837.000000	98.935076 
3836.000000	98.938844 
3835.000000	98.942074 
3834.000000	98.944591 
3833.000000	98.946062 
3832.000000	98.946501 
3831.000000	98.946573 
3830.000000	98.947228 
3829.000000	98.948503 
3828.000000	98.949125 
3827.000000	98.947450 
3826.000000	98.943369 
3825.000000	98.938856 
3824.000000	98.935981 
3823.000000	98.934958 
3822.000000	98.934309 
3821.000000	98.931550 
3820.000000	98.927720 
3819.000000	98.926982 
3818.000000	98.928703 
3817.000000	98.929306 
3816.000000	98.927849 
3815.000000	98.926575 
3814.000000	98.928319 
3813.000000	98.931989 
3812.000000	98.933987 
3811.000000	98.934017 
3810.000000	98.934731 
3809.000000	98.937644 
3808.000000	98.941203 
3807.000000	98.942529 
3806.000000	98.941583 
3805.000000	98.941184 
3804.000000	98.942106 
3803.000000	98.942512 
3802.000000	98.941080 
3801.000000	98.937742 
3800.000000	98.935234 
3799.000000	98.935815 
3798.000000	98.937385 
3797.000000	98.937629 
3796.000000	98.936932 
3795.000000	98.936884 
3794.000000	98.938189 
3793.000000	98.940133 
3792.000000	98.941771 
3791.000000	98.942797 
3790.000000	98.943174 
3789.000000	98.943082 
3788.000000	98.943232 
3787.000000	98.944439 
3786.000000	98.946653 
3785.000000	98.948831 
3784.000000	98.950173 
3783.000000	98.950837 
3782.000000	98.951264 
3781.000000	98.951364 
3780.000000	98.950809 
3779.000000	98.949484 
3778.000000	98.947926 
3777.000000	98.946757 
3776.000000	98.945814 
3775.000000	98.944753 
3774.000000	98.944027 
3773.000000	98.944312 
3772.000000	98.945315 
3771.000000	98.945712 
3770.000000	98.944624 
3769.000000	98.942917 
3768.000000	98.942366 
3767.000000	98.943245 
3766.000000	98.944172 
3765.000000	98.944229 
3764.000000	98.944133 
3763.000000	98.944943 
3762.000000	98.946200 
3761.000000	98.946663 
3760.000000	98.946231 
3759.000000	98.945307 
3758.000000	98.943626 
3757.000000	98.940701 
3756.000000	98.936924 
3755.000000	98.933137 
3754.000000	98.929900 
3753.000000	98.928338 
3752.000000	98.929613 
3751.000000	98.931356 
3750.000000	98.928570 
3749.000000	98.921426 
3748.000000	98.915453 
3747.000000	98.913625 
3746.000000	98.915065 
3745.000000	98.917274 
3744.000000	98.916419 
3743.000000	98.915904 
3742.000000	98.921171 
3741.000000	98.925263 
3740.000000	98.921517 
3739.000000	98.913690 
3738.000000	98.908169 
3737.000000	98.906628 
3736.000000	98.906886 
3735.000000	98.907986 
3734.000000	98.910283 
3733.000000	98.911848 
3732.000000	98.910372 
3731.000000	98.908146 
3730.000000	98.909239 
3729.000000	98.913374 
3728.000000	98.917238 
3727.000000	98.919929 
3726.000000	98.923298 
3725.000000	98.928404 
3724.000000	98.932960 
3723.000000	98.934044 
3722.000000	98.932263 
3721.000000	98.930677 
3720.000000	98.931005 
3719.000000	98.931452 
3718.000000	98.928775 
3717.000000	98.921482 
3716.000000	98.910619 
3715.000000	98.897846 
3714.000000	98.884582 
3713.000000	98.872995 
3712.000000	98.864521 
3711.000000	98.858492 
3710.000000	98.854858 
3709.000000	98.853726 
3708.000000	98.852774 
3707.000000	98.849007 
3706.000000	98.841675 
3705.000000	98.832526 
3704.000000	98.823920 
3703.000000	98.817330 
3702.000000	98.812384 
3701.000000	98.807876 
3700.000000	98.803753 
3699.000000	98.799810 
3698.000000	98.794132 
3697.000000	98.785791 
3696.000000	98.776957 
3695.000000	98.770483 
3694.000000	98.766592 
3693.000000	98.763507 
3692.000000	98.760446 
3691.000000	98.757365 
3690.000000	98.752860 
3689.000000	98.744907 
3688.000000	98.735341 
3687.000000	98.729417 
3686.000000	98.728766 
3685.000000	98.729946 
3684.000000	98.729863 
3683.000000	98.728528 
3682.000000	98.726489 
3681.000000	98.722746 
3680.000000	98.715986 
3679.000000	98.707140 
3678.000000	98.698539 
3677.000000	98.691609 
3676.000000	98.685658 
3675.000000	98.679518 
3674.000000	98.675435 
3673.000000	98.674835 
3672.000000	98.674520 
3671.000000	98.672586 
3670.000000	98.669737 
3669.000000	98.666232 
3668.000000	98.662876 
3667.000000	98.659797 
3666.000000	98.656067 
3665.000000	98.651705 
3664.000000	98.647513 
3663.000000	98.643928 
3662.000000	98.640633 
3661.000000	98.637053 
3660.000000	98.633226 
3659.000000	98.630188 
3658.000000	98.628701 
3657.000000	98.627770 
3656.000000	98.625121 
3655.000000	98.621102 
3654.000000	98.618273 
3653.000000	98.616901 
3652.000000	98.615899 
3651.000000	98.615497 
3650.000000	98.614950 
3649.000000	98.611277 
3648.000000	98.604558 
3647.000000	98.599317 
3646.000000	98.599139 
3645.000000	98.603723 
3644.000000	98.610125 
3643.000000	98.615028 
3642.000000	98.616775 
3641.000000	98.615883 
3640.000000	98.614105 
3639.000000	98.612946 
3638.000000	98.613139 
3637.000000	98.614866 
3636.000000	98.616683 
3635.000000	98.615406 
3634.000000	98.609040 
3633.000000	98.599803 
3632.000000	98.592372 
3631.000000	98.589654 
3630.000000	98.591062 
3629.000000	98.591185 
3628.000000	98.586429 
3627.000000	98.583146 
3626.000000	98.584469 
3625.000000	98.585563 
3624.000000	98.584998 
3623.000000	98.585370 
3622.000000	98.587598 
3621.000000	98.590217 
3620.000000	98.592556 
3619.000000	98.595630 
3618.000000	98.600874 
3617.000000	98.609060 
3616.000000	98.618961 
3615.000000	98.628302 
3614.000000	98.635288 
3613.000000	98.638923 
3612.000000	98.639984 
3611.000000	98.640702 
3610.000000	98.642401 
3609.000000	98.644657 
3608.000000	98.646682 
3607.000000	98.648914 
3606.000000	98.652163 
3605.000000	98.655643 
3604.000000	98.658098 
3603.000000	98.660009 
3602.000000	98.662540 
3601.000000	98.666046 
3600.000000	98.670847 
3599.000000	98.677968 
3598.000000	98.687090 
3597.000000	98.695644 
3596.000000	98.700719 
3595.000000	98.702161 
3594.000000	98.703024 
3593.000000	98.706626 
3592.000000	98.713287 
3591.000000	98.720871 
3590.000000	98.727418 
3589.000000	98.731191 
3588.000000	98.729345 
3587.000000	98.720823 
3586.000000	98.710658 
3585.000000	98.705268 
3584.000000	98.705067 
3583.000000	98.706583 
3582.000000	98.707375 
3581.000000	98.707115 
3580.000000	98.705856 
3579.000000	98.703217 
3578.000000	98.699320 
3577.000000	98.695698 
3576.000000	98.694128 
3575.000000	98.694710 
3574.000000	98.696141 
3573.000000	98.697431 
3572.000000	98.698636 
3571.000000	98.699863 
3570.000000	98.700660 
3569.000000	98.700547 
3568.000000	98.699613 
3567.000000	98.698421 
3566.000000	98.698208 
3565.000000	98.700223 
3564.000000	98.703680 
3563.000000	98.706161 
3562.000000	98.705870 
3561.000000	98.702730 
3560.000000	98.698187 
3559.000000	98.694120 
3558.000000	98.691538 
3557.000000	98.690361 
3556.000000	98.690258 
3555.000000	98.690947 
3554.000000	98.691786 
3553.000000	98.691877 
3552.000000	98.690985 
3551.000000	98.689799 
3550.000000	98.688980 
3549.000000	98.688548 
3548.000000	98.688331 
3547.000000	98.688272 
3546.000000	98.688236 
3545.000000	98.688041 
3544.000000	98.687621 
3543.000000	98.687019 
3542.000000	98.686333 
3541.000000	98.685687 
3540.000000	98.685141 
3539.000000	98.684698 
3538.000000	98.684353 
3537.000000	98.684063 
3536.000000	98.683734 
3535.000000	98.683306 
3534.000000	98.682793 
3533.000000	98.682261 
3532.000000	98.681757 
3531.000000	98.681294 
3530.000000	98.680870 
3529.000000	98.680461 
3528.000000	98.680029 
3527.000000	98.679557 
3526.000000	98.679068 
3525.000000	98.678600 
3524.000000	98.678146 
3523.000000	98.677666 
3522.000000	98.677145 
3521.000000	98.676620 
3520.000000	98.676112 
3519.000000	98.675601 
3518.000000	98.675059 
3517.000000	98.674494 
3516.000000	98.673929 
3515.000000	98.673361 
3514.000000	98.672781 
3513.000000	98.672187 
3512.000000	98.671587 
3511.000000	98.670979 
3510.000000	98.670355 
3509.000000	98.669717 
3508.000000	98.669072 
3507.000000	98.668422 
3506.000000	98.667763 
3505.000000	98.667096 
3504.000000	98.666426 
3503.000000	98.665764 
3502.000000	98.665118 
3501.000000	98.664484 
3500.000000	98.663851 
3499.000000	98.663203 
3498.000000	98.662526 
3497.000000	98.661812 
3496.000000	98.661071 
3495.000000	98.660313 
3494.000000	98.659550 
3493.000000	98.658782 
3492.000000	98.658006 
3491.000000	98.657222 
3490.000000	98.656432 
3489.000000	98.655641 
3488.000000	98.654850 
3487.000000	98.654058 
3486.000000	98.653266 
3485.000000	98.652472 
3484.000000	98.651672 
3483.000000	98.650862 
3482.000000	98.650041 
3481.000000	98.649210 
3480.000000	98.648372 
3479.000000	98.647530 
3478.000000	98.646690 
3477.000000	98.645852 
3476.000000	98.645014 
3475.000000	98.644171 
3474.000000	98.643320 
3473.000000	98.642464 
3472.000000	98.641607 
3471.000000	98.640750 
3470.000000	98.639887 
3469.000000	98.639014 
3468.000000	98.638130 
3467.000000	98.637236 
3466.000000	98.636330 
3465.000000	98.635410 
3464.000000	98.634480 
3463.000000	98.633541 
3462.000000	98.632597 
3461.000000	98.631642 
3460.000000	98.630677 
3459.000000	98.629703 
3458.000000	98.628726 
3457.000000	98.627761 
3456.000000	98.626819 
3455.000000	98.625896 
3454.000000	98.624967 
3453.000000	98.623988 
3452.000000	98.622959 
3451.000000	98.621985 
3450.000000	98.621162 
3449.000000	98.620468 
3448.000000	98.619744 
3447.000000	98.618859 
3446.000000	98.617800 
3445.000000	98.616627 
3444.000000	98.615399 
3443.000000	98.614231 
3442.000000	98.613344 
3441.000000	98.612822 
3440.000000	98.612477 
3439.000000	98.612162 
3438.000000	98.611983 
3437.000000	98.611899 
3436.000000	98.611364 
3435.000000	98.609918 
3434.000000	98.607947 
3433.000000	98.606397 
3432.000000	98.605651 
3431.000000	98.605196 
3430.000000	98.604399 
3429.000000	98.603107 
3428.000000	98.601394 
3427.000000	98.599210 
3426.000000	98.596719 
3425.000000	98.594624 
3424.000000	98.593649 
3423.000000	98.593754 
3422.000000	98.594193 
3421.000000	98.594354 
3420.000000	98.594227 
3419.000000	98.594114 
3418.000000	98.594332 
3417.000000	98.595260 
3416.000000	98.597054 
3415.000000	98.598954 
3414.000000	98.599438 
3413.000000	98.597698 
3412.000000	98.594674 
3411.000000	98.592039 
3410.000000	98.590329 
3409.000000	98.588783 
3408.000000	98.586808 
3407.000000	98.584596 
3406.000000	98.582208 
3405.000000	98.579334 
3404.000000	98.576511 
3403.000000	98.575534 
3402.000000	98.577655 
3401.000000	98.581883 
3400.000000	98.585751 
3399.000000	98.587791 
3398.000000	98.588574 
3397.000000	98.589465 
3396.000000	98.591125 
3395.000000	98.593226 
3394.000000	98.595002 
3393.000000	98.595912 
3392.000000	98.596188 
3391.000000	98.596689 
3390.000000	98.597867 
3389.000000	98.599051 
3388.000000	98.599313 
3387.000000	98.598734 
3386.000000	98.598071 
3385.000000	98.597299 
3384.000000	98.595535 
3383.000000	98.592659 
3382.000000	98.589897 
3381.000000	98.588204 
3380.000000	98.586958 
3379.000000	98.585114 
3378.000000	98.583032 
3377.000000	98.582136 
3376.000000	98.583184 
3375.000000	98.585818 
3374.000000	98.589447 
3373.000000	98.593419 
3372.000000	98.596475 
3371.000000	98.597368 
3370.000000	98.596395 
3369.000000	98.595398 
3368.000000	98.595710 
3367.000000	98.596904 
3366.000000	98.597976 
3365.000000	98.598778 
3364.000000	98.599525 
3363.000000	98.599771 
3362.000000	98.598976 
3361.000000	98.597643 
3360.000000	98.596790 
3359.000000	98.596472 
3358.000000	98.595945 
3357.000000	98.595303 
3356.000000	98.595686 
3355.000000	98.597385 
3354.000000	98.598943 
3353.000000	98.599067 
3352.000000	98.598695 
3351.000000	98.599997 
3350.000000	98.603637 
3349.000000	98.608133 
3348.000000	98.611869 
3347.000000	98.614684 
3346.000000	98.616860 
3345.000000	98.617822 
3344.000000	98.616996 
3343.000000	98.615268 
3342.000000	98.614237 
3341.000000	98.614062 
3340.000000	98.613445 
3339.000000	98.611889 
3338.000000	98.610467 
3337.000000	98.609829 
3336.000000	98.608944 
3335.000000	98.606984 
3334.000000	98.605248 
3333.000000	98.605593 
3332.000000	98.607711 
3331.000000	98.609550 
3330.000000	98.610276 
3329.000000	98.611157 
3328.000000	98.613273 
3327.000000	98.616096 
3326.000000	98.618787 
3325.000000	98.621336 
3324.000000	98.623768 
3323.000000	98.625631 
3322.000000	98.627017 
3321.000000	98.628735 
3320.000000	98.630551 
3319.000000	98.630680 
3318.000000	98.628245 
3317.000000	98.625066 
3316.000000	98.623630 
3315.000000	98.623941 
3314.000000	98.624088 
3313.000000	98.623335 
3312.000000	98.622886 
3311.000000	98.623706 
3310.000000	98.625254 
3309.000000	98.626585 
3308.000000	98.627451 
3307.000000	98.628018 
3306.000000	98.628573 
3305.000000	98.629678 
3304.000000	98.631578 
3303.000000	98.633470 
3302.000000	98.634395 
3301.000000	98.634819 
3300.000000	98.636112 
3299.000000	98.638437 
3298.000000	98.640469 
3297.000000	98.641468 
3296.000000	98.642299 
3295.000000	98.643885 
3294.000000	98.645897 
3293.000000	98.647646 
3292.000000	98.649090 
3291.000000	98.650201 
3290.000000	98.650353 
3289.000000	98.649200 
3288.000000	98.647340 
3287.000000	98.645499 
3286.000000	98.643785 
3285.000000	98.642271 
3284.000000	98.641442 
3283.000000	98.641336 
3282.000000	98.641118 
3281.000000	98.640302 
3280.000000	98.639673 
3279.000000	98.640207 
3278.000000	98.641845 
3277.000000	98.644033 
3276.000000	98.646723 
3275.000000	98.649976 
3274.000000	98.653066 
3273.000000	98.654910 
3272.000000	98.655166 
3271.000000	98.654282 
3270.000000	98.652828 
3269.000000	98.651333 
3268.000000	98.650474 
3267.000000	98.650749 
3266.000000	98.652011 
3265.000000	98.653685 
3264.000000	98.655369 
3263.000000	98.656928 
3262.000000	98.658202 
3261.000000	98.659050 
3260.000000	98.659545 
3259.000000	98.659807 
3258.000000	98.659820 
3257.000000	98.659646 
3256.000000	98.659649 
3255.000000	98.660164 
3254.000000	98.661139 
3253.000000	98.662323 
3252.000000	98.663621 
3251.000000	98.664987 
3250.000000	98.666160 
3249.000000	98.666892 
3248.000000	98.667381 
3247.000000	98.668136 
3246.000000	98.669303 
3245.000000	98.670420 
3244.000000	98.671027 
3243.000000	98.671286 
3242.000000	98.671826 
3241.000000	98.673078 
3240.000000	98.674867 
3239.000000	98.676512 
3238.000000	98.677314 
3237.000000	98.677031 
3236.000000	98.676034 
3235.000000	98.675015 
3234.000000	98.674488 
3233.000000	98.674672 
3232.000000	98.675717 
3231.000000	98.677709 
3230.000000	98.680386 
3229.000000	98.683126 
3228.000000	98.685314 
3227.000000	98.686572 
3226.000000	98.686774 
3225.000000	98.686268 
3224.000000	98.686020 
3223.000000	98.686933 
3222.000000	98.688878 
3221.000000	98.690846 
3220.000000	98.692169 
3219.000000	98.693022 
3218.000000	98.693505 
3217.000000	98.693070 
3216.000000	98.691431 
3215.000000	98.689466 
3214.000000	98.688425 
3213.000000	98.688573 
3212.000000	98.689339 
3211.000000	98.690438 
3210.000000	98.692068 
3209.000000	98.694148 
3208.000000	98.696199 
3207.000000	98.698111 
3206.000000	98.700373 
3205.000000	98.703422 
3204.000000	98.707253 
3203.000000	98.711664 
3202.000000	98.716350 
3201.000000	98.720605 
3200.000000	98.723446 
3199.000000	98.724281 
3198.000000	98.723294 
3197.000000	98.721236 
3196.000000	98.719078 
3195.000000	98.717838 
3194.000000	98.718080 
3193.000000	98.719242 
3192.000000	98.719877 
3191.000000	98.719087 
3190.000000	98.717648 
3189.000000	98.717290 
3188.000000	98.718777 
3187.000000	98.721094 
3186.000000	98.722694 
3185.000000	98.723221 
3184.000000	98.723563 
3183.000000	98.724418 
3182.000000	98.725504 
3181.000000	98.726324 
3180.000000	98.727044 
3179.000000	98.728160 
3178.000000	98.729746 
3177.000000	98.731558 
3176.000000	98.733587 
3175.000000	98.735939 
3174.000000	98.738414 
3173.000000	98.740801 
3172.000000	98.743292 
3171.000000	98.745821 
3170.000000	98.747268 
3169.000000	98.746408 
3168.000000	98.743752 
3167.000000	98.741499 
3166.000000	98.741070 
3165.000000	98.741691 
3164.000000	98.741966 
3163.000000	98.741895 
3162.000000	98.742413 
3161.000000	98.743685 
3160.000000	98.745115 
3159.000000	98.746696 
3158.000000	98.749123 
3157.000000	98.752592 
3156.000000	98.756407 
3155.000000	98.759904 
3154.000000	98.762992 
3153.000000	98.765705 
3152.000000	98.767922 
3151.000000	98.769616 
3150.000000	98.770741 
3149.000000	98.770878 
3148.000000	98.769723 
3147.000000	98.767920 
3146.000000	98.766601 
3145.000000	98.765934 
3144.000000	98.765003 
3143.000000	98.763446 
3142.000000	98.762391 
3141.000000	98.763126 
3140.000000	98.765418 
3139.000000	98.767731 
3138.000000	98.768909 
3137.000000	98.769205 
3136.000000	98.769670 
3135.000000	98.771013 
3134.000000	98.773129 
3133.000000	98.775380 
3132.000000	98.777143 
3131.000000	98.778175 
3130.000000	98.778542 
3129.000000	98.778334 
3128.000000	98.777639 
3127.000000	98.776843 
3126.000000	98.776674 
3125.000000	98.777687 
3124.000000	98.779806 
3123.000000	98.782380 
3122.000000	98.784621 
3121.000000	98.786040 
3120.000000	98.786546 
3119.000000	98.786346 
3118.000000	98.785780 
3117.000000	98.785178 
3116.000000	98.784850 
3115.000000	98.785106 
3114.000000	98.786093 
3113.000000	98.787554 
3112.000000	98.788910 
3111.000000	98.789701 
3110.000000	98.789959 
3109.000000	98.790117 
3108.000000	98.790640 
3107.000000	98.791716 
3106.000000	98.793176 
3105.000000	98.794671 
3104.000000	98.796081 
3103.000000	98.797661 
3102.000000	98.799640 
3101.000000	98.801741 
3100.000000	98.803348 
3099.000000	98.804130 
3098.000000	98.804201 
3097.000000	98.803776 
3096.000000	98.803067 
3095.000000	98.802564 
3094.000000	98.802862 
3093.000000	98.803960 
3092.000000	98.805115 
3091.000000	98.805756 
3090.000000	98.806252 
3089.000000	98.807278 
3088.000000	98.808822 
3087.000000	98.810468 
3086.000000	98.812244 
3085.000000	98.814255 
3084.000000	98.815777 
3083.000000	98.815965 
3082.000000	98.815427 
3081.000000	98.815825 
3080.000000	98.817679 
3079.000000	98.819830 
3078.000000	98.821236 
3077.000000	98.821953 
3076.000000	98.822015 
3075.000000	98.820942 
3074.000000	98.819172 
3073.000000	98.818647 
3072.000000	98.820783 
3071.000000	98.824649 
3070.000000	98.827961 
3069.000000	98.828946 
3068.000000	98.826535 
3067.000000	98.820158 
3066.000000	98.810959 
3065.000000	98.802497 
3064.000000	98.798441 
3063.000000	98.799451 
3062.000000	98.803160 
3061.000000	98.806932 
3060.000000	98.809966 
3059.000000	98.812837 
3058.000000	98.815929 
3057.000000	98.818729 
3056.000000	98.820449 
3055.000000	98.821209 
3054.000000	98.822261 
3053.000000	98.824446 
3052.000000	98.826678 
3051.000000	98.826977 
3050.000000	98.825086 
3049.000000	98.822815 
3048.000000	98.821254 
3047.000000	98.819108 
3046.000000	98.814825 
3045.000000	98.809089 
3044.000000	98.803886 
3043.000000	98.799798 
3042.000000	98.795719 
3041.000000	98.791039 
3040.000000	98.786839 
3039.000000	98.784795 
3038.000000	98.785602 
3037.000000	98.788262 
3036.000000	98.790340 
3035.000000	98.789181 
3034.000000	98.783626 
3033.000000	98.774370 
3032.000000	98.762746 
3031.000000	98.750010 
3030.000000	98.737448 
3029.000000	98.725965 
3028.000000	98.715327 
3027.000000	98.704854 
3026.000000	98.695084 
3025.000000	98.687393 
3024.000000	98.681410 
3023.000000	98.674437 
3022.000000	98.664436 
3021.000000	98.652151 
3020.000000	98.639398 
3019.000000	98.626973 
3018.000000	98.615584 
3017.000000	98.606878 
3016.000000	98.601211 
3015.000000	98.595715 
3014.000000	98.587003 
3013.000000	98.574773 
3012.000000	98.560395 
3011.000000	98.543239 
3010.000000	98.521855 
3009.000000	98.498447 
3008.000000	98.478469 
3007.000000	98.465000 
3006.000000	98.456245 
3005.000000	98.449039 
3004.000000	98.441358 
3003.000000	98.430276 
3002.000000	98.411674 
3001.000000	98.385455 
3000.000000	98.358635 
2999.000000	98.339250 
2998.000000	98.328339 
2997.000000	98.321203 
2996.000000	98.315172 
2995.000000	98.311467 
2994.000000	98.308611 
2993.000000	98.299180 
2992.000000	98.277092 
2991.000000	98.246251 
2990.000000	98.218470 
2989.000000	98.202967 
2988.000000	98.200598 
2987.000000	98.207330 
2986.000000	98.219455 
2985.000000	98.233920 
2984.000000	98.246369 
2983.000000	98.252536 
2982.000000	98.251550 
2981.000000	98.245838 
2980.000000	98.237887 
2979.000000	98.229116 
2978.000000	98.221700 
2977.000000	98.218333 
2976.000000	98.218624 
2975.000000	98.218019 
2974.000000	98.212714 
2973.000000	98.204330 
2972.000000	98.197574 
2971.000000	98.194783 
2970.000000	98.195750 
2969.000000	98.201788 
2968.000000	98.215751 
2967.000000	98.237020 
2966.000000	98.259757 
2965.000000	98.278275 
2964.000000	98.292186 
2963.000000	98.304462 
2962.000000	98.316417 
2961.000000	98.326895 
2960.000000	98.335190 
2959.000000	98.342357 
2958.000000	98.349688 
2957.000000	98.357262 
2956.000000	98.363873 
2955.000000	98.367660 
2954.000000	98.367622 
2953.000000	98.365666 
2952.000000	98.366427 
2951.000000	98.373466 
2950.000000	98.385699 
2949.000000	98.398486 
2948.000000	98.408023 
2947.000000	98.413814 
2946.000000	98.417630 
2945.000000	98.421515 
2944.000000	98.426622 
2943.000000	98.432885 
2942.000000	98.439461 
2941.000000	98.445671 
2940.000000	98.451318 
2939.000000	98.456040 
2938.000000	98.459075 
2937.000000	98.460227 
2936.000000	98.460343 
2935.000000	98.460118 
2934.000000	98.459133 
2933.000000	98.456773 
2932.000000	98.453290 
2931.000000	98.449167 
2930.000000	98.444352 
2929.000000	98.439059 
2928.000000	98.434427 
2927.000000	98.431213 
2926.000000	98.428686 
2925.000000	98.426074 
2924.000000	98.424296 
2923.000000	98.424913 
2922.000000	98.428112 
2921.000000	98.433111 
2920.000000	98.439594 
2919.000000	98.446845 
2918.000000	98.452130 
2917.000000	98.452261 
2916.000000	98.446955 
2915.000000	98.439006 
2914.000000	98.431102 
2913.000000	98.424261 
2912.000000	98.419374 
2911.000000	98.417733 
2910.000000	98.418680 
2909.000000	98.418596 
2908.000000	98.414121 
2907.000000	98.405496 
2906.000000	98.395239 
2905.000000	98.384282 
2904.000000	98.371550 
2903.000000	98.357759 
2902.000000	98.347885 
2901.000000	98.348020 
2900.000000	98.359956 
2899.000000	98.379153 
2898.000000	98.397757 
2897.000000	98.410115 
2896.000000	98.415481 
2895.000000	98.416687 
2894.000000	98.417562 
2893.000000	98.421042 
2892.000000	98.427764 
2891.000000	98.435412 
2890.000000	98.440520 
2889.000000	98.442069 
2888.000000	98.442571 
2887.000000	98.444817 
2886.000000	98.448790 
2885.000000	98.453118 
2884.000000	98.458347 
2883.000000	98.466541 
2882.000000	98.478145 
2881.000000	98.491513 
2880.000000	98.505421 
2879.000000	98.519734 
2878.000000	98.533314 
2877.000000	98.543808 
2876.000000	98.550505 
2875.000000	98.555417 
2874.000000	98.560562 
2873.000000	98.566077 
2872.000000	98.571983 
2871.000000	98.579542 
2870.000000	98.589095 
2869.000000	98.598238 
2868.000000	98.604216 
2867.000000	98.607223 
2866.000000	98.609956 
2865.000000	98.615022 
2864.000000	98.624100 
2863.000000	98.637963 
2862.000000	98.655105 
2861.000000	98.671321 
2860.000000	98.683079 
2859.000000	98.690805 
2858.000000	98.697424 
2857.000000	98.704748 
2856.000000	98.713087 
2855.000000	98.723204 
2854.000000	98.735922 
2853.000000	98.750184 
2852.000000	98.763766 
2851.000000	98.775683 
2850.000000	98.785954 
2849.000000	98.793856 
2848.000000	98.798773 
2847.000000	98.802217 
2846.000000	98.806315 
2845.000000	98.810348 
2844.000000	98.811630 
2843.000000	98.809888 
2842.000000	98.807877 
2841.000000	98.807303 
2840.000000	98.807006 
2839.000000	98.805821 
2838.000000	98.804295 
2837.000000	98.802722 
2836.000000	98.800661 
2835.000000	98.799864 
2834.000000	98.804445 
2833.000000	98.815862 
2832.000000	98.829917 
2831.000000	98.840996 
2830.000000	98.847588 
2829.000000	98.851277 
2828.000000	98.852892 
2827.000000	98.852892 
2826.000000	98.853800 
2825.000000	98.858195 
2824.000000	98.864700 
2823.000000	98.869484 
2822.000000	98.871704 
2821.000000	98.874004 
2820.000000	98.877295 
2819.000000	98.878904 
2818.000000	98.877298 
2817.000000	98.875239 
2816.000000	98.875983 
2815.000000	98.878672 
2814.000000	98.880158 
2813.000000	98.879631 
2812.000000	98.878725 
2811.000000	98.878080 
2810.000000	98.876651 
2809.000000	98.874549 
2808.000000	98.874072 
2807.000000	98.876906 
2806.000000	98.881879 
2805.000000	98.886258 
2804.000000	98.888606 
2803.000000	98.889493 
2802.000000	98.889921 
2801.000000	98.890100 
2800.000000	98.889961 
2799.000000	98.890072 
2798.000000	98.891224 
2797.000000	98.893242 
2796.000000	98.895006 
2795.000000	98.895902 
2794.000000	98.896457 
2793.000000	98.897124 
2792.000000	98.897391 
2791.000000	98.896925 
2790.000000	98.896786 
2789.000000	98.898198 
2788.000000	98.900716 
2787.000000	98.902854 
2786.000000	98.904326 
2785.000000	98.906166 
2784.000000	98.908690 
2783.000000	98.910917 
2782.000000	98.912213 
2781.000000	98.912977 
2780.000000	98.913251 
2779.000000	98.912259 
2778.000000	98.910028 
2777.000000	98.908022 
2776.000000	98.907224 
2775.000000	98.906813 
2774.000000	98.905772 
2773.000000	98.904631 
2772.000000	98.904420 
2771.000000	98.905085 
2770.000000	98.906241 
2769.000000	98.908405 
2768.000000	98.912019 
2767.000000	98.916081 
2766.000000	98.919239 
2765.000000	98.921603 
2764.000000	98.924059 
2763.000000	98.926625 
2762.000000	98.928912 
2761.000000	98.931332 
2760.000000	98.934104 
2759.000000	98.935757 
2758.000000	98.934631 
2757.000000	98.931481 
2756.000000	98.928847 
2755.000000	98.927844 
2754.000000	98.927275 
2753.000000	98.925847 
2752.000000	98.923552 
2751.000000	98.920837 
2750.000000	98.918142 
2749.000000	98.916673 
2748.000000	98.917910 
2747.000000	98.921563 
2746.000000	98.925146 
2745.000000	98.926593 
2744.000000	98.926468 
2743.000000	98.926755 
2742.000000	98.928432 
2741.000000	98.931013 
2740.000000	98.933764 
2739.000000	98.936357 
2738.000000	98.938492 
2737.000000	98.939650 
2736.000000	98.939440 
2735.000000	98.937991 
2734.000000	98.936053 
2733.000000	98.934726 
2732.000000	98.934752 
2731.000000	98.935951 
2730.000000	98.937460 
2729.000000	98.938441 
2728.000000	98.938299 
2727.000000	98.936613 
2726.000000	98.933713 
2725.000000	98.931278 
2724.000000	98.931228 
2723.000000	98.933804 
2722.000000	98.937472 
2721.000000	98.940823 
2720.000000	98.943643 
2719.000000	98.945827 
2718.000000	98.946775 
2717.000000	98.946778 
2716.000000	98.947724 
2715.000000	98.951004 
2714.000000	98.955366 
2713.000000	98.958138 
2712.000000	98.958063 
2711.000000	98.955849 
2710.000000	98.952750 
2709.000000	98.949887 
2708.000000	98.948380 
2707.000000	98.948449 
2706.000000	98.948409 
2705.000000	98.945977 
2704.000000	98.940831 
2703.000000	98.935041 
2702.000000	98.931025 
2701.000000	98.929878 
2700.000000	98.931504 
2699.000000	98.935057 
2698.000000	98.939178 
2697.000000	98.942864 
2696.000000	98.946175 
2695.000000	98.949510 
2694.000000	98.952607 
2693.000000	98.955092 
2692.000000	98.957297 
2691.000000	98.959396 
2690.000000	98.960471 
2689.000000	98.959936 
2688.000000	98.959158 
2687.000000	98.959675 
2686.000000	98.960213 
2685.000000	98.957835 
2684.000000	98.952043 
2683.000000	98.945656 
2682.000000	98.941272 
2681.000000	98.938731 
2680.000000	98.936847 
2679.000000	98.935667 
2678.000000	98.935884 
2677.000000	98.937413 
2676.000000	98.939766 
2675.000000	98.942835 
2674.000000	98.946290 
2673.000000	98.949126 
2672.000000	98.950707 
2671.000000	98.951409 
2670.000000	98.951492 
2669.000000	98.950389 
2668.000000	98.947829 
2667.000000	98.944793 
2666.000000	98.942569 
2665.000000	98.941562 
2664.000000	98.941663 
2663.000000	98.942909 
2662.000000	98.944894 
2661.000000	98.946329 
2660.000000	98.946244 
2659.000000	98.945030 
2658.000000	98.943539 
2657.000000	98.941867 
2656.000000	98.940008 
2655.000000	98.938902 
2654.000000	98.939280 
2653.000000	98.939910 
2652.000000	98.938674 
2651.000000	98.935572 
2650.000000	98.933120 
2649.000000	98.933266 
2648.000000	98.935549 
2647.000000	98.938581 
2646.000000	98.941897 
2645.000000	98.945330 
2644.000000	98.947757 
2643.000000	98.947993 
2642.000000	98.946328 
2641.000000	98.944280 
2640.000000	98.942914 
2639.000000	98.942194 
2638.000000	98.941747 
2637.000000	98.941239 
2636.000000	98.940209 
2635.000000	98.938253 
2634.000000	98.935431 
2633.000000	98.932318 
2632.000000	98.929962 
2631.000000	98.929660 
2630.000000	98.932049 
2629.000000	98.936034 
2628.000000	98.939378 
2627.000000	98.941067 
2626.000000	98.942054 
2625.000000	98.943351 
2624.000000	98.944509 
2623.000000	98.944774 
2622.000000	98.944639 
2621.000000	98.944879 
2620.000000	98.944968 
2619.000000	98.943928 
2618.000000	98.942143 
2617.000000	98.940877 
2616.000000	98.940350 
2615.000000	98.939720 
2614.000000	98.938720 
2613.000000	98.938030 
2612.000000	98.937992 
2611.000000	98.938092 
2610.000000	98.937944 
2609.000000	98.937893 
2608.000000	98.938306 
2607.000000	98.938951 
2606.000000	98.939382 
2605.000000	98.939459 
2604.000000	98.939294 
2603.000000	98.938989 
2602.000000	98.938621 
2601.000000	98.938317 
2600.000000	98.938183 
2599.000000	98.938193 
2598.000000	98.938245 
2597.000000	98.938288 
2596.000000	98.938328 
2595.000000	98.938360 
2594.000000	98.938385 
2593.000000	98.938404 
2592.000000	98.938417 
2591.000000	98.938422 
2590.000000	98.938415 
2589.000000	98.938385 
2588.000000	98.938318 
2587.000000	98.938202 
2586.000000	98.938045 
2585.000000	98.937870 
2584.000000	98.937692 
2583.000000	98.937519 
2582.000000	98.937360 
2581.000000	98.937234 
2580.000000	98.937151 
2579.000000	98.937107 
2578.000000	98.937093 
2577.000000	98.937115 
2576.000000	98.937175 
2575.000000	98.937256 
2574.000000	98.937332 
2573.000000	98.937390 
2572.000000	98.937434 
2571.000000	98.937465 
2570.000000	98.937483 
2569.000000	98.937497 
2568.000000	98.937527 
2567.000000	98.937584 
2566.000000	98.937662 
2565.000000	98.937755 
2564.000000	98.937870 
2563.000000	98.938020 
2562.000000	98.938208 
2561.000000	98.938424 
2560.000000	98.938665 
2559.000000	98.938940 
2558.000000	98.939279 
2557.000000	98.939628 
2556.000000	98.939853 
2555.000000	98.939974 
2554.000000	98.940190 
2553.000000	98.940538 
2552.000000	98.940864 
2551.000000	98.941124 
2550.000000	98.941346 
2549.000000	98.941390 
2548.000000	98.941122 
2547.000000	98.940752 
2546.000000	98.940644 
2545.000000	98.940919 
2544.000000	98.941503 
2543.000000	98.942307 
2542.000000	98.943304 
2541.000000	98.944536 
2540.000000	98.946019 
2539.000000	98.947487 
2538.000000	98.948480 
2537.000000	98.948851 
2536.000000	98.948617 
2535.000000	98.947116 
2534.000000	98.943474 
2533.000000	98.938646 
2532.000000	98.935634 
2531.000000	98.936228 
2530.000000	98.938975 
2529.000000	98.941486 
2528.000000	98.943961 
2527.000000	98.947921 
2526.000000	98.952534 
2525.000000	98.955153 
2524.000000	98.955352 
2523.000000	98.955568 
2522.000000	98.957143 
2521.000000	98.958287 
2520.000000	98.957183 
2519.000000	98.954946 
2518.000000	98.954126 
2517.000000	98.955678 
2516.000000	98.958577 
2515.000000	98.961272 
2514.000000	98.962514 
2513.000000	98.961733 
2512.000000	98.959438 
2511.000000	98.956697 
2510.000000	98.953964 
2509.000000	98.951274 
2508.000000	98.949552 
2507.000000	98.949935 
2506.000000	98.951338 
2505.000000	98.950513 
2504.000000	98.945723 
2503.000000	98.939103 
2502.000000	98.934300 
2501.000000	98.932704 
2500.000000	98.933511 
2499.000000	98.936106 
2498.000000	98.940562 
2497.000000	98.946169 
2496.000000	98.951267 
2495.000000	98.954757 
2494.000000	98.956576 
2493.000000	98.956758 
2492.000000	98.955263 
2491.000000	98.952940 
2490.000000	98.951525 
2489.000000	98.952032 
2488.000000	98.953667 
2487.000000	98.954756 
2486.000000	98.954484 
2485.000000	98.953441 
2484.000000	98.952721 
2483.000000	98.952750 
2482.000000	98.952997 
2481.000000	98.952680 
2480.000000	98.951606 
2479.000000	98.950281 
2478.000000	98.949321 
2477.000000	98.948875 
2476.000000	98.948638 
2475.000000	98.948317 
2474.000000	98.948022 
2473.000000	98.948210 
2472.000000	98.949226 
2471.000000	98.950861 
2470.000000	98.952402 
2469.000000	98.953170 
2468.000000	98.952974 
2467.000000	98.952024 
2466.000000	98.950682 
2465.000000	98.949456 
2464.000000	98.948920 
2463.000000	98.949306 
2462.000000	98.950165 
2461.000000	98.950657 
2460.000000	98.950387 
2459.000000	98.949698 
2458.000000	98.949218 
2457.000000	98.949264 
2456.000000	98.949623 
2455.000000	98.949733 
2454.000000	98.949143 
2453.000000	98.947973 
2452.000000	98.946883 
2451.000000	98.946388 
2450.000000	98.946359 
2449.000000	98.946350 
2448.000000	98.946198 
2447.000000	98.946022 
2446.000000	98.945856 
2445.000000	98.945763 
2444.000000	98.946173 
2443.000000	98.947537 
2442.000000	98.949624 
2441.000000	98.951572 
2440.000000	98.952747 
2439.000000	98.953156 
2438.000000	98.953033 
2437.000000	98.952557 
2436.000000	98.952063 
2435.000000	98.951892 
2434.000000	98.951660 
2433.000000	98.950370 
2432.000000	98.947828 
2431.000000	98.945384 
2430.000000	98.944446 
2429.000000	98.944833 
2428.000000	98.945500 
2427.000000	98.946379 
2426.000000	98.948128 
2425.000000	98.950133 
2424.000000	98.950297 
2423.000000	98.947405 
2422.000000	98.942767 
2421.000000	98.939028 
2420.000000	98.937851 
2419.000000	98.939471 
2418.000000	98.943536 
2417.000000	98.949181 
2416.000000	98.954662 
2415.000000	98.958198 
2414.000000	98.959450 
2413.000000	98.959528 
2412.000000	98.959425 
2411.000000	98.959104 
2410.000000	98.958444 
2409.000000	98.958235 
2408.000000	98.959374 
2407.000000	98.961568 
2406.000000	98.963789 
2405.000000	98.965697 
2404.000000	98.967396 
2403.000000	98.967967 
2402.000000	98.965801 
2401.000000	98.960937 
2400.000000	98.955809 
2399.000000	98.952601 
2398.000000	98.950966 
2397.000000	98.949669 
2396.000000	98.949421 
2395.000000	98.952038 
2394.000000	98.957205 
2393.000000	98.962253 
2392.000000	98.965642 
2391.000000	98.968833 
2390.000000	98.973770 
2389.000000	98.980190 
2388.000000	98.986436 
2387.000000	98.991641 
2386.000000	98.995754 
2385.000000	98.998445 
2384.000000	98.999641 
2383.000000	99.000661 
2382.000000	99.003198 
2381.000000	99.007084 
2380.000000	99.010349 
2379.000000	99.011750 
2378.000000	99.011953 
2377.000000	99.012035 
2376.000000	99.012140 
2375.000000	99.012410 
2374.000000	99.013952 
2373.000000	99.017382 
2372.000000	99.021387 
2371.000000	99.024372 
2370.000000	99.026808 
2369.000000	99.029939 
2368.000000	99.032464 
2367.000000	99.031235 
2366.000000	99.025866 
2365.000000	99.020737 
2364.000000	99.020561 
2363.000000	99.024767 
2362.000000	99.029017 
2361.000000	99.030962 
2360.000000	99.031658 
2359.000000	99.032815 
2358.000000	99.034128 
2357.000000	99.034877 
2356.000000	99.036001 
2355.000000	99.037977 
2354.000000	99.039435 
2353.000000	99.038454 
2352.000000	99.035609 
2351.000000	99.032905 
2350.000000	99.030235 
2349.000000	99.026530 
2348.000000	99.021543 
2347.000000	99.017541 
2346.000000	99.016960 
2345.000000	99.019314 
2344.000000	99.022415 
2343.000000	99.024771 
2342.000000	99.027835 
2341.000000	99.031945 
2340.000000	99.034937 
2339.000000	99.035234 
2338.000000	99.034062 
2337.000000	99.033755 
2336.000000	99.034538 
2335.000000	99.034692 
2334.000000	99.033362 
2333.000000	99.031115 
2332.000000	99.028333 
2331.000000	99.024512 
2330.000000	99.019052 
2329.000000	99.014100 
2328.000000	99.011593 
2327.000000	99.012003 
2326.000000	99.013722 
2325.000000	99.014784 
2324.000000	99.014763 
2323.000000	99.013691 
2322.000000	99.013339 
2321.000000	99.015873 
2320.000000	99.022680 
2319.000000	99.031846 
2318.000000	99.038890 
2317.000000	99.040582 
2316.000000	99.036843 
2315.000000	99.030047 
2314.000000	99.022035 
2313.000000	99.013937 
2312.000000	99.006938 
2311.000000	99.002979 
2310.000000	99.002855 
2309.000000	99.004879 
2308.000000	99.005376 
2307.000000	99.001432 
2306.000000	98.993090 
2305.000000	98.982876 
2304.000000	98.973541 
2303.000000	98.966329 
2302.000000	98.961484 
2301.000000	98.959322 
2300.000000	98.959857 
2299.000000	98.961900 
2298.000000	98.963430 
2297.000000	98.963560 
2296.000000	98.963063 
2295.000000	98.963206 
2294.000000	98.964182 
2293.000000	98.964957 
2292.000000	98.964131 
2291.000000	98.960954 
2290.000000	98.956011 
2289.000000	98.950816 
2288.000000	98.946413 
2287.000000	98.942363 
2286.000000	98.937825 
2285.000000	98.933167 
2284.000000	98.929661 
2283.000000	98.927561 
2282.000000	98.925663 
2281.000000	98.922873 
2280.000000	98.919510 
2279.000000	98.916921 
2278.000000	98.916567 
2277.000000	98.919261 
2276.000000	98.924319 
2275.000000	98.929398 
2274.000000	98.932036 
2273.000000	98.931714 
2272.000000	98.929648 
2271.000000	98.926915 
2270.000000	98.923852 
2269.000000	98.921253 
2268.000000	98.920601 
2267.000000	98.922259 
2266.000000	98.924419 
2265.000000	98.924758 
2264.000000	98.922585 
2263.000000	98.918753 
2262.000000	98.914593 
2261.000000	98.911744 
2260.000000	98.911816 
2259.000000	98.914701 
2258.000000	98.917799 
2257.000000	98.918549 
2256.000000	98.917379 
2255.000000	98.916483 
2254.000000	98.916319 
2253.000000	98.915468 
2252.000000	98.913816 
2251.000000	98.913321 
2250.000000	98.915116 
2249.000000	98.918060 
2248.000000	98.920659 
2247.000000	98.922527 
2246.000000	98.923143 
2245.000000	98.921257 
2244.000000	98.916790 
2243.000000	98.911878 
2242.000000	98.908874 
2241.000000	98.908218 
2240.000000	98.908878 
2239.000000	98.909620 
2238.000000	98.909263 
2237.000000	98.906805 
2236.000000	98.902231 
2235.000000	98.896714 
2234.000000	98.891753 
2233.000000	98.888824 
2232.000000	98.889705 
2231.000000	98.895506 
2230.000000	98.904865 
2229.000000	98.914317 
2228.000000	98.921199 
2227.000000	98.925093 
2226.000000	98.926299 
2225.000000	98.924822 
2224.000000	98.921485 
2223.000000	98.918311 
2222.000000	98.916656 
2221.000000	98.915962 
2220.000000	98.915038 
2219.000000	98.913635 
2218.000000	98.912231 
2217.000000	98.911193 
2216.000000	98.910761 
2215.000000	98.910951 
2214.000000	98.911006 
2213.000000	98.909762 
2212.000000	98.907128 
2211.000000	98.904660 
2210.000000	98.904215 
2209.000000	98.906284 
2208.000000	98.909766 
2207.000000	98.912704 
2206.000000	98.913381 
2205.000000	98.911337 
2204.000000	98.907659 
2203.000000	98.904153 
2202.000000	98.901975 
2201.000000	98.901474 
2200.000000	98.902754 
2199.000000	98.905436 
2198.000000	98.908095 
2197.000000	98.909231 
2196.000000	98.909070 
2195.000000	98.909315 
2194.000000	98.910805 
2193.000000	98.912615 
2192.000000	98.913833 
2191.000000	98.914693 
2190.000000	98.915156 
2189.000000	98.914037 
2188.000000	98.910891 
2187.000000	98.907432 
2186.000000	98.905428 
2185.000000	98.904406 
2184.000000	98.903232 
2183.000000	98.902609 
2182.000000	98.903787 
2181.000000	98.906029 
2180.000000	98.907836 
2179.000000	98.909548 
2178.000000	98.911896 
2177.000000	98.913042 
2176.000000	98.910467 
2175.000000	98.905419 
2174.000000	98.902163 
2173.000000	98.902333 
2172.000000	98.903748 
2171.000000	98.905198 
2170.000000	98.908554 
2169.000000	98.914531 
2168.000000	98.920056 
2167.000000	98.921954 
2166.000000	98.920798 
2165.000000	98.919354 
2164.000000	98.919317 
2163.000000	98.921443 
2162.000000	98.926913 
2161.000000	98.936007 
2160.000000	98.946144 
2159.000000	98.953143 
2158.000000	98.954392 
2157.000000	98.949985 
2156.000000	98.942283 
2155.000000	98.934767 
2154.000000	98.929726 
2153.000000	98.926705 
2152.000000	98.924157 
2151.000000	98.922297 
2150.000000	98.922852 
2149.000000	98.926347 
2148.000000	98.931471 
2147.000000	98.936725 
2146.000000	98.940890 
2145.000000	98.942533 
2144.000000	98.941485 
2143.000000	98.940396 
2142.000000	98.942279 
2141.000000	98.946526 
2140.000000	98.949726 
2139.000000	98.950395 
2138.000000	98.950111 
2137.000000	98.949809 
2136.000000	98.948262 
2135.000000	98.945413 
2134.000000	98.943886 
2133.000000	98.945294 
2132.000000	98.947681 
2131.000000	98.948294 
2130.000000	98.946790 
2129.000000	98.944295 
2128.000000	98.941250 
2127.000000	98.937779 
2126.000000	98.934876 
2125.000000	98.933468 
2124.000000	98.933127 
2123.000000	98.933087 
2122.000000	98.933710 
2121.000000	98.935296 
2120.000000	98.936500 
2119.000000	98.935788 
2118.000000	98.933769 
2117.000000	98.932346 
2116.000000	98.932086 
2115.000000	98.932010 
2114.000000	98.931499 
2113.000000	98.931097 
2112.000000	98.931255 
2111.000000	98.931287 
2110.000000	98.930425 
2109.000000	98.929154 
2108.000000	98.928527 
2107.000000	98.928641 
2106.000000	98.928627 
2105.000000	98.927895 
2104.000000	98.926562 
2103.000000	98.924797 
2102.000000	98.922704 
2101.000000	98.920912 
2100.000000	98.920278 
2099.000000	98.920752 
2098.000000	98.921348 
2097.000000	98.921632 
2096.000000	98.922269 
2095.000000	98.923555 
2094.000000	98.924187 
2093.000000	98.922402 
2092.000000	98.918158 
2091.000000	98.913820 
2090.000000	98.912036 
2089.000000	98.913191 
2088.000000	98.915447 
2087.000000	98.917050 
2086.000000	98.918414 
2085.000000	98.921134 
2084.000000	98.925410 
2083.000000	98.929460 
2082.000000	98.931642 
2081.000000	98.932012 
2080.000000	98.931248 
2079.000000	98.929434 
2078.000000	98.927118 
2077.000000	98.926360 
2076.000000	98.928826 
2075.000000	98.933469 
2074.000000	98.937774 
2073.000000	98.940741 
2072.000000	98.942686 
2071.000000	98.942825 
2070.000000	98.939813 
2069.000000	98.934570 
2068.000000	98.929975 
2067.000000	98.927355 
2066.000000	98.925833 
2065.000000	98.925267 
2064.000000	98.926908 
2063.000000	98.930500 
2062.000000	98.934095 
2061.000000	98.937514 
2060.000000	98.942766 
2059.000000	98.949811 
2058.000000	98.954994 
2057.000000	98.955669 
2056.000000	98.953496 
2055.000000	98.951211 
2054.000000	98.948645 
2053.000000	98.944490 
2052.000000	98.939751 
2051.000000	98.936661 
2050.000000	98.935437 
2049.000000	98.934187 
2048.000000	98.931440 
2047.000000	98.927399 
2046.000000	98.923407 
2045.000000	98.921358 
2044.000000	98.922709 
2043.000000	98.926972 
2042.000000	98.931839 
2041.000000	98.935516 
2040.000000	98.938118 
2039.000000	98.940251 
2038.000000	98.941724 
2037.000000	98.942396 
2036.000000	98.942797 
2035.000000	98.943138 
2034.000000	98.942980 
2033.000000	98.942479 
2032.000000	98.942496 
2031.000000	98.942948 
2030.000000	98.942708 
2029.000000	98.941587 
2028.000000	98.940726 
2027.000000	98.940622 
2026.000000	98.940494 
2025.000000	98.940177 
2024.000000	98.940761 
2023.000000	98.942422 
2022.000000	98.943347 
2021.000000	98.942096 
2020.000000	98.939810 
2019.000000	98.939018 
2018.000000	98.940582 
2017.000000	98.943333 
2016.000000	98.945637 
2015.000000	98.946950 
2014.000000	98.947430 
2013.000000	98.947315 
2012.000000	98.947118 
2011.000000	98.947632 
2010.000000	98.949282 
2009.000000	98.951841 
2008.000000	98.954728 
2007.000000	98.957251 
2006.000000	98.958657 
2005.000000	98.958618 
2004.000000	98.957774 
2003.000000	98.957119 
2002.000000	98.956868 
2001.000000	98.956539 
2000.000000	98.955881 
1999.000000	98.955089 
1998.000000	98.954366 
1997.000000	98.953979 
1996.000000	98.954487 
1995.000000	98.956168 
1994.000000	98.958339 
1993.000000	98.959929 
1992.000000	98.960661 
1991.000000	98.960868 
1990.000000	98.960491 
1989.000000	98.959475 
1988.000000	98.958844 
1987.000000	98.959768 
1986.000000	98.961592 
1985.000000	98.962426 
1984.000000	98.961908 
1983.000000	98.961634 
1982.000000	98.962335 
1981.000000	98.962419 
1980.000000	98.960359 
1979.000000	98.956930 
1978.000000	98.954155 
1977.000000	98.952827 
1976.000000	98.952494 
1975.000000	98.952724 
1974.000000	98.953291 
1973.000000	98.954264 
1972.000000	98.956335 
1971.000000	98.959982 
1970.000000	98.963974 
1969.000000	98.965944 
1968.000000	98.965132 
1967.000000	98.963191 
1966.000000	98.962067 
1965.000000	98.961633 
1964.000000	98.960869 
1963.000000	98.959829 
1962.000000	98.959291 
1961.000000	98.959373 
1960.000000	98.959464 
1959.000000	98.959216 
1958.000000	98.958872 
1957.000000	98.958686 
1956.000000	98.958585 
1955.000000	98.958442 
1954.000000	98.958271 
1953.000000	98.958081 
1952.000000	98.957760 
1951.000000	98.957233 
1950.000000	98.956627 
1949.000000	98.956216 
1948.000000	98.956204 
1947.000000	98.956502 
1946.000000	98.956646 
1945.000000	98.956150 
1944.000000	98.954957 
1943.000000	98.953632 
1942.000000	98.952947 
1941.000000	98.953114 
1940.000000	98.953703 
1939.000000	98.954111 
1938.000000	98.954160 
1937.000000	98.954082 
1936.000000	98.954122 
1935.000000	98.954248 
1934.000000	98.954255 
1933.000000	98.954104 
1932.000000	98.954022 
1931.000000	98.954217 
1930.000000	98.954506 
1929.000000	98.954394 
1928.000000	98.953692 
1927.000000	98.952805 
1926.000000	98.952245 
1925.000000	98.952085 
1924.000000	98.952118 
1923.000000	98.952369 
1922.000000	98.953025 
1921.000000	98.953936 
1920.000000	98.954495 
1919.000000	98.954042 
1918.000000	98.952273 
1917.000000	98.949587 
1916.000000	98.947016 
1915.000000	98.945349 
1914.000000	98.944502 
1913.000000	98.943891 
1912.000000	98.943204 
1911.000000	98.942537 
1910.000000	98.941653 
1909.000000	98.940114 
1908.000000	98.938687 
1907.000000	98.939123 
1906.000000	98.942081 
1905.000000	98.945890 
1904.000000	98.948230 
1903.000000	98.948589 
1902.000000	98.947817 
1901.000000	98.946567 
1900.000000	98.945260 
1899.000000	98.944733 
1898.000000	98.945615 
1897.000000	98.947278 
1896.000000	98.948466 
1895.000000	98.948836 
1894.000000	98.948922 
1893.000000	98.948962 
1892.000000	98.948708 
1891.000000	98.947958 
1890.000000	98.946487 
1889.000000	98.944018 
1888.000000	98.941039 
1887.000000	98.938824 
1886.000000	98.938176 
1885.000000	98.938799 
1884.000000	98.940041 
1883.000000	98.941750 
1882.000000	98.943758 
1881.000000	98.945449 
1880.000000	98.946743 
1879.000000	98.948512 
1878.000000	98.951440 
1877.000000	98.955021 
1876.000000	98.958004 
1875.000000	98.959400 
1874.000000	98.958585 
1873.000000	98.955365 
1872.000000	98.950894 
1871.000000	98.947588 
1870.000000	98.946942 
1869.000000	98.947637 
1868.000000	98.947432 
1867.000000	98.946665 
1866.000000	98.947006 
1865.000000	98.948187 
1864.000000	98.948181 
1863.000000	98.945847 
1862.000000	98.942454 
1861.000000	98.940454 
1860.000000	98.941300 
1859.000000	98.944802 
1858.000000	98.949517 
1857.000000	98.953561 
1856.000000	98.955884 
1855.000000	98.956860 
1854.000000	98.957410 
1853.000000	98.957822 
1852.000000	98.958123 
1851.000000	98.958587 
1850.000000	98.959428 
1849.000000	98.960402 
1848.000000	98.960965 
1847.000000	98.960794 
1846.000000	98.959830 
1845.000000	98.958340 
1844.000000	98.957111 
1843.000000	98.957130 
1842.000000	98.958381 
1841.000000	98.959818 
1840.000000	98.960720 
1839.000000	98.961078 
1838.000000	98.961151 
1837.000000	98.961092 
1836.000000	98.961070 
1835.000000	98.961399 
1834.000000	98.962089 
1833.000000	98.962719 
1832.000000	98.962843 
1831.000000	98.962190 
1830.000000	98.960780 
1829.000000	98.959295 
1828.000000	98.958599 
1827.000000	98.958747 
1826.000000	98.959094 
1825.000000	98.959013 
1824.000000	98.958413 
1823.000000	98.957661 
1822.000000	98.956924 
1821.000000	98.956242 
1820.000000	98.956028 
1819.000000	98.956774 
1818.000000	98.958333 
1817.000000	98.959619 
1816.000000	98.959685 
1815.000000	98.958827 
1814.000000	98.958045 
1813.000000	98.957898 
1812.000000	98.958242 
1811.000000	98.958942 
1810.000000	98.960072 
1809.000000	98.961117 
1808.000000	98.961240 
1807.000000	98.960379 
1806.000000	98.959171 
1805.000000	98.958027 
1804.000000	98.956991 
1803.000000	98.956241 
1802.000000	98.955661 
1801.000000	98.954450 
1800.000000	98.952223 
1799.000000	98.950326 
1798.000000	98.950404 
1797.000000	98.952159 
1796.000000	98.953909 
1795.000000	98.954910 
1794.000000	98.955838 
1793.000000	98.957013 
1792.000000	98.957354 
1791.000000	98.956522 
1790.000000	98.955900 
1789.000000	98.956274 
1788.000000	98.957175 
1787.000000	98.958210 
1786.000000	98.959630 
1785.000000	98.961327 
1784.000000	98.962318 
1783.000000	98.961998 
1782.000000	98.960621 
1781.000000	98.958842 
1780.000000	98.956770 
1779.000000	98.954100 
1778.000000	98.951213 
1777.000000	98.949253 
1776.000000	98.949354 
1775.000000	98.951328 
1774.000000	98.953576 
1773.000000	98.954614 
1772.000000	98.954587 
1771.000000	98.954939 
1770.000000	98.956212 
1769.000000	98.957428 
1768.000000	98.957887 
1767.000000	98.958138 
1766.000000	98.958925 
1765.000000	98.960049 
1764.000000	98.960724 
1763.000000	98.960815 
1762.000000	98.960881 
1761.000000	98.961179 
1760.000000	98.961150 
1759.000000	98.960660 
1758.000000	98.960633 
1757.000000	98.961691 
1756.000000	98.962936 
1755.000000	98.962984 
1754.000000	98.961963 
1753.000000	98.961217 
1752.000000	98.961356 
1751.000000	98.961026 
1750.000000	98.959316 
1749.000000	98.957798 
1748.000000	98.957973 
1747.000000	98.958962 
1746.000000	98.959155 
1745.000000	98.958932 
1744.000000	98.959466 
1743.000000	98.960317 
1742.000000	98.960376 
1741.000000	98.960199 
1740.000000	98.961244 
1739.000000	98.963143 
1738.000000	98.963973 
1737.000000	98.963278 
1736.000000	98.962839 
1735.000000	98.965068 
1734.000000	98.967512 
1733.000000	98.965788 
1732.000000	98.961184 
1731.000000	98.956821 
1730.000000	98.953547 
1729.000000	98.950503 
1728.000000	98.947100 
1727.000000	98.944433 
1726.000000	98.943648 
1725.000000	98.944379 
1724.000000	98.944565 
1723.000000	98.943197 
1722.000000	98.941838 
1721.000000	98.941943 
1720.000000	98.943030 
1719.000000	98.944129 
1718.000000	98.945723 
1717.000000	98.948198 
1716.000000	98.949874 
1715.000000	98.949199 
1714.000000	98.946841 
1713.000000	98.944365 
1712.000000	98.942216 
1711.000000	98.939810 
1710.000000	98.936669 
1709.000000	98.933334 
1708.000000	98.930896 
1707.000000	98.929055 
1706.000000	98.925635 
1705.000000	98.919049 
1704.000000	98.911447 
1703.000000	98.905803 
1702.000000	98.902352 
1701.000000	98.899145 
1700.000000	98.894223 
1699.000000	98.890912 
1698.000000	98.891792 
1697.000000	98.893446 
1696.000000	98.892319 
1695.000000	98.889084 
1694.000000	98.886576 
1693.000000	98.884863 
1692.000000	98.882446 
1691.000000	98.879650 
1690.000000	98.877656 
1689.000000	98.876473 
1688.000000	98.875096 
1687.000000	98.872823 
1686.000000	98.870252 
1685.000000	98.867914 
1684.000000	98.863534 
1683.000000	98.857170 
1682.000000	98.851762 
1681.000000	98.848009 
1680.000000	98.845606 
1679.000000	98.843478 
1678.000000	98.840217 
1677.000000	98.835948 
1676.000000	98.832020 
1675.000000	98.828976 
1674.000000	98.826142 
1673.000000	98.823704 
1672.000000	98.822267 
1671.000000	98.821714 
1670.000000	98.820288 
1669.000000	98.816591 
1668.000000	98.812631 
1667.000000	98.810255 
1666.000000	98.808497 
1665.000000	98.806052 
1664.000000	98.803016 
1663.000000	98.800257 
1662.000000	98.797304 
1661.000000	98.793641 
1660.000000	98.790693 
1659.000000	98.789610 
1658.000000	98.789043 
1657.000000	98.786428 
1656.000000	98.781750 
1655.000000	98.776950 
1654.000000	98.775528 
1653.000000	98.773538 
1652.000000	98.769789 
1651.000000	98.769103 
1650.000000	98.768492 
1649.000000	98.766406 
1648.000000	98.764487 
1647.000000	98.762661 
1646.000000	98.761750 
1645.000000	98.763211 
1644.000000	98.766157 
1643.000000	98.769124 
1642.000000	98.771214 
1641.000000	98.771232 
1640.000000	98.768698 
1639.000000	98.764733 
1638.000000	98.761524 
1637.000000	98.761284 
1636.000000	98.764208 
1635.000000	98.767504 
1634.000000	98.769726 
1633.000000	98.770312 
1632.000000	98.768622 
1631.000000	98.766131 
1630.000000	98.764296 
1629.000000	98.763493 
1628.000000	98.763950 
1627.000000	98.765924 
1626.000000	98.768468 
1625.000000	98.770601 
1624.000000	98.773333 
1623.000000	98.778031 
1622.000000	98.783808 
1621.000000	98.788774 
1620.000000	98.792711 
1619.000000	98.796503 
1618.000000	98.800987 
1617.000000	98.805262 
1616.000000	98.809391 
1615.000000	98.814693 
1614.000000	98.819565 
1613.000000	98.822245 
1612.000000	98.824389 
1611.000000	98.828093 
1610.000000	98.831924 
1609.000000	98.833367 
1608.000000	98.833402 
1607.000000	98.835049 
1606.000000	98.838483 
1605.000000	98.842234 
1604.000000	98.846529 
1603.000000	98.851923 
1602.000000	98.857552 
1601.000000	98.862458 
1600.000000	98.867284 
1599.000000	98.872809 
1598.000000	98.878182 
1597.000000	98.882052 
1596.000000	98.884068 
1595.000000	98.884652 
1594.000000	98.884166 
1593.000000	98.883490 
1592.000000	98.884369 
1591.000000	98.887731 
1590.000000	98.892250 
1589.000000	98.896038 
1588.000000	98.899083 
1587.000000	98.902492 
1586.000000	98.906160 
1585.000000	98.908799 
1584.000000	98.910561 
1583.000000	98.912126 
1582.000000	98.912835 
1581.000000	98.912150 
1580.000000	98.911111 
1579.000000	98.910521 
1578.000000	98.909781 
1577.000000	98.908544 
1576.000000	98.907549 
1575.000000	98.908407 
1574.000000	98.910724 
1573.000000	98.912875 
1572.000000	98.914616 
1571.000000	98.916407 
1570.000000	98.917477 
1569.000000	98.917363 
1568.000000	98.917789 
1567.000000	98.918820 
1566.000000	98.919105 
1565.000000	98.918623 
1564.000000	98.918748 
1563.000000	98.919181 
1562.000000	98.919162 
1561.000000	98.918140 
1560.000000	98.918856 
1559.000000	98.919812 
1558.000000	98.919017 
1557.000000	98.919023 
1556.000000	98.919893 
1555.000000	98.920829 
1554.000000	98.921477 
1553.000000	98.921696 
1552.000000	98.921779 
1551.000000	98.921912 
1550.000000	98.922155 
1549.000000	98.922444 
1548.000000	98.922703 
1547.000000	98.922904 
1546.000000	98.923075 
1545.000000	98.923268 
1544.000000	98.923483 
1543.000000	98.923702 
1542.000000	98.923938 
1541.000000	98.924184 
1540.000000	98.924432 
1539.000000	98.924676 
1538.000000	98.924919 
1537.000000	98.925161 
1536.000000	98.925403 
1535.000000	98.925650 
1534.000000	98.925900 
1533.000000	98.926149 
1532.000000	98.926395 
1531.000000	98.926642 
1530.000000	98.926889 
1529.000000	98.927135 
1528.000000	98.927377 
1527.000000	98.927615 
1526.000000	98.927850 
1525.000000	98.928085 
1524.000000	98.928323 
1523.000000	98.928600 
1522.000000	98.928995 
1521.000000	98.929414 
1520.000000	98.929619 
1519.000000	98.929477 
1518.000000	98.929067 
1517.000000	98.928682 
1516.000000	98.928567 
1515.000000	98.928748 
1514.000000	98.929095 
1513.000000	98.929560 
1512.000000	98.930096 
1511.000000	98.930498 
1510.000000	98.930726 
1509.000000	98.930870 
1508.000000	98.931229 
1507.000000	98.931505 
1506.000000	98.931361 
1505.000000	98.931162 
1504.000000	98.930946 
1503.000000	98.930663 
1502.000000	98.930721 
1501.000000	98.931007 
1500.000000	98.930718 
1499.000000	98.929454 
1498.000000	98.928210 
1497.000000	98.928292 
1496.000000	98.929295 
1495.000000	98.930538 
1494.000000	98.932184 
1493.000000	98.934073 
1492.000000	98.935341 
1491.000000	98.935229 
1490.000000	98.933833 
1489.000000	98.931903 
1488.000000	98.929681 
1487.000000	98.927589 
1486.000000	98.926166 
1485.000000	98.924695 
1484.000000	98.922813 
1483.000000	98.920938 
1482.000000	98.919553 
1481.000000	98.918443 
1480.000000	98.917017 
1479.000000	98.915355 
1478.000000	98.913803 
1477.000000	98.912111 
1476.000000	98.910018 
1475.000000	98.909116 
1474.000000	98.911049 
1473.000000	98.914270 
1472.000000	98.915293 
1471.000000	98.913941 
1470.000000	98.912324 
1469.000000	98.910617 
1468.000000	98.907874 
1467.000000	98.904275 
1466.000000	98.901160 
1465.000000	98.899306 
1464.000000	98.898561 
1463.000000	98.898272 
1462.000000	98.897871 
1461.000000	98.896680 
1460.000000	98.894344 
1459.000000	98.890441 
1458.000000	98.884435 
1457.000000	98.875545 
1456.000000	98.865894 
1455.000000	98.858510 
1454.000000	98.853430 
1453.000000	98.851118 
1452.000000	98.852026 
1451.000000	98.854614 
1450.000000	98.857142 
1449.000000	98.859039 
1448.000000	98.859682 
1447.000000	98.858953 
1446.000000	98.857458 
1445.000000	98.856735 
1444.000000	98.857926 
1443.000000	98.859862 
1442.000000	98.860527 
1441.000000	98.859162 
1440.000000	98.856822 
1439.000000	98.854305 
1438.000000	98.852424 
1437.000000	98.850834 
1436.000000	98.847803 
1435.000000	98.842963 
1434.000000	98.837382 
1433.000000	98.831814 
1432.000000	98.827088 
1431.000000	98.823525 
1430.000000	98.820714 
1429.000000	98.818228 
1428.000000	98.815601 
1427.000000	98.813077 
1426.000000	98.810527 
1425.000000	98.807716 
1424.000000	98.804479 
1423.000000	98.800232 
1422.000000	98.794732 
1421.000000	98.787750 
1420.000000	98.778875 
1419.000000	98.767707 
1418.000000	98.756259 
1417.000000	98.746710 
1416.000000	98.737926 
1415.000000	98.728470 
1414.000000	98.718446 
1413.000000	98.708580 
1412.000000	98.699353 
1411.000000	98.690839 
1410.000000	98.683453 
1409.000000	98.677712 
1408.000000	98.673573 
1407.000000	98.671558 
1406.000000	98.672534 
1405.000000	98.676551 
1404.000000	98.682489 
1403.000000	98.689131 
1402.000000	98.696773 
1401.000000	98.706266 
1400.000000	98.716801 
1399.000000	98.724835 
1398.000000	98.726338 
1397.000000	98.719184 
1396.000000	98.704045 
1395.000000	98.687301 
1394.000000	98.679838 
1393.000000	98.687517 
1392.000000	98.705860 
1391.000000	98.725313 
1390.000000	98.739102 
1389.000000	98.745675 
1388.000000	98.746443 
1387.000000	98.743736 
1386.000000	98.740457 
1385.000000	98.739149 
1384.000000	98.740406 
1383.000000	98.742718 
1382.000000	98.744517 
1381.000000	98.745989 
1380.000000	98.748705 
1379.000000	98.753666 
1378.000000	98.760359 
1377.000000	98.767742 
1376.000000	98.775301 
1375.000000	98.782905 
1374.000000	98.790363 
1373.000000	98.797941 
1372.000000	98.806124 
1371.000000	98.814785 
1370.000000	98.823014 
1369.000000	98.830130 
1368.000000	98.836345 
1367.000000	98.842134 
1366.000000	98.847770 
1365.000000	98.853573 
1364.000000	98.859928 
1363.000000	98.866603 
1362.000000	98.872599 
1361.000000	98.877302 
1360.000000	98.881360 
1359.000000	98.886118 
1358.000000	98.892474 
1357.000000	98.900304 
1356.000000	98.908648 
1355.000000	98.916473 
1354.000000	98.923656 
1353.000000	98.930968 
1352.000000	98.938344 
1351.000000	98.944187 
1350.000000	98.946772 
1349.000000	98.946989 
1348.000000	98.947194 
1347.000000	98.948144 
1346.000000	98.948929 
1345.000000	98.949106 
1344.000000	98.949398 
1343.000000	98.950024 
1342.000000	98.950178 
1341.000000	98.949941 
1340.000000	98.951165 
1339.000000	98.954939 
1338.000000	98.959412 
1337.000000	98.962049 
1336.000000	98.962745 
1335.000000	98.963188 
1334.000000	98.964137 
1333.000000	98.964760 
1332.000000	98.964375 
1331.000000	98.963517 
1330.000000	98.962934 
1329.000000	98.962626 
1328.000000	98.962259 
1327.000000	98.961817 
1326.000000	98.961181 
1325.000000	98.960018 
1324.000000	98.958472 
1323.000000	98.957415 
1322.000000	98.957767 
1321.000000	98.959615 
1320.000000	98.962317 
1319.000000	98.965275 
1318.000000	98.968089 
1317.000000	98.969850 
1316.000000	98.969237 
1315.000000	98.966057 
1314.000000	98.962173 
1313.000000	98.959913 
1312.000000	98.959692 
1311.000000	98.960212 
1310.000000	98.960714 
1309.000000	98.961706 
1308.000000	98.963347 
1307.000000	98.964642 
1306.000000	98.964611 
1305.000000	98.963549 
1304.000000	98.962456 
1303.000000	98.961946 
1302.000000	98.962193 
1301.000000	98.963038 
1300.000000	98.963756 
1299.000000	98.963625 
1298.000000	98.963197 
1297.000000	98.963898 
1296.000000	98.965936 
1295.000000	98.967719 
1294.000000	98.967955 
1293.000000	98.967093 
1292.000000	98.966028 
1291.000000	98.964896 
1290.000000	98.964106 
1289.000000	98.964868 
1288.000000	98.967140 
1287.000000	98.968476 
1286.000000	98.966851 
1285.000000	98.963392 
1284.000000	98.960527 
1283.000000	98.958606 
1282.000000	98.956101 
1281.000000	98.952368 
1280.000000	98.948564 
1279.000000	98.945828 
1278.000000	98.944181 
1277.000000	98.943472 
1276.000000	98.943794 
1275.000000	98.944567 
1274.000000	98.944453 
1273.000000	98.942688 
1272.000000	98.939746 
1271.000000	98.936515 
1270.000000	98.933509 
1269.000000	98.930870 
1268.000000	98.928265 
1267.000000	98.924647 
1266.000000	98.919157 
1265.000000	98.912520 
1264.000000	98.906649 
1263.000000	98.902506 
1262.000000	98.899149 
1261.000000	98.895268 
1260.000000	98.890908 
1259.000000	98.887011 
1258.000000	98.883920 
1257.000000	98.881146 
1256.000000	98.878332 
1255.000000	98.875819 
1254.000000	98.874203 
1253.000000	98.873534 
1252.000000	98.872970 
1251.000000	98.871456 
1250.000000	98.869080 
1249.000000	98.867617 
1248.000000	98.869102 
1247.000000	98.873518 
1246.000000	98.877853 
1245.000000	98.877365 
1244.000000	98.868560 
1243.000000	98.852942 
1242.000000	98.838536 
1241.000000	98.834976 
1240.000000	98.844516 
1239.000000	98.858572 
1238.000000	98.865576 
1237.000000	98.862059 
1236.000000	98.853661 
1235.000000	98.846489 
1234.000000	98.840934 
1233.000000	98.834385 
1232.000000	98.825825 
1231.000000	98.815556 
1230.000000	98.803558 
1229.000000	98.791008 
1228.000000	98.781432 
1227.000000	98.777314 
1226.000000	98.776357 
1225.000000	98.773574 
1224.000000	98.766584 
1223.000000	98.756892 
1222.000000	98.746692 
1221.000000	98.736580 
1220.000000	98.726310 
1219.000000	98.715693 
1218.000000	98.704203 
1217.000000	98.690840 
1216.000000	98.674708 
1215.000000	98.655198 
1214.000000	98.632005 
1213.000000	98.605816 
1212.000000	98.578625 
1211.000000	98.552389 
1210.000000	98.527548 
1209.000000	98.503485 
1208.000000	98.479814 
1207.000000	98.456383 
1206.000000	98.432695 
1205.000000	98.408352 
1204.000000	98.383472 
1203.000000	98.357833 
1202.000000	98.330515 
1201.000000	98.301298 
1200.000000	98.271467 
1199.000000	98.242209 
1198.000000	98.213136 
1197.000000	98.183322 
1196.000000	98.152546 
1195.000000	98.120383 
1194.000000	98.085624 
1193.000000	98.048218 
1192.000000	98.010643 
1191.000000	97.975461 
1190.000000	97.942191 
1189.000000	97.908401 
1188.000000	97.873121 
1187.000000	97.837325 
1186.000000	97.801805 
1185.000000	97.766478 
1184.000000	97.731206 
1183.000000	97.695523 
1182.000000	97.658204 
1181.000000	97.618797 
1180.000000	97.578630 
1179.000000	97.538457 
1178.000000	97.496366 
1177.000000	97.450323 
1176.000000	97.401461 
1175.000000	97.352044 
1174.000000	97.301303 
1173.000000	97.246812 
1172.000000	97.189570 
1171.000000	97.134085 
1170.000000	97.083120 
1169.000000	97.035448 
1168.000000	96.989096 
1167.000000	96.944150 
1166.000000	96.902649 
1165.000000	96.868910 
1164.000000	96.849625 
1163.000000	96.849716 
1162.000000	96.867092 
1161.000000	96.893897 
1160.000000	96.922545 
1159.000000	96.947235 
1158.000000	96.960736 
1157.000000	96.955366 
1156.000000	96.929048 
1155.000000	96.887647 
1154.000000	96.840283 
1153.000000	96.793936 
1152.000000	96.751915 
1151.000000	96.713539 
1150.000000	96.674423 
1149.000000	96.630758 
1148.000000	96.584377 
1147.000000	96.540433 
1146.000000	96.499702 
1145.000000	96.457297 
1144.000000	96.409904 
1143.000000	96.359939 
1142.000000	96.311236 
1141.000000	96.264931 
1140.000000	96.221389 
1139.000000	96.181656 
1138.000000	96.144198 
1137.000000	96.103879 
1136.000000	96.057056 
1135.000000	96.005005 
1134.000000	95.950373 
1133.000000	95.893342 
1132.000000	95.833645 
1131.000000	95.773452 
1130.000000	95.715593 
1129.000000	95.660835 
1128.000000	95.608317 
1127.000000	95.556072 
1126.000000	95.500167 
1125.000000	95.437007 
1124.000000	95.368374 
1123.000000	95.301058 
1122.000000	95.239448 
1121.000000	95.181385 
1120.000000	95.122934 
1119.000000	95.063625 
1118.000000	95.004882 
1117.000000	94.946775 
1116.000000	94.888918 
1115.000000	94.831898 
1114.000000	94.775749 
1113.000000	94.719488 
1112.000000	94.663455 
1111.000000	94.609046 
1110.000000	94.555136 
1109.000000	94.498506 
1108.000000	94.439044 
1107.000000	94.380986 
1106.000000	94.327209 
1105.000000	94.275470 
1104.000000	94.221928 
1103.000000	94.165691 
1102.000000	94.108598 
1101.000000	94.053198 
1100.000000	94.001670 
1099.000000	93.954344 
1098.000000	93.908634 
1097.000000	93.862070 
1096.000000	93.815827 
1095.000000	93.771673 
1094.000000	93.726176 
1093.000000	93.672529 
1092.000000	93.608331 
1091.000000	93.537515 
1090.000000	93.464945 
1089.000000	93.393551 
1088.000000	93.326406 
1087.000000	93.265945 
1086.000000	93.210334 
1085.000000	93.155582 
1084.000000	93.101485 
1083.000000	93.050236 
1082.000000	92.999535 
1081.000000	92.943728 
1080.000000	92.882459 
1079.000000	92.821700 
1078.000000	92.765219 
1077.000000	92.711674 
1076.000000	92.661090 
1075.000000	92.616536 
1074.000000	92.577191 
1073.000000	92.536624 
1072.000000	92.489288 
1071.000000	92.431092 
1070.000000	92.353031 
1069.000000	92.245401 
1068.000000	92.113767 
1067.000000	91.982994 
1066.000000	91.877627 
1065.000000	91.801643 
1064.000000	91.741389 
1063.000000	91.680724 
1062.000000	91.607897 
1061.000000	91.515726 
1060.000000	91.404799 
1059.000000	91.285338 
1058.000000	91.170295 
1057.000000	91.066594 
1056.000000	90.974098 
1055.000000	90.888562 
1054.000000	90.802801 
1053.000000	90.709804 
1052.000000	90.608604 
1051.000000	90.503808 
1050.000000	90.397422 
1049.000000	90.286231 
1048.000000	90.169089 
1047.000000	90.050330 
1046.000000	89.933761 
1045.000000	89.819118 
1044.000000	89.705728 
1043.000000	89.594044 
1042.000000	89.482862 
1041.000000	89.370867 
1040.000000	89.261607 
1039.000000	89.161372 
1038.000000	89.072221 
1037.000000	88.992931 
1036.000000	88.925365 
1035.000000	88.872159 
1034.000000	88.829150 
1033.000000	88.788284 
1032.000000	88.746706 
1031.000000	88.704713 
1030.000000	88.658313 
1029.000000	88.606111 
1028.000000	88.561794 
1027.000000	88.544794 
1026.000000	88.555756 
1025.000000	88.573308 
1024.000000	88.578289 
1023.000000	88.569807 
1022.000000	88.554846 
1021.000000	88.535878 
1020.000000	88.514570 
1019.000000	88.496191 
1018.000000	88.482720 
1017.000000	88.469203 
1016.000000	88.452357 
1015.000000	88.435875 
1014.000000	88.423190 
1013.000000	88.412147 
1012.000000	88.400446 
1011.000000	88.389449 
1010.000000	88.379746 
1009.000000	88.370098 
1008.000000	88.363292 
1007.000000	88.365658 
1006.000000	88.378137 
1005.000000	88.394731 
1004.000000	88.411796 
1003.000000	88.431962 
1002.000000	88.457496 
1001.000000	88.487258 
1000.000000	88.521444 
999.000000	 88.561587 
998.000000	 88.604675 
997.000000	 88.645221 
996.000000	 88.684513 
995.000000	 88.729818 
994.000000	 88.783059 
993.000000	 88.838078 
992.000000	 88.890354 
991.000000	 88.941641 
990.000000	 88.993866 
989.000000	 89.046555 
988.000000	 89.101892 
987.000000	 89.164705 
986.000000	 89.235952 
985.000000	 89.313070 
984.000000	 89.396928 
983.000000	 89.490698 
982.000000	 89.592120 
981.000000	 89.695190 
980.000000	 89.799822 
979.000000	 89.911860 
978.000000	 90.033149 
977.000000	 90.159839 
976.000000	 90.290483 
975.000000	 90.426876 
974.000000	 90.566467 
973.000000	 90.703304 
972.000000	 90.837742 
971.000000	 90.976346 
970.000000	 91.120565 
969.000000	 91.263883 
968.000000	 91.401960 
967.000000	 91.537477 
966.000000	 91.672880 
965.000000	 91.805971 
964.000000	 91.935006 
963.000000	 92.061351 
962.000000	 92.184981 
961.000000	 92.303592 
960.000000	 92.417769 
959.000000	 92.530811 
958.000000	 92.642129 
957.000000	 92.747139 
956.000000	 92.844968 
955.000000	 92.939737 
954.000000	 93.032693 
953.000000	 93.119678 
952.000000	 93.198499 
951.000000	 93.272402 
950.000000	 93.343624 
949.000000	 93.409232 
948.000000	 93.466434 
947.000000	 93.517063 
946.000000	 93.563904 
945.000000	 93.606896 
944.000000	 93.645943 
943.000000	 93.683917 
942.000000	 93.724009 
941.000000	 93.766354 
940.000000	 93.808644 
939.000000	 93.847829 
938.000000	 93.881221 
937.000000	 93.909293 
936.000000	 93.937591 
935.000000	 93.972371 
934.000000	 94.014097 
933.000000	 94.058443 
932.000000	 94.102879 
931.000000	 94.148036 
930.000000	 94.193168 
929.000000	 94.234966 
928.000000	 94.271156 
927.000000	 94.301645 
926.000000	 94.326807 
925.000000	 94.348686 
924.000000	 94.372830 
923.000000	 94.403866 
922.000000	 94.439090 
921.000000	 94.470570 
920.000000	 94.493286 
919.000000	 94.507621 
918.000000	 94.515624 
917.000000	 94.520004 
916.000000	 94.525873 
915.000000	 94.537989 
914.000000	 94.556239 
913.000000	 94.578378 
912.000000	 94.606604 
911.000000	 94.646750 
910.000000	 94.701947 
909.000000	 94.771644 
908.000000	 94.854836 
907.000000	 94.948687 
906.000000	 95.046103 
905.000000	 95.141503 
904.000000	 95.237684 
903.000000	 95.340800 
902.000000	 95.450557 
901.000000	 95.561568 
900.000000	 95.671883 
899.000000	 95.782668 
898.000000	 95.891123 
897.000000	 95.991680 
896.000000	 96.083511 
895.000000	 96.169916 
894.000000	 96.251487 
893.000000	 96.327364 
892.000000	 96.402360 
891.000000	 96.484407 
890.000000	 96.573817 
889.000000	 96.662138 
888.000000	 96.742839 
887.000000	 96.816787 
886.000000	 96.886769 
885.000000	 96.953276 
884.000000	 97.016731 
883.000000	 97.077545 
882.000000	 97.133025 
881.000000	 97.180928 
880.000000	 97.227398 
879.000000	 97.284138 
878.000000	 97.354783 
877.000000	 97.430316 
876.000000	 97.500441 
875.000000	 97.563260 
874.000000	 97.621729 
873.000000	 97.677469 
872.000000	 97.731607 
871.000000	 97.786332 
870.000000	 97.842135 
869.000000	 97.897873 
868.000000	 97.955940 
867.000000	 98.022064 
866.000000	 98.096366 
865.000000	 98.169265 
864.000000	 98.230985 
863.000000	 98.282438 
862.000000	 98.332607 
861.000000	 98.386656 
860.000000	 98.440975 
859.000000	 98.490051 
858.000000	 98.534016 
857.000000	 98.577351 
856.000000	 98.622584 
855.000000	 98.668158 
854.000000	 98.711769 
853.000000	 98.752529 
852.000000	 98.788823 
851.000000	 98.817452 
850.000000	 98.838005 
849.000000	 98.855962 
848.000000	 98.877478 
847.000000	 98.901595 
846.000000	 98.921339 
845.000000	 98.932286 
844.000000	 98.935940 
843.000000	 98.934757 
842.000000	 98.928896 
841.000000	 98.918895 
840.000000	 98.906471 
839.000000	 98.890850 
838.000000	 98.869111 
837.000000	 98.842181 
836.000000	 98.815699 
835.000000	 98.792684 
834.000000	 98.770792 
833.000000	 98.750181 
832.000000	 98.737875 
831.000000	 98.738466 
830.000000	 98.745308 
829.000000	 98.748392 
828.000000	 98.748168 
827.000000	 98.754137 
826.000000	 98.771176 
825.000000	 98.794139 
824.000000	 98.815180 
823.000000	 98.830269 
822.000000	 98.839741 
821.000000	 98.847712 
820.000000	 98.859167 
819.000000	 98.873830 
818.000000	 98.885478 
817.000000	 98.889479 
816.000000	 98.885881 
815.000000	 98.871867 
814.000000	 98.838047 
813.000000	 98.778487 
812.000000	 98.698713 
811.000000	 98.605879 
810.000000	 98.494879 
809.000000	 98.353131 
808.000000	 98.177148 
807.000000	 97.975940 
806.000000	 97.759266 
805.000000	 97.531737 
804.000000	 97.299777 
803.000000	 97.075650 
802.000000	 96.871401 
801.000000	 96.695164 
800.000000	 96.555002 
799.000000	 96.459135 
798.000000	 96.410236 
797.000000	 96.404791 
796.000000	 96.436930 
795.000000	 96.495989 
794.000000	 96.563353 
793.000000	 96.622188 
792.000000	 96.670286 
791.000000	 96.715194 
790.000000	 96.758233 
789.000000	 96.791472 
788.000000	 96.807729 
787.000000	 96.803394 
786.000000	 96.773005 
785.000000	 96.712497 
784.000000	 96.629438 
783.000000	 96.540985 
782.000000	 96.459834 
781.000000	 96.389572 
780.000000	 96.333415 
779.000000	 96.297574 
778.000000	 96.284848 
777.000000	 96.294513 
776.000000	 96.329630 
775.000000	 96.394256 
774.000000	 96.481301 
773.000000	 96.572930 
772.000000	 96.656112 
771.000000	 96.730213 
770.000000	 96.798183 
769.000000	 96.858899 
768.000000	 96.910107 
767.000000	 96.951120 
766.000000	 96.980694 
765.000000	 96.999307 
764.000000	 97.014550 
763.000000	 97.036354 
762.000000	 97.064821 
761.000000	 97.090049 
760.000000	 97.106227 
759.000000	 97.119312 
758.000000	 97.138980 
757.000000	 97.168963 
756.000000	 97.206115 
755.000000	 97.242674 
754.000000	 97.269445 
753.000000	 97.284188 
752.000000	 97.297739 
751.000000	 97.325175 
750.000000	 97.369688 
749.000000	 97.420699 
748.000000	 97.467609 
747.000000	 97.508935 
746.000000	 97.548384 
745.000000	 97.589751 
744.000000	 97.636806 
743.000000	 97.691507 
742.000000	 97.751186 
741.000000	 97.812854 
740.000000	 97.878919 
739.000000	 97.951848 
738.000000	 98.024965 
737.000000	 98.086618 
736.000000	 98.132548 
735.000000	 98.166870 
734.000000	 98.193447 
733.000000	 98.215202 
732.000000	 98.239898 
731.000000	 98.275407 
730.000000	 98.317883 
729.000000	 98.354239 
728.000000	 98.377747 
727.000000	 98.392557 
726.000000	 98.402689 
725.000000	 98.407022 
724.000000	 98.407445 
723.000000	 98.412185 
722.000000	 98.427351 
721.000000	 98.452339 
720.000000	 98.485478 
719.000000	 98.526457 
718.000000	 98.571373 
717.000000	 98.613102 
716.000000	 98.647936 
715.000000	 98.675663 
714.000000	 98.694351 
713.000000	 98.703189 
712.000000	 98.709652 
711.000000	 98.723510 
710.000000	 98.742340 
709.000000	 98.752947 
708.000000	 98.748597 
707.000000	 98.734598 
706.000000	 98.715214 
705.000000	 98.686715 
704.000000	 98.647609 
703.000000	 98.604731 
702.000000	 98.562510 
701.000000	 98.513389 
700.000000	 98.444429 
699.000000	 98.348975 
698.000000	 98.231272 
697.000000	 98.107428 
696.000000	 98.002963 
695.000000	 97.939823 
694.000000	 97.922083 
693.000000	 97.939445 
692.000000	 97.983262 
691.000000	 98.050068 
690.000000	 98.130791 
689.000000	 98.210182 
688.000000	 98.280223 
687.000000	 98.342255 
686.000000	 98.392852 
685.000000	 98.421699 
684.000000	 98.428683 
683.000000	 98.430316 
682.000000	 98.443106 
681.000000	 98.469264 
680.000000	 98.501365 
679.000000	 98.531906 
678.000000	 98.555776 
677.000000	 98.573252 
676.000000	 98.594815 
675.000000	 98.631637 
674.000000	 98.677513 
673.000000	 98.712393 
672.000000	 98.729081 
671.000000	 98.743840 
670.000000	 98.776236 
669.000000	 98.829940 
668.000000	 98.890282 
667.000000	 98.929495 
666.000000	 98.934134 
665.000000	 98.921474 
664.000000	 98.915016 
663.000000	 98.929078 
662.000000	 98.960616 
661.000000	 98.989228 
660.000000	 98.997936 
659.000000	 98.988164 
658.000000	 98.971460 
657.000000	 98.955431 
656.000000	 98.943364 
655.000000	 98.937629 
654.000000	 98.935705 
653.000000	 98.932912 
652.000000	 98.933684 
651.000000	 98.947063 
650.000000	 98.967835 

