4000.000000	99.368572 
3999.000000	99.368600 
3998.000000	99.368617 
3997.000000	99.368706 
3996.000000	99.368807 
3995.000000	99.368805 
3994.000000	99.368721 
3993.000000	99.368736 
3992.000000	99.368962 
3991.000000	99.369235 
3990.000000	99.369241 
3989.000000	99.368817 
3988.000000	99.368097 
3987.000000	99.367402 
3986.000000	99.367009 
3985.000000	99.367053 
3984.000000	99.367490 
3983.000000	99.368128 
3982.000000	99.368760 
3981.000000	99.369312 
3980.000000	99.369800 
3979.000000	99.370187 
3978.000000	99.370343 
3977.000000	99.370144 
3976.000000	99.369566 
3975.000000	99.368669 
3974.000000	99.367548 
3973.000000	99.366344 
3972.000000	99.365288 
3971.000000	99.364625 
3970.000000	99.364489 
3969.000000	99.364815 
3968.000000	99.365325 
3967.000000	99.365624 
3966.000000	99.365449 
3965.000000	99.364833 
3964.000000	99.364062 
3963.000000	99.363476 
3962.000000	99.363223 
3961.000000	99.363204 
3960.000000	99.363169 
3959.000000	99.362901 
3958.000000	99.362366 
3957.000000	99.361723 
3956.000000	99.361171 
3955.000000	99.360761 
3954.000000	99.360382 
3953.000000	99.359924 
3952.000000	99.359394 
3951.000000	99.358872 
3950.000000	99.358390 
3949.000000	99.357876 
3948.000000	99.357240 
3947.000000	99.356507 
3946.000000	99.355839 
3945.000000	99.355371 
3944.000000	99.355046 
3943.000000	99.354653 
3942.000000	99.354074 
3941.000000	99.353443 
3940.000000	99.352955 
3939.000000	99.352607 
3938.000000	99.352220 
3937.000000	99.351672 
3936.000000	99.350998 
3935.000000	99.350342 
3934.000000	99.349819 
3933.000000	99.349471 
3932.000000	99.349271 
3931.000000	99.349141 
3930.000000	99.348971 
3929.000000	99.348653 
3928.000000	99.348145 
3927.000000	99.347515 
3926.000000	99.346834 
3925.000000	99.346149 
3924.000000	99.345512 
3923.000000	99.344963 
3922.000000	99.344482 
3921.000000	99.344012 
3920.000000	99.343541 
3919.000000	99.343085 
3918.000000	99.342642 
3917.000000	99.342203 
3916.000000	99.341766 
3915.000000	99.341331 
3914.000000	99.340891 
3913.000000	99.340442 
3912.000000	99.339976 
3911.000000	99.339485 
3910.000000	99.338968 
3909.000000	99.338433 
3908.000000	99.337896 
3907.000000	99.337371 
3906.000000	99.336865 
3905.000000	99.336375 
3904.000000	99.335899 
3903.000000	99.335435 
3902.000000	99.334985 
3901.000000	99.334545 
3900.000000	99.334102 
3899.000000	99.333640 
3898.000000	99.333146 
3897.000000	99.332622 
3896.000000	99.332084 
3895.000000	99.331544 
3894.000000	99.331005 
3893.000000	99.330470 
3892.000000	99.329937 
3891.000000	99.329404 
3890.000000	99.328872 
3889.000000	99.328346 
3888.000000	99.327833 
3887.000000	99.327328 
3886.000000	99.326827 
3885.000000	99.326329 
3884.000000	99.325843 
3883.000000	99.325379 
3882.000000	99.324934 
3881.000000	99.324497 
3880.000000	99.324054 
3879.000000	99.323601 
3878.000000	99.323146 
3877.000000	99.322693 
3876.000000	99.322241 
3875.000000	99.321788 
3874.000000	99.321338 
3873.000000	99.320903 
3872.000000	99.320499 
3871.000000	99.320133 
3870.000000	99.319808 
3869.000000	99.319528 
3868.000000	99.319300 
3867.000000	99.319124 
3866.000000	99.318977 
3865.000000	99.318841 
3864.000000	99.318708 
3863.000000	99.318578 
3862.000000	99.318446 
3861.000000	99.318303 
3860.000000	99.318146 
3859.000000	99.317982 
3858.000000	99.317824 
3857.000000	99.317693 
3856.000000	99.317624 
3855.000000	99.317644 
3854.000000	99.317741 
3853.000000	99.317870 
3852.000000	99.318023 
3851.000000	99.318215 
3850.000000	99.318437 
3849.000000	99.318669 
3848.000000	99.318894 
3847.000000	99.319098 
3846.000000	99.319281 
3845.000000	99.319449 
3844.000000	99.319615 
3843.000000	99.319783 
3842.000000	99.319951 
3841.000000	99.320114 
3840.000000	99.320277 
3839.000000	99.320445 
3838.000000	99.320623 
3837.000000	99.320816 
3836.000000	99.321027 
3835.000000	99.321258 
3834.000000	99.321510 
3833.000000	99.321783 
3832.000000	99.322069 
3831.000000	99.322363 
3830.000000	99.322654 
3829.000000	99.322937 
3828.000000	99.323206 
3827.000000	99.323460 
3826.000000	99.323699 
3825.000000	99.323929 
3824.000000	99.324164 
3823.000000	99.324419 
3822.000000	99.324697 
3821.000000	99.324985 
3820.000000	99.325281 
3819.000000	99.325599 
3818.000000	99.325952 
3817.000000	99.326330 
3816.000000	99.326713 
3815.000000	99.327088 
3814.000000	99.327451 
3813.000000	99.327797 
3812.000000	99.328112 
3811.000000	99.328392 
3810.000000	99.328646 
3809.000000	99.328889 
3808.000000	99.329122 
3807.000000	99.329348 
3806.000000	99.329574 
3805.000000	99.329817 
3804.000000	99.330090 
3803.000000	99.330397 
3802.000000	99.330725 
3801.000000	99.331066 
3800.000000	99.331421 
3799.000000	99.331800 
3798.000000	99.332196 
3797.000000	99.332592 
3796.000000	99.332973 
3795.000000	99.333338 
3794.000000	99.333689 
3793.000000	99.334023 
3792.000000	99.334325 
3791.000000	99.334590 
3790.000000	99.334822 
3789.000000	99.335003 
3788.000000	99.335123 
3787.000000	99.335245 
3786.000000	99.335482 
3785.000000	99.335819 
3784.000000	99.336069 
3783.000000	99.336159 
3782.000000	99.336267 
3781.000000	99.336461 
3780.000000	99.336405 
3779.000000	99.335705 
3778.000000	99.334507 
3777.000000	99.333576 
3776.000000	99.333228 
3775.000000	99.332952 
3774.000000	99.332331 
3773.000000	99.331700 
3772.000000	99.331480 
3771.000000	99.331271 
3770.000000	99.330161 
3769.000000	99.328279 
3768.000000	99.327210 
3767.000000	99.327969 
3766.000000	99.329413 
3765.000000	99.329653 
3764.000000	99.328353 
3763.000000	99.326917 
3762.000000	99.326449 
3761.000000	99.326633 
3760.000000	99.326813 
3759.000000	99.326609 
3758.000000	99.325533 
3757.000000	99.323219 
3756.000000	99.319923 
3755.000000	99.316646 
3754.000000	99.314158 
3753.000000	99.312825 
3752.000000	99.312779 
3751.000000	99.312777 
3750.000000	99.310269 
3749.000000	99.304915 
3748.000000	99.299856 
3747.000000	99.298029 
3746.000000	99.299930 
3745.000000	99.303522 
3744.000000	99.304161 
3743.000000	99.302132 
3742.000000	99.304049 
3741.000000	99.308727 
3740.000000	99.309272 
3739.000000	99.305266 
3738.000000	99.300912 
3737.000000	99.299004 
3736.000000	99.299210 
3735.000000	99.301048 
3734.000000	99.305278 
3733.000000	99.311185 
3732.000000	99.315556 
3731.000000	99.316739 
3730.000000	99.316650 
3729.000000	99.317027 
3728.000000	99.317277 
3727.000000	99.316683 
3726.000000	99.316113 
3725.000000	99.317166 
3724.000000	99.319973 
3723.000000	99.322289 
3722.000000	99.322379 
3721.000000	99.321133 
3720.000000	99.320575 
3719.000000	99.321068 
3718.000000	99.320682 
3717.000000	99.317444 
3716.000000	99.311363 
3715.000000	99.304047 
3714.000000	99.296782 
3713.000000	99.290428 
3712.000000	99.285718 
3711.000000	99.283089 
3710.000000	99.283333 
3709.000000	99.286740 
3708.000000	99.291154 
3707.000000	99.293330 
3706.000000	99.291816 
3705.000000	99.287739 
3704.000000	99.283427 
3703.000000	99.280757 
3702.000000	99.279776 
3701.000000	99.279050 
3700.000000	99.277909 
3699.000000	99.276696 
3698.000000	99.274665 
3697.000000	99.270248 
3696.000000	99.263524 
3695.000000	99.256609 
3694.000000	99.251167 
3693.000000	99.246853 
3692.000000	99.243039 
3691.000000	99.240166 
3690.000000	99.238243 
3689.000000	99.235567 
3688.000000	99.231493 
3687.000000	99.229118 
3686.000000	99.231001 
3685.000000	99.234789 
3684.000000	99.236337 
3683.000000	99.234632 
3682.000000	99.231356 
3681.000000	99.227423 
3680.000000	99.221461 
3679.000000	99.212867 
3678.000000	99.204637 
3677.000000	99.200785 
3676.000000	99.200935 
3675.000000	99.199452 
3674.000000	99.196416 
3673.000000	99.198300 
3672.000000	99.204428 
3671.000000	99.209663 
3670.000000	99.211663 
3669.000000	99.210407 
3668.000000	99.209406 
3667.000000	99.211145 
3666.000000	99.213336 
3665.000000	99.214018 
3664.000000	99.213891 
3663.000000	99.214088 
3662.000000	99.214414 
3661.000000	99.213883 
3660.000000	99.212387 
3659.000000	99.211376 
3658.000000	99.212238 
3657.000000	99.214106 
3656.000000	99.214258 
3655.000000	99.212141 
3654.000000	99.210629 
3653.000000	99.211112 
3652.000000	99.212376 
3651.000000	99.213565 
3650.000000	99.214296 
3649.000000	99.213956 
3648.000000	99.213819 
3647.000000	99.216134 
3646.000000	99.221085 
3645.000000	99.227067 
3644.000000	99.232374 
3643.000000	99.236092 
3642.000000	99.238230 
3641.000000	99.239575 
3640.000000	99.241128 
3639.000000	99.243417 
3638.000000	99.246218 
3637.000000	99.249190 
3636.000000	99.251888 
3635.000000	99.253243 
3634.000000	99.252265 
3633.000000	99.249477 
3632.000000	99.247011 
3631.000000	99.246824 
3630.000000	99.249306 
3629.000000	99.252314 
3628.000000	99.253237 
3627.000000	99.253705 
3626.000000	99.256179 
3625.000000	99.259257 
3624.000000	99.261021 
3623.000000	99.261481 
3622.000000	99.261500 
3621.000000	99.261746 
3620.000000	99.262347 
3619.000000	99.263035 
3618.000000	99.263756 
3617.000000	99.265050 
3616.000000	99.267064 
3615.000000	99.269008 
3614.000000	99.269958 
3613.000000	99.269657 
3612.000000	99.268821 
3611.000000	99.268668 
3610.000000	99.269889 
3609.000000	99.272255 
3608.000000	99.274984 
3607.000000	99.277450 
3606.000000	99.279630 
3605.000000	99.281654 
3604.000000	99.283388 
3603.000000	99.284718 
3602.000000	99.285696 
3601.000000	99.286473 
3600.000000	99.287300 
3599.000000	99.288392 
3598.000000	99.289563 
3597.000000	99.290345 
3596.000000	99.290650 
3595.000000	99.290729 
3594.000000	99.290749 
3593.000000	99.290817 
3592.000000	99.291332 
3591.000000	99.292737 
3590.000000	99.295222 
3589.000000	99.298261 
3588.000000	99.300294 
3587.000000	99.299951 
3586.000000	99.298057 
3585.000000	99.296807 
3584.000000	99.296904 
3583.000000	99.297497 
3582.000000	99.297941 
3581.000000	99.298157 
3580.000000	99.298138 
3579.000000	99.297761 
3578.000000	99.296963 
3577.000000	99.295958 
3576.000000	99.295334 
3575.000000	99.295577 
3574.000000	99.296518 
3573.000000	99.297313 
3572.000000	99.297153 
3571.000000	99.295938 
3570.000000	99.294323 
3569.000000	99.293114 
3568.000000	99.292554 
3567.000000	99.292343 
3566.000000	99.292560 
3565.000000	99.293941 
3564.000000	99.296381 
3563.000000	99.298580 
3562.000000	99.299612 
3561.000000	99.299628 
3560.000000	99.299268 
3559.000000	99.298991 
3558.000000	99.298851 
3557.000000	99.298661 
3556.000000	99.298352 
3555.000000	99.298155 
3554.000000	99.298259 
3553.000000	99.298352 
3552.000000	99.297756 
3551.000000	99.296178 
3550.000000	99.294021 
3549.000000	99.291956 
3548.000000	99.290529 
3547.000000	99.290143 
3546.000000	99.290871 
3545.000000	99.292376 
3544.000000	99.294074 
3543.000000	99.295404 
3542.000000	99.296094 
3541.000000	99.296160 
3540.000000	99.295877 
3539.000000	99.295628 
3538.000000	99.295597 
3537.000000	99.295648 
3536.000000	99.295515 
3535.000000	99.295121 
3534.000000	99.294639 
3533.000000	99.294302 
3532.000000	99.294231 
3531.000000	99.294413 
3530.000000	99.294734 
3529.000000	99.295042 
3528.000000	99.295247 
3527.000000	99.295378 
3526.000000	99.295498 
3525.000000	99.295598 
3524.000000	99.295630 
3523.000000	99.295587 
3522.000000	99.295519 
3521.000000	99.295472 
3520.000000	99.295448 
3519.000000	99.295428 
3518.000000	99.295406 
3517.000000	99.295392 
3516.000000	99.295391 
3515.000000	99.295401 
3514.000000	99.295423 
3513.000000	99.295453 
3512.000000	99.295475 
3511.000000	99.295467 
3510.000000	99.295429 
3509.000000	99.295380 
3508.000000	99.295341 
3507.000000	99.295310 
3506.000000	99.295274 
3505.000000	99.295223 
3504.000000	99.295157 
3503.000000	99.295082 
3502.000000	99.295008 
3501.000000	99.294942 
3500.000000	99.294883 
3499.000000	99.294819 
3498.000000	99.294739 
3497.000000	99.294632 
3496.000000	99.294495 
3495.000000	99.294341 
3494.000000	99.294187 
3493.000000	99.294050 
3492.000000	99.293935 
3491.000000	99.293832 
3490.000000	99.293731 
3489.000000	99.293631 
3488.000000	99.293540 
3487.000000	99.293468 
3486.000000	99.293412 
3485.000000	99.293364 
3484.000000	99.293323 
3483.000000	99.293294 
3482.000000	99.293272 
3481.000000	99.293221 
3480.000000	99.293097 
3479.000000	99.292899 
3478.000000	99.292689 
3477.000000	99.292532 
3476.000000	99.292424 
3475.000000	99.292307 
3474.000000	99.292151 
3473.000000	99.292012 
3472.000000	99.291959 
3471.000000	99.291972 
3470.000000	99.291957 
3469.000000	99.291856 
3468.000000	99.291703 
3467.000000	99.291551 
3466.000000	99.291392 
3465.000000	99.291172 
3464.000000	99.290847 
3463.000000	99.290403 
3462.000000	99.289860 
3461.000000	99.289303 
3460.000000	99.288869 
3459.000000	99.288704 
3458.000000	99.288844 
3457.000000	99.289126 
3456.000000	99.289302 
3455.000000	99.289192 
3454.000000	99.288853 
3453.000000	99.288535 
3452.000000	99.288430 
3451.000000	99.288558 
3450.000000	99.288874 
3449.000000	99.289309 
3448.000000	99.289644 
3447.000000	99.289536 
3446.000000	99.288892 
3445.000000	99.288143 
3444.000000	99.287878 
3443.000000	99.288226 
3442.000000	99.288757 
3441.000000	99.288987 
3440.000000	99.288874 
3439.000000	99.288689 
3438.000000	99.288528 
3437.000000	99.288187 
3436.000000	99.287540 
3435.000000	99.286848 
3434.000000	99.286554 
3433.000000	99.286779 
3432.000000	99.287175 
3431.000000	99.287289 
3430.000000	99.286956 
3429.000000	99.286266 
3428.000000	99.285370 
3427.000000	99.284411 
3426.000000	99.283598 
3425.000000	99.283139 
3424.000000	99.283101 
3423.000000	99.283369 
3422.000000	99.283712 
3421.000000	99.283856 
3420.000000	99.283598 
3419.000000	99.283016 
3418.000000	99.282524 
3417.000000	99.282503 
3416.000000	99.282867 
3415.000000	99.283104 
3414.000000	99.282858 
3413.000000	99.282346 
3412.000000	99.282091 
3411.000000	99.282375 
3410.000000	99.283110 
3409.000000	99.284082 
3408.000000	99.285067 
3407.000000	99.285724 
3406.000000	99.285680 
3405.000000	99.284914 
3404.000000	99.283959 
3403.000000	99.283550 
3402.000000	99.284009 
3401.000000	99.285048 
3400.000000	99.286053 
3399.000000	99.286573 
3398.000000	99.286632 
3397.000000	99.286646 
3396.000000	99.286947 
3395.000000	99.287372 
3394.000000	99.287484 
3393.000000	99.287174 
3392.000000	99.286804 
3391.000000	99.286656 
3390.000000	99.286513 
3389.000000	99.286045 
3388.000000	99.285352 
3387.000000	99.284863 
3386.000000	99.284746 
3385.000000	99.284731 
3384.000000	99.284512 
3383.000000	99.284094 
3382.000000	99.283660 
3381.000000	99.283260 
3380.000000	99.282747 
3379.000000	99.281980 
3378.000000	99.281117 
3377.000000	99.280706 
3376.000000	99.281357 
3375.000000	99.283182 
3374.000000	99.285568 
3373.000000	99.287549 
3372.000000	99.288514 
3371.000000	99.288453 
3370.000000	99.287723 
3369.000000	99.286793 
3368.000000	99.286093 
3367.000000	99.285808 
3366.000000	99.285728 
3365.000000	99.285446 
3364.000000	99.284834 
3363.000000	99.284233 
3362.000000	99.284044 
3361.000000	99.284201 
3360.000000	99.284220 
3359.000000	99.283771 
3358.000000	99.283131 
3357.000000	99.282974 
3356.000000	99.283733 
3355.000000	99.285191 
3354.000000	99.286660 
3353.000000	99.287579 
3352.000000	99.287912 
3351.000000	99.288004 
3350.000000	99.288200 
3349.000000	99.288655 
3348.000000	99.289382 
3347.000000	99.290302 
3346.000000	99.291198 
3345.000000	99.291744 
3344.000000	99.291700 
3343.000000	99.291075 
3342.000000	99.290119 
3341.000000	99.289222 
3340.000000	99.288745 
3339.000000	99.288808 
3338.000000	99.289177 
3337.000000	99.289412 
3336.000000	99.289267 
3335.000000	99.288938 
3334.000000	99.288868 
3333.000000	99.289295 
3332.000000	99.290031 
3331.000000	99.290642 
3330.000000	99.290856 
3329.000000	99.290771 
3328.000000	99.290733 
3327.000000	99.291019 
3326.000000	99.291626 
3325.000000	99.292345 
3324.000000	99.292992 
3323.000000	99.293552 
3322.000000	99.294076 
3321.000000	99.294515 
3320.000000	99.294729 
3319.000000	99.294674 
3318.000000	99.294488 
3317.000000	99.294416 
3316.000000	99.294606 
3315.000000	99.295014 
3314.000000	99.295472 
3313.000000	99.295809 
3312.000000	99.295978 
3311.000000	99.296041 
3310.000000	99.296094 
3309.000000	99.296174 
3308.000000	99.296250 
3307.000000	99.296294 
3306.000000	99.296346 
3305.000000	99.296473 
3304.000000	99.296664 
3303.000000	99.296817 
3302.000000	99.296855 
3301.000000	99.296852 
3300.000000	99.297016 
3299.000000	99.297460 
3298.000000	99.298016 
3297.000000	99.298354 
3296.000000	99.298297 
3295.000000	99.297970 
3294.000000	99.297650 
3293.000000	99.297559 
3292.000000	99.297804 
3291.000000	99.298412 
3290.000000	99.299306 
3289.000000	99.300248 
3288.000000	99.300895 
3287.000000	99.300997 
3286.000000	99.300566 
3285.000000	99.299826 
3284.000000	99.299022 
3283.000000	99.298334 
3282.000000	99.297920 
3281.000000	99.297931 
3280.000000	99.298330 
3279.000000	99.298789 
3278.000000	99.298924 
3277.000000	99.298653 
3276.000000	99.298222 
3275.000000	99.297868 
3274.000000	99.297557 
3273.000000	99.297105 
3272.000000	99.296410 
3271.000000	99.295489 
3270.000000	99.294414 
3269.000000	99.293359 
3268.000000	99.292686 
3267.000000	99.292813 
3266.000000	99.293923 
3265.000000	99.295782 
3264.000000	99.297858 
3263.000000	99.299618 
3262.000000	99.300767 
3261.000000	99.301273 
3260.000000	99.301238 
3259.000000	99.300755 
3258.000000	99.299892 
3257.000000	99.298711 
3256.000000	99.297282 
3255.000000	99.295784 
3254.000000	99.294639 
3253.000000	99.294384 
3252.000000	99.295212 
3251.000000	99.296609 
3250.000000	99.297601 
3249.000000	99.297598 
3248.000000	99.296825 
3247.000000	99.295919 
3246.000000	99.295230 
3245.000000	99.294651 
3244.000000	99.294102 
3243.000000	99.293888 
3242.000000	99.294455 
3241.000000	99.295885 
3240.000000	99.297675 
3239.000000	99.298988 
3238.000000	99.299248 
3237.000000	99.298512 
3236.000000	99.297393 
3235.000000	99.296556 
3234.000000	99.296235 
3233.000000	99.296288 
3232.000000	99.296565 
3231.000000	99.297069 
3230.000000	99.297773 
3229.000000	99.298441 
3228.000000	99.298703 
3227.000000	99.298273 
3226.000000	99.297105 
3225.000000	99.295509 
3224.000000	99.294123 
3223.000000	99.293569 
3222.000000	99.293960 
3221.000000	99.294799 
3220.000000	99.295427 
3219.000000	99.295537 
3218.000000	99.295227 
3217.000000	99.294752 
3216.000000	99.294396 
3215.000000	99.294433 
3214.000000	99.294962 
3213.000000	99.295766 
3212.000000	99.296527 
3211.000000	99.297299 
3210.000000	99.298550 
3209.000000	99.300504 
3208.000000	99.302622 
3207.000000	99.304001 
3206.000000	99.304303 
3205.000000	99.304162 
3204.000000	99.304541 
3203.000000	99.305767 
3202.000000	99.307358 
3201.000000	99.308726 
3200.000000	99.309795 
3199.000000	99.310801 
3198.000000	99.311752 
3197.000000	99.312396 
3196.000000	99.312672 
3195.000000	99.312845 
3194.000000	99.313036 
3193.000000	99.312897 
3192.000000	99.312062 
3191.000000	99.310811 
3190.000000	99.309996 
3189.000000	99.310271 
3188.000000	99.311574 
3187.000000	99.313285 
3186.000000	99.314712 
3185.000000	99.315436 
3184.000000	99.315403 
3183.000000	99.314909 
3182.000000	99.314457 
3181.000000	99.314420 
3180.000000	99.314781 
3179.000000	99.315223 
3178.000000	99.315433 
3177.000000	99.315303 
3176.000000	99.314954 
3175.000000	99.314735 
3174.000000	99.315130 
3173.000000	99.316413 
3172.000000	99.318298 
3171.000000	99.319977 
3170.000000	99.320786 
3169.000000	99.320811 
3168.000000	99.320778 
3167.000000	99.321340 
3166.000000	99.322474 
3165.000000	99.323602 
3164.000000	99.324225 
3163.000000	99.324349 
3162.000000	99.324341 
3161.000000	99.324535 
3160.000000	99.325014 
3159.000000	99.325654 
3158.000000	99.326224 
3157.000000	99.326483 
3156.000000	99.326328 
3155.000000	99.325900 
3154.000000	99.325494 
3153.000000	99.325358 
3152.000000	99.325538 
3151.000000	99.325891 
3150.000000	99.326168 
3149.000000	99.326144 
3148.000000	99.325798 
3147.000000	99.325409 
3146.000000	99.325362 
3145.000000	99.325767 
3144.000000	99.326354 
3143.000000	99.326828 
3142.000000	99.327243 
3141.000000	99.327851 
3140.000000	99.328614 
3139.000000	99.329089 
3138.000000	99.328916 
3137.000000	99.328298 
3136.000000	99.327831 
3135.000000	99.327841 
3134.000000	99.328064 
3133.000000	99.328016 
3132.000000	99.327534 
3131.000000	99.326875 
3130.000000	99.326379 
3129.000000	99.326117 
3128.000000	99.325944 
3127.000000	99.325790 
3126.000000	99.325730 
3125.000000	99.325793 
3124.000000	99.325869 
3123.000000	99.325846 
3122.000000	99.325774 
3121.000000	99.325786 
3120.000000	99.325936 
3119.000000	99.326148 
3118.000000	99.326265 
3117.000000	99.326143 
3116.000000	99.325764 
3115.000000	99.325327 
3114.000000	99.325134 
3113.000000	99.325274 
3112.000000	99.325484 
3111.000000	99.325452 
3110.000000	99.325242 
3109.000000	99.325235 
3108.000000	99.325613 
3107.000000	99.326149 
3106.000000	99.326483 
3105.000000	99.326525 
3104.000000	99.326468 
3103.000000	99.326559 
3102.000000	99.326905 
3101.000000	99.327454 
3100.000000	99.328018 
3099.000000	99.328368 
3098.000000	99.328406 
3097.000000	99.328229 
3096.000000	99.328064 
3095.000000	99.328085 
3094.000000	99.328294 
3093.000000	99.328569 
3092.000000	99.328766 
3091.000000	99.328805 
3090.000000	99.328673 
3089.000000	99.328445 
3088.000000	99.328352 
3087.000000	99.328718 
3086.000000	99.329689 
3085.000000	99.330942 
3084.000000	99.331818 
3083.000000	99.331878 
3082.000000	99.331243 
3081.000000	99.330430 
3080.000000	99.329859 
3079.000000	99.329622 
3078.000000	99.329627 
3077.000000	99.329707 
3076.000000	99.329545 
3075.000000	99.328861 
3074.000000	99.327874 
3073.000000	99.327358 
3072.000000	99.327931 
3071.000000	99.329427 
3070.000000	99.331065 
3069.000000	99.331917 
3068.000000	99.331014 
3067.000000	99.327676 
3066.000000	99.322542 
3065.000000	99.317978 
3064.000000	99.316409 
3063.000000	99.318025 
3062.000000	99.320681 
3061.000000	99.322244 
3060.000000	99.322547 
3059.000000	99.322806 
3058.000000	99.323822 
3057.000000	99.325359 
3056.000000	99.326847 
3055.000000	99.327989 
3054.000000	99.328611 
3053.000000	99.328412 
3052.000000	99.327191 
3051.000000	99.325274 
3050.000000	99.323469 
3049.000000	99.322357 
3048.000000	99.321456 
3047.000000	99.319302 
3046.000000	99.314833 
3045.000000	99.308782 
3044.000000	99.303414 
3043.000000	99.300622 
3042.000000	99.300408 
3041.000000	99.301201 
3040.000000	99.301355 
3039.000000	99.300280 
3038.000000	99.298492 
3037.000000	99.296895 
3036.000000	99.295878 
3035.000000	99.294917 
3034.000000	99.293144 
3033.000000	99.290199 
3032.000000	99.286181 
3031.000000	99.280992 
3030.000000	99.274103 
3029.000000	99.265119 
3028.000000	99.254567 
3027.000000	99.244034 
3026.000000	99.235444 
3025.000000	99.229900 
3024.000000	99.226776 
3023.000000	99.223849 
3022.000000	99.218729 
3021.000000	99.210489 
3020.000000	99.200117 
3019.000000	99.189599 
3018.000000	99.180651 
3017.000000	99.173862 
3016.000000	99.168257 
3015.000000	99.161607 
3014.000000	99.151906 
3013.000000	99.139043 
3012.000000	99.124757 
3011.000000	99.110753 
3010.000000	99.097398 
3009.000000	99.084588 
3008.000000	99.073155 
3007.000000	99.064453 
3006.000000	99.058557 
3005.000000	99.053507 
3004.000000	99.046527 
3003.000000	99.035913 
3002.000000	99.022037 
3001.000000	99.007182 
3000.000000	98.994271 
2999.000000	98.984893 
2998.000000	98.978237 
2997.000000	98.972448 
2996.000000	98.967031 
2995.000000	98.962833 
2994.000000	98.958978 
2993.000000	98.951115 
2992.000000	98.934852 
2991.000000	98.911473 
2990.000000	98.888812 
2989.000000	98.874940 
2988.000000	98.871519 
2987.000000	98.873947 
2986.000000	98.877119 
2985.000000	98.880055 
2984.000000	98.884564 
2983.000000	98.891037 
2982.000000	98.897100 
2981.000000	98.900018 
2980.000000	98.899321 
2979.000000	98.896760 
2978.000000	98.894336 
2977.000000	98.892713 
2976.000000	98.891138 
2975.000000	98.888590 
2974.000000	98.885064 
2973.000000	98.881793 
2972.000000	98.880113 
2971.000000	98.880258 
2970.000000	98.881605 
2969.000000	98.884032 
2968.000000	98.888396 
2967.000000	98.895352 
2966.000000	98.904109 
2965.000000	98.912947 
2964.000000	98.920928 
2963.000000	98.928614 
2962.000000	98.936874 
2961.000000	98.945281 
2960.000000	98.952219 
2959.000000	98.956732 
2958.000000	98.959944 
2957.000000	98.964065 
2956.000000	98.969820 
2955.000000	98.975337 
2954.000000	98.978166 
2953.000000	98.978462 
2952.000000	98.979586 
2951.000000	98.985095 
2950.000000	98.995060 
2949.000000	99.005605 
2948.000000	99.012266 
2947.000000	99.013600 
2946.000000	99.011717 
2945.000000	99.009968 
2944.000000	99.010255 
2943.000000	99.012308 
2942.000000	99.014726 
2941.000000	99.015984 
2940.000000	99.014966 
2939.000000	99.011590 
2938.000000	99.007176 
2937.000000	99.003656 
2936.000000	99.002155 
2935.000000	99.002580 
2934.000000	99.004379 
2933.000000	99.006932 
2932.000000	99.009129 
2931.000000	99.009483 
2930.000000	99.007281 
2929.000000	99.003250 
2928.000000	98.998779 
2927.000000	98.994926 
2926.000000	98.992496 
2925.000000	98.992177 
2924.000000	98.993720 
2923.000000	98.995492 
2922.000000	98.995846 
2921.000000	98.994820 
2920.000000	98.993691 
2919.000000	98.993085 
2918.000000	98.992376 
2917.000000	98.990850 
2916.000000	98.988600 
2915.000000	98.986245 
2914.000000	98.984551 
2913.000000	98.984339 
2912.000000	98.985802 
2911.000000	98.987702 
2910.000000	98.988084 
2909.000000	98.986287 
2908.000000	98.983664 
2907.000000	98.981816 
2906.000000	98.980611 
2905.000000	98.978374 
2904.000000	98.973693 
2903.000000	98.966967 
2902.000000	98.960685 
2901.000000	98.958319 
2900.000000	98.962088 
2899.000000	98.971144 
2898.000000	98.981809 
2897.000000	98.990242 
2896.000000	98.995228 
2895.000000	98.998272 
2894.000000	99.001504 
2893.000000	99.005779 
2892.000000	99.010361 
2891.000000	99.013890 
2890.000000	99.015702 
2889.000000	99.016501 
2888.000000	99.017688 
2887.000000	99.019989 
2886.000000	99.022990 
2885.000000	99.026067 
2884.000000	99.029321 
2883.000000	99.033384 
2882.000000	99.038694 
2881.000000	99.045348 
2880.000000	99.053339 
2879.000000	99.062500 
2878.000000	99.072292 
2877.000000	99.081855 
2876.000000	99.090119 
2875.000000	99.095947 
2874.000000	99.098727 
2873.000000	99.099294 
2872.000000	99.099919 
2871.000000	99.102737 
2870.000000	99.108141 
2869.000000	99.114849 
2868.000000	99.121385 
2867.000000	99.127409 
2866.000000	99.133872 
2865.000000	99.142080 
2864.000000	99.152219 
2863.000000	99.162505 
2862.000000	99.170265 
2861.000000	99.174391 
2860.000000	99.176589 
2859.000000	99.179827 
2858.000000	99.185605 
2857.000000	99.193062 
2856.000000	99.200382 
2855.000000	99.206474 
2854.000000	99.211350 
2853.000000	99.215593 
2852.000000	99.219799 
2851.000000	99.224356 
2850.000000	99.229579 
2849.000000	99.235803 
2848.000000	99.243045 
2847.000000	99.250497 
2846.000000	99.256772 
2845.000000	99.260946 
2844.000000	99.263223 
2843.000000	99.264554 
2842.000000	99.265986 
2841.000000	99.268470 
2840.000000	99.272556 
2839.000000	99.277646 
2838.000000	99.282002 
2837.000000	99.284234 
2836.000000	99.284643 
2835.000000	99.284770 
2834.000000	99.285934 
2833.000000	99.288627 
2832.000000	99.292754 
2831.000000	99.297475 
2830.000000	99.301106 
2829.000000	99.302323 
2828.000000	99.301715 
2827.000000	99.301332 
2826.000000	99.302371 
2825.000000	99.304033 
2824.000000	99.305058 
2823.000000	99.305569 
2822.000000	99.306759 
2821.000000	99.309174 
2820.000000	99.312024 
2819.000000	99.314192 
2818.000000	99.315463 
2817.000000	99.316559 
2816.000000	99.318090 
2815.000000	99.319699 
2814.000000	99.320424 
2813.000000	99.319914 
2812.000000	99.318987 
2811.000000	99.318698 
2810.000000	99.319112 
2809.000000	99.319486 
2808.000000	99.319508 
2807.000000	99.319788 
2806.000000	99.321018 
2805.000000	99.323114 
2804.000000	99.325373 
2803.000000	99.327193 
2802.000000	99.328467 
2801.000000	99.329506 
2800.000000	99.330673 
2799.000000	99.331950 
2798.000000	99.332875 
2797.000000	99.333032 
2796.000000	99.332534 
2795.000000	99.331846 
2794.000000	99.331294 
2793.000000	99.330972 
2792.000000	99.330989 
2791.000000	99.331463 
2790.000000	99.332276 
2789.000000	99.333199 
2788.000000	99.334271 
2787.000000	99.335705 
2786.000000	99.337408 
2785.000000	99.338969 
2784.000000	99.340183 
2783.000000	99.341195 
2782.000000	99.342003 
2781.000000	99.342231 
2780.000000	99.341667 
2779.000000	99.340756 
2778.000000	99.340228 
2777.000000	99.340379 
2776.000000	99.340935 
2775.000000	99.341394 
2774.000000	99.341329 
2773.000000	99.340612 
2772.000000	99.339657 
2771.000000	99.339267 
2770.000000	99.339954 
2769.000000	99.341549 
2768.000000	99.343625 
2767.000000	99.345986 
2766.000000	99.348442 
2765.000000	99.350401 
2764.000000	99.351223 
2763.000000	99.350953 
2762.000000	99.350323 
2761.000000	99.350045 
2760.000000	99.350420 
2759.000000	99.351507 
2758.000000	99.353126 
2757.000000	99.354685 
2756.000000	99.355547 
2755.000000	99.355714 
2754.000000	99.355678 
2753.000000	99.355487 
2752.000000	99.354523 
2751.000000	99.352520 
2750.000000	99.350292 
2749.000000	99.348904 
2748.000000	99.348399 
2747.000000	99.347940 
2746.000000	99.347033 
2745.000000	99.346127 
2744.000000	99.345926 
2743.000000	99.346607 
2742.000000	99.347866 
2741.000000	99.349342 
2740.000000	99.350754 
2739.000000	99.351842 
2738.000000	99.352483 
2737.000000	99.352839 
2736.000000	99.353212 
2735.000000	99.353728 
2734.000000	99.354226 
2733.000000	99.354472 
2732.000000	99.354400 
2731.000000	99.354174 
2730.000000	99.354082 
2729.000000	99.354367 
2728.000000	99.355099 
2727.000000	99.356127 
2726.000000	99.357094 
2725.000000	99.357631 
2724.000000	99.357628 
2723.000000	99.357337 
2722.000000	99.357160 
2721.000000	99.357287 
2720.000000	99.357625 
2719.000000	99.358014 
2718.000000	99.358400 
2717.000000	99.358765 
2716.000000	99.359061 
2715.000000	99.359312 
2714.000000	99.359643 
2713.000000	99.360110 
2712.000000	99.360572 
2711.000000	99.360838 
2710.000000	99.360921 
2709.000000	99.361020 
2708.000000	99.361285 
2707.000000	99.361646 
2706.000000	99.361931 
2705.000000	99.362079 
2704.000000	99.362164 
2703.000000	99.362271 
2702.000000	99.362405 
2701.000000	99.362536 
2700.000000	99.362654 
2699.000000	99.362765 
2698.000000	99.362880 
2697.000000	99.363002 
2696.000000	99.363128 
2695.000000	99.363258 
2694.000000	99.363391 
2693.000000	99.363518 
2692.000000	99.363628 
2691.000000	99.363715 
2690.000000	99.363784 
2689.000000	99.363842 
2688.000000	99.363894 
2687.000000	99.363946 
2686.000000	99.363996 
2685.000000	99.364040 
2684.000000	99.364076 
2683.000000	99.364103 
2682.000000	99.364124 
2681.000000	99.364142 
2680.000000	99.364156 
2679.000000	99.364166 
2678.000000	99.364174 
2677.000000	99.364178 
2676.000000	99.364183 
2675.000000	99.364187 
2674.000000	99.364185 
2673.000000	99.364171 
2672.000000	99.364148 
2671.000000	99.364120 
2670.000000	99.364080 
2669.000000	99.364017 
2668.000000	99.363924 
2667.000000	99.363818 
2666.000000	99.363729 
2665.000000	99.363688 
2664.000000	99.363696 
2663.000000	99.363726 
2662.000000	99.363744 
2661.000000	99.363736 
2660.000000	99.363699 
2659.000000	99.363627 
2658.000000	99.363510 
2657.000000	99.363354 
2656.000000	99.363207 
2655.000000	99.363140 
2654.000000	99.363176 
2653.000000	99.363225 
2652.000000	99.363133 
2651.000000	99.362800 
2650.000000	99.362302 
2649.000000	99.361889 
2648.000000	99.361774 
2647.000000	99.361940 
2646.000000	99.362187 
2645.000000	99.362424 
2644.000000	99.362741 
2643.000000	99.363158 
2642.000000	99.363461 
2641.000000	99.363465 
2640.000000	99.363338 
2639.000000	99.363455 
2638.000000	99.363936 
2637.000000	99.364520 
2636.000000	99.364854 
2635.000000	99.364720 
2634.000000	99.364062 
2633.000000	99.363099 
2632.000000	99.362384 
2631.000000	99.362272 
2630.000000	99.362470 
2629.000000	99.362416 
2628.000000	99.362022 
2627.000000	99.361712 
2626.000000	99.361785 
2625.000000	99.362161 
2624.000000	99.362645 
2623.000000	99.363006 
2622.000000	99.362889 
2621.000000	99.362170 
2620.000000	99.361328 
2619.000000	99.360966 
2618.000000	99.360938 
2617.000000	99.360545 
2616.000000	99.359714 
2615.000000	99.359318 
2614.000000	99.360000 
2613.000000	99.361265 
2612.000000	99.362078 
2611.000000	99.362091 
2610.000000	99.361840 
2609.000000	99.361977 
2608.000000	99.362689 
2607.000000	99.363753 
2606.000000	99.364856 
2605.000000	99.365821 
2604.000000	99.366651 
2603.000000	99.367299 
2602.000000	99.367528 
2601.000000	99.367205 
2600.000000	99.366679 
2599.000000	99.366518 
2598.000000	99.366859 
2597.000000	99.367319 
2596.000000	99.367513 
2595.000000	99.367306 
2594.000000	99.366545 
2593.000000	99.365075 
2592.000000	99.363232 
2591.000000	99.361899 
2590.000000	99.361726 
2589.000000	99.362576 
2588.000000	99.363767 
2587.000000	99.364645 
2586.000000	99.364855 
2585.000000	99.364255 
2584.000000	99.362981 
2583.000000	99.361583 
2582.000000	99.360736 
2581.000000	99.360664 
2580.000000	99.361033 
2579.000000	99.361338 
2578.000000	99.361364 
2577.000000	99.361228 
2576.000000	99.361141 
2575.000000	99.361216 
2574.000000	99.361407 
2573.000000	99.361583 
2572.000000	99.361638 
2571.000000	99.361558 
2570.000000	99.361376 
2569.000000	99.361147 
2568.000000	99.361000 
2567.000000	99.361123 
2566.000000	99.361572 
2565.000000	99.362139 
2564.000000	99.362506 
2563.000000	99.362535 
2562.000000	99.362337 
2561.000000	99.362120 
2560.000000	99.362030 
2559.000000	99.362139 
2558.000000	99.362427 
2557.000000	99.362691 
2556.000000	99.362622 
2555.000000	99.362175 
2554.000000	99.361794 
2553.000000	99.362042 
2552.000000	99.362979 
2551.000000	99.364019 
2550.000000	99.364535 
2549.000000	99.364489 
2548.000000	99.364267 
2547.000000	99.364013 
2546.000000	99.363465 
2545.000000	99.362520 
2544.000000	99.361702 
2543.000000	99.361786 
2542.000000	99.362959 
2541.000000	99.364556 
2540.000000	99.365718 
2539.000000	99.366168 
2538.000000	99.366121 
2537.000000	99.365574 
2536.000000	99.364072 
2535.000000	99.361435 
2534.000000	99.358546 
2533.000000	99.356936 
2532.000000	99.357409 
2531.000000	99.359270 
2530.000000	99.360988 
2529.000000	99.361777 
2528.000000	99.362183 
2527.000000	99.363130 
2526.000000	99.364776 
2525.000000	99.366519 
2524.000000	99.367898 
2523.000000	99.369043 
2522.000000	99.370182 
2521.000000	99.371075 
2520.000000	99.371196 
2519.000000	99.370346 
2518.000000	99.368847 
2517.000000	99.367211 
2516.000000	99.365736 
2515.000000	99.364436 
2514.000000	99.363318 
2513.000000	99.362592 
2512.000000	99.362436 
2511.000000	99.362550 
2510.000000	99.362276 
2509.000000	99.361424 
2508.000000	99.360771 
2507.000000	99.361251 
2506.000000	99.362665 
2505.000000	99.363611 
2504.000000	99.362912 
2503.000000	99.360782 
2502.000000	99.358505 
2501.000000	99.357198 
2500.000000	99.357137 
2499.000000	99.358099 
2498.000000	99.359827 
2497.000000	99.362033 
2496.000000	99.364194 
2495.000000	99.365604 
2494.000000	99.365668 
2493.000000	99.364158 
2492.000000	99.361357 
2491.000000	99.358069 
2490.000000	99.355366 
2489.000000	99.354050 
2488.000000	99.354184 
2487.000000	99.355088 
2486.000000	99.355887 
2485.000000	99.356332 
2484.000000	99.356925 
2483.000000	99.358137 
2482.000000	99.359672 
2481.000000	99.360696 
2480.000000	99.360754 
2479.000000	99.360177 
2478.000000	99.359577 
2477.000000	99.359170 
2476.000000	99.358791 
2475.000000	99.358404 
2474.000000	99.358262 
2473.000000	99.358584 
2472.000000	99.359273 
2471.000000	99.360042 
2470.000000	99.360648 
2469.000000	99.360908 
2468.000000	99.360650 
2467.000000	99.359835 
2466.000000	99.358759 
2465.000000	99.357990 
2464.000000	99.357917 
2463.000000	99.358366 
2462.000000	99.358705 
2461.000000	99.358412 
2460.000000	99.357581 
2459.000000	99.356791 
2458.000000	99.356549 
2457.000000	99.356926 
2456.000000	99.357665 
2455.000000	99.358408 
2454.000000	99.358786 
2453.000000	99.358491 
2452.000000	99.357504 
2451.000000	99.356228 
2450.000000	99.355242 
2449.000000	99.354820 
2448.000000	99.354819 
2447.000000	99.355024 
2446.000000	99.355438 
2445.000000	99.356177 
2444.000000	99.357230 
2443.000000	99.358353 
2442.000000	99.359164 
2441.000000	99.359369 
2440.000000	99.358949 
2439.000000	99.358193 
2438.000000	99.357473 
2437.000000	99.356989 
2436.000000	99.356691 
2435.000000	99.356341 
2434.000000	99.355635 
2433.000000	99.354434 
2432.000000	99.353015 
2431.000000	99.352025 
2430.000000	99.351900 
2429.000000	99.352416 
2428.000000	99.352982 
2427.000000	99.353398 
2426.000000	99.354001 
2425.000000	99.354937 
2424.000000	99.355658 
2423.000000	99.355460 
2422.000000	99.354329 
2421.000000	99.353069 
2420.000000	99.352519 
2419.000000	99.352785 
2418.000000	99.353429 
2417.000000	99.354062 
2416.000000	99.354615 
2415.000000	99.355096 
2414.000000	99.355436 
2413.000000	99.355642 
2412.000000	99.355862 
2411.000000	99.356159 
2410.000000	99.356381 
2409.000000	99.356393 
2408.000000	99.356386 
2407.000000	99.356782 
2406.000000	99.357784 
2405.000000	99.359126 
2404.000000	99.360334 
2403.000000	99.361082 
2402.000000	99.361333 
2401.000000	99.361226 
2400.000000	99.360944 
2399.000000	99.360691 
2398.000000	99.360685 
2397.000000	99.361089 
2396.000000	99.361915 
2395.000000	99.362999 
2394.000000	99.364114 
2393.000000	99.365118 
2392.000000	99.365979 
2391.000000	99.366734 
2390.000000	99.367481 
2389.000000	99.368385 
2388.000000	99.369547 
2387.000000	99.370856 
2386.000000	99.372059 
2385.000000	99.373016 
2384.000000	99.373823 
2383.000000	99.374649 
2382.000000	99.375550 
2381.000000	99.376494 
2380.000000	99.377450 
2379.000000	99.378338 
2378.000000	99.378994 
2377.000000	99.379387 
2376.000000	99.379805 
2375.000000	99.380629 
2374.000000	99.381917 
2373.000000	99.383355 
2372.000000	99.384689 
2371.000000	99.386052 
2370.000000	99.387643 
2369.000000	99.389240 
2368.000000	99.390241 
2367.000000	99.390250 
2366.000000	99.389478 
2365.000000	99.388683 
2364.000000	99.388615 
2363.000000	99.389413 
2362.000000	99.390616 
2361.000000	99.391568 
2360.000000	99.391947 
2359.000000	99.392006 
2358.000000	99.392219 
2357.000000	99.392876 
2356.000000	99.393949 
2355.000000	99.395083 
2354.000000	99.395894 
2353.000000	99.396092 
2352.000000	99.395786 
2351.000000	99.395330 
2350.000000	99.394836 
2349.000000	99.394279 
2348.000000	99.393705 
2347.000000	99.393423 
2346.000000	99.393496 
2345.000000	99.393517 
2344.000000	99.393159 
2343.000000	99.392504 
2342.000000	99.392022 
2341.000000	99.391817 
2340.000000	99.391653 
2339.000000	99.391335 
2338.000000	99.390961 
2337.000000	99.390686 
2336.000000	99.390438 
2335.000000	99.390102 
2334.000000	99.389714 
2333.000000	99.389325 
2332.000000	99.388743 
2331.000000	99.387760 
2330.000000	99.386359 
2329.000000	99.384971 
2328.000000	99.383955 
2327.000000	99.383459 
2326.000000	99.383218 
2325.000000	99.382819 
2324.000000	99.382034 
2323.000000	99.381014 
2322.000000	99.380199 
2321.000000	99.379810 
2320.000000	99.379687 
2319.000000	99.379466 
2318.000000	99.378954 
2317.000000	99.378219 
2316.000000	99.377382 
2315.000000	99.376533 
2314.000000	99.375638 
2313.000000	99.374712 
2312.000000	99.373786 
2311.000000	99.372976 
2310.000000	99.372345 
2309.000000	99.371875 
2308.000000	99.371373 
2307.000000	99.370624 
2306.000000	99.369570 
2305.000000	99.368403 
2304.000000	99.367343 
2303.000000	99.366439 
2302.000000	99.365562 
2301.000000	99.364617 
2300.000000	99.363622 
2299.000000	99.362639 
2298.000000	99.361644 
2297.000000	99.360659 
2296.000000	99.359832 
2295.000000	99.359316 
2294.000000	99.358963 
2293.000000	99.358385 
2292.000000	99.357364 
2291.000000	99.356129 
2290.000000	99.355070 
2289.000000	99.354289 
2288.000000	99.353583 
2287.000000	99.352763 
2286.000000	99.351829 
2285.000000	99.350858 
2284.000000	99.349913 
2283.000000	99.349037 
2282.000000	99.348198 
2281.000000	99.347176 
2280.000000	99.345771 
2279.000000	99.344202 
2278.000000	99.343102 
2277.000000	99.342880 
2276.000000	99.343321 
2275.000000	99.343813 
2274.000000	99.343887 
2273.000000	99.343407 
2272.000000	99.342297 
2271.000000	99.340427 
2270.000000	99.337937 
2269.000000	99.335608 
2268.000000	99.334506 
2267.000000	99.335131 
2266.000000	99.336973 
2265.000000	99.338828 
2264.000000	99.339705 
2263.000000	99.339441 
2262.000000	99.338629 
2261.000000	99.338071 
2260.000000	99.338046 
2259.000000	99.337946 
2258.000000	99.336824 
2257.000000	99.334492 
2256.000000	99.331905 
2255.000000	99.330112 
2254.000000	99.328952 
2253.000000	99.327379 
2252.000000	99.325187 
2251.000000	99.323757 
2250.000000	99.324585 
2249.000000	99.327636 
2248.000000	99.331358 
2247.000000	99.334117 
2246.000000	99.335184 
2245.000000	99.334468 
2244.000000	99.332140 
2243.000000	99.328750 
2242.000000	99.325312 
2241.000000	99.322855 
2240.000000	99.321788 
2239.000000	99.321673 
2238.000000	99.321512 
2237.000000	99.320335 
2236.000000	99.317759 
2235.000000	99.314202 
2234.000000	99.310680 
2233.000000	99.308315 
2232.000000	99.307856 
2231.000000	99.309424 
2230.000000	99.312575 
2229.000000	99.316567 
2228.000000	99.320513 
2227.000000	99.323316 
2226.000000	99.323876 
2225.000000	99.321845 
2224.000000	99.318164 
2223.000000	99.314504 
2222.000000	99.312108 
2221.000000	99.311399 
2220.000000	99.312245 
2219.000000	99.314040 
2218.000000	99.315795 
2217.000000	99.316954 
2216.000000	99.318129 
2215.000000	99.320300 
2214.000000	99.323080 
2213.000000	99.324518 
2212.000000	99.323130 
2211.000000	99.319653 
2210.000000	99.316557 
2209.000000	99.315885 
2208.000000	99.317505 
2207.000000	99.319173 
2206.000000	99.318424 
2205.000000	99.314729 
2204.000000	99.309812 
2203.000000	99.305762 
2202.000000	99.303108 
2201.000000	99.301262 
2200.000000	99.299909 
2199.000000	99.298864 
2198.000000	99.297225 
2197.000000	99.294441 
2196.000000	99.292192 
2195.000000	99.293235 
2194.000000	99.298049 
2193.000000	99.303937 
2192.000000	99.307783 
2191.000000	99.308789 
2190.000000	99.307707 
2189.000000	99.305317 
2188.000000	99.302651 
2187.000000	99.301286 
2186.000000	99.302096 
2185.000000	99.304452 
2184.000000	99.307397 
2183.000000	99.310749 
2182.000000	99.314033 
2181.000000	99.315665 
2180.000000	99.314759 
2179.000000	99.312641 
2178.000000	99.311096 
2177.000000	99.309770 
2176.000000	99.307026 
2175.000000	99.302896 
2174.000000	99.299510 
2173.000000	99.298589 
2172.000000	99.299692 
2171.000000	99.301088 
2170.000000	99.301662 
2169.000000	99.301772 
2168.000000	99.302647 
2167.000000	99.304919 
2166.000000	99.307598 
2165.000000	99.308931 
2164.000000	99.308582 
2163.000000	99.308107 
2162.000000	99.309001 
2161.000000	99.311147 
2160.000000	99.313640 
2159.000000	99.316051 
2158.000000	99.318266 
2157.000000	99.320017 
2156.000000	99.321315 
2155.000000	99.322538 
2154.000000	99.323597 
2153.000000	99.323792 
2152.000000	99.322954 
2151.000000	99.322119 
2150.000000	99.322561 
2149.000000	99.324549 
2148.000000	99.327337 
2147.000000	99.329784 
2146.000000	99.330862 
2145.000000	99.330102 
2144.000000	99.328088 
2143.000000	99.326281 
2142.000000	99.325613 
2141.000000	99.325749 
2140.000000	99.325945 
2139.000000	99.326063 
2138.000000	99.326334 
2137.000000	99.326568 
2136.000000	99.326307 
2135.000000	99.325684 
2134.000000	99.325476 
2133.000000	99.326178 
2132.000000	99.327409 
2131.000000	99.328226 
2130.000000	99.327897 
2129.000000	99.326348 
2128.000000	99.324244 
2127.000000	99.322608 
2126.000000	99.321977 
2125.000000	99.322026 
2124.000000	99.322200 
2123.000000	99.322673 
2122.000000	99.324029 
2121.000000	99.325968 
2120.000000	99.327132 
2119.000000	99.326616 
2118.000000	99.325059 
2117.000000	99.323885 
2116.000000	99.323727 
2115.000000	99.324131 
2114.000000	99.324483 
2113.000000	99.324599 
2112.000000	99.324473 
2111.000000	99.323884 
2110.000000	99.322498 
2109.000000	99.320396 
2108.000000	99.318416 
2107.000000	99.317510 
2106.000000	99.317312 
2105.000000	99.315806 
2104.000000	99.311366 
2103.000000	99.305150 
2102.000000	99.300598 
2101.000000	99.299999 
2100.000000	99.302673 
2099.000000	99.306290 
2098.000000	99.309179 
2097.000000	99.310949 
2096.000000	99.311715 
2095.000000	99.311568 
2094.000000	99.310206 
2093.000000	99.306835 
2092.000000	99.301386 
2091.000000	99.296058 
2090.000000	99.294088 
2089.000000	99.296129 
2088.000000	99.299173 
2087.000000	99.300152 
2086.000000	99.299672 
2085.000000	99.300646 
2084.000000	99.304190 
2083.000000	99.308465 
2082.000000	99.311250 
2081.000000	99.312218 
2080.000000	99.312474 
2079.000000	99.313061 
2078.000000	99.314519 
2077.000000	99.317339 
2076.000000	99.322084 
2075.000000	99.328710 
2074.000000	99.335646 
2073.000000	99.340153 
2072.000000	99.340383 
2071.000000	99.336922 
2070.000000	99.332078 
2069.000000	99.327796 
2068.000000	99.324732 
2067.000000	99.323043 
2066.000000	99.322791 
2065.000000	99.323269 
2064.000000	99.323188 
2063.000000	99.322282 
2062.000000	99.321844 
2061.000000	99.323076 
2060.000000	99.325649 
2059.000000	99.328322 
2058.000000	99.330110 
2057.000000	99.330437 
2056.000000	99.328873 
2055.000000	99.325538 
2054.000000	99.321503 
2053.000000	99.318195 
2052.000000	99.316401 
2051.000000	99.316093 
2050.000000	99.316792 
2049.000000	99.317658 
2048.000000	99.317606 
2047.000000	99.316014 
2046.000000	99.313331 
2045.000000	99.310728 
2044.000000	99.309128 
2043.000000	99.308553 
2042.000000	99.308404 
2041.000000	99.308148 
2040.000000	99.307738 
2039.000000	99.307427 
2038.000000	99.307326 
2037.000000	99.307239 
2036.000000	99.306883 
2035.000000	99.306091 
2034.000000	99.304830 
2033.000000	99.303217 
2032.000000	99.301541 
2031.000000	99.300148 
2030.000000	99.299196 
2029.000000	99.298572 
2028.000000	99.298067 
2027.000000	99.297572 
2026.000000	99.297116 
2025.000000	99.296804 
2024.000000	99.296713 
2023.000000	99.296707 
2022.000000	99.296406 
2021.000000	99.295500 
2020.000000	99.294116 
2019.000000	99.292920 
2018.000000	99.292483 
2017.000000	99.292728 
2016.000000	99.293028 
2015.000000	99.292961 
2014.000000	99.292693 
2013.000000	99.292545 
2012.000000	99.292592 
2011.000000	99.292751 
2010.000000	99.293037 
2009.000000	99.293562 
2008.000000	99.294316 
2007.000000	99.295102 
2006.000000	99.295681 
2005.000000	99.295974 
2004.000000	99.296086 
2003.000000	99.296204 
2002.000000	99.296430 
2001.000000	99.296723 
2000.000000	99.297004 
1999.000000	99.297246 
1998.000000	99.297479 
1997.000000	99.297753 
1996.000000	99.298096 
1995.000000	99.298496 
1994.000000	99.298912 
1993.000000	99.299301 
1992.000000	99.299644 
1991.000000	99.299949 
1990.000000	99.300236 
1989.000000	99.300522 
1988.000000	99.300812 
1987.000000	99.301102 
1986.000000	99.301374 
1985.000000	99.301604 
1984.000000	99.301775 
1983.000000	99.301886 
1982.000000	99.301948 
1981.000000	99.301967 
1980.000000	99.301949 
1979.000000	99.301911 
1978.000000	99.301873 
1977.000000	99.301849 
1976.000000	99.301829 
1975.000000	99.301798 
1974.000000	99.301756 
1973.000000	99.301726 
1972.000000	99.301726 
1971.000000	99.301758 
1970.000000	99.301803 
1969.000000	99.301830 
1968.000000	99.301799 
1967.000000	99.301680 
1966.000000	99.301511 
1965.000000	99.301368 
1964.000000	99.301301 
1963.000000	99.301290 
1962.000000	99.301258 
1961.000000	99.301099 
1960.000000	99.300762 
1959.000000	99.300373 
1958.000000	99.300200 
1957.000000	99.300370 
1956.000000	99.300675 
1955.000000	99.300740 
1954.000000	99.300410 
1953.000000	99.299863 
1952.000000	99.299365 
1951.000000	99.299023 
1950.000000	99.298831 
1949.000000	99.298794 
1948.000000	99.298974 
1947.000000	99.299333 
1946.000000	99.299395 
1945.000000	99.298277 
1944.000000	99.295519 
1943.000000	99.292118 
1942.000000	99.290123 
1941.000000	99.290526 
1940.000000	99.292276 
1939.000000	99.293671 
1938.000000	99.294394 
1937.000000	99.295486 
1936.000000	99.297613 
1935.000000	99.300020 
1934.000000	99.301415 
1933.000000	99.301715 
1932.000000	99.302353 
1931.000000	99.304769 
1930.000000	99.308729 
1929.000000	99.312165 
1928.000000	99.313368 
1927.000000	99.312533 
1926.000000	99.311037 
1925.000000	99.309829 
1924.000000	99.308840 
1923.000000	99.308161 
1922.000000	99.308433 
1921.000000	99.309771 
1920.000000	99.311078 
1919.000000	99.310989 
1918.000000	99.309248 
1917.000000	99.307026 
1916.000000	99.305734 
1915.000000	99.305763 
1914.000000	99.306646 
1913.000000	99.307923 
1912.000000	99.309370 
1911.000000	99.310672 
1910.000000	99.311280 
1909.000000	99.310974 
1908.000000	99.310583 
1907.000000	99.311243 
1906.000000	99.313107 
1905.000000	99.315100 
1904.000000	99.316069 
1903.000000	99.316016 
1902.000000	99.315725 
1901.000000	99.315780 
1900.000000	99.316223 
1899.000000	99.316881 
1898.000000	99.317598 
1897.000000	99.318241 
1896.000000	99.318672 
1895.000000	99.318858 
1894.000000	99.318883 
1893.000000	99.318885 
1892.000000	99.319002 
1891.000000	99.319293 
1890.000000	99.319616 
1889.000000	99.319722 
1888.000000	99.319627 
1887.000000	99.319643 
1886.000000	99.319942 
1885.000000	99.320368 
1884.000000	99.320701 
1883.000000	99.321010 
1882.000000	99.321524 
1881.000000	99.322245 
1880.000000	99.322988 
1879.000000	99.323707 
1878.000000	99.324534 
1877.000000	99.325451 
1876.000000	99.326148 
1875.000000	99.326382 
1874.000000	99.326221 
1873.000000	99.325854 
1872.000000	99.325458 
1871.000000	99.325215 
1870.000000	99.325178 
1869.000000	99.325095 
1868.000000	99.324792 
1867.000000	99.324671 
1866.000000	99.325151 
1865.000000	99.325943 
1864.000000	99.326276 
1863.000000	99.325724 
1862.000000	99.324618 
1861.000000	99.323796 
1860.000000	99.323851 
1859.000000	99.324816 
1858.000000	99.326262 
1857.000000	99.327510 
1856.000000	99.328163 
1855.000000	99.328380 
1854.000000	99.328574 
1853.000000	99.328838 
1852.000000	99.328990 
1851.000000	99.328997 
1850.000000	99.329081 
1849.000000	99.329505 
1848.000000	99.330236 
1847.000000	99.330981 
1846.000000	99.331434 
1845.000000	99.331493 
1844.000000	99.331328 
1843.000000	99.331354 
1842.000000	99.331827 
1841.000000	99.332454 
1840.000000	99.332819 
1839.000000	99.332783 
1838.000000	99.332506 
1837.000000	99.332190 
1836.000000	99.331903 
1835.000000	99.331756 
1834.000000	99.331871 
1833.000000	99.332203 
1832.000000	99.332552 
1831.000000	99.332680 
1830.000000	99.332515 
1829.000000	99.332346 
1828.000000	99.332474 
1827.000000	99.332793 
1826.000000	99.333077 
1825.000000	99.333380 
1824.000000	99.333792 
1823.000000	99.334162 
1822.000000	99.334152 
1821.000000	99.333721 
1820.000000	99.333472 
1819.000000	99.334109 
1818.000000	99.335745 
1817.000000	99.337521 
1816.000000	99.338342 
1815.000000	99.338295 
1814.000000	99.338412 
1813.000000	99.339416 
1812.000000	99.340863 
1811.000000	99.341846 
1810.000000	99.342276 
1809.000000	99.342441 
1808.000000	99.342211 
1807.000000	99.341427 
1806.000000	99.340435 
1805.000000	99.339786 
1804.000000	99.339679 
1803.000000	99.339978 
1802.000000	99.340250 
1801.000000	99.340016 
1800.000000	99.339178 
1799.000000	99.338267 
1798.000000	99.338041 
1797.000000	99.338597 
1796.000000	99.339437 
1795.000000	99.340089 
1794.000000	99.340456 
1793.000000	99.340640 
1792.000000	99.340658 
1791.000000	99.340634 
1790.000000	99.340856 
1789.000000	99.341237 
1788.000000	99.341511 
1787.000000	99.341685 
1786.000000	99.342010 
1785.000000	99.342502 
1784.000000	99.342836 
1783.000000	99.342842 
1782.000000	99.342532 
1781.000000	99.342054 
1780.000000	99.341592 
1779.000000	99.341225 
1778.000000	99.341078 
1777.000000	99.341165 
1776.000000	99.341411 
1775.000000	99.341596 
1774.000000	99.341521 
1773.000000	99.341316 
1772.000000	99.341292 
1771.000000	99.341530 
1770.000000	99.341864 
1769.000000	99.342063 
1768.000000	99.342060 
1767.000000	99.341949 
1766.000000	99.341875 
1765.000000	99.341915 
1764.000000	99.342043 
1763.000000	99.342183 
1762.000000	99.342292 
1761.000000	99.342427 
1760.000000	99.342629 
1759.000000	99.342805 
1758.000000	99.342918 
1757.000000	99.343079 
1756.000000	99.343439 
1755.000000	99.343870 
1754.000000	99.344088 
1753.000000	99.344045 
1752.000000	99.343968 
1751.000000	99.343949 
1750.000000	99.343839 
1749.000000	99.343612 
1748.000000	99.343443 
1747.000000	99.343466 
1746.000000	99.343553 
1745.000000	99.343575 
1744.000000	99.343525 
1743.000000	99.343430 
1742.000000	99.343319 
1741.000000	99.343213 
1740.000000	99.343143 
1739.000000	99.343172 
1738.000000	99.343344 
1737.000000	99.343551 
1736.000000	99.343647 
1735.000000	99.343608 
1734.000000	99.343439 
1733.000000	99.343208 
1732.000000	99.343068 
1731.000000	99.342969 
1730.000000	99.342839 
1729.000000	99.342688 
1728.000000	99.342562 
1727.000000	99.342478 
1726.000000	99.342413 
1725.000000	99.342347 
1724.000000	99.342269 
1723.000000	99.342181 
1722.000000	99.342096 
1721.000000	99.342010 
1720.000000	99.341921 
1719.000000	99.341827 
1718.000000	99.341730 
1717.000000	99.341628 
1716.000000	99.341520 
1715.000000	99.341406 
1714.000000	99.341292 
1713.000000	99.341178 
1712.000000	99.341069 
1711.000000	99.340965 
1710.000000	99.340867 
1709.000000	99.340773 
1708.000000	99.340679 
1707.000000	99.340582 
1706.000000	99.340480 
1705.000000	99.340374 
1704.000000	99.340262 
1703.000000	99.340149 
1702.000000	99.340038 
1701.000000	99.339930 
1700.000000	99.339825 
1699.000000	99.339721 
1698.000000	99.339621 
1697.000000	99.339517 
1696.000000	99.339402 
1695.000000	99.339274 
1694.000000	99.339138 
1693.000000	99.339004 
1692.000000	99.338876 
1691.000000	99.338756 
1690.000000	99.338644 
1689.000000	99.338536 
1688.000000	99.338428 
1687.000000	99.338318 
1686.000000	99.338206 
1685.000000	99.338092 
1684.000000	99.337977 
1683.000000	99.337857 
1682.000000	99.337735 
1681.000000	99.337608 
1680.000000	99.337478 
1679.000000	99.337347 
1678.000000	99.337217 
1677.000000	99.337092 
1676.000000	99.336975 
1675.000000	99.336867 
1674.000000	99.336771 
1673.000000	99.336683 
1672.000000	99.336597 
1671.000000	99.336506 
1670.000000	99.336404 
1669.000000	99.336289 
1668.000000	99.336167 
1667.000000	99.336043 
1666.000000	99.335919 
1665.000000	99.335798 
1664.000000	99.335677 
1663.000000	99.335555 
1662.000000	99.335444 
1661.000000	99.335354 
1660.000000	99.335298 
1659.000000	99.335275 
1658.000000	99.335255 
1657.000000	99.335200 
1656.000000	99.335082 
1655.000000	99.334887 
1654.000000	99.334749 
1653.000000	99.334619 
1652.000000	99.334415 
1651.000000	99.334638 
1650.000000	99.335013 
1649.000000	99.335203 
1648.000000	99.335301 
1647.000000	99.335402 
1646.000000	99.335454 
1645.000000	99.335660 
1644.000000	99.336115 
1643.000000	99.336672 
1642.000000	99.337076 
1641.000000	99.337128 
1640.000000	99.336940 
1639.000000	99.336752 
1638.000000	99.336790 
1637.000000	99.337237 
1636.000000	99.338079 
1635.000000	99.338776 
1634.000000	99.339209 
1633.000000	99.339512 
1632.000000	99.339251 
1631.000000	99.338483 
1630.000000	99.337607 
1629.000000	99.337002 
1628.000000	99.336969 
1627.000000	99.337776 
1626.000000	99.339096 
1625.000000	99.340154 
1624.000000	99.340643 
1623.000000	99.340929 
1622.000000	99.341513 
1621.000000	99.342461 
1620.000000	99.343441 
1619.000000	99.344009 
1618.000000	99.344302 
1617.000000	99.344621 
1616.000000	99.345399 
1615.000000	99.347270 
1614.000000	99.349621 
1613.000000	99.351385 
1612.000000	99.352810 
1611.000000	99.354597 
1610.000000	99.356151 
1609.000000	99.356415 
1608.000000	99.355773 
1607.000000	99.355540 
1606.000000	99.355822 
1605.000000	99.355947 
1604.000000	99.356074 
1603.000000	99.356537 
1602.000000	99.357326 
1601.000000	99.358378 
1600.000000	99.359799 
1599.000000	99.361309 
1598.000000	99.362184 
1597.000000	99.362289 
1596.000000	99.362335 
1595.000000	99.362917 
1594.000000	99.363761 
1593.000000	99.364371 
1592.000000	99.364924 
1591.000000	99.365844 
1590.000000	99.366961 
1589.000000	99.367807 
1588.000000	99.368394 
1587.000000	99.368980 
1586.000000	99.369387 
1585.000000	99.369223 
1584.000000	99.368982 
1583.000000	99.369263 
1582.000000	99.369614 
1581.000000	99.369482 
1580.000000	99.368960 
1579.000000	99.368197 
1578.000000	99.367094 
1577.000000	99.365920 
1576.000000	99.365255 
1575.000000	99.365526 
1574.000000	99.366464 
1573.000000	99.367324 
1572.000000	99.367831 
1571.000000	99.368160 
1570.000000	99.368312 
1569.000000	99.368126 
1568.000000	99.367901 
1567.000000	99.367771 
1566.000000	99.367543 
1565.000000	99.367219 
1564.000000	99.367009 
1563.000000	99.366960 
1562.000000	99.366872 
1561.000000	99.366635 
1560.000000	99.366570 
1559.000000	99.366647 
1558.000000	99.366512 
1557.000000	99.366523 
1556.000000	99.366565 
1555.000000	99.366468 
1554.000000	99.366226 
1553.000000	99.365940 
1552.000000	99.365699 
1551.000000	99.365490 
1550.000000	99.365324 
1549.000000	99.365209 
1548.000000	99.365116 
1547.000000	99.364979 
1546.000000	99.364735 
1545.000000	99.364403 
1544.000000	99.364089 
1543.000000	99.363894 
1542.000000	99.363864 
1541.000000	99.363982 
1540.000000	99.364055 
1539.000000	99.363938 
1538.000000	99.363777 
1537.000000	99.363670 
1536.000000	99.363521 
1535.000000	99.363317 
1534.000000	99.363021 
1533.000000	99.362564 
1532.000000	99.362045 
1531.000000	99.361606 
1530.000000	99.361254 
1529.000000	99.360902 
1528.000000	99.360497 
1527.000000	99.360151 
1526.000000	99.360013 
1525.000000	99.360075 
1524.000000	99.360198 
1523.000000	99.360305 
1522.000000	99.360425 
1521.000000	99.360328 
1520.000000	99.359791 
1519.000000	99.358865 
1518.000000	99.357609 
1517.000000	99.356348 
1516.000000	99.355447 
1515.000000	99.354995 
1514.000000	99.354782 
1513.000000	99.354625 
1512.000000	99.354394 
1511.000000	99.353868 
1510.000000	99.352981 
1509.000000	99.351896 
1508.000000	99.351193 
1507.000000	99.351207 
1506.000000	99.351287 
1505.000000	99.351005 
1504.000000	99.350635 
1503.000000	99.350259 
1502.000000	99.349881 
1501.000000	99.349482 
1500.000000	99.348902 
1499.000000	99.348044 
1498.000000	99.347053 
1497.000000	99.346057 
1496.000000	99.344847 
1495.000000	99.343766 
1494.000000	99.343516 
1493.000000	99.344107 
1492.000000	99.344992 
1491.000000	99.345598 
1490.000000	99.345606 
1489.000000	99.344869 
1488.000000	99.343279 
1487.000000	99.341230 
1486.000000	99.339432 
1485.000000	99.337746 
1484.000000	99.335993 
1483.000000	99.334424 
1482.000000	99.333443 
1481.000000	99.333086 
1480.000000	99.332694 
1479.000000	99.331770 
1478.000000	99.330392 
1477.000000	99.329019 
1476.000000	99.327905 
1475.000000	99.327453 
1474.000000	99.327968 
1473.000000	99.328892 
1472.000000	99.328931 
1471.000000	99.327796 
1470.000000	99.326560 
1469.000000	99.325645 
1468.000000	99.324807 
1467.000000	99.324043 
1466.000000	99.323649 
1465.000000	99.323682 
1464.000000	99.324080 
1463.000000	99.324346 
1462.000000	99.324035 
1461.000000	99.322973 
1460.000000	99.321461 
1459.000000	99.319823 
1458.000000	99.317448 
1457.000000	99.312330 
1456.000000	99.304768 
1455.000000	99.298889 
1454.000000	99.295949 
1453.000000	99.295642 
1452.000000	99.297873 
1451.000000	99.301563 
1450.000000	99.305258 
1449.000000	99.307722 
1448.000000	99.307690 
1447.000000	99.305292 
1446.000000	99.302049 
1445.000000	99.300027 
1444.000000	99.300499 
1443.000000	99.302236 
1442.000000	99.303778 
1441.000000	99.304750 
1440.000000	99.305667 
1439.000000	99.306574 
1438.000000	99.308252 
1437.000000	99.310955 
1436.000000	99.311792 
1435.000000	99.308835 
1434.000000	99.303671 
1433.000000	99.298544 
1432.000000	99.294820 
1431.000000	99.292689 
1430.000000	99.291653 
1429.000000	99.291440 
1428.000000	99.291052 
1427.000000	99.289519 
1426.000000	99.286145 
1425.000000	99.281739 
1424.000000	99.278099 
1423.000000	99.274868 
1422.000000	99.270262 
1421.000000	99.263166 
1420.000000	99.254556 
1419.000000	99.246402 
1418.000000	99.240553 
1417.000000	99.237023 
1416.000000	99.232926 
1415.000000	99.225988 
1414.000000	99.216674 
1413.000000	99.207452 
1412.000000	99.200467 
1411.000000	99.195654 
1410.000000	99.191768 
1409.000000	99.188247 
1408.000000	99.185374 
1407.000000	99.184198 
1406.000000	99.185381 
1405.000000	99.188668 
1404.000000	99.193410 
1403.000000	99.198639 
1402.000000	99.203903 
1401.000000	99.209124 
1400.000000	99.213939 
1399.000000	99.216932 
1398.000000	99.216099 
1397.000000	99.209859 
1396.000000	99.198349 
1395.000000	99.186178 
1394.000000	99.180922 
1393.000000	99.186234 
1392.000000	99.198703 
1391.000000	99.211602 
1390.000000	99.220461 
1389.000000	99.224562 
1388.000000	99.225073 
1387.000000	99.223373 
1386.000000	99.220949 
1385.000000	99.219211 
1384.000000	99.218708 
1383.000000	99.218855 
1382.000000	99.219049 
1381.000000	99.219564 
1380.000000	99.221322 
1379.000000	99.224936 
1378.000000	99.229881 
1377.000000	99.234901 
1376.000000	99.239121 
1375.000000	99.242787 
1374.000000	99.246939 
1373.000000	99.252513 
1372.000000	99.259309 
1371.000000	99.266125 
1370.000000	99.271692 
1369.000000	99.275599 
1368.000000	99.278609 
1367.000000	99.281682 
1366.000000	99.285330 
1365.000000	99.289576 
1364.000000	99.294149 
1363.000000	99.298517 
1362.000000	99.302186 
1361.000000	99.305095 
1360.000000	99.307606 
1359.000000	99.310383 
1358.000000	99.314188 
1357.000000	99.319293 
1356.000000	99.324878 
1355.000000	99.329422 
1354.000000	99.332440 
1353.000000	99.335178 
1352.000000	99.338717 
1351.000000	99.342638 
1350.000000	99.345777 
1349.000000	99.348124 
1348.000000	99.350562 
1347.000000	99.352856 
1346.000000	99.354048 
1345.000000	99.353905 
1344.000000	99.353176 
1343.000000	99.352393 
1342.000000	99.351766 
1341.000000	99.352054 
1340.000000	99.354272 
1339.000000	99.358051 
1338.000000	99.361703 
1337.000000	99.364272 
1336.000000	99.366045 
1335.000000	99.367079 
1334.000000	99.366802 
1333.000000	99.365346 
1332.000000	99.364062 
1331.000000	99.364028 
1330.000000	99.364757 
1329.000000	99.365162 
1328.000000	99.365064 
1327.000000	99.365026 
1326.000000	99.365130 
1325.000000	99.364973 
1324.000000	99.364549 
1323.000000	99.364182 
1322.000000	99.364071 
1321.000000	99.364349 
1320.000000	99.365454 
1319.000000	99.367772 
1318.000000	99.370847 
1317.000000	99.373268 
1316.000000	99.373652 
1315.000000	99.371796 
1314.000000	99.368935 
1313.000000	99.366752 
1312.000000	99.365923 
1311.000000	99.365923 
1310.000000	99.366241 
1309.000000	99.367112 
1308.000000	99.368621 
1307.000000	99.369806 
1306.000000	99.369445 
1305.000000	99.367674 
1304.000000	99.366021 
1303.000000	99.365632 
1302.000000	99.366241 
1301.000000	99.366953 
1300.000000	99.367408 
1299.000000	99.367856 
1298.000000	99.368654 
1297.000000	99.369946 
1296.000000	99.371521 
1295.000000	99.372716 
1294.000000	99.372711 
1293.000000	99.371161 
1292.000000	99.368452 
1291.000000	99.365579 
1290.000000	99.363926 
1289.000000	99.364628 
1288.000000	99.367412 
1287.000000	99.370190 
1286.000000	99.370765 
1285.000000	99.368895 
1284.000000	99.366009 
1283.000000	99.363102 
1282.000000	99.359652 
1281.000000	99.354888 
1280.000000	99.349446 
1279.000000	99.344954 
1278.000000	99.342407 
1277.000000	99.341612 
1276.000000	99.341816 
1275.000000	99.342161 
1274.000000	99.341694 
1273.000000	99.339699 
1272.000000	99.336294 
1271.000000	99.332386 
1270.000000	99.328815 
1269.000000	99.325638 
1268.000000	99.322328 
1267.000000	99.318437 
1266.000000	99.314013 
1265.000000	99.309561 
1264.000000	99.305685 
1263.000000	99.302678 
1262.000000	99.300313 
1261.000000	99.298052 
1260.000000	99.295558 
1259.000000	99.292938 
1258.000000	99.290477 
1257.000000	99.288337 
1256.000000	99.286600 
1255.000000	99.285418 
1254.000000	99.284784 
1253.000000	99.284231 
1252.000000	99.283166 
1251.000000	99.281720 
1250.000000	99.280952 
1249.000000	99.281881 
1248.000000	99.284389 
1247.000000	99.287147 
1246.000000	99.288376 
1245.000000	99.286594 
1244.000000	99.281216 
1243.000000	99.273572 
1242.000000	99.267219 
1241.000000	99.265675 
1240.000000	99.269245 
1239.000000	99.274400 
1238.000000	99.277072 
1237.000000	99.276378 
1236.000000	99.274171 
1235.000000	99.271918 
1234.000000	99.269393 
1233.000000	99.266121 
1232.000000	99.262343 
1231.000000	99.258179 
1230.000000	99.253356 
1229.000000	99.248541 
1228.000000	99.245731 
1227.000000	99.246255 
1226.000000	99.248941 
1225.000000	99.251138 
1224.000000	99.251220 
1223.000000	99.249398 
1222.000000	99.246641 
1221.000000	99.243776 
1220.000000	99.241546 
1219.000000	99.240552 
1218.000000	99.240628 
1217.000000	99.240616 
1216.000000	99.239092 
1215.000000	99.235352 
1214.000000	99.229681 
1213.000000	99.222795 
1212.000000	99.215217 
1211.000000	99.207409 
1210.000000	99.200336 
1209.000000	99.195202 
1208.000000	99.192109 
1207.000000	99.189331 
1206.000000	99.184710 
1205.000000	99.177774 
1204.000000	99.169914 
1203.000000	99.162612 
1202.000000	99.156160 
1201.000000	99.150051 
1200.000000	99.143746 
1199.000000	99.136815 
1198.000000	99.129148 
1197.000000	99.121238 
1196.000000	99.113331 
1195.000000	99.104343 
1194.000000	99.092755 
1193.000000	99.078875 
1192.000000	99.065215 
1191.000000	99.053869 
1190.000000	99.044209 
1189.000000	99.034144 
1188.000000	99.022943 
1187.000000	99.011691 
1186.000000	99.001441 
1185.000000	98.992121 
1184.000000	98.983139 
1183.000000	98.973946 
1182.000000	98.963972 
1181.000000	98.952986 
1180.000000	98.941644 
1179.000000	98.930812 
1178.000000	98.920340 
1177.000000	98.909389 
1176.000000	98.897851 
1175.000000	98.886175 
1174.000000	98.873670 
1173.000000	98.858584 
1172.000000	98.840740 
1171.000000	98.822826 
1170.000000	98.807780 
1169.000000	98.795665 
1168.000000	98.784289 
1167.000000	98.772481 
1166.000000	98.761713 
1165.000000	98.754646 
1164.000000	98.753032 
1163.000000	98.756879 
1162.000000	98.764534 
1161.000000	98.773387 
1160.000000	98.781158 
1159.000000	98.786644 
1158.000000	98.788912 
1157.000000	98.786154 
1156.000000	98.776483 
1155.000000	98.760497 
1154.000000	98.742401 
1153.000000	98.727428 
1152.000000	98.717654 
1151.000000	98.710537 
1150.000000	98.701518 
1149.000000	98.687957 
1148.000000	98.670891 
1147.000000	98.653467 
1146.000000	98.637747 
1145.000000	98.622959 
1144.000000	98.606882 
1143.000000	98.588770 
1142.000000	98.570595 
1141.000000	98.555297 
1140.000000	98.544037 
1139.000000	98.535263 
1138.000000	98.526110 
1137.000000	98.514458 
1136.000000	98.499962 
1135.000000	98.483681 
1134.000000	98.466798 
1133.000000	98.449316 
1132.000000	98.430121 
1131.000000	98.408905 
1130.000000	98.387957 
1129.000000	98.370887 
1128.000000	98.358677 
1127.000000	98.347565 
1126.000000	98.332121 
1125.000000	98.310601 
1124.000000	98.286416 
1123.000000	98.264253 
1122.000000	98.245530 
1121.000000	98.228168 
1120.000000	98.209838 
1119.000000	98.190302 
1118.000000	98.170962 
1117.000000	98.153165 
1116.000000	98.137047 
1115.000000	98.121410 
1114.000000	98.104699 
1113.000000	98.086556 
1112.000000	98.068199 
1111.000000	98.050663 
1110.000000	98.032985 
1109.000000	98.013186 
1108.000000	97.991108 
1107.000000	97.969205 
1106.000000	97.949929 
1105.000000	97.933081 
1104.000000	97.916259 
1103.000000	97.897689 
1102.000000	97.878119 
1101.000000	97.859725 
1100.000000	97.843595 
1099.000000	97.828781 
1098.000000	97.813756 
1097.000000	97.798096 
1096.000000	97.782226 
1095.000000	97.765948 
1094.000000	97.748052 
1093.000000	97.727407 
1092.000000	97.703700 
1091.000000	97.677189 
1090.000000	97.648716 
1089.000000	97.620176 
1088.000000	97.593866 
1087.000000	97.570513 
1086.000000	97.548569 
1085.000000	97.526209 
1084.000000	97.503432 
1083.000000	97.481186 
1082.000000	97.459097 
1081.000000	97.435578 
1080.000000	97.410096 
1079.000000	97.383964 
1078.000000	97.358879 
1077.000000	97.336008 
1076.000000	97.316510 
1075.000000	97.301324 
1074.000000	97.290022 
1073.000000	97.280876 
1072.000000	97.271574 
1071.000000	97.258235 
1070.000000	97.234799 
1069.000000	97.197087 
1068.000000	97.148976 
1067.000000	97.102577 
1066.000000	97.069619 
1065.000000	97.052855 
1064.000000	97.046264 
1063.000000	97.040899 
1062.000000	97.028919 
1061.000000	97.004587 
1060.000000	96.966075 
1059.000000	96.918369 
1058.000000	96.872162 
1057.000000	96.836665 
1056.000000	96.812939 
1055.000000	96.794687 
1054.000000	96.775181 
1053.000000	96.752749 
1052.000000	96.729529 
1051.000000	96.706813 
1050.000000	96.683677 
1049.000000	96.659352 
1048.000000	96.634245 
1047.000000	96.608634 
1046.000000	96.582947 
1045.000000	96.559282 
1044.000000	96.539808 
1043.000000	96.523203 
1042.000000	96.505545 
1041.000000	96.485834 
1040.000000	96.467817 
1039.000000	96.455123 
1038.000000	96.447760 
1037.000000	96.444998 
1036.000000	96.447938 
1035.000000	96.456440 
1034.000000	96.466755 
1033.000000	96.475269 
1032.000000	96.481411 
1031.000000	96.483946 
1030.000000	96.479073 
1029.000000	96.467626 
1028.000000	96.460622 
1027.000000	96.470279 
1026.000000	96.495724 
1025.000000	96.522929 
1024.000000	96.539280 
1023.000000	96.543714 
1022.000000	96.542815 
1021.000000	96.542749 
1020.000000	96.546493 
1019.000000	96.554188 
1018.000000	96.563267 
1017.000000	96.570543 
1016.000000	96.575665 
1015.000000	96.580855 
1014.000000	96.587142 
1013.000000	96.593283 
1012.000000	96.598476 
1011.000000	96.603394 
1010.000000	96.608391 
1009.000000	96.613477 
1008.000000	96.620358 
1007.000000	96.631641 
1006.000000	96.647404 
1005.000000	96.664972 
1004.000000	96.682513 
1003.000000	96.700573 
1002.000000	96.719787 
1001.000000	96.739426 
1000.000000	96.758617 
999.000000	 96.776934 
998.000000	 96.793619 
997.000000	 96.808369 
996.000000	 96.823146 
995.000000	 96.841026 
994.000000	 96.862783 
993.000000	 96.886198 
992.000000	 96.908774 
991.000000	 96.929438 
990.000000	 96.947863 
989.000000	 96.964254 
988.000000	 96.980158 
987.000000	 96.997898 
986.000000	 97.019004 
985.000000	 97.044203 
984.000000	 97.073915 
983.000000	 97.106990 
982.000000	 97.140199 
981.000000	 97.170887 
980.000000	 97.199455 
979.000000	 97.228046 
978.000000	 97.258124 
977.000000	 97.291001 
976.000000	 97.328548 
975.000000	 97.370207 
974.000000	 97.410860 
973.000000	 97.445621 
972.000000	 97.476270 
971.000000	 97.509405 
970.000000	 97.548223 
969.000000	 97.589312 
968.000000	 97.627832 
967.000000	 97.662710 
966.000000	 97.695959 
965.000000	 97.729488 
964.000000	 97.763643 
963.000000	 97.797322 
962.000000	 97.828894 
961.000000	 97.857996 
960.000000	 97.886157 
959.000000	 97.914431 
958.000000	 97.941235 
957.000000	 97.964422 
956.000000	 97.984710 
955.000000	 98.004844 
954.000000	 98.025900 
953.000000	 98.046901 
952.000000	 98.067747 
951.000000	 98.089592 
950.000000	 98.111777 
949.000000	 98.131017 
948.000000	 98.144718 
947.000000	 98.153382 
946.000000	 98.159073 
945.000000	 98.163187 
944.000000	 98.166797 
943.000000	 98.171887 
942.000000	 98.180831 
941.000000	 98.194490 
940.000000	 98.210783 
939.000000	 98.225050 
938.000000	 98.233147 
937.000000	 98.235651 
936.000000	 98.238314 
935.000000	 98.246697 
934.000000	 98.260612 
933.000000	 98.275417 
932.000000	 98.288121 
931.000000	 98.300004 
930.000000	 98.313132 
929.000000	 98.326345 
928.000000	 98.335567 
927.000000	 98.337383 
926.000000	 98.332453 
925.000000	 98.326365 
924.000000	 98.326442 
923.000000	 98.336046 
922.000000	 98.351810 
921.000000	 98.367176 
920.000000	 98.378085 
919.000000	 98.384290 
918.000000	 98.386699 
917.000000	 98.386098 
916.000000	 98.384199 
915.000000	 98.383358 
914.000000	 98.384450 
913.000000	 98.386529 
912.000000	 98.389032 
911.000000	 98.393176 
910.000000	 98.401154 
909.000000	 98.415032 
908.000000	 98.435818 
907.000000	 98.461763 
906.000000	 98.487887 
905.000000	 98.509446 
904.000000	 98.526173 
903.000000	 98.541771 
902.000000	 98.559566 
901.000000	 98.580225 
900.000000	 98.603094 
899.000000	 98.627127 
898.000000	 98.650104 
897.000000	 98.669198 
896.000000	 98.683307 
895.000000	 98.694099 
894.000000	 98.704778 
893.000000	 98.718520 
892.000000	 98.737137 
891.000000	 98.759191 
890.000000	 98.779743 
889.000000	 98.794473 
888.000000	 98.804541 
887.000000	 98.815731 
886.000000	 98.832354 
885.000000	 98.853526 
884.000000	 98.875394 
883.000000	 98.894611 
882.000000	 98.909140 
881.000000	 98.918677 
880.000000	 98.926328 
879.000000	 98.937738 
878.000000	 98.955997 
877.000000	 98.978270 
876.000000	 98.999024 
875.000000	 99.015473 
874.000000	 99.028376 
873.000000	 99.039143 
872.000000	 99.048540 
871.000000	 99.057686 
870.000000	 99.068255 
869.000000	 99.081546 
868.000000	 99.098214 
867.000000	 99.117965 
866.000000	 99.138399 
865.000000	 99.155935 
864.000000	 99.170196 
863.000000	 99.186105 
862.000000	 99.208063 
861.000000	 99.232093 
860.000000	 99.248082 
859.000000	 99.251313 
858.000000	 99.248546 
857.000000	 99.250575 
856.000000	 99.260898 
855.000000	 99.275299 
854.000000	 99.289867 
853.000000	 99.304114 
852.000000	 99.316941 
851.000000	 99.325483 
850.000000	 99.330063 
849.000000	 99.335776 
848.000000	 99.346179 
847.000000	 99.358358 
846.000000	 99.366956 
845.000000	 99.370475 
844.000000	 99.370965 
843.000000	 99.370261 
842.000000	 99.369811 
841.000000	 99.371700 
840.000000	 99.375573 
839.000000	 99.376080 
838.000000	 99.368182 
837.000000	 99.354721 
836.000000	 99.344205 
835.000000	 99.340500 
834.000000	 99.339318 
833.000000	 99.336619 
832.000000	 99.335640 
831.000000	 99.341681 
830.000000	 99.352876 
829.000000	 99.361158 
828.000000	 99.362009 
827.000000	 99.358914 
826.000000	 99.357152 
825.000000	 99.356653 
824.000000	 99.353811 
823.000000	 99.348700 
822.000000	 99.346977 
821.000000	 99.353566 
820.000000	 99.366360 
819.000000	 99.378052 
818.000000	 99.383861 
817.000000	 99.385451 
816.000000	 99.386025 
815.000000	 99.383369 
814.000000	 99.371238 
813.000000	 99.347789 
812.000000	 99.318949 
811.000000	 99.291279 
810.000000	 99.263471 
809.000000	 99.227602 
808.000000	 99.177940 
807.000000	 99.116331 
806.000000	 99.049448 
805.000000	 98.983012 
804.000000	 98.919702 
803.000000	 98.861305 
802.000000	 98.810744 
801.000000	 98.771239 
800.000000	 98.743846 
799.000000	 98.726663 
798.000000	 98.717391 
797.000000	 98.716101 
796.000000	 98.723495 
795.000000	 98.736680 
794.000000	 98.749777 
793.000000	 98.759983 
792.000000	 98.770297 
791.000000	 98.784476 
790.000000	 98.801531 
789.000000	 98.816837 
788.000000	 98.826043 
787.000000	 98.825545 
786.000000	 98.811829 
785.000000	 98.784193 
784.000000	 98.747802 
783.000000	 98.711702 
782.000000	 98.683466 
781.000000	 98.666072 
780.000000	 98.658034 
779.000000	 98.654665 
778.000000	 98.651377 
777.000000	 98.648847 
776.000000	 98.653656 
775.000000	 98.671151 
774.000000	 98.698654 
773.000000	 98.728016 
772.000000	 98.753782 
771.000000	 98.776297 
770.000000	 98.797975 
769.000000	 98.819469 
768.000000	 98.838958 
767.000000	 98.853204 
766.000000	 98.860330 
765.000000	 98.863397 
764.000000	 98.869583 
763.000000	 98.883079 
762.000000	 98.899560 
761.000000	 98.910305 
760.000000	 98.911552 
759.000000	 98.907995 
758.000000	 98.907948 
757.000000	 98.916530 
756.000000	 98.932183 
755.000000	 98.947445 
754.000000	 98.954281 
753.000000	 98.951586 
752.000000	 98.947363 
751.000000	 98.951719 
750.000000	 98.967621 
749.000000	 98.989422 
748.000000	 99.009108 
747.000000	 99.022485 
746.000000	 99.030444 
745.000000	 99.036752 
744.000000	 99.044845 
743.000000	 99.055465 
742.000000	 99.067521 
741.000000	 99.081530 
740.000000	 99.100355 
739.000000	 99.124955 
738.000000	 99.150913 
737.000000	 99.171358 
736.000000	 99.182445 
735.000000	 99.184654 
734.000000	 99.180971 
733.000000	 99.176256 
732.000000	 99.176868 
731.000000	 99.186976 
730.000000	 99.204250 
729.000000	 99.221506 
728.000000	 99.233636 
727.000000	 99.240841 
726.000000	 99.245249 
725.000000	 99.247769 
724.000000	 99.248790 
723.000000	 99.248719 
722.000000	 99.247084 
721.000000	 99.244337 
720.000000	 99.245187 
719.000000	 99.255826 
718.000000	 99.275902 
717.000000	 99.296753 
716.000000	 99.309204 
715.000000	 99.310512 
714.000000	 99.304120 
713.000000	 99.296398 
712.000000	 99.294618 
711.000000	 99.303374 
710.000000	 99.319215 
709.000000	 99.331882 
708.000000	 99.333889 
707.000000	 99.326466 
706.000000	 99.314531 
705.000000	 99.299821 
704.000000	 99.282543 
703.000000	 99.266350 
702.000000	 99.256540 
701.000000	 99.253232 
700.000000	 99.249789 
699.000000	 99.239200 
698.000000	 99.220564 
697.000000	 99.199728 
696.000000	 99.184687 
695.000000	 99.179585 
694.000000	 99.182698 
693.000000	 99.189505 
692.000000	 99.197161 
691.000000	 99.205671 
690.000000	 99.215520 
689.000000	 99.226994 
688.000000	 99.241434 
687.000000	 99.259365 
686.000000	 99.276983 
685.000000	 99.287588 
684.000000	 99.288285 
683.000000	 99.283684 
682.000000	 99.281555 
681.000000	 99.285904 
680.000000	 99.294303 
679.000000	 99.300837 
678.000000	 99.301261 
677.000000	 99.296915 
676.000000	 99.295383 
675.000000	 99.303566 
674.000000	 99.319161 
673.000000	 99.331760 
672.000000	 99.334512 
671.000000	 99.332553 
670.000000	 99.337942 
669.000000	 99.358793 
668.000000	 99.382688 
667.000000	 99.390028 
666.000000	 99.382126 
665.000000	 99.369322 
664.000000	 99.359935 
663.000000	 99.360506 
662.000000	 99.370295 
661.000000	 99.380124 
660.000000	 99.381444 
659.000000	 99.374647 
658.000000	 99.365479 
657.000000	 99.357038 
656.000000	 99.349974 
655.000000	 99.346645 
654.000000	 99.348633 
653.000000	 99.353474 
652.000000	 99.358469 
651.000000	 99.364261 
650.000000	 99.370920 

