4000.000000	99.546150 
3999.000000	99.546351 
3998.000000	99.544829 
3997.000000	99.541886 
3996.000000	99.537879 
3995.000000	99.533613 
3994.000000	99.530716 
3993.000000	99.530852 
3992.000000	99.534137 
3991.000000	99.538533 
3990.000000	99.541334 
3989.000000	99.541526 
3988.000000	99.540664 
3987.000000	99.541362 
3986.000000	99.544932 
3985.000000	99.550308 
3984.000000	99.554880 
3983.000000	99.556290 
3982.000000	99.553834 
3981.000000	99.548585 
3980.000000	99.542224 
3979.000000	99.535910 
3978.000000	99.530429 
3977.000000	99.526967 
3976.000000	99.527041 
3975.000000	99.531329 
3974.000000	99.538673 
3973.000000	99.546305 
3972.000000	99.551217 
3971.000000	99.551927 
3970.000000	99.549341 
3969.000000	99.545882 
3968.000000	99.543602 
3967.000000	99.542829 
3966.000000	99.542499 
3965.000000	99.541595 
3964.000000	99.539858 
3963.000000	99.537291 
3962.000000	99.533737 
3961.000000	99.529320 
3960.000000	99.525051 
3959.000000	99.522695 
3958.000000	99.523512 
3957.000000	99.526931 
3956.000000	99.530837 
3955.000000	99.533171 
3954.000000	99.533262 
3953.000000	99.531640 
3952.000000	99.529011 
3951.000000	99.526056 
3950.000000	99.523681 
3949.000000	99.522862 
3948.000000	99.523769 
3947.000000	99.525265 
3946.000000	99.526043 
3945.000000	99.526175 
3944.000000	99.527074 
3943.000000	99.529361 
3942.000000	99.531687 
3941.000000	99.532145 
3940.000000	99.530104 
3939.000000	99.526313 
3938.000000	99.521912 
3937.000000	99.517838 
3936.000000	99.515220 
3935.000000	99.515549 
3934.000000	99.519956 
3933.000000	99.527745 
3932.000000	99.535743 
3931.000000	99.539844 
3930.000000	99.537998 
3929.000000	99.531888 
3928.000000	99.525402 
3927.000000	99.521648 
3926.000000	99.521671 
3925.000000	99.524368 
3924.000000	99.526965 
3923.000000	99.527102 
3922.000000	99.524765 
3921.000000	99.522214 
3920.000000	99.521824 
3919.000000	99.524303 
3918.000000	99.528907 
3917.000000	99.534285 
3916.000000	99.538797 
3915.000000	99.541045 
3914.000000	99.541201 
3913.000000	99.541113 
3912.000000	99.542339 
3911.000000	99.544879 
3910.000000	99.547711 
3909.000000	99.550150 
3908.000000	99.552023 
3907.000000	99.552516 
3906.000000	99.549820 
3905.000000	99.542595 
3904.000000	99.531622 
3903.000000	99.520553 
3902.000000	99.514292 
3901.000000	99.515697 
3900.000000	99.523499 
3899.000000	99.532552 
3898.000000	99.537660 
3897.000000	99.537613 
3896.000000	99.534769 
3895.000000	99.531771 
3894.000000	99.529317 
3893.000000	99.526608 
3892.000000	99.523469 
3891.000000	99.521278 
3890.000000	99.521038 
3889.000000	99.521820 
3888.000000	99.522177 
3887.000000	99.522357 
3886.000000	99.523440 
3885.000000	99.524715 
3884.000000	99.523957 
3883.000000	99.521130 
3882.000000	99.519427 
3881.000000	99.521604 
3880.000000	99.526344 
3879.000000	99.529402 
3878.000000	99.528684 
3877.000000	99.526343 
3876.000000	99.526356 
3875.000000	99.530316 
3874.000000	99.534923 
3873.000000	99.534696 
3872.000000	99.528619 
3871.000000	99.522674 
3870.000000	99.523729 
3869.000000	99.531335 
3868.000000	99.538648 
3867.000000	99.541226 
3866.000000	99.541187 
3865.000000	99.542044 
3864.000000	99.542486 
3863.000000	99.539080 
3862.000000	99.532322 
3861.000000	99.526586 
3860.000000	99.525297 
3859.000000	99.528483 
3858.000000	99.533347 
3857.000000	99.536848 
3856.000000	99.537614 
3855.000000	99.537763 
3854.000000	99.540541 
3853.000000	99.545027 
3852.000000	99.547373 
3851.000000	99.546239 
3850.000000	99.543357 
3849.000000	99.541312 
3848.000000	99.540810 
3847.000000	99.540518 
3846.000000	99.538982 
3845.000000	99.536069 
3844.000000	99.533430 
3843.000000	99.533594 
3842.000000	99.537071 
3841.000000	99.541874 
3840.000000	99.545868 
3839.000000	99.548210 
3838.000000	99.548670 
3837.000000	99.547434 
3836.000000	99.545230 
3835.000000	99.543387 
3834.000000	99.543264 
3833.000000	99.545669 
3832.000000	99.550088 
3831.000000	99.554159 
3830.000000	99.555078 
3829.000000	99.551718 
3828.000000	99.545616 
3827.000000	99.540367 
3826.000000	99.538618 
3825.000000	99.539428 
3824.000000	99.539806 
3823.000000	99.539204 
3822.000000	99.540474 
3821.000000	99.545634 
3820.000000	99.551951 
3819.000000	99.554904 
3818.000000	99.553213 
3817.000000	99.549930 
3816.000000	99.548229 
3815.000000	99.546326 
3814.000000	99.540365 
3813.000000	99.531517 
3812.000000	99.525898 
3811.000000	99.527745 
3810.000000	99.535179 
3809.000000	99.542910 
3808.000000	99.548150 
3807.000000	99.552111 
3806.000000	99.555601 
3805.000000	99.556354 
3804.000000	99.552752 
3803.000000	99.547784 
3802.000000	99.546756 
3801.000000	99.550533 
3800.000000	99.553696 
3799.000000	99.551447 
3798.000000	99.544564 
3797.000000	99.537224 
3796.000000	99.532134 
3795.000000	99.528441 
3794.000000	99.524342 
3793.000000	99.519951 
3792.000000	99.516920 
3791.000000	99.516219 
3790.000000	99.517532 
3789.000000	99.520080 
3788.000000	99.523044 
3787.000000	99.525336 
3786.000000	99.526363 
3785.000000	99.526871 
3784.000000	99.528123 
3783.000000	99.530023 
3782.000000	99.531243 
3781.000000	99.531153 
3780.000000	99.530462 
3779.000000	99.529825 
3778.000000	99.528544 
3777.000000	99.525515 
3776.000000	99.521056 
3775.000000	99.517264 
3774.000000	99.515767 
3773.000000	99.516035 
3772.000000	99.516713 
3771.000000	99.517661 
3770.000000	99.519090 
3769.000000	99.520071 
3768.000000	99.519711 
3767.000000	99.518936 
3766.000000	99.519792 
3765.000000	99.522826 
3764.000000	99.525578 
3763.000000	99.524864 
3762.000000	99.520675 
3761.000000	99.516429 
3760.000000	99.514961 
3759.000000	99.516200 
3758.000000	99.519194 
3757.000000	99.523877 
3756.000000	99.529377 
3755.000000	99.533877 
3754.000000	99.537035 
3753.000000	99.540965 
3752.000000	99.546784 
3751.000000	99.551458 
3750.000000	99.552775 
3749.000000	99.553588 
3748.000000	99.555842 
3747.000000	99.557173 
3746.000000	99.555499 
3745.000000	99.552577 
3744.000000	99.550861 
3743.000000	99.548457 
3742.000000	99.542118 
3741.000000	99.532379 
3740.000000	99.521764 
3739.000000	99.511655 
3738.000000	99.503530 
3737.000000	99.501073 
3736.000000	99.506038 
3735.000000	99.512942 
3734.000000	99.513747 
3733.000000	99.508045 
3732.000000	99.502688 
3731.000000	99.502368 
3730.000000	99.505518 
3729.000000	99.508556 
3728.000000	99.510857 
3727.000000	99.513872 
3726.000000	99.516773 
3725.000000	99.516228 
3724.000000	99.511385 
3723.000000	99.505973 
3722.000000	99.504332 
3721.000000	99.507431 
3720.000000	99.512141 
3719.000000	99.514275 
3718.000000	99.512570 
3717.000000	99.508876 
3716.000000	99.504878 
3715.000000	99.500983 
3714.000000	99.498309 
3713.000000	99.499762 
3712.000000	99.506493 
3711.000000	99.514957 
3710.000000	99.519668 
3709.000000	99.517746 
3708.000000	99.510363 
3707.000000	99.501034 
3706.000000	99.492937 
3705.000000	99.487510 
3704.000000	99.484517 
3703.000000	99.482628 
3702.000000	99.480113 
3701.000000	99.475996 
3700.000000	99.470513 
3699.000000	99.464316 
3698.000000	99.458540 
3697.000000	99.454848 
3696.000000	99.453968 
3695.000000	99.455093 
3694.000000	99.457275 
3693.000000	99.459939 
3692.000000	99.461187 
3691.000000	99.457668 
3690.000000	99.448024 
3689.000000	99.436501 
3688.000000	99.429530 
3687.000000	99.428102 
3686.000000	99.427933 
3685.000000	99.426642 
3684.000000	99.425973 
3683.000000	99.428164 
3682.000000	99.432684 
3681.000000	99.437052 
3680.000000	99.439247 
3679.000000	99.437293 
3678.000000	99.429741 
3677.000000	99.419623 
3676.000000	99.414799 
3675.000000	99.418307 
3674.000000	99.423416 
3673.000000	99.422434 
3672.000000	99.415229 
3671.000000	99.409210 
3670.000000	99.410480 
3669.000000	99.416649 
3668.000000	99.422154 
3667.000000	99.425559 
3666.000000	99.428292 
3665.000000	99.430890 
3664.000000	99.432107 
3663.000000	99.431160 
3662.000000	99.429381 
3661.000000	99.428592 
3660.000000	99.428727 
3659.000000	99.428375 
3658.000000	99.427831 
3657.000000	99.429756 
3656.000000	99.435542 
3655.000000	99.442316 
3654.000000	99.445925 
3653.000000	99.445383 
3652.000000	99.442998 
3651.000000	99.440780 
3650.000000	99.437503 
3649.000000	99.431959 
3648.000000	99.427801 
3647.000000	99.429346 
3646.000000	99.435801 
3645.000000	99.443440 
3644.000000	99.449948 
3643.000000	99.455666 
3642.000000	99.462286 
3641.000000	99.470463 
3640.000000	99.478983 
3639.000000	99.485679 
3638.000000	99.488713 
3637.000000	99.487621 
3636.000000	99.483835 
3635.000000	99.480140 
3634.000000	99.478372 
3633.000000	99.477797 
3632.000000	99.477075 
3631.000000	99.477329 
3630.000000	99.481460 
3629.000000	99.487999 
3628.000000	99.489818 
3627.000000	99.484284 
3626.000000	99.476741 
3625.000000	99.473319 
3624.000000	99.475214 
3623.000000	99.478861 
3622.000000	99.480414 
3621.000000	99.480381 
3620.000000	99.482190 
3619.000000	99.486601 
3618.000000	99.490642 
3617.000000	99.492241 
3616.000000	99.492449 
3615.000000	99.493588 
3614.000000	99.495790 
3613.000000	99.496310 
3612.000000	99.493239 
3611.000000	99.488832 
3610.000000	99.487442 
3609.000000	99.490327 
3608.000000	99.493569 
3607.000000	99.492846 
3606.000000	99.488837 
3605.000000	99.485680 
3604.000000	99.486100 
3603.000000	99.489631 
3602.000000	99.494485 
3601.000000	99.499826 
3600.000000	99.504955 
3599.000000	99.507910 
3598.000000	99.507002 
3597.000000	99.502622 
3596.000000	99.497277 
3595.000000	99.494367 
3594.000000	99.495518 
3593.000000	99.499305 
3592.000000	99.502557 
3591.000000	99.502294 
3590.000000	99.498087 
3589.000000	99.493045 
3588.000000	99.491450 
3587.000000	99.493542 
3586.000000	99.495462 
3585.000000	99.494706 
3584.000000	99.493020 
3583.000000	99.493508 
3582.000000	99.497313 
3581.000000	99.502697 
3580.000000	99.506973 
3579.000000	99.508798 
3578.000000	99.508662 
3577.000000	99.508020 
3576.000000	99.508180 
3575.000000	99.509804 
3574.000000	99.512504 
3573.000000	99.514659 
3572.000000	99.514546 
3571.000000	99.511713 
3570.000000	99.507083 
3569.000000	99.502648 
3568.000000	99.500522 
3567.000000	99.500836 
3566.000000	99.501337 
3565.000000	99.500387 
3564.000000	99.499147 
3563.000000	99.500435 
3562.000000	99.505871 
3561.000000	99.513879 
3560.000000	99.520636 
3559.000000	99.523112 
3558.000000	99.521401 
3557.000000	99.518167 
3556.000000	99.516161 
3555.000000	99.516236 
3554.000000	99.517393 
3553.000000	99.517814 
3552.000000	99.516223 
3551.000000	99.512943 
3550.000000	99.509468 
3549.000000	99.507116 
3548.000000	99.506425 
3547.000000	99.507175 
3546.000000	99.508781 
3545.000000	99.510111 
3544.000000	99.509929 
3543.000000	99.508267 
3542.000000	99.507119 
3541.000000	99.508698 
3540.000000	99.513139 
3539.000000	99.518118 
3538.000000	99.521215 
3537.000000	99.522155 
3536.000000	99.522399 
3535.000000	99.522955 
3534.000000	99.523295 
3533.000000	99.522808 
3532.000000	99.522229 
3531.000000	99.523073 
3530.000000	99.525482 
3529.000000	99.527392 
3528.000000	99.526493 
3527.000000	99.522747 
3526.000000	99.518295 
3525.000000	99.515084 
3524.000000	99.513278 
3523.000000	99.512031 
3522.000000	99.511224 
3521.000000	99.511624 
3520.000000	99.513906 
3519.000000	99.518093 
3518.000000	99.523799 
3517.000000	99.530164 
3516.000000	99.535434 
3515.000000	99.537508 
3514.000000	99.535261 
3513.000000	99.529450 
3512.000000	99.522266 
3511.000000	99.516098 
3510.000000	99.512368 
3509.000000	99.511246 
3508.000000	99.512178 
3507.000000	99.514617 
3506.000000	99.518203 
3505.000000	99.521970 
3504.000000	99.523932 
3503.000000	99.522576 
3502.000000	99.519267 
3501.000000	99.517993 
3500.000000	99.521613 
3499.000000	99.528776 
3498.000000	99.535105 
3497.000000	99.537314 
3496.000000	99.535533 
3495.000000	99.531771 
3494.000000	99.527359 
3493.000000	99.522552 
3492.000000	99.517893 
3491.000000	99.514737 
3490.000000	99.514466 
3489.000000	99.517647 
3488.000000	99.523709 
3487.000000	99.530741 
3486.000000	99.535974 
3485.000000	99.537490 
3484.000000	99.535682 
3483.000000	99.532727 
3482.000000	99.530453 
3481.000000	99.529229 
3480.000000	99.528889 
3479.000000	99.529500 
3478.000000	99.530561 
3477.000000	99.530610 
3476.000000	99.528990 
3475.000000	99.527663 
3474.000000	99.529701 
3473.000000	99.535457 
3472.000000	99.541493 
3471.000000	99.544127 
3470.000000	99.543236 
3469.000000	99.541608 
3468.000000	99.541182 
3467.000000	99.541160 
3466.000000	99.539988 
3465.000000	99.537945 
3464.000000	99.536933 
3463.000000	99.538189 
3462.000000	99.540973 
3461.000000	99.543657 
3460.000000	99.545443 
3459.000000	99.546701 
3458.000000	99.547856 
3457.000000	99.548360 
3456.000000	99.547095 
3455.000000	99.543769 
3454.000000	99.539646 
3453.000000	99.536813 
3452.000000	99.536483 
3451.000000	99.538126 
3450.000000	99.540133 
3449.000000	99.541179 
3448.000000	99.540751 
3447.000000	99.538747 
3446.000000	99.535305 
3445.000000	99.531469 
3444.000000	99.529417 
3443.000000	99.530916 
3442.000000	99.535139 
3441.000000	99.538612 
3440.000000	99.538132 
3439.000000	99.533617 
3438.000000	99.527703 
3437.000000	99.522952 
3436.000000	99.520223 
3435.000000	99.519569 
3434.000000	99.521399 
3433.000000	99.526064 
3432.000000	99.532579 
3431.000000	99.538731 
3430.000000	99.542687 
3429.000000	99.544328 
3428.000000	99.544914 
3427.000000	99.545404 
3426.000000	99.545277 
3425.000000	99.543117 
3424.000000	99.538464 
3423.000000	99.532750 
3422.000000	99.528011 
3421.000000	99.525016 
3420.000000	99.523474 
3419.000000	99.523799 
3418.000000	99.527226 
3417.000000	99.533532 
3416.000000	99.539735 
3415.000000	99.542278 
3414.000000	99.540368 
3413.000000	99.536420 
3412.000000	99.533377 
3411.000000	99.532386 
3410.000000	99.532862 
3409.000000	99.533564 
3408.000000	99.533038 
3407.000000	99.530042 
3406.000000	99.524721 
3405.000000	99.519219 
3404.000000	99.516259 
3403.000000	99.516725 
3402.000000	99.518961 
3401.000000	99.520780 
3400.000000	99.521792 
3399.000000	99.523427 
3398.000000	99.526856 
3397.000000	99.531360 
3396.000000	99.534820 
3395.000000	99.535416 
3394.000000	99.532611 
3393.000000	99.527106 
3392.000000	99.520538 
3391.000000	99.515128 
3390.000000	99.512909 
3389.000000	99.514722 
3388.000000	99.519876 
3387.000000	99.526834 
3386.000000	99.534172 
3385.000000	99.540935 
3384.000000	99.546297 
3383.000000	99.549263 
3382.000000	99.548887 
3381.000000	99.544957 
3380.000000	99.538527 
3379.000000	99.531753 
3378.000000	99.526798 
3377.000000	99.524535 
3376.000000	99.524164 
3375.000000	99.524140 
3374.000000	99.523577 
3373.000000	99.522879 
3372.000000	99.523090 
3371.000000	99.524579 
3370.000000	99.526347 
3369.000000	99.526738 
3368.000000	99.525103 
3367.000000	99.522662 
3366.000000	99.521429 
3365.000000	99.522149 
3364.000000	99.523535 
3363.000000	99.523721 
3362.000000	99.522217 
3361.000000	99.520046 
3360.000000	99.518109 
3359.000000	99.516062 
3358.000000	99.513260 
3357.000000	99.510489 
3356.000000	99.509841 
3355.000000	99.512339 
3354.000000	99.516096 
3353.000000	99.517705 
3352.000000	99.515528 
3351.000000	99.511233 
3350.000000	99.507960 
3349.000000	99.507585 
3348.000000	99.509982 
3347.000000	99.513967 
3346.000000	99.517939 
3345.000000	99.520153 
3344.000000	99.519778 
3343.000000	99.518091 
3342.000000	99.517380 
3341.000000	99.517971 
3340.000000	99.517219 
3339.000000	99.512535 
3338.000000	99.505091 
3337.000000	99.499336 
3336.000000	99.498687 
3335.000000	99.502456 
3334.000000	99.507340 
3333.000000	99.510997 
3332.000000	99.513471 
3331.000000	99.515614 
3330.000000	99.517212 
3329.000000	99.517155 
3328.000000	99.515044 
3327.000000	99.511941 
3326.000000	99.509276 
3325.000000	99.507257 
3324.000000	99.504796 
3323.000000	99.501164 
3322.000000	99.497239 
3321.000000	99.494704 
3320.000000	99.494262 
3319.000000	99.495175 
3318.000000	99.496435 
3317.000000	99.497537 
3316.000000	99.497804 
3315.000000	99.496069 
3314.000000	99.492225 
3313.000000	99.488753 
3312.000000	99.489255 
3311.000000	99.494777 
3310.000000	99.502219 
3309.000000	99.507059 
3308.000000	99.507318 
3307.000000	99.504507 
3306.000000	99.501331 
3305.000000	99.499333 
3304.000000	99.498546 
3303.000000	99.498256 
3302.000000	99.497534 
3301.000000	99.495490 
3300.000000	99.491687 
3299.000000	99.486658 
3298.000000	99.482099 
3297.000000	99.480277 
3296.000000	99.482435 
3295.000000	99.487268 
3294.000000	99.491524 
3293.000000	99.492922 
3292.000000	99.492333 
3291.000000	99.492148 
3290.000000	99.492652 
3289.000000	99.491365 
3288.000000	99.486414 
3287.000000	99.479392 
3286.000000	99.473929 
3285.000000	99.472006 
3284.000000	99.472561 
3283.000000	99.473310 
3282.000000	99.473047 
3281.000000	99.472259 
3280.000000	99.472304 
3279.000000	99.474089 
3278.000000	99.477079 
3277.000000	99.479516 
3276.000000	99.479831 
3275.000000	99.477696 
3274.000000	99.473597 
3273.000000	99.468073 
3272.000000	99.462138 
3271.000000	99.457921 
3270.000000	99.457580 
3269.000000	99.461172 
3268.000000	99.466135 
3267.000000	99.469199 
3266.000000	99.468727 
3265.000000	99.465628 
3264.000000	99.462674 
3263.000000	99.462768 
3262.000000	99.466830 
3261.000000	99.472761 
3260.000000	99.476912 
3259.000000	99.476940 
3258.000000	99.473164 
3257.000000	99.467409 
3256.000000	99.461287 
3255.000000	99.455845 
3254.000000	99.452132 
3253.000000	99.451285 
3252.000000	99.453913 
3251.000000	99.459557 
3250.000000	99.466641 
3249.000000	99.472930 
3248.000000	99.476440 
3247.000000	99.476352 
3246.000000	99.473342 
3245.000000	99.469092 
3244.000000	99.465377 
3243.000000	99.463212 
3242.000000	99.462518 
3241.000000	99.462635 
3240.000000	99.463424 
3239.000000	99.465716 
3238.000000	99.470343 
3237.000000	99.476805 
3236.000000	99.483177 
3235.000000	99.487239 
3234.000000	99.487605 
3233.000000	99.484211 
3232.000000	99.478388 
3231.000000	99.472459 
3230.000000	99.468520 
3229.000000	99.467147 
3228.000000	99.467236 
3227.000000	99.467037 
3226.000000	99.465311 
3225.000000	99.461941 
3224.000000	99.457954 
3223.000000	99.454848 
3222.000000	99.453390 
3221.000000	99.452938 
3220.000000	99.452176 
3219.000000	99.450430 
3218.000000	99.448200 
3217.000000	99.446884 
3216.000000	99.448377 
3215.000000	99.454100 
3214.000000	99.463234 
3213.000000	99.471958 
3212.000000	99.475542 
3211.000000	99.471859 
3210.000000	99.462818 
3209.000000	99.452648 
3208.000000	99.445148 
3207.000000	99.442031 
3206.000000	99.442697 
3205.000000	99.445198 
3204.000000	99.447918 
3203.000000	99.450471 
3202.000000	99.452749 
3201.000000	99.453737 
3200.000000	99.452457 
3199.000000	99.449948 
3198.000000	99.448902 
3197.000000	99.450772 
3196.000000	99.454233 
3195.000000	99.456977 
3194.000000	99.458098 
3193.000000	99.458101 
3192.000000	99.457482 
3191.000000	99.456206 
3190.000000	99.454172 
3189.000000	99.451529 
3188.000000	99.448756 
3187.000000	99.446716 
3186.000000	99.446138 
3185.000000	99.446640 
3184.000000	99.446851 
3183.000000	99.445981 
3182.000000	99.444819 
3181.000000	99.444833 
3180.000000	99.446736 
3179.000000	99.450112 
3178.000000	99.453674 
3177.000000	99.455558 
3176.000000	99.454443 
3175.000000	99.451254 
3174.000000	99.448896 
3173.000000	99.449110 
3172.000000	99.450124 
3171.000000	99.448712 
3170.000000	99.444410 
3169.000000	99.440280 
3168.000000	99.439242 
3167.000000	99.440883 
3166.000000	99.442556 
3165.000000	99.442688 
3164.000000	99.442016 
3163.000000	99.441896 
3162.000000	99.442462 
3161.000000	99.442841 
3160.000000	99.442697 
3159.000000	99.442820 
3158.000000	99.443928 
3157.000000	99.445223 
3156.000000	99.444697 
3155.000000	99.440898 
3154.000000	99.434087 
3153.000000	99.425737 
3152.000000	99.417578 
3151.000000	99.411280 
3150.000000	99.408223 
3149.000000	99.408702 
3148.000000	99.411624 
3147.000000	99.415634 
3146.000000	99.420319 
3145.000000	99.425680 
3144.000000	99.430699 
3143.000000	99.433506 
3142.000000	99.433325 
3141.000000	99.431547 
3140.000000	99.430249 
3139.000000	99.430004 
3138.000000	99.429658 
3137.000000	99.428196 
3136.000000	99.426330 
3135.000000	99.425966 
3134.000000	99.428109 
3133.000000	99.431385 
3132.000000	99.432818 
3131.000000	99.430290 
3130.000000	99.424427 
3129.000000	99.418283 
3128.000000	99.415341 
3127.000000	99.417473 
3126.000000	99.423960 
3125.000000	99.431782 
3124.000000	99.437101 
3123.000000	99.437399 
3122.000000	99.433022 
3121.000000	99.426802 
3120.000000	99.422025 
3119.000000	99.420537 
3118.000000	99.422248 
3117.000000	99.425771 
3116.000000	99.429325 
3115.000000	99.431427 
3114.000000	99.431345 
3113.000000	99.429266 
3112.000000	99.426133 
3111.000000	99.423166 
3110.000000	99.421184 
3109.000000	99.420101 
3108.000000	99.419064 
3107.000000	99.417293 
3106.000000	99.414832 
3105.000000	99.412529 
3104.000000	99.411393 
3103.000000	99.412039 
3102.000000	99.414473 
3101.000000	99.417984 
3100.000000	99.421362 
3099.000000	99.423768 
3098.000000	99.425578 
3097.000000	99.427982 
3096.000000	99.431394 
3095.000000	99.434514 
3094.000000	99.435399 
3093.000000	99.433391 
3092.000000	99.429630 
3091.000000	99.425871 
3090.000000	99.423264 
3089.000000	99.422158 
3088.000000	99.422254 
3087.000000	99.422547 
3086.000000	99.421717 
3085.000000	99.419246 
3084.000000	99.415919 
3083.000000	99.412801 
3082.000000	99.410067 
3081.000000	99.407432 
3080.000000	99.405483 
3079.000000	99.405710 
3078.000000	99.409096 
3077.000000	99.415174 
3076.000000	99.422396 
3075.000000	99.428748 
3074.000000	99.432085 
3073.000000	99.431122 
3072.000000	99.426739 
3071.000000	99.421551 
3070.000000	99.417451 
3069.000000	99.413990 
3068.000000	99.409856 
3067.000000	99.405593 
3066.000000	99.404009 
3065.000000	99.407638 
3064.000000	99.415955 
3063.000000	99.424968 
3062.000000	99.429553 
3061.000000	99.426925 
3060.000000	99.418742 
3059.000000	99.409858 
3058.000000	99.404712 
3057.000000	99.404791 
3056.000000	99.409034 
3055.000000	99.415463 
3054.000000	99.421668 
3053.000000	99.424804 
3052.000000	99.422829 
3051.000000	99.416308 
3050.000000	99.408505 
3049.000000	99.403383 
3048.000000	99.403135 
3047.000000	99.406712 
3046.000000	99.410109 
3045.000000	99.409006 
3044.000000	99.402629 
3043.000000	99.395044 
3042.000000	99.391555 
3041.000000	99.393601 
3040.000000	99.397860 
3039.000000	99.400189 
3038.000000	99.399189 
3037.000000	99.395791 
3036.000000	99.390884 
3035.000000	99.384633 
3034.000000	99.377564 
3033.000000	99.370981 
3032.000000	99.365831 
3031.000000	99.361556 
3030.000000	99.356514 
3029.000000	99.349801 
3028.000000	99.342632 
3027.000000	99.337562 
3026.000000	99.335839 
3025.000000	99.335552 
3024.000000	99.332934 
3023.000000	99.325666 
3022.000000	99.314532 
3021.000000	99.301787 
3020.000000	99.288645 
3019.000000	99.274936 
3018.000000	99.260944 
3017.000000	99.248508 
3016.000000	99.239490 
3015.000000	99.233230 
3014.000000	99.226554 
3013.000000	99.217215 
3012.000000	99.206968 
3011.000000	99.200021 
3010.000000	99.198067 
3009.000000	99.197925 
3008.000000	99.194718 
3007.000000	99.186503 
3006.000000	99.175029 
3005.000000	99.162876 
3004.000000	99.151360 
3003.000000	99.140891 
3002.000000	99.131762 
3001.000000	99.123891 
3000.000000	99.116548 
2999.000000	99.108959 
2998.000000	99.100997 
2997.000000	99.093175 
2996.000000	99.086216 
2995.000000	99.080268 
2994.000000	99.073859 
2993.000000	99.063906 
2992.000000	99.047939 
2991.000000	99.026975 
2990.000000	99.005881 
2989.000000	98.990579 
2988.000000	98.984614 
2987.000000	98.987689 
2986.000000	98.996313 
2985.000000	99.005741 
2984.000000	99.012229 
2983.000000	99.014544 
2982.000000	99.013730 
2981.000000	99.011746 
2980.000000	99.010281 
2979.000000	99.010094 
2978.000000	99.010440 
2977.000000	99.009169 
2976.000000	99.004240 
2975.000000	98.995544 
2974.000000	98.985047 
2973.000000	98.975368 
2972.000000	98.968579 
2971.000000	98.965743 
2970.000000	98.966332 
2969.000000	98.967997 
2968.000000	98.968137 
2967.000000	98.966458 
2966.000000	98.965469 
2965.000000	98.967989 
2964.000000	98.974560 
2963.000000	98.983489 
2962.000000	98.992761 
2961.000000	99.001403 
2960.000000	99.009375 
2959.000000	99.016839 
2958.000000	99.023685 
2957.000000	99.029687 
2956.000000	99.035101 
2955.000000	99.040924 
2954.000000	99.048346 
2953.000000	99.057876 
2952.000000	99.068941 
2951.000000	99.079889 
2950.000000	99.088342 
2949.000000	99.092442 
2948.000000	99.092560 
2947.000000	99.091423 
2946.000000	99.091747 
2945.000000	99.093919 
2944.000000	99.096416 
2943.000000	99.097731 
2942.000000	99.096928 
2941.000000	99.093126 
2940.000000	99.086275 
2939.000000	99.078589 
2938.000000	99.073522 
2937.000000	99.072519 
2936.000000	99.073637 
2935.000000	99.073792 
2934.000000	99.071428 
2933.000000	99.066563 
2932.000000	99.059504 
2931.000000	99.050596 
2930.000000	99.040841 
2929.000000	99.031898 
2928.000000	99.025230 
2927.000000	99.020992 
2926.000000	99.017469 
2925.000000	99.012138 
2924.000000	99.004433 
2923.000000	98.997339 
2922.000000	98.994965 
2921.000000	98.998107 
2920.000000	99.003308 
2919.000000	99.006549 
2918.000000	99.006896 
2917.000000	99.006156 
2916.000000	99.006369 
2915.000000	99.008536 
2914.000000	99.012812 
2913.000000	99.018618 
2912.000000	99.024752 
2911.000000	99.030147 
2910.000000	99.034490 
2909.000000	99.037851 
2908.000000	99.040003 
2907.000000	99.040578 
2906.000000	99.039394 
2905.000000	99.036231 
2904.000000	99.030689 
2903.000000	99.023136 
2902.000000	99.015872 
2901.000000	99.013217 
2900.000000	99.018597 
2899.000000	99.031958 
2898.000000	99.048735 
2897.000000	99.062448 
2896.000000	99.069374 
2895.000000	99.071054 
2894.000000	99.072111 
2893.000000	99.075815 
2892.000000	99.082214 
2891.000000	99.089559 
2890.000000	99.096018 
2889.000000	99.100067 
2888.000000	99.101033 
2887.000000	99.100184 
2886.000000	99.100288 
2885.000000	99.103189 
2884.000000	99.108428 
2883.000000	99.114760 
2882.000000	99.122071 
2881.000000	99.130862 
2880.000000	99.140537 
2879.000000	99.149420 
2878.000000	99.156406 
2877.000000	99.161841 
2876.000000	99.166751 
2875.000000	99.171780 
2874.000000	99.176867 
2873.000000	99.181466 
2872.000000	99.184881 
2871.000000	99.186605 
2870.000000	99.186600 
2869.000000	99.185654 
2868.000000	99.185677 
2867.000000	99.188980 
2866.000000	99.196163 
2865.000000	99.204654 
2864.000000	99.210431 
2863.000000	99.211728 
2862.000000	99.210367 
2861.000000	99.209269 
2860.000000	99.209605 
2859.000000	99.210816 
2858.000000	99.212067 
2857.000000	99.212549 
2856.000000	99.211287 
2855.000000	99.208114 
2854.000000	99.204765 
2853.000000	99.203983 
2852.000000	99.207459 
2851.000000	99.215060 
2850.000000	99.225757 
2849.000000	99.238479 
2848.000000	99.252194 
2847.000000	99.265947 
2846.000000	99.279060 
2845.000000	99.290922 
2844.000000	99.300704 
2843.000000	99.307804 
2842.000000	99.312663 
2841.000000	99.316718 
2840.000000	99.321370 
2839.000000	99.327111 
2838.000000	99.333543 
2837.000000	99.339900 
2836.000000	99.345548 
2835.000000	99.350260 
2834.000000	99.354115 
2833.000000	99.357051 
2832.000000	99.358619 
2831.000000	99.358342 
2830.000000	99.356328 
2829.000000	99.353462 
2828.000000	99.351122 
2827.000000	99.350694 
2826.000000	99.352933 
2825.000000	99.357318 
2824.000000	99.362077 
2823.000000	99.365313 
2822.000000	99.366480 
2821.000000	99.366831 
2820.000000	99.368222 
2819.000000	99.371305 
2818.000000	99.374811 
2817.000000	99.376798 
2816.000000	99.376625 
2815.000000	99.375467 
2814.000000	99.374745 
2813.000000	99.374552 
2812.000000	99.374188 
2811.000000	99.373923 
2810.000000	99.375251 
2809.000000	99.379014 
2808.000000	99.383870 
2807.000000	99.387192 
2806.000000	99.387356 
2805.000000	99.384961 
2804.000000	99.382005 
2803.000000	99.380210 
2802.000000	99.379995 
2801.000000	99.380792 
2800.000000	99.382050 
2799.000000	99.383702 
2798.000000	99.385562 
2797.000000	99.386676 
2796.000000	99.385991 
2795.000000	99.383805 
2794.000000	99.382053 
2793.000000	99.382615 
2792.000000	99.385369 
2791.000000	99.388111 
2790.000000	99.388551 
2789.000000	99.386481 
2788.000000	99.384095 
2787.000000	99.384006 
2786.000000	99.386705 
2785.000000	99.389925 
2784.000000	99.390679 
2783.000000	99.387950 
2782.000000	99.383479 
2781.000000	99.380198 
2780.000000	99.380076 
2779.000000	99.383036 
2778.000000	99.387373 
2777.000000	99.391217 
2776.000000	99.393874 
2775.000000	99.395787 
2774.000000	99.397233 
2773.000000	99.397668 
2772.000000	99.396851 
2771.000000	99.395969 
2770.000000	99.396599 
2769.000000	99.398632 
2768.000000	99.400318 
2767.000000	99.400654 
2766.000000	99.400732 
2765.000000	99.401967 
2764.000000	99.403614 
2763.000000	99.403033 
2762.000000	99.398546 
2761.000000	99.391463 
2760.000000	99.385101 
2759.000000	99.382088 
2758.000000	99.382760 
2757.000000	99.385786 
2756.000000	99.389566 
2755.000000	99.392740 
2754.000000	99.393972 
2753.000000	99.392472 
2752.000000	99.389171 
2751.000000	99.386675 
2750.000000	99.387219 
2749.000000	99.390686 
2748.000000	99.394983 
2747.000000	99.398155 
2746.000000	99.399682 
2745.000000	99.400000 
2744.000000	99.399465 
2743.000000	99.398046 
2742.000000	99.395741 
2741.000000	99.393112 
2740.000000	99.391309 
2739.000000	99.391346 
2738.000000	99.393265 
2737.000000	99.396283 
2736.000000	99.399741 
2735.000000	99.403294 
2734.000000	99.406059 
2733.000000	99.406492 
2732.000000	99.403887 
2731.000000	99.399476 
2730.000000	99.395378 
2729.000000	99.392836 
2728.000000	99.392013 
2727.000000	99.392789 
2726.000000	99.394711 
2725.000000	99.396605 
2724.000000	99.397511 
2723.000000	99.398113 
2722.000000	99.400233 
2721.000000	99.404635 
2720.000000	99.409881 
2719.000000	99.413443 
2718.000000	99.413501 
2717.000000	99.409936 
2716.000000	99.404436 
2715.000000	99.399667 
2714.000000	99.397566 
2713.000000	99.398109 
2712.000000	99.399984 
2711.000000	99.402274 
2710.000000	99.404960 
2709.000000	99.407987 
2708.000000	99.410581 
2707.000000	99.411580 
2706.000000	99.410167 
2705.000000	99.406649 
2704.000000	99.403007 
2703.000000	99.402005 
2702.000000	99.404712 
2701.000000	99.409089 
2700.000000	99.412045 
2699.000000	99.412786 
2698.000000	99.413170 
2697.000000	99.414786 
2696.000000	99.416847 
2695.000000	99.417303 
2694.000000	99.415296 
2693.000000	99.412074 
2692.000000	99.409795 
2691.000000	99.409465 
2690.000000	99.409768 
2689.000000	99.408256 
2688.000000	99.404238 
2687.000000	99.400002 
2686.000000	99.398540 
2685.000000	99.400539 
2684.000000	99.404455 
2683.000000	99.408696 
2682.000000	99.412260 
2681.000000	99.413701 
2680.000000	99.411544 
2679.000000	99.406359 
2678.000000	99.401087 
2677.000000	99.398610 
2676.000000	99.399646 
2675.000000	99.403068 
2674.000000	99.407172 
2673.000000	99.410379 
2672.000000	99.411870 
2671.000000	99.412117 
2670.000000	99.412098 
2669.000000	99.411854 
2668.000000	99.410762 
2667.000000	99.409228 
2666.000000	99.408788 
2665.000000	99.410053 
2664.000000	99.411743 
2663.000000	99.412412 
2662.000000	99.412270 
2661.000000	99.412657 
2660.000000	99.414381 
2659.000000	99.417061 
2658.000000	99.419576 
2657.000000	99.420977 
2656.000000	99.421450 
2655.000000	99.422157 
2654.000000	99.423300 
2653.000000	99.423011 
2652.000000	99.420011 
2651.000000	99.417011 
2650.000000	99.418715 
2649.000000	99.425377 
2648.000000	99.430991 
2647.000000	99.430010 
2646.000000	99.424245 
2645.000000	99.420722 
2644.000000	99.423492 
2643.000000	99.429810 
2642.000000	99.434119 
2641.000000	99.433755 
2640.000000	99.430427 
2639.000000	99.427689 
2638.000000	99.427622 
2637.000000	99.429192 
2636.000000	99.429473 
2635.000000	99.426832 
2634.000000	99.422752 
2633.000000	99.420206 
2632.000000	99.420673 
2631.000000	99.423291 
2630.000000	99.426168 
2629.000000	99.427588 
2628.000000	99.426573 
2627.000000	99.423574 
2626.000000	99.420510 
2625.000000	99.419105 
2624.000000	99.419193 
2623.000000	99.419373 
2622.000000	99.419092 
2621.000000	99.419192 
2620.000000	99.420567 
2619.000000	99.423233 
2618.000000	99.426647 
2617.000000	99.430075 
2616.000000	99.432638 
2615.000000	99.433914 
2614.000000	99.434639 
2613.000000	99.435968 
2612.000000	99.437773 
2611.000000	99.438398 
2610.000000	99.436640 
2609.000000	99.433418 
2608.000000	99.430872 
2607.000000	99.430098 
2606.000000	99.430521 
2605.000000	99.431559 
2604.000000	99.433984 
2603.000000	99.438757 
2602.000000	99.444879 
2601.000000	99.449654 
2600.000000	99.451478 
2599.000000	99.451305 
2598.000000	99.450527 
2597.000000	99.448411 
2596.000000	99.443125 
2595.000000	99.435015 
2594.000000	99.427436 
2593.000000	99.423986 
2592.000000	99.425736 
2591.000000	99.431132 
2590.000000	99.437469 
2589.000000	99.442105 
2588.000000	99.443245 
2587.000000	99.440481 
2586.000000	99.434819 
2585.000000	99.428369 
2584.000000	99.423803 
2583.000000	99.422924 
2582.000000	99.424863 
2581.000000	99.426584 
2580.000000	99.426263 
2579.000000	99.425266 
2578.000000	99.425441 
2577.000000	99.425599 
2576.000000	99.422911 
2575.000000	99.417363 
2574.000000	99.412484 
2573.000000	99.411479 
2572.000000	99.414612 
2571.000000	99.420464 
2570.000000	99.427379 
2569.000000	99.433094 
2568.000000	99.435275 
2567.000000	99.433713 
2566.000000	99.430554 
2565.000000	99.427559 
2564.000000	99.424584 
2563.000000	99.421472 
2562.000000	99.419654 
2561.000000	99.420451 
2560.000000	99.422673 
2559.000000	99.423057 
2558.000000	99.418973 
2557.000000	99.410917 
2556.000000	99.403163 
2555.000000	99.401387 
2554.000000	99.407873 
2553.000000	99.418858 
2552.000000	99.427955 
2551.000000	99.431946 
2550.000000	99.431704 
2549.000000	99.428495 
2548.000000	99.422610 
2547.000000	99.415787 
2546.000000	99.411501 
2545.000000	99.411303 
2544.000000	99.413170 
2543.000000	99.414533 
2542.000000	99.414565 
2541.000000	99.412677 
2540.000000	99.407970 
2539.000000	99.401925 
2538.000000	99.398613 
2537.000000	99.399654 
2536.000000	99.401437 
2535.000000	99.400194 
2534.000000	99.397702 
2533.000000	99.398489 
2532.000000	99.402686 
2531.000000	99.405472 
2530.000000	99.403722 
2529.000000	99.399971 
2528.000000	99.398621 
2527.000000	99.400258 
2526.000000	99.401268 
2525.000000	99.398494 
2524.000000	99.393372 
2523.000000	99.391190 
2522.000000	99.395949 
2521.000000	99.405899 
2520.000000	99.414653 
2519.000000	99.416772 
2518.000000	99.411615 
2517.000000	99.402187 
2516.000000	99.392078 
2515.000000	99.384077 
2514.000000	99.379821 
2513.000000	99.379110 
2512.000000	99.380193 
2511.000000	99.381706 
2510.000000	99.383923 
2509.000000	99.387835 
2508.000000	99.393922 
2507.000000	99.401849 
2506.000000	99.409897 
2505.000000	99.414526 
2504.000000	99.412523 
2503.000000	99.404481 
2502.000000	99.394683 
2501.000000	99.387087 
2500.000000	99.383164 
2499.000000	99.383710 
2498.000000	99.389523 
2497.000000	99.398522 
2496.000000	99.405132 
2495.000000	99.405384 
2494.000000	99.401182 
2493.000000	99.397231 
2492.000000	99.395339 
2491.000000	99.394452 
2490.000000	99.395066 
2489.000000	99.400150 
2488.000000	99.411007 
2487.000000	99.424228 
2486.000000	99.433483 
2485.000000	99.433827 
2484.000000	99.424928 
2483.000000	99.411384 
2482.000000	99.399640 
2481.000000	99.393409 
2480.000000	99.391933 
2479.000000	99.392625 
2478.000000	99.394103 
2477.000000	99.396103 
2476.000000	99.398344 
2475.000000	99.401085 
2474.000000	99.405312 
2473.000000	99.410514 
2472.000000	99.413548 
2471.000000	99.411925 
2470.000000	99.407465 
2469.000000	99.404495 
2468.000000	99.404716 
2467.000000	99.405890 
2466.000000	99.405394 
2465.000000	99.403024 
2464.000000	99.400140 
2463.000000	99.397966 
2462.000000	99.397320 
2461.000000	99.398463 
2460.000000	99.400288 
2459.000000	99.400509 
2458.000000	99.397535 
2457.000000	99.392047 
2456.000000	99.386663 
2455.000000	99.384266 
2454.000000	99.386237 
2453.000000	99.391466 
2452.000000	99.396815 
2451.000000	99.398903 
2450.000000	99.395872 
2449.000000	99.388175 
2448.000000	99.378720 
2447.000000	99.372120 
2446.000000	99.372210 
2445.000000	99.378927 
2444.000000	99.387927 
2443.000000	99.393932 
2442.000000	99.394374 
2441.000000	99.390225 
2440.000000	99.384640 
2439.000000	99.381185 
2438.000000	99.381837 
2437.000000	99.385466 
2436.000000	99.388841 
2435.000000	99.389791 
2434.000000	99.388787 
2433.000000	99.387440 
2432.000000	99.386959 
2431.000000	99.388483 
2430.000000	99.392805 
2429.000000	99.398285 
2428.000000	99.400658 
2427.000000	99.396961 
2426.000000	99.389034 
2425.000000	99.381709 
2424.000000	99.378374 
2423.000000	99.379639 
2422.000000	99.385054 
2421.000000	99.393498 
2420.000000	99.401845 
2419.000000	99.405655 
2418.000000	99.402649 
2417.000000	99.394841 
2416.000000	99.386638 
2415.000000	99.381189 
2414.000000	99.378783 
2413.000000	99.378050 
2412.000000	99.377892 
2411.000000	99.378078 
2410.000000	99.378420 
2409.000000	99.378112 
2408.000000	99.376400 
2407.000000	99.373643 
2406.000000	99.371169 
2405.000000	99.370074 
2404.000000	99.370453 
2403.000000	99.371519 
2402.000000	99.372093 
2401.000000	99.371396 
2400.000000	99.369861 
2399.000000	99.368511 
2398.000000	99.367115 
2397.000000	99.364138 
2396.000000	99.359515 
2395.000000	99.356004 
2394.000000	99.355972 
2393.000000	99.357995 
2392.000000	99.358885 
2391.000000	99.358127 
2390.000000	99.357677 
2389.000000	99.358202 
2388.000000	99.358827 
2387.000000	99.360415 
2386.000000	99.365157 
2385.000000	99.371991 
2384.000000	99.376087 
2383.000000	99.374792 
2382.000000	99.370964 
2381.000000	99.368198 
2380.000000	99.365551 
2379.000000	99.360191 
2378.000000	99.353383 
2377.000000	99.350027 
2376.000000	99.352804 
2375.000000	99.359418 
2374.000000	99.365247 
2373.000000	99.366889 
2372.000000	99.363600 
2371.000000	99.357956 
2370.000000	99.354383 
2369.000000	99.354980 
2368.000000	99.357411 
2367.000000	99.358942 
2366.000000	99.360945 
2365.000000	99.366747 
2364.000000	99.376278 
2363.000000	99.386240 
2362.000000	99.391884 
2361.000000	99.389466 
2360.000000	99.380664 
2359.000000	99.370519 
2358.000000	99.363670 
2357.000000	99.361205 
2356.000000	99.362386 
2355.000000	99.369213 
2354.000000	99.378938 
2353.000000	99.385266 
2352.000000	99.381968 
2351.000000	99.371126 
2350.000000	99.363103 
2349.000000	99.364166 
2348.000000	99.373662 
2347.000000	99.383391 
2346.000000	99.387701 
2345.000000	99.389274 
2344.000000	99.391933 
2343.000000	99.398303 
2342.000000	99.402811 
2341.000000	99.402660 
2340.000000	99.399695 
2339.000000	99.399099 
2338.000000	99.403177 
2337.000000	99.407563 
2336.000000	99.407685 
2335.000000	99.402544 
2334.000000	99.397154 
2333.000000	99.395726 
2332.000000	99.399827 
2331.000000	99.403070 
2330.000000	99.402591 
2329.000000	99.396827 
2328.000000	99.395508 
2327.000000	99.403977 
2326.000000	99.422797 
2325.000000	99.442871 
2324.000000	99.454041 
2323.000000	99.454799 
2322.000000	99.451692 
2321.000000	99.452377 
2320.000000	99.455021 
2319.000000	99.451980 
2318.000000	99.441889 
2317.000000	99.430211 
2316.000000	99.424246 
2315.000000	99.422268 
2314.000000	99.421829 
2313.000000	99.420712 
2312.000000	99.421998 
2311.000000	99.424239 
2310.000000	99.425945 
2309.000000	99.424383 
2308.000000	99.421632 
2307.000000	99.418866 
2306.000000	99.417734 
2305.000000	99.417494 
2304.000000	99.418389 
2303.000000	99.419598 
2302.000000	99.421317 
2301.000000	99.422422 
2300.000000	99.423304 
2299.000000	99.424247 
2298.000000	99.426952 
2297.000000	99.429986 
2296.000000	99.430511 
2295.000000	99.425918 
2294.000000	99.419096 
2293.000000	99.415378 
2292.000000	99.417853 
2291.000000	99.423960 
2290.000000	99.428991 
2289.000000	99.430405 
2288.000000	99.428989 
2287.000000	99.426986 
2286.000000	99.425461 
2285.000000	99.423585 
2284.000000	99.419686 
2283.000000	99.414303 
2282.000000	99.410429 
2281.000000	99.410225 
2280.000000	99.411510 
2279.000000	99.410259 
2278.000000	99.405648 
2277.000000	99.400851 
2276.000000	99.398794 
2275.000000	99.399202 
2274.000000	99.400295 
2273.000000	99.400667 
2272.000000	99.399504 
2271.000000	99.396680 
2270.000000	99.393858 
2269.000000	99.393417 
2268.000000	99.395721 
2267.000000	99.398882 
2266.000000	99.401674 
2265.000000	99.404301 
2264.000000	99.405898 
2263.000000	99.403886 
2262.000000	99.397812 
2261.000000	99.391778 
2260.000000	99.390297 
2259.000000	99.392961 
2258.000000	99.395097 
2257.000000	99.393977 
2256.000000	99.391808 
2255.000000	99.392058 
2254.000000	99.394404 
2253.000000	99.395195 
2252.000000	99.392865 
2251.000000	99.390430 
2250.000000	99.391546 
2249.000000	99.394964 
2248.000000	99.395248 
2247.000000	99.389641 
2246.000000	99.381555 
2245.000000	99.376827 
2244.000000	99.378012 
2243.000000	99.383294 
2242.000000	99.389253 
2241.000000	99.393477 
2240.000000	99.396345 
2239.000000	99.401494 
2238.000000	99.412097 
2237.000000	99.424771 
2236.000000	99.429824 
2235.000000	99.420984 
2234.000000	99.403514 
2233.000000	99.389526 
2232.000000	99.385793 
2231.000000	99.388811 
2230.000000	99.390776 
2229.000000	99.387163 
2228.000000	99.378884 
2227.000000	99.370312 
2226.000000	99.365960 
2225.000000	99.367369 
2224.000000	99.373141 
2223.000000	99.382322 
2222.000000	99.394879 
2221.000000	99.406615 
2220.000000	99.408072 
2219.000000	99.394442 
2218.000000	99.374883 
2217.000000	99.365341 
2216.000000	99.371228 
2215.000000	99.382874 
2214.000000	99.389173 
2213.000000	99.389681 
2212.000000	99.390686 
2211.000000	99.395077 
2210.000000	99.400719 
2209.000000	99.405058 
2208.000000	99.405948 
2207.000000	99.399481 
2206.000000	99.382472 
2205.000000	99.358611 
2204.000000	99.339239 
2203.000000	99.335570 
2202.000000	99.349499 
2201.000000	99.371400 
2200.000000	99.387480 
2199.000000	99.390958 
2198.000000	99.386553 
2197.000000	99.383800 
2196.000000	99.387124 
2195.000000	99.394156 
2194.000000	99.401746 
2193.000000	99.408777 
2192.000000	99.412844 
2191.000000	99.410172 
2190.000000	99.402563 
2189.000000	99.399901 
2188.000000	99.409386 
2187.000000	99.423465 
2186.000000	99.424865 
2185.000000	99.405520 
2184.000000	99.376318 
2183.000000	99.355380 
2182.000000	99.350397 
2181.000000	99.355646 
2180.000000	99.362802 
2179.000000	99.368701 
2178.000000	99.372754 
2177.000000	99.373426 
2176.000000	99.370866 
2175.000000	99.369352 
2174.000000	99.373057 
2173.000000	99.381269 
2172.000000	99.391336 
2171.000000	99.404213 
2170.000000	99.422253 
2169.000000	99.442080 
2168.000000	99.454911 
2167.000000	99.455539 
2166.000000	99.447686 
2165.000000	99.439740 
2164.000000	99.438654 
2163.000000	99.447967 
2162.000000	99.465229 
2161.000000	99.477406 
2160.000000	99.465453 
2159.000000	99.422282 
2158.000000	99.364099 
2157.000000	99.315789 
2156.000000	99.287460 
2155.000000	99.273362 
2154.000000	99.268485 
2153.000000	99.275510 
2152.000000	99.295795 
2151.000000	99.321682 
2150.000000	99.342266 
2149.000000	99.354598 
2148.000000	99.365683 
2147.000000	99.382432 
2146.000000	99.401214 
2145.000000	99.409505 
2144.000000	99.398969 
2143.000000	99.375460 
2142.000000	99.353886 
2141.000000	99.343686 
2140.000000	99.341796 
2139.000000	99.340447 
2138.000000	99.338094 
2137.000000	99.339379 
2136.000000	99.346377 
2135.000000	99.354501 
2134.000000	99.358070 
2133.000000	99.356722 
2132.000000	99.353973 
2131.000000	99.350893 
2130.000000	99.344292 
2129.000000	99.332099 
2128.000000	99.318599 
2127.000000	99.311707 
2126.000000	99.314772 
2125.000000	99.323311 
2124.000000	99.331066 
2123.000000	99.337014 
2122.000000	99.343820 
2121.000000	99.351589 
2120.000000	99.357612 
2119.000000	99.361934 
2118.000000	99.368276 
2117.000000	99.377842 
2116.000000	99.386278 
2115.000000	99.389324 
2114.000000	99.388323 
2113.000000	99.386983 
2112.000000	99.385275 
2111.000000	99.380687 
2110.000000	99.374352 
2109.000000	99.371295 
2108.000000	99.373449 
2107.000000	99.375667 
2106.000000	99.371005 
2105.000000	99.359144 
2104.000000	99.348067 
2103.000000	99.346859 
2102.000000	99.356801 
2101.000000	99.369617 
2100.000000	99.375099 
2099.000000	99.370418 
2098.000000	99.361330 
2097.000000	99.355142 
2096.000000	99.354565 
2095.000000	99.358499 
2094.000000	99.365461 
2093.000000	99.373781 
2092.000000	99.380632 
2091.000000	99.384083 
2090.000000	99.385748 
2089.000000	99.388932 
2088.000000	99.393478 
2087.000000	99.394128 
2086.000000	99.385485 
2085.000000	99.369008 
2084.000000	99.354598 
2083.000000	99.353616 
2082.000000	99.368705 
2081.000000	99.390419 
2080.000000	99.405584 
2079.000000	99.409562 
2078.000000	99.409038 
2077.000000	99.412993 
2076.000000	99.422653 
2075.000000	99.430497 
2074.000000	99.427275 
2073.000000	99.409957 
2072.000000	99.385218 
2071.000000	99.365451 
2070.000000	99.359283 
2069.000000	99.364718 
2068.000000	99.371986 
2067.000000	99.372504 
2066.000000	99.363744 
2065.000000	99.348339 
2064.000000	99.333098 
2063.000000	99.327454 
2062.000000	99.336340 
2061.000000	99.352910 
2060.000000	99.364204 
2059.000000	99.366587 
2058.000000	99.369706 
2057.000000	99.381944 
2056.000000	99.398363 
2055.000000	99.408542 
2054.000000	99.411328 
2053.000000	99.414587 
2052.000000	99.422560 
2051.000000	99.430181 
2050.000000	99.429846 
2049.000000	99.419462 
2048.000000	99.403829 
2047.000000	99.391132 
2046.000000	99.388205 
2045.000000	99.395596 
2044.000000	99.406364 
2043.000000	99.412467 
2042.000000	99.412455 
2041.000000	99.410778 
2040.000000	99.410666 
2039.000000	99.411183 
2038.000000	99.410711 
2037.000000	99.409139 
2036.000000	99.405546 
2035.000000	99.396431 
2034.000000	99.378469 
2033.000000	99.353614 
2032.000000	99.331603 
2031.000000	99.325729 
2030.000000	99.342167 
2029.000000	99.371105 
2028.000000	99.391563 
2027.000000	99.388690 
2026.000000	99.365377 
2025.000000	99.337581 
2024.000000	99.321692 
2023.000000	99.326029 
2022.000000	99.347783 
2021.000000	99.373379 
2020.000000	99.386338 
2019.000000	99.380568 
2018.000000	99.364814 
2017.000000	99.352182 
2016.000000	99.347803 
2015.000000	99.349151 
2014.000000	99.353196 
2013.000000	99.357568 
2012.000000	99.359101 
2011.000000	99.357148 
2010.000000	99.356004 
2009.000000	99.359769 
2008.000000	99.367183 
2007.000000	99.375457 
2006.000000	99.385151 
2005.000000	99.395905 
2004.000000	99.401372 
2003.000000	99.394596 
2002.000000	99.376076 
2001.000000	99.351919 
2000.000000	99.326636 
1999.000000	99.302591 
1998.000000	99.284027 
1997.000000	99.275637 
1996.000000	99.277948 
1995.000000	99.288439 
1994.000000	99.305534 
1993.000000	99.326798 
1992.000000	99.344754 
1991.000000	99.350753 
1990.000000	99.343799 
1989.000000	99.331236 
1988.000000	99.322032 
1987.000000	99.322723 
1986.000000	99.336979 
1985.000000	99.363398 
1984.000000	99.393503 
1983.000000	99.415859 
1982.000000	99.423156 
1981.000000	99.414743 
1980.000000	99.395315 
1979.000000	99.373972 
1978.000000	99.360546 
1977.000000	99.356594 
1976.000000	99.352365 
1975.000000	99.339045 
1974.000000	99.321434 
1973.000000	99.312194 
1972.000000	99.315644 
1971.000000	99.324459 
1970.000000	99.331988 
1969.000000	99.340231 
1968.000000	99.352879 
1967.000000	99.365873 
1966.000000	99.370585 
1965.000000	99.364654 
1964.000000	99.354764 
1963.000000	99.349037 
1962.000000	99.349832 
1961.000000	99.353830 
1960.000000	99.356916 
1959.000000	99.357384 
1958.000000	99.354894 
1957.000000	99.348902 
1956.000000	99.339531 
1955.000000	99.328302 
1954.000000	99.316039 
1953.000000	99.301451 
1952.000000	99.284698 
1951.000000	99.271828 
1950.000000	99.271662 
1949.000000	99.286199 
1948.000000	99.306583 
1947.000000	99.320751 
1946.000000	99.322850 
1945.000000	99.314449 
1944.000000	99.300859 
1943.000000	99.289258 
1942.000000	99.286097 
1941.000000	99.290945 
1940.000000	99.295947 
1939.000000	99.294771 
1938.000000	99.289653 
1937.000000	99.288102 
1936.000000	99.293904 
1935.000000	99.303400 
1934.000000	99.309914 
1933.000000	99.309541 
1932.000000	99.303361 
1931.000000	99.296723 
1930.000000	99.296296 
1929.000000	99.304150 
1928.000000	99.314287 
1927.000000	99.318121 
1926.000000	99.313218 
1925.000000	99.304279 
1924.000000	99.296952 
1923.000000	99.293588 
1922.000000	99.294586 
1921.000000	99.299469 
1920.000000	99.305384 
1919.000000	99.307720 
1918.000000	99.304337 
1917.000000	99.298125 
1916.000000	99.293751 
1915.000000	99.293931 
1914.000000	99.299250 
1913.000000	99.308422 
1912.000000	99.317995 
1911.000000	99.323944 
1910.000000	99.324615 
1909.000000	99.321206 
1908.000000	99.316038 
1907.000000	99.312026 
1906.000000	99.312417 
1905.000000	99.317615 
1904.000000	99.322256 
1903.000000	99.318610 
1902.000000	99.304158 
1901.000000	99.284540 
1900.000000	99.269447 
1899.000000	99.266119 
1898.000000	99.275083 
1897.000000	99.289635 
1896.000000	99.299995 
1895.000000	99.301120 
1894.000000	99.296912 
1893.000000	99.294757 
1892.000000	99.297309 
1891.000000	99.301712 
1890.000000	99.304515 
1889.000000	99.304831 
1888.000000	99.303619 
1887.000000	99.302507 
1886.000000	99.302872 
1885.000000	99.304406 
1884.000000	99.305070 
1883.000000	99.303701 
1882.000000	99.301554 
1881.000000	99.299582 
1880.000000	99.296246 
1879.000000	99.289946 
1878.000000	99.281977 
1877.000000	99.275355 
1876.000000	99.272264 
1875.000000	99.274370 
1874.000000	99.283206 
1873.000000	99.296834 
1872.000000	99.307896 
1871.000000	99.308803 
1870.000000	99.299200 
1869.000000	99.286241 
1868.000000	99.275170 
1867.000000	99.264494 
1866.000000	99.252828 
1865.000000	99.243215 
1864.000000	99.240557 
1863.000000	99.247936 
1862.000000	99.264460 
1861.000000	99.284433 
1860.000000	99.299528 
1859.000000	99.304991 
1858.000000	99.303774 
1857.000000	99.302502 
1856.000000	99.304717 
1855.000000	99.310196 
1854.000000	99.317736 
1853.000000	99.324985 
1852.000000	99.327469 
1851.000000	99.321402 
1850.000000	99.308116 
1849.000000	99.293994 
1848.000000	99.285207 
1847.000000	99.283445 
1846.000000	99.286760 
1845.000000	99.291038 
1844.000000	99.291388 
1843.000000	99.287363 
1842.000000	99.284660 
1841.000000	99.287850 
1840.000000	99.296093 
1839.000000	99.305141 
1838.000000	99.311137 
1837.000000	99.312737 
1836.000000	99.310803 
1835.000000	99.307654 
1834.000000	99.305784 
1833.000000	99.306119 
1832.000000	99.307786 
1831.000000	99.308905 
1830.000000	99.308333 
1829.000000	99.307371 
1828.000000	99.308724 
1827.000000	99.312656 
1826.000000	99.316514 
1825.000000	99.318087 
1824.000000	99.317577 
1823.000000	99.316608 
1822.000000	99.315881 
1821.000000	99.313804 
1820.000000	99.308194 
1819.000000	99.299351 
1818.000000	99.291165 
1817.000000	99.287680 
1816.000000	99.288260 
1815.000000	99.289040 
1814.000000	99.288776 
1813.000000	99.290574 
1812.000000	99.297955 
1811.000000	99.309855 
1810.000000	99.322088 
1809.000000	99.331968 
1808.000000	99.337678 
1807.000000	99.336841 
1806.000000	99.329447 
1805.000000	99.319710 
1804.000000	99.312690 
1803.000000	99.310377 
1802.000000	99.312317 
1801.000000	99.317735 
1800.000000	99.323468 
1799.000000	99.324682 
1798.000000	99.320951 
1797.000000	99.316665 
1796.000000	99.315316 
1795.000000	99.316719 
1794.000000	99.319034 
1793.000000	99.321019 
1792.000000	99.322489 
1791.000000	99.322928 
1790.000000	99.322065 
1789.000000	99.321209 
1788.000000	99.322096 
1787.000000	99.325004 
1786.000000	99.328332 
1785.000000	99.329519 
1784.000000	99.326694 
1783.000000	99.321444 
1782.000000	99.318125 
1781.000000	99.319108 
1780.000000	99.321019 
1779.000000	99.318694 
1778.000000	99.312856 
1777.000000	99.308846 
1776.000000	99.309678 
1775.000000	99.314379 
1774.000000	99.320912 
1773.000000	99.327280 
1772.000000	99.330618 
1771.000000	99.329949 
1770.000000	99.328050 
1769.000000	99.327009 
1768.000000	99.326974 
1767.000000	99.326661 
1766.000000	99.325490 
1765.000000	99.325032 
1764.000000	99.326413 
1763.000000	99.328458 
1762.000000	99.328672 
1761.000000	99.326747 
1760.000000	99.325376 
1759.000000	99.326137 
1758.000000	99.327694 
1757.000000	99.327729 
1756.000000	99.325305 
1755.000000	99.321551 
1754.000000	99.317192 
1753.000000	99.311565 
1752.000000	99.306088 
1751.000000	99.305989 
1750.000000	99.313169 
1749.000000	99.321508 
1748.000000	99.324461 
1747.000000	99.321366 
1746.000000	99.315761 
1745.000000	99.310984 
1744.000000	99.308632 
1743.000000	99.308551 
1742.000000	99.309165 
1741.000000	99.309484 
1740.000000	99.309872 
1739.000000	99.311133 
1738.000000	99.313291 
1737.000000	99.314815 
1736.000000	99.313069 
1735.000000	99.306269 
1734.000000	99.296841 
1733.000000	99.291366 
1732.000000	99.294160 
1731.000000	99.302947 
1730.000000	99.312937 
1729.000000	99.319713 
1728.000000	99.321673 
1727.000000	99.320818 
1726.000000	99.319858 
1725.000000	99.319509 
1724.000000	99.318855 
1723.000000	99.318107 
1722.000000	99.319507 
1721.000000	99.325153 
1720.000000	99.334447 
1719.000000	99.343470 
1718.000000	99.345996 
1717.000000	99.339984 
1716.000000	99.330401 
1715.000000	99.321724 
1714.000000	99.316216 
1713.000000	99.314831 
1712.000000	99.315730 
1711.000000	99.316486 
1710.000000	99.316811 
1709.000000	99.317715 
1708.000000	99.318861 
1707.000000	99.318586 
1706.000000	99.317985 
1705.000000	99.320345 
1704.000000	99.324054 
1703.000000	99.321512 
1702.000000	99.308632 
1701.000000	99.294447 
1700.000000	99.294299 
1699.000000	99.305793 
1698.000000	99.317994 
1697.000000	99.326664 
1696.000000	99.331635 
1695.000000	99.332895 
1694.000000	99.333186 
1693.000000	99.333984 
1692.000000	99.332707 
1691.000000	99.328141 
1690.000000	99.323162 
1689.000000	99.321365 
1688.000000	99.321694 
1687.000000	99.319310 
1686.000000	99.312501 
1685.000000	99.306292 
1684.000000	99.305314 
1683.000000	99.307086 
1682.000000	99.310423 
1681.000000	99.313051 
1680.000000	99.314090 
1679.000000	99.314246 
1678.000000	99.314183 
1677.000000	99.314255 
1676.000000	99.314765 
1675.000000	99.315751 
1674.000000	99.316147 
1673.000000	99.315747 
1672.000000	99.314971 
1671.000000	99.315333 
1670.000000	99.317685 
1669.000000	99.319543 
1668.000000	99.319293 
1667.000000	99.317779 
1666.000000	99.313942 
1665.000000	99.306758 
1664.000000	99.299100 
1663.000000	99.296757 
1662.000000	99.301777 
1661.000000	99.310056 
1660.000000	99.316530 
1659.000000	99.319976 
1658.000000	99.321695 
1657.000000	99.320875 
1656.000000	99.313052 
1655.000000	99.297065 
1654.000000	99.283617 
1653.000000	99.281203 
1652.000000	99.282313 
1651.000000	99.287644 
1650.000000	99.290232 
1649.000000	99.286031 
1648.000000	99.278114 
1647.000000	99.271353 
1646.000000	99.267052 
1645.000000	99.267055 
1644.000000	99.271992 
1643.000000	99.278921 
1642.000000	99.284699 
1641.000000	99.288165 
1640.000000	99.289581 
1639.000000	99.289613 
1638.000000	99.289336 
1637.000000	99.290133 
1636.000000	99.290577 
1635.000000	99.287488 
1634.000000	99.286078 
1633.000000	99.290255 
1632.000000	99.296507 
1631.000000	99.301191 
1630.000000	99.303046 
1629.000000	99.302556 
1628.000000	99.301170 
1627.000000	99.300863 
1626.000000	99.302862 
1625.000000	99.307128 
1624.000000	99.312718 
1623.000000	99.317885 
1622.000000	99.321323 
1621.000000	99.323275 
1620.000000	99.323679 
1619.000000	99.322866 
1618.000000	99.322872 
1617.000000	99.324360 
1616.000000	99.324602 
1615.000000	99.323334 
1614.000000	99.321525 
1613.000000	99.318315 
1612.000000	99.313779 
1611.000000	99.308979 
1610.000000	99.304538 
1609.000000	99.300740 
1608.000000	99.298264 
1607.000000	99.297388 
1606.000000	99.296612 
1605.000000	99.294550 
1604.000000	99.292360 
1603.000000	99.292685 
1602.000000	99.296075 
1601.000000	99.300103 
1600.000000	99.302929 
1599.000000	99.305384 
1598.000000	99.308510 
1597.000000	99.311594 
1596.000000	99.313732 
1595.000000	99.315501 
1594.000000	99.317507 
1593.000000	99.318408 
1592.000000	99.316868 
1591.000000	99.314474 
1590.000000	99.314333 
1589.000000	99.316908 
1588.000000	99.319958 
1587.000000	99.322199 
1586.000000	99.323924 
1585.000000	99.324533 
1584.000000	99.322514 
1583.000000	99.317773 
1582.000000	99.312870 
1581.000000	99.310366 
1580.000000	99.310290 
1579.000000	99.311221 
1578.000000	99.312809 
1577.000000	99.314751 
1576.000000	99.314337 
1575.000000	99.312131 
1574.000000	99.312494 
1573.000000	99.313461 
1572.000000	99.311123 
1571.000000	99.307060 
1570.000000	99.306962 
1569.000000	99.311790 
1568.000000	99.316916 
1567.000000	99.318566 
1566.000000	99.316185 
1565.000000	99.312396 
1564.000000	99.310565 
1563.000000	99.311133 
1562.000000	99.311418 
1561.000000	99.308823 
1560.000000	99.306291 
1559.000000	99.306308 
1558.000000	99.299733 
1557.000000	99.297060 
1556.000000	99.301505 
1555.000000	99.305347 
1554.000000	99.304502 
1553.000000	99.299938 
1552.000000	99.295119 
1551.000000	99.292702 
1550.000000	99.293982 
1549.000000	99.297247 
1548.000000	99.299075 
1547.000000	99.297649 
1546.000000	99.293280 
1545.000000	99.288362 
1544.000000	99.284801 
1543.000000	99.282303 
1542.000000	99.282810 
1541.000000	99.290265 
1540.000000	99.297134 
1539.000000	99.293173 
1538.000000	99.287964 
1537.000000	99.287753 
1536.000000	99.288571 
1535.000000	99.288585 
1534.000000	99.291309 
1533.000000	99.297955 
1532.000000	99.303285 
1531.000000	99.303259 
1530.000000	99.299726 
1529.000000	99.297128 
1528.000000	99.297250 
1527.000000	99.298698 
1526.000000	99.299794 
1525.000000	99.300430 
1524.000000	99.300886 
1523.000000	99.302255 
1522.000000	99.308030 
1521.000000	99.318007 
1520.000000	99.323746 
1519.000000	99.320273 
1518.000000	99.311164 
1517.000000	99.304087 
1516.000000	99.302837 
1515.000000	99.304899 
1514.000000	99.307261 
1513.000000	99.308877 
1512.000000	99.309367 
1511.000000	99.308090 
1510.000000	99.304383 
1509.000000	99.300235 
1508.000000	99.303471 
1507.000000	99.318178 
1506.000000	99.326532 
1505.000000	99.323146 
1504.000000	99.319546 
1503.000000	99.318086 
1502.000000	99.318258 
1501.000000	99.320836 
1500.000000	99.326235 
1499.000000	99.333357 
1498.000000	99.340027 
1497.000000	99.345895 
1496.000000	99.351081 
1495.000000	99.352879 
1494.000000	99.348461 
1493.000000	99.337995 
1492.000000	99.324332 
1491.000000	99.312826 
1490.000000	99.307897 
1489.000000	99.307961 
1488.000000	99.306928 
1487.000000	99.302354 
1486.000000	99.298479 
1485.000000	99.298702 
1484.000000	99.301724 
1483.000000	99.304689 
1482.000000	99.305296 
1481.000000	99.302537 
1480.000000	99.296802 
1479.000000	99.289883 
1478.000000	99.284372 
1477.000000	99.282050 
1476.000000	99.281907 
1475.000000	99.280053 
1474.000000	99.276041 
1473.000000	99.275185 
1472.000000	99.279118 
1471.000000	99.281553 
1470.000000	99.279496 
1469.000000	99.276063 
1468.000000	99.274789 
1467.000000	99.276164 
1466.000000	99.278975 
1465.000000	99.282260 
1464.000000	99.284933 
1463.000000	99.286434 
1462.000000	99.287208 
1461.000000	99.288206 
1460.000000	99.289543 
1459.000000	99.290096 
1458.000000	99.287667 
1457.000000	99.281354 
1456.000000	99.274160 
1455.000000	99.270189 
1454.000000	99.269712 
1453.000000	99.271175 
1452.000000	99.272296 
1451.000000	99.271171 
1450.000000	99.269141 
1449.000000	99.270550 
1448.000000	99.277030 
1447.000000	99.283868 
1446.000000	99.286228 
1445.000000	99.284820 
1444.000000	99.282328 
1443.000000	99.279717 
1442.000000	99.277552 
1441.000000	99.277349 
1440.000000	99.280213 
1439.000000	99.285082 
1438.000000	99.288474 
1437.000000	99.287702 
1436.000000	99.283388 
1435.000000	99.277759 
1434.000000	99.273087 
1433.000000	99.271501 
1432.000000	99.273736 
1431.000000	99.278847 
1430.000000	99.283718 
1429.000000	99.285388 
1428.000000	99.283714 
1427.000000	99.280261 
1426.000000	99.276151 
1425.000000	99.271560 
1424.000000	99.267513 
1423.000000	99.264854 
1422.000000	99.261550 
1421.000000	99.255177 
1420.000000	99.246706 
1419.000000	99.240133 
1418.000000	99.234484 
1417.000000	99.225931 
1416.000000	99.215422 
1415.000000	99.205248 
1414.000000	99.195186 
1413.000000	99.183696 
1412.000000	99.171636 
1411.000000	99.162043 
1410.000000	99.155361 
1409.000000	99.149859 
1408.000000	99.145668 
1407.000000	99.144138 
1406.000000	99.145166 
1405.000000	99.148144 
1404.000000	99.154079 
1403.000000	99.162566 
1402.000000	99.169662 
1401.000000	99.172720 
1400.000000	99.173802 
1399.000000	99.176588 
1398.000000	99.178596 
1397.000000	99.172759 
1396.000000	99.157246 
1395.000000	99.140191 
1394.000000	99.133181 
1393.000000	99.140306 
1392.000000	99.158497 
1391.000000	99.181495 
1390.000000	99.202145 
1389.000000	99.214887 
1388.000000	99.218215 
1387.000000	99.214909 
1386.000000	99.208573 
1385.000000	99.202007 
1384.000000	99.197394 
1383.000000	99.195641 
1382.000000	99.195979 
1381.000000	99.197938 
1380.000000	99.202044 
1379.000000	99.208396 
1378.000000	99.215267 
1377.000000	99.220177 
1376.000000	99.222867 
1375.000000	99.226197 
1374.000000	99.232735 
1373.000000	99.240611 
1372.000000	99.246293 
1371.000000	99.250214 
1370.000000	99.256477 
1369.000000	99.266587 
1368.000000	99.277985 
1367.000000	99.287387 
1366.000000	99.293592 
1365.000000	99.297189 
1364.000000	99.298895 
1363.000000	99.299969 
1362.000000	99.302268 
1361.000000	99.305782 
1360.000000	99.308442 
1359.000000	99.309363 
1358.000000	99.310318 
1357.000000	99.313205 
1356.000000	99.317488 
1355.000000	99.321120 
1354.000000	99.323231 
1353.000000	99.324293 
1352.000000	99.323608 
1351.000000	99.319634 
1350.000000	99.314082 
1349.000000	99.310029 
1348.000000	99.308964 
1347.000000	99.310435 
1346.000000	99.314026 
1345.000000	99.319056 
1344.000000	99.323649 
1343.000000	99.326167 
1342.000000	99.327315 
1341.000000	99.328819 
1340.000000	99.330587 
1339.000000	99.330929 
1338.000000	99.329272 
1337.000000	99.327163 
1336.000000	99.326296 
1335.000000	99.326860 
1334.000000	99.328356 
1333.000000	99.330485 
1332.000000	99.332592 
1331.000000	99.333757 
1330.000000	99.333827 
1329.000000	99.333058 
1328.000000	99.331411 
1327.000000	99.329096 
1326.000000	99.327469 
1325.000000	99.327217 
1324.000000	99.328107 
1323.000000	99.329876 
1322.000000	99.332250 
1321.000000	99.333961 
1320.000000	99.333390 
1319.000000	99.330697 
1318.000000	99.328001 
1317.000000	99.326850 
1316.000000	99.326456 
1315.000000	99.325319 
1314.000000	99.323464 
1313.000000	99.322273 
1312.000000	99.322471 
1311.000000	99.323485 
1310.000000	99.324760 
1309.000000	99.326425 
1308.000000	99.328398 
1307.000000	99.329539 
1306.000000	99.328920 
1305.000000	99.326944 
1304.000000	99.325768 
1303.000000	99.327478 
1302.000000	99.332062 
1301.000000	99.337049 
1300.000000	99.339384 
1299.000000	99.337662 
1298.000000	99.332793 
1297.000000	99.327030 
1296.000000	99.322466 
1295.000000	99.320595 
1294.000000	99.322128 
1293.000000	99.326463 
1292.000000	99.331282 
1291.000000	99.333436 
1290.000000	99.331418 
1289.000000	99.327120 
1288.000000	99.324192 
1287.000000	99.324039 
1286.000000	99.323949 
1285.000000	99.320241 
1284.000000	99.313025 
1283.000000	99.306490 
1282.000000	99.304317 
1281.000000	99.305899 
1280.000000	99.307470 
1279.000000	99.305996 
1278.000000	99.300930 
1277.000000	99.293296 
1276.000000	99.284345 
1275.000000	99.275400 
1274.000000	99.267513 
1273.000000	99.260578 
1272.000000	99.253122 
1271.000000	99.243089 
1270.000000	99.228614 
1269.000000	99.208612 
1268.000000	99.183636 
1267.000000	99.156032 
1266.000000	99.128187 
1265.000000	99.101054 
1264.000000	99.075180 
1263.000000	99.052497 
1262.000000	99.035972 
1261.000000	99.027877 
1260.000000	99.029201 
1259.000000	99.040075 
1258.000000	99.059017 
1257.000000	99.082442 
1256.000000	99.106193 
1255.000000	99.127877 
1254.000000	99.147137 
1253.000000	99.163926 
1252.000000	99.177442 
1251.000000	99.187199 
1250.000000	99.194232 
1249.000000	99.200727 
1248.000000	99.208764 
1247.000000	99.218942 
1246.000000	99.228834 
1245.000000	99.233345 
1244.000000	99.228862 
1243.000000	99.218236 
1242.000000	99.210239 
1241.000000	99.212319 
1240.000000	99.224099 
1239.000000	99.238429 
1238.000000	99.248068 
1237.000000	99.250661 
1236.000000	99.248225 
1235.000000	99.243770 
1234.000000	99.238982 
1233.000000	99.234103 
1232.000000	99.229120 
1231.000000	99.224564 
1230.000000	99.220972 
1229.000000	99.217959 
1228.000000	99.214802 
1227.000000	99.212219 
1226.000000	99.212539 
1225.000000	99.216946 
1224.000000	99.223150 
1223.000000	99.227125 
1222.000000	99.227326 
1221.000000	99.226173 
1220.000000	99.227152 
1219.000000	99.231385 
1218.000000	99.237174 
1217.000000	99.241954 
1216.000000	99.244060 
1215.000000	99.243403 
1214.000000	99.241592 
1213.000000	99.241159 
1212.000000	99.243542 
1211.000000	99.247310 
1210.000000	99.249154 
1209.000000	99.247229 
1208.000000	99.242966 
1207.000000	99.239143 
1206.000000	99.236803 
1205.000000	99.234937 
1204.000000	99.232744 
1203.000000	99.230713 
1202.000000	99.229007 
1201.000000	99.226088 
1200.000000	99.220355 
1199.000000	99.212718 
1198.000000	99.206045 
1197.000000	99.202002 
1196.000000	99.199588 
1195.000000	99.196913 
1194.000000	99.193305 
1193.000000	99.189053 
1192.000000	99.184172 
1191.000000	99.178553 
1190.000000	99.172961 
1189.000000	99.168996 
1188.000000	99.167901 
1187.000000	99.169488 
1186.000000	99.171896 
1185.000000	99.172266 
1184.000000	99.168270 
1183.000000	99.159823 
1182.000000	99.149530 
1181.000000	99.140994 
1180.000000	99.136337 
1179.000000	99.135060 
1178.000000	99.134770 
1177.000000	99.132915 
1176.000000	99.128456 
1175.000000	99.122436 
1174.000000	99.116915 
1173.000000	99.113014 
1172.000000	99.110271 
1171.000000	99.107730 
1170.000000	99.104950 
1169.000000	99.101822 
1168.000000	99.098232 
1167.000000	99.094314 
1166.000000	99.090367 
1165.000000	99.086201 
1164.000000	99.081414 
1163.000000	99.076718 
1162.000000	99.074033 
1161.000000	99.074382 
1160.000000	99.076499 
1159.000000	99.078477 
1158.000000	99.080031 
1157.000000	99.081895 
1156.000000	99.083510 
1155.000000	99.082760 
1154.000000	99.078114 
1153.000000	99.070068 
1152.000000	99.060522 
1151.000000	99.051607 
1150.000000	99.044889 
1149.000000	99.040487 
1148.000000	99.036679 
1147.000000	99.031064 
1146.000000	99.022508 
1145.000000	99.011820 
1144.000000	99.000909 
1143.000000	98.991842 
1142.000000	98.985952 
1141.000000	98.982656 
1140.000000	98.979251 
1139.000000	98.972995 
1138.000000	98.963741 
1137.000000	98.953982 
1136.000000	98.946336 
1135.000000	98.941578 
1134.000000	98.938832 
1133.000000	98.936584 
1132.000000	98.933272 
1131.000000	98.927832 
1130.000000	98.920304 
1129.000000	98.911558 
1128.000000	98.902246 
1127.000000	98.892433 
1126.000000	98.882269 
1125.000000	98.872311 
1124.000000	98.862792 
1123.000000	98.852979 
1122.000000	98.841530 
1121.000000	98.827456 
1120.000000	98.810868 
1119.000000	98.793052 
1118.000000	98.775555 
1117.000000	98.758898 
1116.000000	98.742439 
1115.000000	98.725616 
1114.000000	98.708634 
1113.000000	98.691458 
1112.000000	98.673281 
1111.000000	98.654308 
1110.000000	98.637177 
1109.000000	98.624535 
1108.000000	98.615348 
1107.000000	98.605191 
1106.000000	98.591025 
1105.000000	98.574081 
1104.000000	98.557177 
1103.000000	98.541236 
1102.000000	98.526273 
1101.000000	98.513952 
1100.000000	98.506903 
1099.000000	98.504050 
1098.000000	98.501368 
1097.000000	98.496664 
1096.000000	98.491773 
1095.000000	98.488630 
1094.000000	98.485405 
1093.000000	98.478505 
1092.000000	98.466866 
1091.000000	98.451915 
1090.000000	98.434145 
1089.000000	98.412384 
1088.000000	98.386825 
1087.000000	98.360739 
1086.000000	98.338156 
1085.000000	98.320813 
1084.000000	98.307774 
1083.000000	98.296752 
1082.000000	98.285316 
1081.000000	98.272160 
1080.000000	98.258039 
1079.000000	98.244777 
1078.000000	98.233028 
1077.000000	98.222078 
1076.000000	98.212195 
1075.000000	98.205739 
1074.000000	98.204953 
1073.000000	98.209215 
1072.000000	98.214457 
1071.000000	98.214053 
1070.000000	98.200889 
1069.000000	98.172138 
1068.000000	98.134558 
1067.000000	98.103412 
1066.000000	98.092360 
1065.000000	98.102956 
1064.000000	98.124554 
1063.000000	98.143225 
1062.000000	98.149441 
1061.000000	98.139637 
1060.000000	98.115635 
1059.000000	98.085105 
1058.000000	98.059418 
1057.000000	98.046422 
1056.000000	98.044101 
1055.000000	98.042611 
1054.000000	98.033416 
1053.000000	98.016573 
1052.000000	97.999284 
1051.000000	97.987995 
1050.000000	97.982629 
1049.000000	97.978718 
1048.000000	97.973691 
1047.000000	97.969036 
1046.000000	97.966427 
1045.000000	97.964175 
1044.000000	97.959229 
1043.000000	97.951763 
1042.000000	97.945571 
1041.000000	97.943254 
1040.000000	97.942853 
1039.000000	97.940857 
1038.000000	97.937483 
1037.000000	97.936979 
1036.000000	97.943052 
1035.000000	97.955952 
1034.000000	97.973658 
1033.000000	97.992908 
1032.000000	98.007839 
1031.000000	98.010930 
1030.000000	97.999391 
1029.000000	97.980505 
1028.000000	97.967690 
1027.000000	97.969986 
1026.000000	97.985943 
1025.000000	98.007212 
1024.000000	98.025948 
1023.000000	98.038329 
1022.000000	98.043866 
1021.000000	98.044106 
1020.000000	98.041867 
1019.000000	98.040207 
1018.000000	98.041358 
1017.000000	98.046487 
1016.000000	98.056145 
1015.000000	98.070611 
1014.000000	98.089771 
1013.000000	98.112364 
1012.000000	98.135159 
1011.000000	98.154042 
1010.000000	98.167682 
1009.000000	98.180019 
1008.000000	98.197213 
1007.000000	98.221433 
1006.000000	98.248661 
1005.000000	98.273014 
1004.000000	98.292073 
1003.000000	98.307766 
1002.000000	98.323638 
1001.000000	98.342103 
1000.000000	98.363011 
999.000000	 98.383509 
998.000000	 98.399850 
997.000000	 98.410578 
996.000000	 98.418191 
995.000000	 98.427481 
994.000000	 98.442040 
993.000000	 98.461603 
992.000000	 98.481882 
991.000000	 98.497383 
990.000000	 98.505823 
989.000000	 98.509967 
988.000000	 98.514163 
987.000000	 98.519480 
986.000000	 98.523904 
985.000000	 98.527118 
984.000000	 98.532477 
983.000000	 98.543108 
982.000000	 98.558094 
981.000000	 98.574196 
980.000000	 98.589726 
979.000000	 98.604699 
978.000000	 98.618537 
977.000000	 98.630350 
976.000000	 98.641303 
975.000000	 98.654271 
974.000000	 98.670394 
973.000000	 98.687455 
972.000000	 98.702323 
971.000000	 98.713893 
970.000000	 98.723257 
969.000000	 98.732382 
968.000000	 98.743491 
967.000000	 98.758423 
966.000000	 98.776809 
965.000000	 98.795037 
964.000000	 98.808518 
963.000000	 98.815647 
962.000000	 98.819027 
961.000000	 98.822561 
960.000000	 98.828085 
959.000000	 98.835065 
958.000000	 98.842372 
957.000000	 98.849284 
956.000000	 98.855486 
955.000000	 98.861553 
954.000000	 98.869164 
953.000000	 98.879299 
952.000000	 98.889956 
951.000000	 98.897196 
950.000000	 98.899270 
949.000000	 98.898656 
948.000000	 98.899292 
947.000000	 98.903031 
946.000000	 98.909638 
945.000000	 98.918719 
944.000000	 98.929616 
943.000000	 98.939865 
942.000000	 98.945917 
941.000000	 98.946140 
940.000000	 98.942256 
939.000000	 98.937641 
938.000000	 98.934920 
937.000000	 98.935027 
936.000000	 98.937331 
935.000000	 98.940002 
934.000000	 98.940905 
933.000000	 98.938973 
932.000000	 98.935088 
931.000000	 98.931839 
930.000000	 98.932295 
929.000000	 98.938126 
928.000000	 98.948112 
927.000000	 98.958773 
926.000000	 98.967131 
925.000000	 98.972566 
924.000000	 98.975460 
923.000000	 98.974939 
922.000000	 98.969522 
921.000000	 98.959835 
920.000000	 98.949180 
919.000000	 98.940962 
918.000000	 98.936300 
917.000000	 98.934303 
916.000000	 98.933732 
915.000000	 98.933955 
914.000000	 98.935054 
913.000000	 98.937518 
912.000000	 98.941260 
911.000000	 98.944664 
910.000000	 98.945373 
909.000000	 98.942511 
908.000000	 98.937482 
907.000000	 98.932152 
906.000000	 98.927034 
905.000000	 98.922136 
904.000000	 98.919113 
903.000000	 98.921222 
902.000000	 98.930310 
901.000000	 98.944214 
900.000000	 98.957940 
899.000000	 98.967679 
898.000000	 98.973264 
897.000000	 98.976389 
896.000000	 98.977218 
895.000000	 98.974527 
894.000000	 98.969529 
893.000000	 98.967474 
892.000000	 98.973544 
891.000000	 98.987703 
890.000000	 99.005096 
889.000000	 99.021307 
888.000000	 99.035388 
887.000000	 99.047527 
886.000000	 99.055957 
885.000000	 99.058004 
884.000000	 99.053785 
883.000000	 99.047501 
882.000000	 99.044261 
881.000000	 99.045753 
880.000000	 99.049746 
879.000000	 99.054032 
878.000000	 99.059523 
877.000000	 99.067513 
876.000000	 99.074379 
875.000000	 99.072499 
874.000000	 99.058902 
873.000000	 99.041207 
872.000000	 99.031916 
871.000000	 99.036824 
870.000000	 99.050374 
869.000000	 99.061945 
868.000000	 99.065174 
867.000000	 99.061862 
866.000000	 99.059164 
865.000000	 99.063350 
864.000000	 99.074946 
863.000000	 99.089268 
862.000000	 99.101532 
861.000000	 99.110320 
860.000000	 99.115751 
859.000000	 99.117333 
858.000000	 99.116684 
857.000000	 99.120189 
856.000000	 99.133933 
855.000000	 99.155258 
854.000000	 99.173282 
853.000000	 99.179648 
852.000000	 99.176067 
851.000000	 99.170010 
850.000000	 99.166171 
849.000000	 99.164458 
848.000000	 99.163905 
847.000000	 99.165043 
846.000000	 99.168700 
845.000000	 99.174783 
844.000000	 99.182523 
843.000000	 99.190587 
842.000000	 99.196753 
841.000000	 99.198508 
840.000000	 99.194831 
839.000000	 99.187782 
838.000000	 99.181849 
837.000000	 99.180065 
836.000000	 99.180142 
835.000000	 99.176483 
834.000000	 99.167690 
833.000000	 99.159359 
832.000000	 99.155632 
831.000000	 99.150343 
830.000000	 99.133428 
829.000000	 99.107282 
828.000000	 99.089058 
827.000000	 99.091388 
826.000000	 99.105954 
825.000000	 99.113461 
824.000000	 99.106461 
823.000000	 99.093714 
822.000000	 99.084052 
821.000000	 99.076003 
820.000000	 99.064442 
819.000000	 99.049295 
818.000000	 99.035008 
817.000000	 99.025797 
816.000000	 99.022638 
815.000000	 99.021493 
814.000000	 99.013927 
813.000000	 98.993493 
812.000000	 98.963304 
811.000000	 98.934505 
810.000000	 98.915450 
809.000000	 98.904075 
808.000000	 98.891678 
807.000000	 98.871165 
806.000000	 98.840258 
805.000000	 98.799957 
804.000000	 98.753797 
803.000000	 98.708570 
802.000000	 98.672773 
801.000000	 98.652405 
800.000000	 98.647519 
799.000000	 98.652388 
798.000000	 98.659813 
797.000000	 98.666728 
796.000000	 98.675465 
795.000000	 98.689445 
794.000000	 98.709793 
793.000000	 98.736921 
792.000000	 98.771054 
791.000000	 98.807182 
790.000000	 98.833347 
789.000000	 98.841001 
788.000000	 98.836432 
787.000000	 98.835464 
786.000000	 98.845990 
785.000000	 98.861431 
784.000000	 98.872801 
783.000000	 98.880285 
782.000000	 98.888999 
781.000000	 98.899251 
780.000000	 98.906717 
779.000000	 98.909095 
778.000000	 98.907748 
777.000000	 98.905267 
776.000000	 98.905782 
775.000000	 98.914949 
774.000000	 98.934206 
773.000000	 98.956563 
772.000000	 98.973198 
771.000000	 98.983119 
770.000000	 98.991262 
769.000000	 98.998285 
768.000000	 98.999155 
767.000000	 98.993252 
766.000000	 98.989206 
765.000000	 98.995412 
764.000000	 99.009479 
763.000000	 99.021027 
762.000000	 99.022991 
761.000000	 99.017066 
760.000000	 99.009574 
759.000000	 99.005275 
758.000000	 99.004630 
757.000000	 99.004576 
756.000000	 99.001966 
755.000000	 98.997871 
754.000000	 98.998110 
753.000000	 99.008008 
752.000000	 99.026939 
751.000000	 99.048516 
750.000000	 99.065191 
749.000000	 99.071863 
748.000000	 99.067376 
747.000000	 99.056103 
746.000000	 99.047563 
745.000000	 99.049800 
744.000000	 99.060646 
743.000000	 99.068187 
742.000000	 99.063269 
741.000000	 99.050270 
740.000000	 99.042004 
739.000000	 99.044881 
738.000000	 99.053194 
737.000000	 99.058435 
736.000000	 99.059402 
735.000000	 99.060485 
734.000000	 99.064387 
733.000000	 99.071016 
732.000000	 99.080538 
731.000000	 99.091384 
730.000000	 99.096854 
729.000000	 99.091044 
728.000000	 99.078162 
727.000000	 99.070038 
726.000000	 99.072898 
725.000000	 99.080741 
724.000000	 99.084351 
723.000000	 99.082735 
722.000000	 99.081759 
721.000000	 99.084165 
720.000000	 99.085182 
719.000000	 99.078117 
718.000000	 99.061778 
717.000000	 99.041776 
716.000000	 99.026500 
715.000000	 99.021214 
714.000000	 99.023707 
713.000000	 99.026424 
712.000000	 99.024402 
711.000000	 99.020423 
710.000000	 99.020847 
709.000000	 99.027520 
708.000000	 99.035286 
707.000000	 99.036809 
706.000000	 99.029859 
705.000000	 99.019234 
704.000000	 99.011261 
703.000000	 99.007834 
702.000000	 99.005373 
701.000000	 98.999894 
700.000000	 98.992009 
699.000000	 98.983751 
698.000000	 98.973238 
697.000000	 98.955579 
696.000000	 98.929207 
695.000000	 98.900129 
694.000000	 98.878084 
693.000000	 98.871938 
692.000000	 98.887483 
691.000000	 98.921193 
690.000000	 98.957701 
689.000000	 98.979871 
688.000000	 98.984556 
687.000000	 98.983645 
686.000000	 98.985149 
685.000000	 98.983919 
684.000000	 98.975493 
683.000000	 98.966394 
682.000000	 98.965353 
681.000000	 98.973484 
680.000000	 98.988564 
679.000000	 99.008297 
678.000000	 99.022051 
677.000000	 99.014588 
676.000000	 98.985298 
675.000000	 98.952328 
674.000000	 98.933193 
673.000000	 98.926421 
672.000000	 98.913788 
671.000000	 98.878318 
670.000000	 98.816106 
669.000000	 98.745037 
668.000000	 98.708508 
667.000000	 98.730297 
666.000000	 98.791735 
665.000000	 98.869653 
664.000000	 98.937274 
663.000000	 98.971470 
662.000000	 98.969965 
661.000000	 98.957689 
660.000000	 98.959817 
659.000000	 98.974519 
658.000000	 98.979869 
657.000000	 98.963124 
656.000000	 98.932183 
655.000000	 98.904210 
654.000000	 98.894498 
653.000000	 98.903449 
652.000000	 98.908329 
651.000000	 98.885536 
650.000000	 98.845961 

