4000.000000	99.332301 
3999.000000	99.331048 
3998.000000	99.329504 
3997.000000	99.328731 
3996.000000	99.328914 
3995.000000	99.329387 
3994.000000	99.329488 
3993.000000	99.329203 
3992.000000	99.328798 
3991.000000	99.328214 
3990.000000	99.327136 
3989.000000	99.325525 
3988.000000	99.323805 
3987.000000	99.322558 
3986.000000	99.322269 
3985.000000	99.323215 
3984.000000	99.325229 
3983.000000	99.327679 
3982.000000	99.329885 
3981.000000	99.331595 
3980.000000	99.332939 
3979.000000	99.333947 
3978.000000	99.334324 
3977.000000	99.333746 
3976.000000	99.332227 
3975.000000	99.330109 
3974.000000	99.327827 
3973.000000	99.325764 
3972.000000	99.324257 
3971.000000	99.323576 
3970.000000	99.323874 
3969.000000	99.325059 
3968.000000	99.326641 
3967.000000	99.327855 
3966.000000	99.328121 
3965.000000	99.327445 
3964.000000	99.326325 
3963.000000	99.325356 
3962.000000	99.324870 
3961.000000	99.324806 
3960.000000	99.324776 
3959.000000	99.324280 
3958.000000	99.323179 
3957.000000	99.321943 
3956.000000	99.321216 
3955.000000	99.321130 
3954.000000	99.321249 
3953.000000	99.321171 
3952.000000	99.320900 
3951.000000	99.320611 
3950.000000	99.320277 
3949.000000	99.319658 
3948.000000	99.318670 
3947.000000	99.317661 
3946.000000	99.317195 
3945.000000	99.317452 
3944.000000	99.317963 
3943.000000	99.317970 
3942.000000	99.317221 
3941.000000	99.316240 
3940.000000	99.315654 
3939.000000	99.315417 
3938.000000	99.315080 
3937.000000	99.314494 
3936.000000	99.313964 
3935.000000	99.313788 
3934.000000	99.313940 
3933.000000	99.314233 
3932.000000	99.314527 
3931.000000	99.314744 
3930.000000	99.314815 
3929.000000	99.314675 
3928.000000	99.314354 
3927.000000	99.313921 
3926.000000	99.313322 
3925.000000	99.312537 
3924.000000	99.311738 
3923.000000	99.311160 
3922.000000	99.310780 
3921.000000	99.310412 
3920.000000	99.310043 
3919.000000	99.309808 
3918.000000	99.309711 
3917.000000	99.309618 
3916.000000	99.309455 
3915.000000	99.309267 
3914.000000	99.309084 
3913.000000	99.308883 
3912.000000	99.308642 
3911.000000	99.308366 
3910.000000	99.308072 
3909.000000	99.307770 
3908.000000	99.307467 
3907.000000	99.307174 
3906.000000	99.306894 
3905.000000	99.306625 
3904.000000	99.306362 
3903.000000	99.306104 
3902.000000	99.305853 
3901.000000	99.305607 
3900.000000	99.305355 
3899.000000	99.305081 
3898.000000	99.304777 
3897.000000	99.304444 
3896.000000	99.304094 
3895.000000	99.303737 
3894.000000	99.303377 
3893.000000	99.303017 
3892.000000	99.302658 
3891.000000	99.302299 
3890.000000	99.301940 
3889.000000	99.301587 
3888.000000	99.301243 
3887.000000	99.300907 
3886.000000	99.300573 
3885.000000	99.300242 
3884.000000	99.299919 
3883.000000	99.299608 
3882.000000	99.299303 
3881.000000	99.298993 
3880.000000	99.298670 
3879.000000	99.298331 
3878.000000	99.297990 
3877.000000	99.297665 
3876.000000	99.297349 
3875.000000	99.297014 
3874.000000	99.296631 
3873.000000	99.296230 
3872.000000	99.295885 
3871.000000	99.295605 
3870.000000	99.295279 
3869.000000	99.294869 
3868.000000	99.294596 
3867.000000	99.294632 
3866.000000	99.294792 
3865.000000	99.294791 
3864.000000	99.294632 
3863.000000	99.294486 
3862.000000	99.294429 
3861.000000	99.294346 
3860.000000	99.294117 
3859.000000	99.293680 
3858.000000	99.292967 
3857.000000	99.292085 
3856.000000	99.291505 
3855.000000	99.291771 
3854.000000	99.292691 
3853.000000	99.293184 
3852.000000	99.293334 
3851.000000	99.294102 
3850.000000	99.295235 
3849.000000	99.295983 
3848.000000	99.296294 
3847.000000	99.296424 
3846.000000	99.296530 
3845.000000	99.296631 
3844.000000	99.296728 
3843.000000	99.296832 
3842.000000	99.296961 
3841.000000	99.297133 
3840.000000	99.297342 
3839.000000	99.297572 
3838.000000	99.297806 
3837.000000	99.298046 
3836.000000	99.298297 
3835.000000	99.298559 
3834.000000	99.298828 
3833.000000	99.299109 
3832.000000	99.299401 
3831.000000	99.299696 
3830.000000	99.299987 
3829.000000	99.300272 
3828.000000	99.300548 
3827.000000	99.300817 
3826.000000	99.301078 
3825.000000	99.301337 
3824.000000	99.301606 
3823.000000	99.301895 
3822.000000	99.302201 
3821.000000	99.302512 
3820.000000	99.302824 
3819.000000	99.303147 
3818.000000	99.303485 
3817.000000	99.303828 
3816.000000	99.304162 
3815.000000	99.304484 
3814.000000	99.304794 
3813.000000	99.305087 
3812.000000	99.305348 
3811.000000	99.305571 
3810.000000	99.305769 
3809.000000	99.305952 
3808.000000	99.306124 
3807.000000	99.306288 
3806.000000	99.306453 
3805.000000	99.306633 
3804.000000	99.306838 
3803.000000	99.307066 
3802.000000	99.307307 
3801.000000	99.307558 
3800.000000	99.307828 
3799.000000	99.308126 
3798.000000	99.308448 
3797.000000	99.308777 
3796.000000	99.309106 
3795.000000	99.309435 
3794.000000	99.309767 
3793.000000	99.310096 
3792.000000	99.310414 
3791.000000	99.310716 
3790.000000	99.310981 
3789.000000	99.311180 
3788.000000	99.311331 
3787.000000	99.311537 
3786.000000	99.311907 
3785.000000	99.312369 
3784.000000	99.312727 
3783.000000	99.312937 
3782.000000	99.313161 
3781.000000	99.313421 
3780.000000	99.313460 
3779.000000	99.313022 
3778.000000	99.312236 
3777.000000	99.311556 
3776.000000	99.311090 
3775.000000	99.310598 
3774.000000	99.310052 
3773.000000	99.309740 
3772.000000	99.309740 
3771.000000	99.309584 
3770.000000	99.308741 
3769.000000	99.307446 
3768.000000	99.306624 
3767.000000	99.306684 
3766.000000	99.307017 
3765.000000	99.306855 
3764.000000	99.306243 
3763.000000	99.305875 
3762.000000	99.306036 
3761.000000	99.306344 
3760.000000	99.306497 
3759.000000	99.306434 
3758.000000	99.305955 
3757.000000	99.304822 
3756.000000	99.303115 
3755.000000	99.301301 
3754.000000	99.299728 
3753.000000	99.298720 
3752.000000	99.298577 
3751.000000	99.298577 
3750.000000	99.297059 
3749.000000	99.293994 
3748.000000	99.291516 
3747.000000	99.291063 
3746.000000	99.292308 
3745.000000	99.293529 
3744.000000	99.292109 
3743.000000	99.289655 
3742.000000	99.290715 
3741.000000	99.293412 
3740.000000	99.293248 
3739.000000	99.290949 
3738.000000	99.289610 
3737.000000	99.290064 
3736.000000	99.290411 
3735.000000	99.289605 
3734.000000	99.289060 
3733.000000	99.289815 
3732.000000	99.290838 
3731.000000	99.291615 
3730.000000	99.293208 
3729.000000	99.295695 
3728.000000	99.297735 
3727.000000	99.298833 
3726.000000	99.299958 
3725.000000	99.302115 
3724.000000	99.304640 
3723.000000	99.305534 
3722.000000	99.304208 
3721.000000	99.302314 
3720.000000	99.301791 
3719.000000	99.302586 
3718.000000	99.302654 
3717.000000	99.300152 
3716.000000	99.295029 
3715.000000	99.288691 
3714.000000	99.282649 
3713.000000	99.278251 
3712.000000	99.275917 
3711.000000	99.274792 
3710.000000	99.274610 
3709.000000	99.275796 
3708.000000	99.277584 
3707.000000	99.278425 
3706.000000	99.277595 
3705.000000	99.275602 
3704.000000	99.273443 
3703.000000	99.271915 
3702.000000	99.271080 
3701.000000	99.270508 
3700.000000	99.270306 
3699.000000	99.270599 
3698.000000	99.270377 
3697.000000	99.268479 
3696.000000	99.265287 
3695.000000	99.262325 
3694.000000	99.260356 
3693.000000	99.258779 
3692.000000	99.256950 
3691.000000	99.254914 
3690.000000	99.252760 
3689.000000	99.250228 
3688.000000	99.247666 
3687.000000	99.246335 
3686.000000	99.246502 
3685.000000	99.246711 
3684.000000	99.245680 
3683.000000	99.243593 
3682.000000	99.241250 
3681.000000	99.238898 
3680.000000	99.236149 
3679.000000	99.233031 
3678.000000	99.230344 
3677.000000	99.228721 
3676.000000	99.227508 
3675.000000	99.225337 
3674.000000	99.223116 
3673.000000	99.222620 
3672.000000	99.223208 
3671.000000	99.223549 
3670.000000	99.223185 
3669.000000	99.222041 
3668.000000	99.220821 
3667.000000	99.219978 
3666.000000	99.218985 
3665.000000	99.217594 
3664.000000	99.216126 
3663.000000	99.214822 
3662.000000	99.213546 
3661.000000	99.212054 
3660.000000	99.210411 
3659.000000	99.209030 
3658.000000	99.208159 
3657.000000	99.207367 
3656.000000	99.205852 
3655.000000	99.203692 
3654.000000	99.201879 
3653.000000	99.200719 
3652.000000	99.199861 
3651.000000	99.199224 
3650.000000	99.198516 
3649.000000	99.196940 
3648.000000	99.194703 
3647.000000	99.193109 
3646.000000	99.192824 
3645.000000	99.193457 
3644.000000	99.194206 
3643.000000	99.194510 
3642.000000	99.194285 
3641.000000	99.193848 
3640.000000	99.193637 
3639.000000	99.193899 
3638.000000	99.194536 
3637.000000	99.195313 
3636.000000	99.195785 
3635.000000	99.195205 
3634.000000	99.193028 
3633.000000	99.189660 
3632.000000	99.186496 
3631.000000	99.184903 
3630.000000	99.185402 
3629.000000	99.186465 
3628.000000	99.186017 
3627.000000	99.185563 
3626.000000	99.186922 
3625.000000	99.188752 
3624.000000	99.189643 
3623.000000	99.189732 
3622.000000	99.189625 
3621.000000	99.189713 
3620.000000	99.190101 
3619.000000	99.190619 
3618.000000	99.191247 
3617.000000	99.192438 
3616.000000	99.194184 
3615.000000	99.195669 
3614.000000	99.196099 
3613.000000	99.195304 
3612.000000	99.193979 
3611.000000	99.193290 
3610.000000	99.193993 
3609.000000	99.196040 
3608.000000	99.198693 
3607.000000	99.201071 
3606.000000	99.202792 
3605.000000	99.203879 
3604.000000	99.204527 
3603.000000	99.205130 
3602.000000	99.205928 
3601.000000	99.206890 
3600.000000	99.208181 
3599.000000	99.210248 
3598.000000	99.213062 
3597.000000	99.215853 
3596.000000	99.217819 
3595.000000	99.218605 
3594.000000	99.218434 
3593.000000	99.218143 
3592.000000	99.218772 
3591.000000	99.220715 
3590.000000	99.223540 
3589.000000	99.226031 
3588.000000	99.226501 
3587.000000	99.224304 
3586.000000	99.221239 
3585.000000	99.219760 
3584.000000	99.220132 
3583.000000	99.221152 
3582.000000	99.221960 
3581.000000	99.222334 
3580.000000	99.222300 
3579.000000	99.221965 
3578.000000	99.221465 
3577.000000	99.220945 
3576.000000	99.220642 
3575.000000	99.220704 
3574.000000	99.220998 
3573.000000	99.221116 
3572.000000	99.220724 
3571.000000	99.219888 
3570.000000	99.219084 
3569.000000	99.218805 
3568.000000	99.219011 
3567.000000	99.219160 
3566.000000	99.219193 
3565.000000	99.219817 
3564.000000	99.221053 
3563.000000	99.221966 
3562.000000	99.221940 
3561.000000	99.221158 
3560.000000	99.220182 
3559.000000	99.219479 
3558.000000	99.219173 
3557.000000	99.219072 
3556.000000	99.218953 
3555.000000	99.218786 
3554.000000	99.218576 
3553.000000	99.218153 
3552.000000	99.217291 
3551.000000	99.216058 
3550.000000	99.214783 
3549.000000	99.213746 
3548.000000	99.213096 
3547.000000	99.212918 
3546.000000	99.213133 
3545.000000	99.213535 
3544.000000	99.213902 
3543.000000	99.214062 
3542.000000	99.213959 
3541.000000	99.213684 
3540.000000	99.213445 
3539.000000	99.213398 
3538.000000	99.213497 
3537.000000	99.213531 
3536.000000	99.213334 
3535.000000	99.212931 
3534.000000	99.212454 
3533.000000	99.212029 
3532.000000	99.211698 
3531.000000	99.211440 
3530.000000	99.211209 
3529.000000	99.210968 
3528.000000	99.210707 
3527.000000	99.210435 
3526.000000	99.210161 
3525.000000	99.209882 
3524.000000	99.209602 
3523.000000	99.209319 
3522.000000	99.209034 
3521.000000	99.208750 
3520.000000	99.208473 
3519.000000	99.208209 
3518.000000	99.207962 
3517.000000	99.207731 
3516.000000	99.207510 
3515.000000	99.207292 
3514.000000	99.207069 
3513.000000	99.206838 
3512.000000	99.206602 
3511.000000	99.206361 
3510.000000	99.206118 
3509.000000	99.205875 
3508.000000	99.205631 
3507.000000	99.205377 
3506.000000	99.205104 
3505.000000	99.204800 
3504.000000	99.204464 
3503.000000	99.204102 
3502.000000	99.203728 
3501.000000	99.203353 
3500.000000	99.202978 
3499.000000	99.202595 
3498.000000	99.202194 
3497.000000	99.201773 
3496.000000	99.201337 
3495.000000	99.200894 
3494.000000	99.200446 
3493.000000	99.199994 
3492.000000	99.199536 
3491.000000	99.199070 
3490.000000	99.198601 
3489.000000	99.198132 
3488.000000	99.197665 
3487.000000	99.197199 
3486.000000	99.196730 
3485.000000	99.196257 
3484.000000	99.195778 
3483.000000	99.195289 
3482.000000	99.194786 
3481.000000	99.194267 
3480.000000	99.193734 
3479.000000	99.193190 
3478.000000	99.192638 
3477.000000	99.192076 
3476.000000	99.191503 
3475.000000	99.190916 
3474.000000	99.190317 
3473.000000	99.189711 
3472.000000	99.189104 
3471.000000	99.188507 
3470.000000	99.187930 
3469.000000	99.187371 
3468.000000	99.186819 
3467.000000	99.186261 
3466.000000	99.185667 
3465.000000	99.184995 
3464.000000	99.184222 
3463.000000	99.183354 
3462.000000	99.182425 
3461.000000	99.181503 
3460.000000	99.180699 
3459.000000	99.180163 
3458.000000	99.179963 
3457.000000	99.179949 
3456.000000	99.179847 
3455.000000	99.179448 
3454.000000	99.178752 
3453.000000	99.177965 
3452.000000	99.177336 
3451.000000	99.176980 
3450.000000	99.176822 
3449.000000	99.176675 
3448.000000	99.176359 
3447.000000	99.175837 
3446.000000	99.175223 
3445.000000	99.174678 
3444.000000	99.174255 
3443.000000	99.173876 
3442.000000	99.173442 
3441.000000	99.172945 
3440.000000	99.172461 
3439.000000	99.172063 
3438.000000	99.171748 
3437.000000	99.171457 
3436.000000	99.171136 
3435.000000	99.170782 
3434.000000	99.170433 
3433.000000	99.170116 
3432.000000	99.169823 
3431.000000	99.169534 
3430.000000	99.169239 
3429.000000	99.168937 
3428.000000	99.168627 
3427.000000	99.168308 
3426.000000	99.167991 
3425.000000	99.167699 
3424.000000	99.167457 
3423.000000	99.167268 
3422.000000	99.167100 
3421.000000	99.166909 
3420.000000	99.166670 
3419.000000	99.166403 
3418.000000	99.166161 
3417.000000	99.165993 
3416.000000	99.165903 
3415.000000	99.165805 
3414.000000	99.165583 
3413.000000	99.165186 
3412.000000	99.164693 
3411.000000	99.164273 
3410.000000	99.164044 
3409.000000	99.164031 
3408.000000	99.164180 
3407.000000	99.164359 
3406.000000	99.164408 
3405.000000	99.164247 
3404.000000	99.163978 
3403.000000	99.163828 
3402.000000	99.163942 
3401.000000	99.164248 
3400.000000	99.164528 
3399.000000	99.164601 
3398.000000	99.164469 
3397.000000	99.164290 
3396.000000	99.164181 
3395.000000	99.164075 
3394.000000	99.163830 
3393.000000	99.163484 
3392.000000	99.163276 
3391.000000	99.163348 
3390.000000	99.163542 
3389.000000	99.163604 
3388.000000	99.163487 
3387.000000	99.163331 
3386.000000	99.163233 
3385.000000	99.163175 
3384.000000	99.163143 
3383.000000	99.163132 
3382.000000	99.163023 
3381.000000	99.162613 
3380.000000	99.161850 
3379.000000	99.160970 
3378.000000	99.160363 
3377.000000	99.160276 
3376.000000	99.160695 
3375.000000	99.161387 
3374.000000	99.162042 
3373.000000	99.162453 
3372.000000	99.162606 
3371.000000	99.162601 
3370.000000	99.162530 
3369.000000	99.162439 
3368.000000	99.162370 
3367.000000	99.162355 
3366.000000	99.162375 
3365.000000	99.162370 
3364.000000	99.162343 
3363.000000	99.162382 
3362.000000	99.162551 
3361.000000	99.162792 
3360.000000	99.162982 
3359.000000	99.163079 
3358.000000	99.163167 
3357.000000	99.163360 
3356.000000	99.163680 
3355.000000	99.164034 
3354.000000	99.164304 
3353.000000	99.164453 
3352.000000	99.164530 
3351.000000	99.164634 
3350.000000	99.164831 
3349.000000	99.165129 
3348.000000	99.165492 
3347.000000	99.165856 
3346.000000	99.166165 
3345.000000	99.166395 
3344.000000	99.166568 
3343.000000	99.166734 
3342.000000	99.166922 
3341.000000	99.167125 
3340.000000	99.167329 
3339.000000	99.167542 
3338.000000	99.167777 
3337.000000	99.168031 
3336.000000	99.168285 
3335.000000	99.168533 
3334.000000	99.168791 
3333.000000	99.169074 
3332.000000	99.169386 
3331.000000	99.169708 
3330.000000	99.170021 
3329.000000	99.170317 
3328.000000	99.170609 
3327.000000	99.170913 
3326.000000	99.171229 
3325.000000	99.171540 
3324.000000	99.171830 
3323.000000	99.172103 
3322.000000	99.172372 
3321.000000	99.172636 
3320.000000	99.172881 
3319.000000	99.173097 
3318.000000	99.173304 
3317.000000	99.173530 
3316.000000	99.173789 
3315.000000	99.174066 
3314.000000	99.174325 
3313.000000	99.174544 
3312.000000	99.174730 
3311.000000	99.174904 
3310.000000	99.175087 
3309.000000	99.175297 
3308.000000	99.175541 
3307.000000	99.175810 
3306.000000	99.176090 
3305.000000	99.176357 
3304.000000	99.176556 
3303.000000	99.176613 
3302.000000	99.176520 
3301.000000	99.176397 
3300.000000	99.176444 
3299.000000	99.176784 
3298.000000	99.177369 
3297.000000	99.178026 
3296.000000	99.178594 
3295.000000	99.179011 
3294.000000	99.179305 
3293.000000	99.179561 
3292.000000	99.179875 
3291.000000	99.180281 
3290.000000	99.180710 
3289.000000	99.181021 
3288.000000	99.181109 
3287.000000	99.180999 
3286.000000	99.180860 
3285.000000	99.180876 
3284.000000	99.181088 
3283.000000	99.181381 
3282.000000	99.181627 
3281.000000	99.181795 
3280.000000	99.181900 
3279.000000	99.181920 
3278.000000	99.181886 
3277.000000	99.182013 
3276.000000	99.182580 
3275.000000	99.183591 
3274.000000	99.184620 
3273.000000	99.185066 
3272.000000	99.184557 
3271.000000	99.183136 
3270.000000	99.181300 
3269.000000	99.179857 
3268.000000	99.179517 
3267.000000	99.180493 
3266.000000	99.182423 
3265.000000	99.184642 
3264.000000	99.186600 
3263.000000	99.188038 
3262.000000	99.188971 
3261.000000	99.189618 
3260.000000	99.190185 
3259.000000	99.190589 
3258.000000	99.190546 
3257.000000	99.189993 
3256.000000	99.189310 
3255.000000	99.188995 
3254.000000	99.189227 
3253.000000	99.189843 
3252.000000	99.190567 
3251.000000	99.191126 
3250.000000	99.191271 
3249.000000	99.190965 
3248.000000	99.190560 
3247.000000	99.190568 
3246.000000	99.191158 
3245.000000	99.191998 
3244.000000	99.192642 
3243.000000	99.193008 
3242.000000	99.193417 
3241.000000	99.194230 
3240.000000	99.195475 
3239.000000	99.196736 
3238.000000	99.197437 
3237.000000	99.197332 
3236.000000	99.196714 
3235.000000	99.196178 
3234.000000	99.196127 
3233.000000	99.196574 
3232.000000	99.197354 
3231.000000	99.198319 
3230.000000	99.199321 
3229.000000	99.200171 
3228.000000	99.200737 
3227.000000	99.200994 
3226.000000	99.200944 
3225.000000	99.200636 
3224.000000	99.200296 
3223.000000	99.200245 
3222.000000	99.200568 
3221.000000	99.200968 
3220.000000	99.201095 
3219.000000	99.200973 
3218.000000	99.200953 
3217.000000	99.201268 
3216.000000	99.201794 
3215.000000	99.202260 
3214.000000	99.202559 
3213.000000	99.202827 
3212.000000	99.203313 
3211.000000	99.204246 
3210.000000	99.205744 
3209.000000	99.207692 
3208.000000	99.209621 
3207.000000	99.210860 
3206.000000	99.211014 
3205.000000	99.210387 
3204.000000	99.209882 
3203.000000	99.210267 
3202.000000	99.211533 
3201.000000	99.213048 
3200.000000	99.214254 
3199.000000	99.215084 
3198.000000	99.215771 
3197.000000	99.216565 
3196.000000	99.217681 
3195.000000	99.219189 
3194.000000	99.220703 
3193.000000	99.221418 
3192.000000	99.220759 
3191.000000	99.219030 
3190.000000	99.217330 
3189.000000	99.216706 
3188.000000	99.217433 
3187.000000	99.219018 
3186.000000	99.220615 
3185.000000	99.221561 
3184.000000	99.221684 
3183.000000	99.221228 
3182.000000	99.220531 
3181.000000	99.219781 
3180.000000	99.219077 
3179.000000	99.218607 
3178.000000	99.218576 
3177.000000	99.218934 
3176.000000	99.219331 
3175.000000	99.219486 
3174.000000	99.219595 
3173.000000	99.220219 
3172.000000	99.221695 
3171.000000	99.223670 
3170.000000	99.225369 
3169.000000	99.226423 
3168.000000	99.227270 
3167.000000	99.228548 
3166.000000	99.230193 
3165.000000	99.231430 
3164.000000	99.231698 
3163.000000	99.231258 
3162.000000	99.230764 
3161.000000	99.230510 
3160.000000	99.230414 
3159.000000	99.230467 
3158.000000	99.230760 
3157.000000	99.231139 
3156.000000	99.231221 
3155.000000	99.230855 
3154.000000	99.230372 
3153.000000	99.230271 
3152.000000	99.230713 
3151.000000	99.231403 
3150.000000	99.231856 
3149.000000	99.231827 
3148.000000	99.231554 
3147.000000	99.231583 
3146.000000	99.232234 
3145.000000	99.233206 
3144.000000	99.233848 
3143.000000	99.233862 
3142.000000	99.233589 
3141.000000	99.233600 
3140.000000	99.234059 
3139.000000	99.234620 
3138.000000	99.234879 
3137.000000	99.234822 
3136.000000	99.234788 
3135.000000	99.235057 
3134.000000	99.235535 
3133.000000	99.235854 
3132.000000	99.235738 
3131.000000	99.235228 
3130.000000	99.234585 
3129.000000	99.234006 
3128.000000	99.233544 
3127.000000	99.233302 
3126.000000	99.233503 
3125.000000	99.234234 
3124.000000	99.235218 
3123.000000	99.235967 
3122.000000	99.236163 
3121.000000	99.235867 
3120.000000	99.235423 
3119.000000	99.235214 
3118.000000	99.235428 
3117.000000	99.235959 
3116.000000	99.236535 
3115.000000	99.236963 
3114.000000	99.237205 
3113.000000	99.237195 
3112.000000	99.236767 
3111.000000	99.235937 
3110.000000	99.235109 
3109.000000	99.234746 
3108.000000	99.234860 
3107.000000	99.235087 
3106.000000	99.235193 
3105.000000	99.235317 
3104.000000	99.235747 
3103.000000	99.236673 
3102.000000	99.238202 
3101.000000	99.240313 
3100.000000	99.242580 
3099.000000	99.244189 
3098.000000	99.244551 
3097.000000	99.243907 
3096.000000	99.243243 
3095.000000	99.243420 
3094.000000	99.244429 
3093.000000	99.245568 
3092.000000	99.246173 
3091.000000	99.246068 
3090.000000	99.245440 
3089.000000	99.244610 
3088.000000	99.244012 
3087.000000	99.244074 
3086.000000	99.244857 
3085.000000	99.245840 
3084.000000	99.246316 
3083.000000	99.246053 
3082.000000	99.245407 
3081.000000	99.244844 
3080.000000	99.244484 
3079.000000	99.244166 
3078.000000	99.243758 
3077.000000	99.243282 
3076.000000	99.242856 
3075.000000	99.242638 
3074.000000	99.242764 
3073.000000	99.243209 
3072.000000	99.243800 
3071.000000	99.244485 
3070.000000	99.245419 
3069.000000	99.246504 
3068.000000	99.246956 
3067.000000	99.245879 
3066.000000	99.243423 
3065.000000	99.241078 
3064.000000	99.240355 
3063.000000	99.241251 
3062.000000	99.242304 
3061.000000	99.242175 
3060.000000	99.240979 
3059.000000	99.239943 
3058.000000	99.240014 
3057.000000	99.241066 
3056.000000	99.242326 
3055.000000	99.243264 
3054.000000	99.243876 
3053.000000	99.244231 
3052.000000	99.244117 
3051.000000	99.243371 
3050.000000	99.242343 
3049.000000	99.241627 
3048.000000	99.241193 
3047.000000	99.240088 
3046.000000	99.237390 
3045.000000	99.233416 
3044.000000	99.229718 
3043.000000	99.227726 
3042.000000	99.227578 
3041.000000	99.228283 
3040.000000	99.228746 
3039.000000	99.228552 
3038.000000	99.227940 
3037.000000	99.227339 
3036.000000	99.226964 
3035.000000	99.226712 
3034.000000	99.226347 
3033.000000	99.225707 
3032.000000	99.224596 
3031.000000	99.222557 
3030.000000	99.218996 
3029.000000	99.213703 
3028.000000	99.207306 
3027.000000	99.201169 
3026.000000	99.196687 
3025.000000	99.194427 
3024.000000	99.193692 
3023.000000	99.192832 
3022.000000	99.190248 
3021.000000	99.185448 
3020.000000	99.179367 
3019.000000	99.173677 
3018.000000	99.169623 
3017.000000	99.167357 
3016.000000	99.166115 
3015.000000	99.164836 
3014.000000	99.162662 
3013.000000	99.159090 
3012.000000	99.153928 
3011.000000	99.147333 
3010.000000	99.139940 
3009.000000	99.132803 
3008.000000	99.126974 
3007.000000	99.123000 
3006.000000	99.120742 
3005.000000	99.119494 
3004.000000	99.118147 
3003.000000	99.115508 
3002.000000	99.110910 
3001.000000	99.104826 
3000.000000	99.098732 
2999.000000	99.093936 
2998.000000	99.090524 
2997.000000	99.087667 
2996.000000	99.084792 
2995.000000	99.082074 
2994.000000	99.079627 
2993.000000	99.076671 
2992.000000	99.072049 
2991.000000	99.065500 
2990.000000	99.058203 
2989.000000	99.051870 
2988.000000	99.047253 
2987.000000	99.043754 
2986.000000	99.040466 
2985.000000	99.037444 
2984.000000	99.035524 
2983.000000	99.034987 
2982.000000	99.034913 
2981.000000	99.034086 
2980.000000	99.032209 
2979.000000	99.029849 
2978.000000	99.027422 
2977.000000	99.024768 
2976.000000	99.021737 
2975.000000	99.018618 
2974.000000	99.015586 
2973.000000	99.012106 
2972.000000	99.007408 
2971.000000	99.001503 
2970.000000	98.995295 
2969.000000	98.989674 
2968.000000	98.984875 
2967.000000	98.980798 
2966.000000	98.977468 
2965.000000	98.974843 
2964.000000	98.972526 
2963.000000	98.970155 
2962.000000	98.967948 
2961.000000	98.966369 
2960.000000	98.965362 
2959.000000	98.964510 
2958.000000	98.964045 
2957.000000	98.964875 
2956.000000	98.966979 
2955.000000	98.968328 
2954.000000	98.966571 
2953.000000	98.962186 
2952.000000	98.959098 
2951.000000	98.961175 
2950.000000	98.967999 
2949.000000	98.974775 
2948.000000	98.976701 
2947.000000	98.972932 
2946.000000	98.966177 
2945.000000	98.959215 
2944.000000	98.952687 
2943.000000	98.945951 
2942.000000	98.938568 
2941.000000	98.930104 
2940.000000	98.919352 
2939.000000	98.905120 
2938.000000	98.887857 
2937.000000	98.869668 
2936.000000	98.852586 
2935.000000	98.837431 
2934.000000	98.824164 
2933.000000	98.812142 
2932.000000	98.799592 
2931.000000	98.783993 
2930.000000	98.764149 
2929.000000	98.741689 
2928.000000	98.719966 
2927.000000	98.701845 
2926.000000	98.688986 
2925.000000	98.682236 
2924.000000	98.681368 
2923.000000	98.684684 
2922.000000	98.690199 
2921.000000	98.697502 
2920.000000	98.707555 
2919.000000	98.720635 
2918.000000	98.735561 
2917.000000	98.751277 
2916.000000	98.768208 
2915.000000	98.787401 
2914.000000	98.808967 
2913.000000	98.831859 
2912.000000	98.854509 
2911.000000	98.875086 
2910.000000	98.891796 
2909.000000	98.903877 
2908.000000	98.912223 
2907.000000	98.918462 
2906.000000	98.923612 
2905.000000	98.927929 
2904.000000	98.931508 
2903.000000	98.934395 
2902.000000	98.936566 
2901.000000	98.938752 
2900.000000	98.942832 
2899.000000	98.950373 
2898.000000	98.960547 
2897.000000	98.970519 
2896.000000	98.978452 
2895.000000	98.985306 
2894.000000	98.993249 
2893.000000	99.002822 
2892.000000	99.012308 
2891.000000	99.019550 
2890.000000	99.023809 
2889.000000	99.026011 
2888.000000	99.027729 
2887.000000	99.029986 
2886.000000	99.032738 
2885.000000	99.035330 
2884.000000	99.037454 
2883.000000	99.039650 
2882.000000	99.042861 
2881.000000	99.047588 
2880.000000	99.053504 
2879.000000	99.059779 
2878.000000	99.065610 
2877.000000	99.070435 
2876.000000	99.073635 
2875.000000	99.074279 
2874.000000	99.071649 
2873.000000	99.066404 
2872.000000	99.060917 
2871.000000	99.057776 
2870.000000	99.057686 
2869.000000	99.059086 
2868.000000	99.059890 
2867.000000	99.059385 
2866.000000	99.058489 
2865.000000	99.058559 
2864.000000	99.059886 
2863.000000	99.060840 
2862.000000	99.058368 
2861.000000	99.050076 
2860.000000	99.036544 
2859.000000	99.021390 
2858.000000	99.008478 
2857.000000	98.999072 
2856.000000	98.991900 
2855.000000	98.985666 
2854.000000	98.980983 
2853.000000	98.979858 
2852.000000	98.983901 
2851.000000	98.993281 
2850.000000	99.007066 
2849.000000	99.024120 
2848.000000	99.043632 
2847.000000	99.064885 
2846.000000	99.086551 
2845.000000	99.106418 
2844.000000	99.122363 
2843.000000	99.134111 
2842.000000	99.143950 
2841.000000	99.154970 
2840.000000	99.168014 
2839.000000	99.180470 
2838.000000	99.188611 
2837.000000	99.191175 
2836.000000	99.190405 
2835.000000	99.189861 
2834.000000	99.191818 
2833.000000	99.196735 
2832.000000	99.204002 
2831.000000	99.212188 
2830.000000	99.219165 
2829.000000	99.223414 
2828.000000	99.225569 
2827.000000	99.227859 
2826.000000	99.231579 
2825.000000	99.235671 
2824.000000	99.238289 
2823.000000	99.239262 
2822.000000	99.240353 
2821.000000	99.243223 
2820.000000	99.247646 
2819.000000	99.251854 
2818.000000	99.254331 
2817.000000	99.255070 
2816.000000	99.255148 
2815.000000	99.255338 
2814.000000	99.255439 
2813.000000	99.254989 
2812.000000	99.254297 
2811.000000	99.254297 
2810.000000	99.255449 
2809.000000	99.257232 
2808.000000	99.258899 
2807.000000	99.260381 
2806.000000	99.262187 
2805.000000	99.264608 
2804.000000	99.267254 
2803.000000	99.269288 
2802.000000	99.269948 
2801.000000	99.268993 
2800.000000	99.266912 
2799.000000	99.264780 
2798.000000	99.263783 
2797.000000	99.264599 
2796.000000	99.266938 
2795.000000	99.269558 
2794.000000	99.271026 
2793.000000	99.270788 
2792.000000	99.269513 
2791.000000	99.268389 
2790.000000	99.268276 
2789.000000	99.269550 
2788.000000	99.272193 
2787.000000	99.275492 
2786.000000	99.278021 
2785.000000	99.278781 
2784.000000	99.278339 
2783.000000	99.278259 
2782.000000	99.279323 
2781.000000	99.280823 
2780.000000	99.281720 
2779.000000	99.281881 
2778.000000	99.281893 
2777.000000	99.282138 
2776.000000	99.282520 
2775.000000	99.282839 
2774.000000	99.283000 
2773.000000	99.282939 
2772.000000	99.282677 
2771.000000	99.282413 
2770.000000	99.282333 
2769.000000	99.282416 
2768.000000	99.282695 
2767.000000	99.283534 
2766.000000	99.285190 
2765.000000	99.287156 
2764.000000	99.288460 
2763.000000	99.288755 
2762.000000	99.288660 
2761.000000	99.288970 
2760.000000	99.289954 
2759.000000	99.291555 
2758.000000	99.293651 
2757.000000	99.295791 
2756.000000	99.297216 
2755.000000	99.297645 
2754.000000	99.297579 
2753.000000	99.297405 
2752.000000	99.296620 
2751.000000	99.294607 
2750.000000	99.291874 
2749.000000	99.289706 
2748.000000	99.288568 
2747.000000	99.287610 
2746.000000	99.285968 
2745.000000	99.284020 
2744.000000	99.282939 
2743.000000	99.283364 
2742.000000	99.284981 
2741.000000	99.287110 
2740.000000	99.289336 
2739.000000	99.291502 
2738.000000	99.293402 
2737.000000	99.294761 
2736.000000	99.295472 
2735.000000	99.295707 
2734.000000	99.295727 
2733.000000	99.295646 
2732.000000	99.295431 
2731.000000	99.295083 
2730.000000	99.294714 
2729.000000	99.294459 
2728.000000	99.294444 
2727.000000	99.294810 
2726.000000	99.295594 
2725.000000	99.296547 
2724.000000	99.297273 
2723.000000	99.297657 
2722.000000	99.297973 
2721.000000	99.298469 
2720.000000	99.298998 
2719.000000	99.299219 
2718.000000	99.299017 
2717.000000	99.298573 
2716.000000	99.298165 
2715.000000	99.298024 
2714.000000	99.298277 
2713.000000	99.298843 
2712.000000	99.299424 
2711.000000	99.299742 
2710.000000	99.299811 
2709.000000	99.299877 
2708.000000	99.300101 
2707.000000	99.300375 
2706.000000	99.300495 
2705.000000	99.300433 
2704.000000	99.300327 
2703.000000	99.300311 
2702.000000	99.300397 
2701.000000	99.300531 
2700.000000	99.300667 
2699.000000	99.300784 
2698.000000	99.300874 
2697.000000	99.300935 
2696.000000	99.300983 
2695.000000	99.301048 
2694.000000	99.301161 
2693.000000	99.301325 
2692.000000	99.301488 
2691.000000	99.301564 
2690.000000	99.301510 
2689.000000	99.301406 
2688.000000	99.301412 
2687.000000	99.301594 
2686.000000	99.301826 
2685.000000	99.301920 
2684.000000	99.301843 
2683.000000	99.301765 
2682.000000	99.301878 
2681.000000	99.302223 
2680.000000	99.302671 
2679.000000	99.303044 
2678.000000	99.303245 
2677.000000	99.303320 
2676.000000	99.303412 
2675.000000	99.303612 
2674.000000	99.303858 
2673.000000	99.304003 
2672.000000	99.303972 
2671.000000	99.303785 
2670.000000	99.303467 
2669.000000	99.303001 
2668.000000	99.302413 
2667.000000	99.301853 
2666.000000	99.301564 
2665.000000	99.301760 
2664.000000	99.302472 
2663.000000	99.303496 
2662.000000	99.304490 
2661.000000	99.305204 
2660.000000	99.305583 
2659.000000	99.305662 
2658.000000	99.305479 
2657.000000	99.305130 
2656.000000	99.304807 
2655.000000	99.304673 
2654.000000	99.304705 
2653.000000	99.304755 
2652.000000	99.304708 
2651.000000	99.304549 
2650.000000	99.304330 
2649.000000	99.304207 
2648.000000	99.304394 
2647.000000	99.304899 
2646.000000	99.305384 
2645.000000	99.305459 
2644.000000	99.305124 
2643.000000	99.304745 
2642.000000	99.304667 
2641.000000	99.304946 
2640.000000	99.305446 
2639.000000	99.306067 
2638.000000	99.306708 
2637.000000	99.307287 
2636.000000	99.307754 
2635.000000	99.308015 
2634.000000	99.307952 
2633.000000	99.307669 
2632.000000	99.307547 
2631.000000	99.307877 
2630.000000	99.308544 
2629.000000	99.309194 
2628.000000	99.309650 
2627.000000	99.310009 
2626.000000	99.310402 
2625.000000	99.310793 
2624.000000	99.311055 
2623.000000	99.311097 
2622.000000	99.310892 
2621.000000	99.310532 
2620.000000	99.310271 
2619.000000	99.310309 
2618.000000	99.310578 
2617.000000	99.310820 
2616.000000	99.310899 
2615.000000	99.310931 
2614.000000	99.311087 
2613.000000	99.311396 
2612.000000	99.311774 
2611.000000	99.312158 
2610.000000	99.312533 
2609.000000	99.312890 
2608.000000	99.313209 
2607.000000	99.313479 
2606.000000	99.313710 
2605.000000	99.313919 
2604.000000	99.314114 
2603.000000	99.314267 
2602.000000	99.314335 
2601.000000	99.314336 
2600.000000	99.314381 
2599.000000	99.314581 
2598.000000	99.314934 
2597.000000	99.315297 
2596.000000	99.315479 
2595.000000	99.315429 
2594.000000	99.315226 
2593.000000	99.314989 
2592.000000	99.314791 
2591.000000	99.314676 
2590.000000	99.314656 
2589.000000	99.314708 
2588.000000	99.314789 
2587.000000	99.314859 
2586.000000	99.314883 
2585.000000	99.314829 
2584.000000	99.314693 
2583.000000	99.314524 
2582.000000	99.314403 
2581.000000	99.314366 
2580.000000	99.314388 
2579.000000	99.314399 
2578.000000	99.314351 
2577.000000	99.314251 
2576.000000	99.314136 
2575.000000	99.314030 
2574.000000	99.313931 
2573.000000	99.313824 
2572.000000	99.313688 
2571.000000	99.313520 
2570.000000	99.313344 
2569.000000	99.313197 
2568.000000	99.313118 
2567.000000	99.313145 
2566.000000	99.313307 
2565.000000	99.313574 
2564.000000	99.313831 
2563.000000	99.313958 
2562.000000	99.313943 
2561.000000	99.313860 
2560.000000	99.313777 
2559.000000	99.313727 
2558.000000	99.313741 
2557.000000	99.313783 
2556.000000	99.313655 
2555.000000	99.313229 
2554.000000	99.312818 
2553.000000	99.313028 
2552.000000	99.314055 
2551.000000	99.315379 
2550.000000	99.316397 
2549.000000	99.317179 
2548.000000	99.318065 
2547.000000	99.318668 
2546.000000	99.318212 
2545.000000	99.316831 
2544.000000	99.315606 
2543.000000	99.315220 
2542.000000	99.315235 
2541.000000	99.314984 
2540.000000	99.314613 
2539.000000	99.314710 
2538.000000	99.315299 
2537.000000	99.315730 
2536.000000	99.315441 
2535.000000	99.314469 
2534.000000	99.313345 
2533.000000	99.312760 
2532.000000	99.313146 
2531.000000	99.314337 
2530.000000	99.315697 
2529.000000	99.316801 
2528.000000	99.317816 
2527.000000	99.319025 
2526.000000	99.320158 
2525.000000	99.320598 
2524.000000	99.320180 
2523.000000	99.319445 
2522.000000	99.319050 
2521.000000	99.319190 
2520.000000	99.319678 
2519.000000	99.320273 
2518.000000	99.320750 
2517.000000	99.320852 
2516.000000	99.320378 
2515.000000	99.319315 
2514.000000	99.317843 
2513.000000	99.316249 
2512.000000	99.314787 
2511.000000	99.313510 
2510.000000	99.312351 
2509.000000	99.311485 
2508.000000	99.311460 
2507.000000	99.312656 
2506.000000	99.314610 
2505.000000	99.316119 
2504.000000	99.316247 
2503.000000	99.315055 
2502.000000	99.313411 
2501.000000	99.312302 
2500.000000	99.312262 
2499.000000	99.313325 
2498.000000	99.315163 
2497.000000	99.317169 
2496.000000	99.318655 
2495.000000	99.319139 
2494.000000	99.318466 
2493.000000	99.316776 
2492.000000	99.314460 
2491.000000	99.312117 
2490.000000	99.310399 
2489.000000	99.309763 
2488.000000	99.310252 
2487.000000	99.311462 
2486.000000	99.312749 
2485.000000	99.313645 
2484.000000	99.314094 
2483.000000	99.314283 
2482.000000	99.314321 
2481.000000	99.314177 
2480.000000	99.313910 
2479.000000	99.313757 
2478.000000	99.313885 
2477.000000	99.314156 
2476.000000	99.314272 
2475.000000	99.314093 
2474.000000	99.313727 
2473.000000	99.313376 
2472.000000	99.313195 
2471.000000	99.313277 
2470.000000	99.313656 
2469.000000	99.314251 
2468.000000	99.314842 
2467.000000	99.315182 
2466.000000	99.315157 
2465.000000	99.314866 
2464.000000	99.314532 
2463.000000	99.314283 
2462.000000	99.314046 
2461.000000	99.313681 
2460.000000	99.313225 
2459.000000	99.312927 
2458.000000	99.312998 
2457.000000	99.313385 
2456.000000	99.313810 
2455.000000	99.314005 
2454.000000	99.313893 
2453.000000	99.313545 
2452.000000	99.313102 
2451.000000	99.312730 
2450.000000	99.312574 
2449.000000	99.312690 
2448.000000	99.312995 
2447.000000	99.313319 
2446.000000	99.313536 
2445.000000	99.313621 
2444.000000	99.313612 
2443.000000	99.313527 
2442.000000	99.313330 
2441.000000	99.313005 
2440.000000	99.312627 
2439.000000	99.312366 
2438.000000	99.312363 
2437.000000	99.312617 
2436.000000	99.312930 
2435.000000	99.313001 
2434.000000	99.312615 
2433.000000	99.311764 
2432.000000	99.310667 
2431.000000	99.309680 
2430.000000	99.309085 
2429.000000	99.308961 
2428.000000	99.309228 
2427.000000	99.309755 
2426.000000	99.310402 
2425.000000	99.310954 
2424.000000	99.311156 
2423.000000	99.310876 
2422.000000	99.310236 
2421.000000	99.309604 
2420.000000	99.309352 
2419.000000	99.309604 
2418.000000	99.310226 
2417.000000	99.310970 
2416.000000	99.311640 
2415.000000	99.312100 
2414.000000	99.312249 
2413.000000	99.312059 
2412.000000	99.311641 
2411.000000	99.311214 
2410.000000	99.310958 
2409.000000	99.310939 
2408.000000	99.311158 
2407.000000	99.311579 
2406.000000	99.312109 
2405.000000	99.312593 
2404.000000	99.312882 
2403.000000	99.312924 
2402.000000	99.312770 
2401.000000	99.312540 
2400.000000	99.312366 
2399.000000	99.312338 
2398.000000	99.312453 
2397.000000	99.312636 
2396.000000	99.312817 
2395.000000	99.312977 
2394.000000	99.313108 
2393.000000	99.313170 
2392.000000	99.313146 
2391.000000	99.313131 
2390.000000	99.313293 
2389.000000	99.313712 
2388.000000	99.314317 
2387.000000	99.314948 
2386.000000	99.315463 
2385.000000	99.315777 
2384.000000	99.315846 
2383.000000	99.315669 
2382.000000	99.315325 
2381.000000	99.314959 
2380.000000	99.314706 
2379.000000	99.314594 
2378.000000	99.314553 
2377.000000	99.314548 
2376.000000	99.314637 
2375.000000	99.314864 
2374.000000	99.315087 
2373.000000	99.315043 
2372.000000	99.314628 
2371.000000	99.314097 
2370.000000	99.313904 
2369.000000	99.314282 
2368.000000	99.315069 
2367.000000	99.315842 
2366.000000	99.316260 
2365.000000	99.316242 
2364.000000	99.315866 
2363.000000	99.315271 
2362.000000	99.314571 
2361.000000	99.313833 
2360.000000	99.313247 
2359.000000	99.313175 
2358.000000	99.313907 
2357.000000	99.315417 
2356.000000	99.317209 
2355.000000	99.318582 
2354.000000	99.319054 
2353.000000	99.318600 
2352.000000	99.317706 
2351.000000	99.317016 
2350.000000	99.316914 
2349.000000	99.317255 
2348.000000	99.317574 
2347.000000	99.317605 
2346.000000	99.317442 
2345.000000	99.317352 
2344.000000	99.317203 
2343.000000	99.316706 
2342.000000	99.316029 
2341.000000	99.315767 
2340.000000	99.316495 
2339.000000	99.318276 
2338.000000	99.320996 
2337.000000	99.324338 
2336.000000	99.327683 
2335.000000	99.330178 
2334.000000	99.331273 
2333.000000	99.330824 
2332.000000	99.328975 
2331.000000	99.325988 
2330.000000	99.322715 
2329.000000	99.320604 
2328.000000	99.321076 
2327.000000	99.324574 
2326.000000	99.329724 
2325.000000	99.334115 
2324.000000	99.335738 
2323.000000	99.334691 
2322.000000	99.333047 
2321.000000	99.333023 
2320.000000	99.335106 
2319.000000	99.337906 
2318.000000	99.340184 
2317.000000	99.341867 
2316.000000	99.343555 
2315.000000	99.345145 
2314.000000	99.345899 
2313.000000	99.345434 
2312.000000	99.344296 
2311.000000	99.343510 
2310.000000	99.343830 
2309.000000	99.345428 
2308.000000	99.347767 
2307.000000	99.349825 
2306.000000	99.350655 
2305.000000	99.350001 
2304.000000	99.348092 
2303.000000	99.345155 
2302.000000	99.341421 
2301.000000	99.337480 
2300.000000	99.334134 
2299.000000	99.331820 
2298.000000	99.330496 
2297.000000	99.330092 
2296.000000	99.330616 
2295.000000	99.331655 
2294.000000	99.332137 
2293.000000	99.331154 
2292.000000	99.328848 
2291.000000	99.326333 
2290.000000	99.324691 
2289.000000	99.324210 
2288.000000	99.324502 
2287.000000	99.325013 
2286.000000	99.325321 
2285.000000	99.325193 
2284.000000	99.324558 
2283.000000	99.323436 
2282.000000	99.321871 
2281.000000	99.319982 
2280.000000	99.318095 
2279.000000	99.316718 
2278.000000	99.316224 
2277.000000	99.316548 
2276.000000	99.317203 
2275.000000	99.317596 
2274.000000	99.317405 
2273.000000	99.316631 
2272.000000	99.315427 
2271.000000	99.313987 
2270.000000	99.312553 
2269.000000	99.311433 
2268.000000	99.310876 
2267.000000	99.310884 
2266.000000	99.311182 
2265.000000	99.311392 
2264.000000	99.311282 
2263.000000	99.310805 
2262.000000	99.310061 
2261.000000	99.309297 
2260.000000	99.308805 
2259.000000	99.308730 
2258.000000	99.308933 
2257.000000	99.309159 
2256.000000	99.309410 
2255.000000	99.309873 
2254.000000	99.310413 
2253.000000	99.310437 
2252.000000	99.309542 
2251.000000	99.308095 
2250.000000	99.306953 
2249.000000	99.306593 
2248.000000	99.306913 
2247.000000	99.307666 
2246.000000	99.308682 
2245.000000	99.309687 
2244.000000	99.310209 
2243.000000	99.309847 
2242.000000	99.308573 
2241.000000	99.306749 
2240.000000	99.304932 
2239.000000	99.303649 
2238.000000	99.303208 
2237.000000	99.303577 
2236.000000	99.304368 
2235.000000	99.304865 
2234.000000	99.304173 
2233.000000	99.301755 
2232.000000	99.298114 
2231.000000	99.294824 
2230.000000	99.293560 
2229.000000	99.295022 
2228.000000	99.298806 
2227.000000	99.303862 
2226.000000	99.308814 
2225.000000	99.312304 
2224.000000	99.313605 
2223.000000	99.312934 
2222.000000	99.310972 
2221.000000	99.308346 
2220.000000	99.305623 
2219.000000	99.303414 
2218.000000	99.302320 
2217.000000	99.302777 
2216.000000	99.304939 
2215.000000	99.308447 
2214.000000	99.312118 
2213.000000	99.314211 
2212.000000	99.313547 
2211.000000	99.310460 
2210.000000	99.306781 
2209.000000	99.304712 
2208.000000	99.305384 
2207.000000	99.308312 
2206.000000	99.311869 
2205.000000	99.314391 
2204.000000	99.314953 
2203.000000	99.313255 
2202.000000	99.309412 
2201.000000	99.304183 
2200.000000	99.298996 
2199.000000	99.295088 
2198.000000	99.292821 
2197.000000	99.292165 
2196.000000	99.293447 
2195.000000	99.296919 
2194.000000	99.301694 
2193.000000	99.305900 
2192.000000	99.308025 
2191.000000	99.307794 
2190.000000	99.305978 
2189.000000	99.303943 
2188.000000	99.303160 
2187.000000	99.304445 
2186.000000	99.307461 
2185.000000	99.311078 
2184.000000	99.314213 
2183.000000	99.316049 
2182.000000	99.315832 
2181.000000	99.313395 
2180.000000	99.310009 
2179.000000	99.307816 
2178.000000	99.307938 
2177.000000	99.309767 
2176.000000	99.311921 
2175.000000	99.313484 
2174.000000	99.314079 
2173.000000	99.313413 
2172.000000	99.311445 
2171.000000	99.308715 
2170.000000	99.306127 
2169.000000	99.304556 
2168.000000	99.304658 
2167.000000	99.306635 
2166.000000	99.309805 
2165.000000	99.312801 
2164.000000	99.314733 
2163.000000	99.315717 
2162.000000	99.316139 
2161.000000	99.316097 
2160.000000	99.315857 
2159.000000	99.316155 
2158.000000	99.317486 
2157.000000	99.319574 
2156.000000	99.321916 
2155.000000	99.324177 
2154.000000	99.325682 
2153.000000	99.325380 
2152.000000	99.322886 
2151.000000	99.319099 
2150.000000	99.315660 
2149.000000	99.313746 
2148.000000	99.313655 
2147.000000	99.315078 
2146.000000	99.317223 
2145.000000	99.319050 
2144.000000	99.319935 
2143.000000	99.319975 
2142.000000	99.319485 
2141.000000	99.318504 
2140.000000	99.317086 
2139.000000	99.315737 
2138.000000	99.315108 
2137.000000	99.315310 
2136.000000	99.315904 
2135.000000	99.316475 
2134.000000	99.316934 
2133.000000	99.317203 
2132.000000	99.316980 
2131.000000	99.316012 
2130.000000	99.314371 
2129.000000	99.312483 
2128.000000	99.310957 
2127.000000	99.310237 
2126.000000	99.310331 
2125.000000	99.310821 
2124.000000	99.311179 
2123.000000	99.311159 
2122.000000	99.310749 
2121.000000	99.309899 
2120.000000	99.308516 
2119.000000	99.306735 
2118.000000	99.305006 
2117.000000	99.303775 
2116.000000	99.303177 
2115.000000	99.303098 
2114.000000	99.303323 
2113.000000	99.303607 
2112.000000	99.303671 
2111.000000	99.303274 
2110.000000	99.302378 
2109.000000	99.301279 
2108.000000	99.300487 
2107.000000	99.300380 
2106.000000	99.300900 
2105.000000	99.301516 
2104.000000	99.301600 
2103.000000	99.300868 
2102.000000	99.299430 
2101.000000	99.297550 
2100.000000	99.295453 
2099.000000	99.293397 
2098.000000	99.291859 
2097.000000	99.291515 
2096.000000	99.292864 
2095.000000	99.295651 
2094.000000	99.298555 
2093.000000	99.299936 
2092.000000	99.299164 
2091.000000	99.297073 
2090.000000	99.295136 
2089.000000	99.294155 
2088.000000	99.293976 
2087.000000	99.294298 
2086.000000	99.295251 
2085.000000	99.297032 
2084.000000	99.299322 
2083.000000	99.301296 
2082.000000	99.302122 
2081.000000	99.301498 
2080.000000	99.299969 
2079.000000	99.298734 
2078.000000	99.298952 
2077.000000	99.301288 
2076.000000	99.306026 
2075.000000	99.312988 
2074.000000	99.320704 
2073.000000	99.326276 
2072.000000	99.327306 
2071.000000	99.323735 
2070.000000	99.317674 
2069.000000	99.311701 
2068.000000	99.307457 
2067.000000	99.305713 
2066.000000	99.306726 
2065.000000	99.310050 
2064.000000	99.314469 
2063.000000	99.318644 
2062.000000	99.321664 
2061.000000	99.322940 
2060.000000	99.322378 
2059.000000	99.320699 
2058.000000	99.319063 
2057.000000	99.318288 
2056.000000	99.318491 
2055.000000	99.319292 
2054.000000	99.320013 
2053.000000	99.319813 
2052.000000	99.318140 
2051.000000	99.315145 
2050.000000	99.311565 
2049.000000	99.308333 
2048.000000	99.306390 
2047.000000	99.306656 
2046.000000	99.309676 
2045.000000	99.315155 
2044.000000	99.322068 
2043.000000	99.329018 
2042.000000	99.334202 
2041.000000	99.335724 
2040.000000	99.332853 
2039.000000	99.326963 
2038.000000	99.320770 
2037.000000	99.316354 
2036.000000	99.314205 
2035.000000	99.313903 
2034.000000	99.314761 
2033.000000	99.315814 
2032.000000	99.316044 
2031.000000	99.314947 
2030.000000	99.312736 
2029.000000	99.310072 
2028.000000	99.307838 
2027.000000	99.307062 
2026.000000	99.308645 
2025.000000	99.312769 
2024.000000	99.318363 
2023.000000	99.322986 
2022.000000	99.323768 
2021.000000	99.319340 
2020.000000	99.311510 
2019.000000	99.304737 
2018.000000	99.302565 
2017.000000	99.304966 
2016.000000	99.309335 
2015.000000	99.313761 
2014.000000	99.318493 
2013.000000	99.324253 
2012.000000	99.330452 
2011.000000	99.335262 
2010.000000	99.336982 
2009.000000	99.335375 
2008.000000	99.332202 
2007.000000	99.329885 
2006.000000	99.329182 
2005.000000	99.328811 
2004.000000	99.327457 
2003.000000	99.325223 
2002.000000	99.322781 
2001.000000	99.319994 
2000.000000	99.316308 
1999.000000	99.312097 
1998.000000	99.308905 
1997.000000	99.308561 
1996.000000	99.312293 
1995.000000	99.320201 
1994.000000	99.330497 
1993.000000	99.339339 
1992.000000	99.343103 
1991.000000	99.341012 
1990.000000	99.335078 
1989.000000	99.328215 
1988.000000	99.322711 
1987.000000	99.319892 
1986.000000	99.319850 
1985.000000	99.321317 
1984.000000	99.322830 
1983.000000	99.324181 
1982.000000	99.325921 
1981.000000	99.327574 
1980.000000	99.327544 
1979.000000	99.325097 
1978.000000	99.321564 
1977.000000	99.318923 
1976.000000	99.317653 
1975.000000	99.316789 
1974.000000	99.315468 
1973.000000	99.313753 
1972.000000	99.312151 
1971.000000	99.310654 
1970.000000	99.308374 
1969.000000	99.304435 
1968.000000	99.299648 
1967.000000	99.296838 
1966.000000	99.298487 
1965.000000	99.304437 
1964.000000	99.311988 
1963.000000	99.318009 
1962.000000	99.320684 
1961.000000	99.319505 
1960.000000	99.315037 
1959.000000	99.308926 
1958.000000	99.303278 
1957.000000	99.299338 
1956.000000	99.296961 
1955.000000	99.295509 
1954.000000	99.294736 
1953.000000	99.294562 
1952.000000	99.294398 
1951.000000	99.293349 
1950.000000	99.291137 
1949.000000	99.288472 
1948.000000	99.286608 
1947.000000	99.286416 
1946.000000	99.287669 
1945.000000	99.289031 
1944.000000	99.289064 
1943.000000	99.287397 
1942.000000	99.284649 
1941.000000	99.281302 
1940.000000	99.277168 
1939.000000	99.272334 
1938.000000	99.268344 
1937.000000	99.267683 
1936.000000	99.271653 
1935.000000	99.279005 
1934.000000	99.286763 
1933.000000	99.292672 
1932.000000	99.296644 
1931.000000	99.299536 
1930.000000	99.300993 
1929.000000	99.299388 
1928.000000	99.294422 
1927.000000	99.288446 
1926.000000	99.284530 
1925.000000	99.283623 
1924.000000	99.284242 
1923.000000	99.284685 
1922.000000	99.284538 
1921.000000	99.283964 
1920.000000	99.282498 
1919.000000	99.279469 
1918.000000	99.275363 
1917.000000	99.272200 
1916.000000	99.271973 
1915.000000	99.274990 
1914.000000	99.279825 
1913.000000	99.284358 
1912.000000	99.286966 
1911.000000	99.286991 
1910.000000	99.284434 
1909.000000	99.279952 
1908.000000	99.275270 
1907.000000	99.272365 
1906.000000	99.272050 
1905.000000	99.273608 
1904.000000	99.275703 
1903.000000	99.277697 
1902.000000	99.279501 
1901.000000	99.280808 
1900.000000	99.281341 
1899.000000	99.281383 
1898.000000	99.281487 
1897.000000	99.281814 
1896.000000	99.282074 
1895.000000	99.282081 
1894.000000	99.281852 
1893.000000	99.281335 
1892.000000	99.280408 
1891.000000	99.279018 
1890.000000	99.277050 
1889.000000	99.274384 
1888.000000	99.271532 
1887.000000	99.269761 
1886.000000	99.270123 
1885.000000	99.272600 
1884.000000	99.276179 
1883.000000	99.279748 
1882.000000	99.282525 
1881.000000	99.283858 
1880.000000	99.283528 
1879.000000	99.282155 
1878.000000	99.280767 
1877.000000	99.279968 
1876.000000	99.279669 
1875.000000	99.279548 
1874.000000	99.279328 
1873.000000	99.278703 
1872.000000	99.277677 
1871.000000	99.276891 
1870.000000	99.276989 
1869.000000	99.277656 
1868.000000	99.278398 
1867.000000	99.280075 
1866.000000	99.283573 
1865.000000	99.287797 
1864.000000	99.290359 
1863.000000	99.289835 
1862.000000	99.286625 
1861.000000	99.282109 
1860.000000	99.277759 
1859.000000	99.274805 
1858.000000	99.273776 
1857.000000	99.274064 
1856.000000	99.274743 
1855.000000	99.276036 
1854.000000	99.278911 
1853.000000	99.283062 
1852.000000	99.286840 
1851.000000	99.289159 
1850.000000	99.290333 
1849.000000	99.291338 
1848.000000	99.292479 
1847.000000	99.293328 
1846.000000	99.293350 
1845.000000	99.292365 
1844.000000	99.290739 
1843.000000	99.289746 
1842.000000	99.290485 
1841.000000	99.292118 
1840.000000	99.292993 
1839.000000	99.292322 
1838.000000	99.290664 
1837.000000	99.289433 
1836.000000	99.289897 
1835.000000	99.292677 
1834.000000	99.297295 
1833.000000	99.302247 
1832.000000	99.305829 
1831.000000	99.306451 
1830.000000	99.302921 
1829.000000	99.296159 
1828.000000	99.289267 
1827.000000	99.284346 
1826.000000	99.281435 
1825.000000	99.279907 
1824.000000	99.279359 
1823.000000	99.279952 
1822.000000	99.281522 
1821.000000	99.283340 
1820.000000	99.285279 
1819.000000	99.288128 
1818.000000	99.292260 
1817.000000	99.296048 
1816.000000	99.297369 
1815.000000	99.296989 
1814.000000	99.297692 
1813.000000	99.300688 
1812.000000	99.304237 
1811.000000	99.306150 
1810.000000	99.306605 
1809.000000	99.306344 
1808.000000	99.304741 
1807.000000	99.301449 
1806.000000	99.297739 
1805.000000	99.295142 
1804.000000	99.294028 
1803.000000	99.294283 
1802.000000	99.295543 
1801.000000	99.296626 
1800.000000	99.296121 
1799.000000	99.294162 
1798.000000	99.292526 
1797.000000	99.291796 
1796.000000	99.290902 
1795.000000	99.289148 
1794.000000	99.287188 
1793.000000	99.285827 
1792.000000	99.284691 
1791.000000	99.283828 
1790.000000	99.284523 
1789.000000	99.286515 
1788.000000	99.288857 
1787.000000	99.292134 
1786.000000	99.297539 
1785.000000	99.303963 
1784.000000	99.308472 
1783.000000	99.310171 
1782.000000	99.309695 
1781.000000	99.306979 
1780.000000	99.301518 
1779.000000	99.294039 
1778.000000	99.287247 
1777.000000	99.282607 
1776.000000	99.279454 
1775.000000	99.276232 
1774.000000	99.272559 
1773.000000	99.270113 
1772.000000	99.270319 
1771.000000	99.273252 
1770.000000	99.278354 
1769.000000	99.283193 
1768.000000	99.284678 
1767.000000	99.282000 
1766.000000	99.277489 
1765.000000	99.273749 
1764.000000	99.271014 
1763.000000	99.268336 
1762.000000	99.265284 
1761.000000	99.262816 
1760.000000	99.261970 
1759.000000	99.262023 
1758.000000	99.262415 
1757.000000	99.263291 
1756.000000	99.264689 
1755.000000	99.265574 
1754.000000	99.265191 
1753.000000	99.264578 
1752.000000	99.265406 
1751.000000	99.265512 
1750.000000	99.260692 
1749.000000	99.250933 
1748.000000	99.239719 
1747.000000	99.230101 
1746.000000	99.221965 
1745.000000	99.214494 
1744.000000	99.207796 
1743.000000	99.202258 
1742.000000	99.198643 
1741.000000	99.197692 
1740.000000	99.199070 
1739.000000	99.202007 
1738.000000	99.207019 
1737.000000	99.213905 
1736.000000	99.222506 
1735.000000	99.234051 
1734.000000	99.243685 
1733.000000	99.245633 
1732.000000	99.245377 
1731.000000	99.245710 
1730.000000	99.245157 
1729.000000	99.243334 
1728.000000	99.241352 
1727.000000	99.240670 
1726.000000	99.241961 
1725.000000	99.245628 
1724.000000	99.250416 
1723.000000	99.253920 
1722.000000	99.255531 
1721.000000	99.255786 
1720.000000	99.255490 
1719.000000	99.255716 
1718.000000	99.256142 
1717.000000	99.253867 
1716.000000	99.248896 
1715.000000	99.244798 
1714.000000	99.243040 
1713.000000	99.242131 
1712.000000	99.240429 
1711.000000	99.238773 
1710.000000	99.238960 
1709.000000	99.240925 
1708.000000	99.243244 
1707.000000	99.245475 
1706.000000	99.248351 
1705.000000	99.251301 
1704.000000	99.252870 
1703.000000	99.252858 
1702.000000	99.252467 
1701.000000	99.252853 
1700.000000	99.252168 
1699.000000	99.250664 
1698.000000	99.250862 
1697.000000	99.251719 
1696.000000	99.251550 
1695.000000	99.250095 
1694.000000	99.248920 
1693.000000	99.248767 
1692.000000	99.248963 
1691.000000	99.249239 
1690.000000	99.249688 
1689.000000	99.250146 
1688.000000	99.250445 
1687.000000	99.250506 
1686.000000	99.250623 
1685.000000	99.251039 
1684.000000	99.250699 
1683.000000	99.249453 
1682.000000	99.248541 
1681.000000	99.247947 
1680.000000	99.247402 
1679.000000	99.246853 
1678.000000	99.246233 
1677.000000	99.245569 
1676.000000	99.245008 
1675.000000	99.244596 
1674.000000	99.244282 
1673.000000	99.244074 
1672.000000	99.243921 
1671.000000	99.243739 
1670.000000	99.243428 
1669.000000	99.242927 
1668.000000	99.242351 
1667.000000	99.241808 
1666.000000	99.241266 
1665.000000	99.240696 
1664.000000	99.240131 
1663.000000	99.239612 
1662.000000	99.239146 
1661.000000	99.238734 
1660.000000	99.238391 
1659.000000	99.238101 
1658.000000	99.237834 
1657.000000	99.237576 
1656.000000	99.237330 
1655.000000	99.237106 
1654.000000	99.236902 
1653.000000	99.236715 
1652.000000	99.236551 
1651.000000	99.236426 
1650.000000	99.236339 
1649.000000	99.236281 
1648.000000	99.236248 
1647.000000	99.236243 
1646.000000	99.236273 
1645.000000	99.236354 
1644.000000	99.236492 
1643.000000	99.236686 
1642.000000	99.236932 
1641.000000	99.237227 
1640.000000	99.237569 
1639.000000	99.237953 
1638.000000	99.238376 
1637.000000	99.238853 
1636.000000	99.239405 
1635.000000	99.239991 
1634.000000	99.240580 
1633.000000	99.241201 
1632.000000	99.241766 
1631.000000	99.242195 
1630.000000	99.242536 
1629.000000	99.242932 
1628.000000	99.243497 
1627.000000	99.244264 
1626.000000	99.245137 
1625.000000	99.246034 
1624.000000	99.247134 
1623.000000	99.248579 
1622.000000	99.250150 
1621.000000	99.251534 
1620.000000	99.252556 
1619.000000	99.253154 
1618.000000	99.253702 
1617.000000	99.254250 
1616.000000	99.254498 
1615.000000	99.255321 
1614.000000	99.256934 
1613.000000	99.258152 
1612.000000	99.258915 
1611.000000	99.260204 
1610.000000	99.261777 
1609.000000	99.262581 
1608.000000	99.263124 
1607.000000	99.264884 
1606.000000	99.267763 
1605.000000	99.270664 
1604.000000	99.273485 
1603.000000	99.275926 
1602.000000	99.277131 
1601.000000	99.277164 
1600.000000	99.277459 
1599.000000	99.278919 
1598.000000	99.280801 
1597.000000	99.282053 
1596.000000	99.282403 
1595.000000	99.281816 
1594.000000	99.280144 
1593.000000	99.278071 
1592.000000	99.277271 
1591.000000	99.278634 
1590.000000	99.281142 
1589.000000	99.283313 
1588.000000	99.285074 
1587.000000	99.287052 
1586.000000	99.288809 
1585.000000	99.289042 
1584.000000	99.287713 
1583.000000	99.285773 
1582.000000	99.283386 
1581.000000	99.280463 
1580.000000	99.277480 
1579.000000	99.274814 
1578.000000	99.272518 
1577.000000	99.271288 
1576.000000	99.271519 
1575.000000	99.273115 
1574.000000	99.275591 
1573.000000	99.277468 
1572.000000	99.278207 
1571.000000	99.278727 
1570.000000	99.279339 
1569.000000	99.279391 
1568.000000	99.279656 
1567.000000	99.280732 
1566.000000	99.281726 
1565.000000	99.281842 
1564.000000	99.281083 
1563.000000	99.279536 
1562.000000	99.277051 
1561.000000	99.274193 
1560.000000	99.273730 
1559.000000	99.275031 
1558.000000	99.274634 
1557.000000	99.275951 
1556.000000	99.279252 
1555.000000	99.282091 
1554.000000	99.283175 
1553.000000	99.282661 
1552.000000	99.281628 
1551.000000	99.280693 
1550.000000	99.280092 
1549.000000	99.279906 
1548.000000	99.280199 
1547.000000	99.280888 
1546.000000	99.281468 
1545.000000	99.281494 
1544.000000	99.280935 
1543.000000	99.280355 
1542.000000	99.280606 
1541.000000	99.282021 
1540.000000	99.283224 
1539.000000	99.283808 
1538.000000	99.285851 
1537.000000	99.289354 
1536.000000	99.292743 
1535.000000	99.295721 
1534.000000	99.297918 
1533.000000	99.298142 
1532.000000	99.296886 
1531.000000	99.296063 
1530.000000	99.296511 
1529.000000	99.297937 
1528.000000	99.299864 
1527.000000	99.302249 
1526.000000	99.304925 
1525.000000	99.307124 
1524.000000	99.308243 
1523.000000	99.308676 
1522.000000	99.309228 
1521.000000	99.309160 
1520.000000	99.308035 
1519.000000	99.306930 
1518.000000	99.306279 
1517.000000	99.306223 
1516.000000	99.306442 
1515.000000	99.306648 
1514.000000	99.306851 
1513.000000	99.307146 
1512.000000	99.307509 
1511.000000	99.307437 
1510.000000	99.306908 
1509.000000	99.306763 
1508.000000	99.309140 
1507.000000	99.313500 
1506.000000	99.315192 
1505.000000	99.314606 
1504.000000	99.314856 
1503.000000	99.315528 
1502.000000	99.315786 
1501.000000	99.315220 
1500.000000	99.313154 
1499.000000	99.309662 
1498.000000	99.306588 
1497.000000	99.305761 
1496.000000	99.306032 
1495.000000	99.306175 
1494.000000	99.307071 
1493.000000	99.309057 
1492.000000	99.311324 
1491.000000	99.312697 
1490.000000	99.311977 
1489.000000	99.308941 
1488.000000	99.304873 
1487.000000	99.301777 
1486.000000	99.300692 
1485.000000	99.299909 
1484.000000	99.297710 
1483.000000	99.294079 
1482.000000	99.289914 
1481.000000	99.286044 
1480.000000	99.282659 
1479.000000	99.280320 
1478.000000	99.279686 
1477.000000	99.280585 
1476.000000	99.281732 
1475.000000	99.282933 
1474.000000	99.284531 
1473.000000	99.284071 
1472.000000	99.278028 
1471.000000	99.268290 
1470.000000	99.260081 
1469.000000	99.254822 
1468.000000	99.251479 
1467.000000	99.249683 
1466.000000	99.249756 
1465.000000	99.250676 
1464.000000	99.250537 
1463.000000	99.248658 
1462.000000	99.245535 
1461.000000	99.241139 
1460.000000	99.235575 
1459.000000	99.230435 
1458.000000	99.228880 
1457.000000	99.231272 
1456.000000	99.234340 
1455.000000	99.237413 
1454.000000	99.240214 
1453.000000	99.242257 
1452.000000	99.243478 
1451.000000	99.243294 
1450.000000	99.241820 
1449.000000	99.240484 
1448.000000	99.240636 
1447.000000	99.242837 
1446.000000	99.246606 
1445.000000	99.250892 
1444.000000	99.254478 
1443.000000	99.255829 
1442.000000	99.254738 
1441.000000	99.252350 
1440.000000	99.250029 
1439.000000	99.248636 
1438.000000	99.249665 
1437.000000	99.253695 
1436.000000	99.257476 
1435.000000	99.258008 
1434.000000	99.255739 
1433.000000	99.251847 
1432.000000	99.246927 
1431.000000	99.241533 
1430.000000	99.236856 
1429.000000	99.234489 
1428.000000	99.234644 
1427.000000	99.236496 
1426.000000	99.239260 
1425.000000	99.242706 
1424.000000	99.246020 
1423.000000	99.247146 
1422.000000	99.245176 
1421.000000	99.241222 
1420.000000	99.237428 
1419.000000	99.235022 
1418.000000	99.234273 
1417.000000	99.235267 
1416.000000	99.236885 
1415.000000	99.237618 
1414.000000	99.236998 
1413.000000	99.235642 
1412.000000	99.234175 
1411.000000	99.232399 
1410.000000	99.230151 
1409.000000	99.228258 
1408.000000	99.227840 
1407.000000	99.229468 
1406.000000	99.232650 
1405.000000	99.235958 
1404.000000	99.238035 
1403.000000	99.238493 
1402.000000	99.238096 
1401.000000	99.237768 
1400.000000	99.237765 
1399.000000	99.237562 
1398.000000	99.236816 
1397.000000	99.235834 
1396.000000	99.234970 
1395.000000	99.234738 
1394.000000	99.235926 
1393.000000	99.239057 
1392.000000	99.243426 
1391.000000	99.247331 
1390.000000	99.249801 
1389.000000	99.251256 
1388.000000	99.252604 
1387.000000	99.254163 
1386.000000	99.255831 
1385.000000	99.257656 
1384.000000	99.259503 
1383.000000	99.260634 
1382.000000	99.260409 
1381.000000	99.259087 
1380.000000	99.257764 
1379.000000	99.257575 
1378.000000	99.259016 
1377.000000	99.262038 
1376.000000	99.266298 
1375.000000	99.271035 
1374.000000	99.275018 
1373.000000	99.277453 
1372.000000	99.278532 
1371.000000	99.278847 
1370.000000	99.278814 
1369.000000	99.278795 
1368.000000	99.279328 
1367.000000	99.280823 
1366.000000	99.283375 
1365.000000	99.286829 
1364.000000	99.290759 
1363.000000	99.294283 
1362.000000	99.296458 
1361.000000	99.297183 
1360.000000	99.297369 
1359.000000	99.298201 
1358.000000	99.300411 
1357.000000	99.304036 
1356.000000	99.308447 
1355.000000	99.312599 
1354.000000	99.315624 
1353.000000	99.317212 
1352.000000	99.317424 
1351.000000	99.316565 
1350.000000	99.315198 
1349.000000	99.314119 
1348.000000	99.314022 
1347.000000	99.315037 
1346.000000	99.316831 
1345.000000	99.318963 
1344.000000	99.321047 
1343.000000	99.322693 
1342.000000	99.323625 
1341.000000	99.323913 
1340.000000	99.323948 
1339.000000	99.324123 
1338.000000	99.324652 
1337.000000	99.325648 
1336.000000	99.327083 
1335.000000	99.328606 
1334.000000	99.329685 
1333.000000	99.330024 
1332.000000	99.329727 
1331.000000	99.329083 
1330.000000	99.328347 
1329.000000	99.327797 
1328.000000	99.327801 
1327.000000	99.328602 
1326.000000	99.330064 
1325.000000	99.331724 
1324.000000	99.333082 
1323.000000	99.333769 
1322.000000	99.333630 
1321.000000	99.332780 
1320.000000	99.331640 
1319.000000	99.330741 
1318.000000	99.330406 
1317.000000	99.330613 
1316.000000	99.331149 
1315.000000	99.331784 
1314.000000	99.332310 
1313.000000	99.332538 
1312.000000	99.332341 
1311.000000	99.331759 
1310.000000	99.331037 
1309.000000	99.330529 
1308.000000	99.330492 
1307.000000	99.330943 
1306.000000	99.331676 
1305.000000	99.332423 
1304.000000	99.332986 
1303.000000	99.333197 
1302.000000	99.332879 
1301.000000	99.331968 
1300.000000	99.330681 
1299.000000	99.329520 
1298.000000	99.329003 
1297.000000	99.329349 
1296.000000	99.330418 
1295.000000	99.331821 
1294.000000	99.333096 
1293.000000	99.333847 
1292.000000	99.333811 
1291.000000	99.332979 
1290.000000	99.331732 
1289.000000	99.330703 
1288.000000	99.330342 
1287.000000	99.330658 
1286.000000	99.331373 
1285.000000	99.332203 
1284.000000	99.332919 
1283.000000	99.333217 
1282.000000	99.332779 
1281.000000	99.331562 
1280.000000	99.329937 
1279.000000	99.328491 
1278.000000	99.327667 
1277.000000	99.327627 
1276.000000	99.328318 
1275.000000	99.329497 
1274.000000	99.330679 
1273.000000	99.331212 
1272.000000	99.330562 
1271.000000	99.328584 
1270.000000	99.325656 
1269.000000	99.322517 
1268.000000	99.319934 
1267.000000	99.318484 
1266.000000	99.318434 
1265.000000	99.319598 
1264.000000	99.321301 
1263.000000	99.322623 
1262.000000	99.322796 
1261.000000	99.321519 
1260.000000	99.319122 
1259.000000	99.316537 
1258.000000	99.314950 
1257.000000	99.315224 
1256.000000	99.317467 
1255.000000	99.320967 
1254.000000	99.324391 
1253.000000	99.326059 
1252.000000	99.324336 
1251.000000	99.318429 
1250.000000	99.309336 
1249.000000	99.299838 
1248.000000	99.292955 
1247.000000	99.290239 
1246.000000	99.291210 
1245.000000	99.293854 
1244.000000	99.295730 
1243.000000	99.295305 
1242.000000	99.292650 
1241.000000	99.288838 
1240.000000	99.284640 
1239.000000	99.280216 
1238.000000	99.276094 
1237.000000	99.273698 
1236.000000	99.274266 
1235.000000	99.277501 
1234.000000	99.281561 
1233.000000	99.283979 
1232.000000	99.282308 
1231.000000	99.274871 
1230.000000	99.262375 
1229.000000	99.248827 
1228.000000	99.239373 
1227.000000	99.236447 
1226.000000	99.238352 
1225.000000	99.241314 
1224.000000	99.242203 
1223.000000	99.239228 
1222.000000	99.231333 
1221.000000	99.218282 
1220.000000	99.201399 
1219.000000	99.183510 
1218.000000	99.167693 
1217.000000	99.155968 
1216.000000	99.148843 
1215.000000	99.145319 
1214.000000	99.142969 
1213.000000	99.138625 
1212.000000	99.129763 
1211.000000	99.115781 
1210.000000	99.098332 
1209.000000	99.080449 
1208.000000	99.065020 
1207.000000	99.053635 
1206.000000	99.046304 
1205.000000	99.041732 
1204.000000	99.037609 
1203.000000	99.031072 
1202.000000	99.019734 
1201.000000	99.002861 
1200.000000	98.981751 
1199.000000	98.959119 
1198.000000	98.938085 
1197.000000	98.921305 
1196.000000	98.910163 
1195.000000	98.903956 
1194.000000	98.899746 
1193.000000	98.893718 
1192.000000	98.883173 
1191.000000	98.867301 
1190.000000	98.846654 
1189.000000	98.822799 
1188.000000	98.798502 
1187.000000	98.777254 
1186.000000	98.761581 
1185.000000	98.751477 
1184.000000	98.744372 
1183.000000	98.736507 
1182.000000	98.724644 
1181.000000	98.707240 
1180.000000	98.684931 
1179.000000	98.660244 
1178.000000	98.636547 
1177.000000	98.616855 
1176.000000	98.603059 
1175.000000	98.595181 
1174.000000	98.590487 
1173.000000	98.583950 
1172.000000	98.570801 
1171.000000	98.549120 
1170.000000	98.520239 
1169.000000	98.487310 
1168.000000	98.454107 
1167.000000	98.424942 
1166.000000	98.404252 
1165.000000	98.394801 
1164.000000	98.395847 
1163.000000	98.403009 
1162.000000	98.410337 
1161.000000	98.413235 
1160.000000	98.409951 
1159.000000	98.401245 
1158.000000	98.389317 
1157.000000	98.376668 
1156.000000	98.365148 
1155.000000	98.355496 
1154.000000	98.347290 
1153.000000	98.338792 
1152.000000	98.326746 
1151.000000	98.307221 
1150.000000	98.278195 
1149.000000	98.242227 
1148.000000	98.206224 
1147.000000	98.177464 
1146.000000	98.159153 
1145.000000	98.149359 
1144.000000	98.143044 
1143.000000	98.134731 
1142.000000	98.120426 
1141.000000	98.098760 
1140.000000	98.071126 
1139.000000	98.040641 
1138.000000	98.010689 
1137.000000	97.984174 
1136.000000	97.963310 
1135.000000	97.948736 
1134.000000	97.938168 
1133.000000	97.926574 
1132.000000	97.908735 
1131.000000	97.882218 
1130.000000	97.848525 
1129.000000	97.812067 
1128.000000	97.777566 
1127.000000	97.747549 
1126.000000	97.721952 
1125.000000	97.699720 
1124.000000	97.679979 
1123.000000	97.661250 
1122.000000	97.640431 
1121.000000	97.614052 
1120.000000	97.580905 
1119.000000	97.543208 
1118.000000	97.505364 
1117.000000	97.471568 
1116.000000	97.444276 
1115.000000	97.423895 
1114.000000	97.408830 
1113.000000	97.395929 
1112.000000	97.381580 
1111.000000	97.362841 
1110.000000	97.338009 
1109.000000	97.307192 
1108.000000	97.273047 
1107.000000	97.240257 
1106.000000	97.213084 
1105.000000	97.192929 
1104.000000	97.177845 
1103.000000	97.163870 
1102.000000	97.147005 
1101.000000	97.124707 
1100.000000	97.096455 
1099.000000	97.063752 
1098.000000	97.029831 
1097.000000	96.998894 
1096.000000	96.974694 
1095.000000	96.958617 
1094.000000	96.948425 
1093.000000	96.938890 
1092.000000	96.923968 
1091.000000	96.898962 
1090.000000	96.862251 
1089.000000	96.816658 
1088.000000	96.769040 
1087.000000	96.726977 
1086.000000	96.695065 
1085.000000	96.674266 
1084.000000	96.663325 
1083.000000	96.658849 
1082.000000	96.654507 
1081.000000	96.642955 
1080.000000	96.620180 
1079.000000	96.587779 
1078.000000	96.551404 
1077.000000	96.517787 
1076.000000	96.492539 
1075.000000	96.478153 
1074.000000	96.472005 
1073.000000	96.466604 
1072.000000	96.452792 
1071.000000	96.423040 
1070.000000	96.373382 
1069.000000	96.305593 
1068.000000	96.229053 
1067.000000	96.158301 
1066.000000	96.105414 
1065.000000	96.073593 
1064.000000	96.057199 
1063.000000	96.045791 
1062.000000	96.027951 
1061.000000	95.994477 
1060.000000	95.941527 
1059.000000	95.872323 
1058.000000	95.795670 
1057.000000	95.722052 
1056.000000	95.660033 
1055.000000	95.614228 
1054.000000	95.584277 
1053.000000	95.564916 
1052.000000	95.547564 
1051.000000	95.522903 
1050.000000	95.484219 
1049.000000	95.430874 
1048.000000	95.369190 
1047.000000	95.309001 
1046.000000	95.258356 
1045.000000	95.220216 
1044.000000	95.191414 
1043.000000	95.162825 
1042.000000	95.122641 
1041.000000	95.063092 
1040.000000	94.984931 
1039.000000	94.895522 
1038.000000	94.804494 
1037.000000	94.722379 
1036.000000	94.660109 
1035.000000	94.624880 
1034.000000	94.615317 
1033.000000	94.622324 
1032.000000	94.634110 
1031.000000	94.639159 
1030.000000	94.628298 
1029.000000	94.600069 
1028.000000	94.564273 
1027.000000	94.535609 
1026.000000	94.522271 
1025.000000	94.522686 
1024.000000	94.531560 
1023.000000	94.544132 
1022.000000	94.554583 
1021.000000	94.555766 
1020.000000	94.543244 
1019.000000	94.518253 
1018.000000	94.487111 
1017.000000	94.460031 
1016.000000	94.449025 
1015.000000	94.461860 
1014.000000	94.495553 
1013.000000	94.537151 
1012.000000	94.571133 
1011.000000	94.585193 
1010.000000	94.572484 
1009.000000	94.534641 
1008.000000	94.483868 
1007.000000	94.437967 
1006.000000	94.410741 
1005.000000	94.407677 
1004.000000	94.428559 
1003.000000	94.469025 
1002.000000	94.519302 
1001.000000	94.566692 
1000.000000	94.602125 
999.000000	 94.623182 
998.000000	 94.632233 
997.000000	 94.635559 
996.000000	 94.643691 
995.000000	 94.667131 
994.000000	 94.708549 
993.000000	 94.760538 
992.000000	 94.811465 
991.000000	 94.851851 
990.000000	 94.876613 
989.000000	 94.886410 
988.000000	 94.889446 
987.000000	 94.899455 
986.000000	 94.928810 
985.000000	 94.982670 
984.000000	 95.058077 
983.000000	 95.145762 
982.000000	 95.233225 
981.000000	 95.309579 
980.000000	 95.369315 
979.000000	 95.412162 
978.000000	 95.441922 
977.000000	 95.467122 
976.000000	 95.499883 
975.000000	 95.549754 
974.000000	 95.617977 
973.000000	 95.698865 
972.000000	 95.784937 
971.000000	 95.868459 
970.000000	 95.941163 
969.000000	 95.998245 
968.000000	 96.043515 
967.000000	 96.087559 
966.000000	 96.140091 
965.000000	 96.205365 
964.000000	 96.282955 
963.000000	 96.368353 
962.000000	 96.452577 
961.000000	 96.525444 
960.000000	 96.581085 
959.000000	 96.619484 
958.000000	 96.644392 
957.000000	 96.662946 
956.000000	 96.686315 
955.000000	 96.725800 
954.000000	 96.785497 
953.000000	 96.859559 
952.000000	 96.936524 
951.000000	 97.004661 
950.000000	 97.054653 
949.000000	 97.081942 
948.000000	 97.089197 
947.000000	 97.085341 
946.000000	 97.080565 
945.000000	 97.082230 
944.000000	 97.094510 
943.000000	 97.118386 
942.000000	 97.149703 
941.000000	 97.179103 
940.000000	 97.196641 
939.000000	 97.197572 
938.000000	 97.184965 
937.000000	 97.168685 
936.000000	 97.161843 
935.000000	 97.175436 
934.000000	 97.213294 
933.000000	 97.270555 
932.000000	 97.336258 
931.000000	 97.397609 
930.000000	 97.443967 
929.000000	 97.469851 
928.000000	 97.476196 
927.000000	 97.469778 
926.000000	 97.461441 
925.000000	 97.463033 
924.000000	 97.482705 
923.000000	 97.520283 
922.000000	 97.566607 
921.000000	 97.608687 
920.000000	 97.636299 
919.000000	 97.644759 
918.000000	 97.635093 
917.000000	 97.614450 
916.000000	 97.594729 
915.000000	 97.586961 
914.000000	 97.595548 
913.000000	 97.618062 
912.000000	 97.649005 
911.000000	 97.681961 
910.000000	 97.710104 
909.000000	 97.728793 
908.000000	 97.739011 
907.000000	 97.747295 
906.000000	 97.762494 
905.000000	 97.793115 
904.000000	 97.845306 
903.000000	 97.919412 
902.000000	 98.007592 
901.000000	 98.097178 
900.000000	 98.177156 
899.000000	 98.240471 
898.000000	 98.282887 
897.000000	 98.304742 
896.000000	 98.314310 
895.000000	 98.325309 
894.000000	 98.348252 
893.000000	 98.384982 
892.000000	 98.430809 
891.000000	 98.478344 
890.000000	 98.518993 
889.000000	 98.545283 
888.000000	 98.555304 
887.000000	 98.554557 
886.000000	 98.552498 
885.000000	 98.557711 
884.000000	 98.575955 
883.000000	 98.608993 
882.000000	 98.652009 
881.000000	 98.694015 
880.000000	 98.724436 
879.000000	 98.739749 
878.000000	 98.743270 
877.000000	 98.740944 
876.000000	 98.739813 
875.000000	 98.748740 
874.000000	 98.775829 
873.000000	 98.823010 
872.000000	 98.883984 
871.000000	 98.947596 
870.000000	 99.003318 
869.000000	 99.044794 
868.000000	 99.070502 
867.000000	 99.083103 
866.000000	 99.088103 
865.000000	 99.092065 
864.000000	 99.101228 
863.000000	 99.120152 
862.000000	 99.149147 
861.000000	 99.182006 
860.000000	 99.207904 
859.000000	 99.217641 
858.000000	 99.208965 
857.000000	 99.187086 
856.000000	 99.161583 
855.000000	 99.142897 
854.000000	 99.139290 
853.000000	 99.153854 
852.000000	 99.182865 
851.000000	 99.217206 
850.000000	 99.246734 
849.000000	 99.264400 
848.000000	 99.267490 
847.000000	 99.257744 
846.000000	 99.241900 
845.000000	 99.230386 
844.000000	 99.232651 
843.000000	 99.252450 
842.000000	 99.286762 
841.000000	 99.327716 
840.000000	 99.364737 
839.000000	 99.386460 
838.000000	 99.384626 
837.000000	 99.359150 
836.000000	 99.319425 
835.000000	 99.279445 
834.000000	 99.250872 
833.000000	 99.239731 
832.000000	 99.246370 
831.000000	 99.264467 
830.000000	 99.280252 
829.000000	 99.277789 
828.000000	 99.249242 
827.000000	 99.200642 
826.000000	 99.147245 
825.000000	 99.103645 
824.000000	 99.079159 
823.000000	 99.079680 
822.000000	 99.107091 
821.000000	 99.154024 
820.000000	 99.202735 
819.000000	 99.233440 
818.000000	 99.235537 
817.000000	 99.211816 
816.000000	 99.173967 
815.000000	 99.135521 
814.000000	 99.107787 
813.000000	 99.098176 
812.000000	 99.107403 
811.000000	 99.125785 
810.000000	 99.134016 
809.000000	 99.111846 
808.000000	 99.048978 
807.000000	 98.949688 
806.000000	 98.829281 
805.000000	 98.706709 
804.000000	 98.599480 
803.000000	 98.521414 
802.000000	 98.478738 
801.000000	 98.465266 
800.000000	 98.463541 
799.000000	 98.454482 
798.000000	 98.428644 
797.000000	 98.389761 
796.000000	 98.349259 
795.000000	 98.319045 
794.000000	 98.308354 
793.000000	 98.322918 
792.000000	 98.362501 
791.000000	 98.417829 
790.000000	 98.472224 
789.000000	 98.509036 
788.000000	 98.518086 
787.000000	 98.496648 
786.000000	 98.449253 
785.000000	 98.389156 
784.000000	 98.336521 
783.000000	 98.309570 
782.000000	 98.314427 
781.000000	 98.342791 
780.000000	 98.378454 
779.000000	 98.405882 
778.000000	 98.415762 
777.000000	 98.407756 
776.000000	 98.390826 
775.000000	 98.379126 
774.000000	 98.384082 
773.000000	 98.408764 
772.000000	 98.448882 
771.000000	 98.496793 
770.000000	 98.543445 
769.000000	 98.578887 
768.000000	 98.594755 
767.000000	 98.588858 
766.000000	 98.568005 
765.000000	 98.545651 
764.000000	 98.534868 
763.000000	 98.541975 
762.000000	 98.565141 
761.000000	 98.597010 
760.000000	 98.628774 
759.000000	 98.653927 
758.000000	 98.670090 
757.000000	 98.678231 
756.000000	 98.680841 
755.000000	 98.681192 
754.000000	 98.683528 
753.000000	 98.692222 
752.000000	 98.709723 
751.000000	 98.735292 
750.000000	 98.765289 
749.000000	 98.794412 
748.000000	 98.817405 
747.000000	 98.831080 
746.000000	 98.836351 
745.000000	 98.838689 
744.000000	 98.845102 
743.000000	 98.859839 
742.000000	 98.883258 
741.000000	 98.913340 
740.000000	 98.946509 
739.000000	 98.977402 
738.000000	 99.000139 
737.000000	 99.011258 
736.000000	 99.011274 
735.000000	 99.003720 
734.000000	 98.993813 
733.000000	 98.988051 
732.000000	 98.992713 
731.000000	 99.010034 
730.000000	 99.035333 
729.000000	 99.059508 
728.000000	 99.075261 
727.000000	 99.080099 
726.000000	 99.074969 
725.000000	 99.063378 
724.000000	 99.052124 
723.000000	 99.049776 
722.000000	 99.062487 
721.000000	 99.090949 
720.000000	 99.130062 
719.000000	 99.170555 
718.000000	 99.202206 
717.000000	 99.217827 
716.000000	 99.216068 
715.000000	 99.201687 
714.000000	 99.183578 
713.000000	 99.171863 
712.000000	 99.174481 
711.000000	 99.193016 
710.000000	 99.220049 
709.000000	 99.242426 
708.000000	 99.249721 
707.000000	 99.239010 
706.000000	 99.213112 
705.000000	 99.177911 
704.000000	 99.142193 
703.000000	 99.116471 
702.000000	 99.107943 
701.000000	 99.115693 
700.000000	 99.130841 
699.000000	 99.141939 
698.000000	 99.141630 
697.000000	 99.129491 
696.000000	 99.110554 
695.000000	 99.092176 
694.000000	 99.081321 
693.000000	 99.082767 
692.000000	 99.097969 
691.000000	 99.124417 
690.000000	 99.156318 
689.000000	 99.186696 
688.000000	 99.209350 
687.000000	 99.220012 
686.000000	 99.217404 
685.000000	 99.204567 
684.000000	 99.188930 
683.000000	 99.179071 
682.000000	 99.179806 
681.000000	 99.190234 
680.000000	 99.205451 
679.000000	 99.219563 
678.000000	 99.228390 
677.000000	 99.230843 
676.000000	 99.228864 
675.000000	 99.225600 
674.000000	 99.223173 
673.000000	 99.222568 
672.000000	 99.224361 
671.000000	 99.229219 
670.000000	 99.237676 
669.000000	 99.249549 
668.000000	 99.261035 
667.000000	 99.266684 
666.000000	 99.267048 
665.000000	 99.265537 
664.000000	 99.264371 
663.000000	 99.265462 
662.000000	 99.270249 
661.000000	 99.278696 
660.000000	 99.289462 
659.000000	 99.300639 
658.000000	 99.310160 
657.000000	 99.316310 
656.000000	 99.318577 
655.000000	 99.318117 
654.000000	 99.317439 
653.000000	 99.318759 
652.000000	 99.322500 
651.000000	 99.327659 
650.000000	 99.333370 

