4000.000000	99.243591 
3999.000000	99.243227 
3998.000000	99.242886 
3997.000000	99.242782 
3996.000000	99.242823 
3995.000000	99.242764 
3994.000000	99.242605 
3993.000000	99.242647 
3992.000000	99.243085 
3991.000000	99.243644 
3990.000000	99.243764 
3989.000000	99.243099 
3988.000000	99.241760 
3987.000000	99.240297 
3986.000000	99.239327 
3985.000000	99.239178 
3984.000000	99.239737 
3983.000000	99.240581 
3982.000000	99.241351 
3981.000000	99.241995 
3980.000000	99.242601 
3979.000000	99.243139 
3978.000000	99.243467 
3977.000000	99.243493 
3976.000000	99.243241 
3975.000000	99.242732 
3974.000000	99.241935 
3973.000000	99.240870 
3972.000000	99.239751 
3971.000000	99.238934 
3970.000000	99.238711 
3969.000000	99.239122 
3968.000000	99.239881 
3967.000000	99.240509 
3966.000000	99.240639 
3965.000000	99.240227 
3964.000000	99.239510 
3963.000000	99.238796 
3962.000000	99.238267 
3961.000000	99.237919 
3960.000000	99.237608 
3959.000000	99.237149 
3958.000000	99.236528 
3957.000000	99.235986 
3956.000000	99.235780 
3955.000000	99.235866 
3954.000000	99.235886 
3953.000000	99.235526 
3952.000000	99.234775 
3951.000000	99.233868 
3950.000000	99.233027 
3949.000000	99.232271 
3948.000000	99.231476 
3947.000000	99.230650 
3946.000000	99.230032 
3945.000000	99.229796 
3944.000000	99.229753 
3943.000000	99.229455 
3942.000000	99.228740 
3941.000000	99.228037 
3940.000000	99.227836 
3939.000000	99.227964 
3938.000000	99.227748 
3937.000000	99.226825 
3936.000000	99.225453 
3935.000000	99.224160 
3934.000000	99.223232 
3933.000000	99.222747 
3932.000000	99.222719 
3931.000000	99.223055 
3930.000000	99.223491 
3929.000000	99.223693 
3928.000000	99.223522 
3927.000000	99.223078 
3926.000000	99.222399 
3925.000000	99.221440 
3924.000000	99.220356 
3923.000000	99.219466 
3922.000000	99.218761 
3921.000000	99.217899 
3920.000000	99.216877 
3919.000000	99.216145 
3918.000000	99.215928 
3917.000000	99.215948 
3916.000000	99.215909 
3915.000000	99.215913 
3914.000000	99.216085 
3913.000000	99.216174 
3912.000000	99.215806 
3911.000000	99.214880 
3910.000000	99.213570 
3909.000000	99.212218 
3908.000000	99.211075 
3907.000000	99.210259 
3906.000000	99.209705 
3905.000000	99.209234 
3904.000000	99.208697 
3903.000000	99.208164 
3902.000000	99.207824 
3901.000000	99.207667 
3900.000000	99.207495 
3899.000000	99.207184 
3898.000000	99.206764 
3897.000000	99.206287 
3896.000000	99.205771 
3895.000000	99.205224 
3894.000000	99.204691 
3893.000000	99.204239 
3892.000000	99.203850 
3891.000000	99.203403 
3890.000000	99.202857 
3889.000000	99.202328 
3888.000000	99.201899 
3887.000000	99.201507 
3886.000000	99.201015 
3885.000000	99.200351 
3884.000000	99.199651 
3883.000000	99.199146 
3882.000000	99.198849 
3881.000000	99.198576 
3880.000000	99.198135 
3879.000000	99.197522 
3878.000000	99.196983 
3877.000000	99.196681 
3876.000000	99.196469 
3875.000000	99.196057 
3874.000000	99.195276 
3873.000000	99.194347 
3872.000000	99.193724 
3871.000000	99.193449 
3870.000000	99.193028 
3869.000000	99.192268 
3868.000000	99.191894 
3867.000000	99.192461 
3866.000000	99.193388 
3865.000000	99.193870 
3864.000000	99.193914 
3863.000000	99.193950 
3862.000000	99.194114 
3861.000000	99.194067 
3860.000000	99.193476 
3859.000000	99.192221 
3858.000000	99.190247 
3857.000000	99.187862 
3856.000000	99.186083 
3855.000000	99.186209 
3854.000000	99.188020 
3853.000000	99.188989 
3852.000000	99.188782 
3851.000000	99.189956 
3850.000000	99.192526 
3849.000000	99.194607 
3848.000000	99.195619 
3847.000000	99.195990 
3846.000000	99.196074 
3845.000000	99.195941 
3844.000000	99.195606 
3843.000000	99.195131 
3842.000000	99.194694 
3841.000000	99.194565 
3840.000000	99.194849 
3839.000000	99.195415 
3838.000000	99.195964 
3837.000000	99.196348 
3836.000000	99.196695 
3835.000000	99.197186 
3834.000000	99.197796 
3833.000000	99.198381 
3832.000000	99.198817 
3831.000000	99.199093 
3830.000000	99.199323 
3829.000000	99.199595 
3828.000000	99.199884 
3827.000000	99.200122 
3826.000000	99.200320 
3825.000000	99.200553 
3824.000000	99.200863 
3823.000000	99.201224 
3822.000000	99.201611 
3821.000000	99.202016 
3820.000000	99.202444 
3819.000000	99.202904 
3818.000000	99.203401 
3817.000000	99.203920 
3816.000000	99.204440 
3815.000000	99.204945 
3814.000000	99.205433 
3813.000000	99.205895 
3812.000000	99.206315 
3811.000000	99.206689 
3810.000000	99.207028 
3809.000000	99.207341 
3808.000000	99.207630 
3807.000000	99.207898 
3806.000000	99.208157 
3805.000000	99.208432 
3804.000000	99.208743 
3803.000000	99.209093 
3802.000000	99.209470 
3801.000000	99.209832 
3800.000000	99.210126 
3799.000000	99.210462 
3798.000000	99.210973 
3797.000000	99.211534 
3796.000000	99.211957 
3795.000000	99.212279 
3794.000000	99.212750 
3793.000000	99.213502 
3792.000000	99.214369 
3791.000000	99.215098 
3790.000000	99.215557 
3789.000000	99.215742 
3788.000000	99.215907 
3787.000000	99.216508 
3786.000000	99.217716 
3785.000000	99.218948 
3784.000000	99.219490 
3783.000000	99.219512 
3782.000000	99.219834 
3781.000000	99.220593 
3780.000000	99.220830 
3779.000000	99.219538 
3778.000000	99.217104 
3777.000000	99.215125 
3776.000000	99.214165 
3775.000000	99.213342 
3774.000000	99.212219 
3773.000000	99.211693 
3772.000000	99.212427 
3771.000000	99.213270 
3770.000000	99.212188 
3769.000000	99.209279 
3768.000000	99.207368 
3767.000000	99.208315 
3766.000000	99.210464 
3765.000000	99.211171 
3764.000000	99.210316 
3763.000000	99.210081 
3762.000000	99.211449 
3761.000000	99.213099 
3760.000000	99.213721 
3759.000000	99.212847 
3758.000000	99.210125 
3757.000000	99.205530 
3756.000000	99.199793 
3755.000000	99.194128 
3754.000000	99.189174 
3753.000000	99.185782 
3752.000000	99.185273 
3751.000000	99.186231 
3750.000000	99.183751 
3749.000000	99.176306 
3748.000000	99.168744 
3747.000000	99.165918 
3746.000000	99.168793 
3745.000000	99.174395 
3744.000000	99.175892 
3743.000000	99.173889 
3742.000000	99.177177 
3741.000000	99.183425 
3740.000000	99.184089 
3739.000000	99.179689 
3738.000000	99.175909 
3737.000000	99.175565 
3736.000000	99.177015 
3735.000000	99.179059 
3734.000000	99.183078 
3733.000000	99.188933 
3732.000000	99.193187 
3731.000000	99.194167 
3730.000000	99.194172 
3729.000000	99.194928 
3728.000000	99.195531 
3727.000000	99.195201 
3726.000000	99.194749 
3725.000000	99.195389 
3724.000000	99.196784 
3723.000000	99.197037 
3722.000000	99.195805 
3721.000000	99.195016 
3720.000000	99.196252 
3719.000000	99.198286 
3718.000000	99.197869 
3717.000000	99.192994 
3716.000000	99.184692 
3715.000000	99.175638 
3714.000000	99.167569 
3713.000000	99.161258 
3712.000000	99.156804 
3711.000000	99.153909 
3710.000000	99.153561 
3709.000000	99.156748 
3708.000000	99.161215 
3707.000000	99.162933 
3706.000000	99.159935 
3705.000000	99.153559 
3704.000000	99.146785 
3703.000000	99.142044 
3702.000000	99.139357 
3701.000000	99.136872 
3700.000000	99.133944 
3699.000000	99.131228 
3698.000000	99.127819 
3697.000000	99.121745 
3696.000000	99.113152 
3695.000000	99.104601 
3694.000000	99.097920 
3693.000000	99.092576 
3692.000000	99.087976 
3691.000000	99.084816 
3690.000000	99.083006 
3689.000000	99.080299 
3688.000000	99.076077 
3687.000000	99.074492 
3686.000000	99.078537 
3685.000000	99.084685 
3684.000000	99.087558 
3683.000000	99.086128 
3682.000000	99.082496 
3681.000000	99.077081 
3680.000000	99.067301 
3679.000000	99.052497 
3678.000000	99.037331 
3677.000000	99.027939 
3676.000000	99.024759 
3675.000000	99.021400 
3674.000000	99.018420 
3673.000000	99.022983 
3672.000000	99.032534 
3671.000000	99.040495 
3670.000000	99.044589 
3669.000000	99.044760 
3668.000000	99.045042 
3667.000000	99.048061 
3666.000000	99.051021 
3665.000000	99.052023 
3664.000000	99.052153 
3663.000000	99.052620 
3662.000000	99.053039 
3661.000000	99.052452 
3660.000000	99.051153 
3659.000000	99.051069 
3658.000000	99.053553 
3657.000000	99.056964 
3656.000000	99.057615 
3655.000000	99.055186 
3654.000000	99.053552 
3653.000000	99.054042 
3652.000000	99.055040 
3651.000000	99.056284 
3650.000000	99.057677 
3649.000000	99.057292 
3648.000000	99.055614 
3647.000000	99.056210 
3646.000000	99.060861 
3645.000000	99.068146 
3644.000000	99.075451 
3643.000000	99.080984 
3642.000000	99.084642 
3641.000000	99.087683 
3640.000000	99.091426 
3639.000000	99.096099 
3638.000000	99.100897 
3637.000000	99.105270 
3636.000000	99.108713 
3635.000000	99.109762 
3634.000000	99.107060 
3633.000000	99.101621 
3632.000000	99.096720 
3631.000000	99.095104 
3630.000000	99.097232 
3629.000000	99.099937 
3628.000000	99.099815 
3627.000000	99.099835 
3626.000000	99.103210 
3625.000000	99.107240 
3624.000000	99.109142 
3623.000000	99.109161 
3622.000000	99.108554 
3621.000000	99.108025 
3620.000000	99.107624 
3619.000000	99.107279 
3618.000000	99.107550 
3617.000000	99.109607 
3616.000000	99.113399 
3615.000000	99.117087 
3614.000000	99.118716 
3613.000000	99.117720 
3612.000000	99.115367 
3611.000000	99.113766 
3610.000000	99.114175 
3609.000000	99.116495 
3608.000000	99.119794 
3607.000000	99.123131 
3606.000000	99.126186 
3605.000000	99.128891 
3604.000000	99.131126 
3603.000000	99.132993 
3602.000000	99.134559 
3601.000000	99.135632 
3600.000000	99.136297 
3599.000000	99.137099 
3598.000000	99.138120 
3597.000000	99.138685 
3596.000000	99.138288 
3595.000000	99.136984 
3594.000000	99.135191 
3593.000000	99.133556 
3592.000000	99.132852 
3591.000000	99.133429 
3590.000000	99.135212 
3589.000000	99.137522 
3588.000000	99.138721 
3587.000000	99.137411 
3586.000000	99.134929 
3585.000000	99.134059 
3584.000000	99.135276 
3583.000000	99.137045 
3582.000000	99.138176 
3581.000000	99.138263 
3580.000000	99.137218 
3579.000000	99.135215 
3578.000000	99.132821 
3577.000000	99.130874 
3576.000000	99.130169 
3575.000000	99.130768 
3574.000000	99.131714 
3573.000000	99.131510 
3572.000000	99.129141 
3571.000000	99.124663 
3570.000000	99.119126 
3569.000000	99.113963 
3568.000000	99.110228 
3567.000000	99.108321 
3566.000000	99.108671 
3565.000000	99.111895 
3564.000000	99.117026 
3563.000000	99.121629 
3562.000000	99.124265 
3561.000000	99.125252 
3560.000000	99.125504 
3559.000000	99.125482 
3558.000000	99.125046 
3557.000000	99.123935 
3556.000000	99.122366 
3555.000000	99.121093 
3554.000000	99.120695 
3553.000000	99.120884 
3552.000000	99.120693 
3551.000000	99.119437 
3550.000000	99.117148 
3549.000000	99.114286 
3548.000000	99.111604 
3547.000000	99.110041 
3546.000000	99.110067 
3545.000000	99.111289 
3544.000000	99.112812 
3543.000000	99.113805 
3542.000000	99.113855 
3541.000000	99.113046 
3540.000000	99.111952 
3539.000000	99.111321 
3538.000000	99.111469 
3537.000000	99.111998 
3536.000000	99.112133 
3535.000000	99.111459 
3534.000000	99.110160 
3533.000000	99.108726 
3532.000000	99.107569 
3531.000000	99.106866 
3530.000000	99.106552 
3529.000000	99.106351 
3528.000000	99.106001 
3527.000000	99.105468 
3526.000000	99.104873 
3525.000000	99.104266 
3524.000000	99.103606 
3523.000000	99.102886 
3522.000000	99.102187 
3521.000000	99.101593 
3520.000000	99.101076 
3519.000000	99.100500 
3518.000000	99.099784 
3517.000000	99.099008 
3516.000000	99.098315 
3515.000000	99.097778 
3514.000000	99.097366 
3513.000000	99.097000 
3512.000000	99.096578 
3511.000000	99.095998 
3510.000000	99.095229 
3509.000000	99.094383 
3508.000000	99.093656 
3507.000000	99.093121 
3506.000000	99.092614 
3505.000000	99.091866 
3504.000000	99.090771 
3503.000000	99.089525 
3502.000000	99.088533 
3501.000000	99.088125 
3500.000000	99.088331 
3499.000000	99.088738 
3498.000000	99.088703 
3497.000000	99.087878 
3496.000000	99.086513 
3495.000000	99.085284 
3494.000000	99.084561 
3493.000000	99.084017 
3492.000000	99.083016 
3491.000000	99.081261 
3490.000000	99.079011 
3489.000000	99.076822 
3488.000000	99.075111 
3487.000000	99.073961 
3486.000000	99.073185 
3485.000000	99.072502 
3484.000000	99.071722 
3483.000000	99.070842 
3482.000000	99.069937 
3481.000000	99.068965 
3480.000000	99.067809 
3479.000000	99.066530 
3478.000000	99.065466 
3477.000000	99.064890 
3476.000000	99.064602 
3475.000000	99.064044 
3474.000000	99.062956 
3473.000000	99.061760 
3472.000000	99.061118 
3471.000000	99.061162 
3470.000000	99.061316 
3469.000000	99.060865 
3468.000000	99.059537 
3467.000000	99.057558 
3466.000000	99.055368 
3465.000000	99.053299 
3464.000000	99.051418 
3463.000000	99.049571 
3462.000000	99.047595 
3461.000000	99.045493 
3460.000000	99.043426 
3459.000000	99.041650 
3458.000000	99.040483 
3457.000000	99.040139 
3456.000000	99.040463 
3455.000000	99.040917 
3454.000000	99.040950 
3453.000000	99.040443 
3452.000000	99.039649 
3451.000000	99.038859 
3450.000000	99.038223 
3449.000000	99.037689 
3448.000000	99.037009 
3447.000000	99.035876 
3446.000000	99.034306 
3445.000000	99.032804 
3444.000000	99.031903 
3443.000000	99.031604 
3442.000000	99.031411 
3441.000000	99.030821 
3440.000000	99.029748 
3439.000000	99.028441 
3438.000000	99.027153 
3437.000000	99.025997 
3436.000000	99.025009 
3435.000000	99.024270 
3434.000000	99.023861 
3433.000000	99.023723 
3432.000000	99.023664 
3431.000000	99.023511 
3430.000000	99.023206 
3429.000000	99.022691 
3428.000000	99.021826 
3427.000000	99.020496 
3426.000000	99.018815 
3425.000000	99.017165 
3424.000000	99.015942 
3423.000000	99.015243 
3422.000000	99.014817 
3421.000000	99.014311 
3420.000000	99.013598 
3419.000000	99.012869 
3418.000000	99.012433 
3417.000000	99.012410 
3416.000000	99.012569 
3415.000000	99.012460 
3414.000000	99.011803 
3413.000000	99.010806 
3412.000000	99.010022 
3411.000000	99.009823 
3410.000000	99.010093 
3409.000000	99.010397 
3408.000000	99.010366 
3407.000000	99.009813 
3406.000000	99.008662 
3405.000000	99.007053 
3404.000000	99.005520 
3403.000000	99.004773 
3402.000000	99.005150 
3401.000000	99.006332 
3400.000000	99.007549 
3399.000000	99.008170 
3398.000000	99.008117 
3397.000000	99.007810 
3396.000000	99.007692 
3395.000000	99.007740 
3394.000000	99.007550 
3393.000000	99.006925 
3392.000000	99.006220 
3391.000000	99.005948 
3390.000000	99.006176 
3389.000000	99.006469 
3388.000000	99.006331 
3387.000000	99.005514 
3386.000000	99.004048 
3385.000000	99.002272 
3384.000000	99.000761 
3383.000000	98.999932 
3382.000000	98.999643 
3381.000000	98.999356 
3380.000000	98.998637 
3379.000000	98.997392 
3378.000000	98.995804 
3377.000000	98.994387 
3376.000000	98.994004 
3375.000000	98.995386 
3374.000000	98.998488 
3373.000000	99.002318 
3372.000000	99.005491 
3371.000000	99.007031 
3370.000000	99.006768 
3369.000000	99.005394 
3368.000000	99.004134 
3367.000000	99.003847 
3366.000000	99.004260 
3365.000000	99.004301 
3364.000000	99.003274 
3363.000000	99.001557 
3362.000000	99.000094 
3361.000000	98.999361 
3360.000000	98.999022 
3359.000000	98.998475 
3358.000000	98.997588 
3357.000000	98.996885 
3356.000000	98.997006 
3355.000000	98.997958 
3354.000000	98.999036 
3353.000000	98.999610 
3352.000000	98.999846 
3351.000000	99.000475 
3350.000000	99.001965 
3349.000000	99.004169 
3348.000000	99.006614 
3347.000000	99.008830 
3346.000000	99.010409 
3345.000000	99.011127 
3344.000000	99.011117 
3343.000000	99.010687 
3342.000000	99.009911 
3341.000000	99.008709 
3340.000000	99.007341 
3339.000000	99.006397 
3338.000000	99.006097 
3337.000000	99.006018 
3336.000000	99.005781 
3335.000000	99.005702 
3334.000000	99.006392 
3333.000000	99.007897 
3332.000000	99.009524 
3331.000000	99.010501 
3330.000000	99.010683 
3329.000000	99.010546 
3328.000000	99.010702 
3327.000000	99.011388 
3326.000000	99.012357 
3325.000000	99.013212 
3324.000000	99.013841 
3323.000000	99.014483 
3322.000000	99.015321 
3321.000000	99.016147 
3320.000000	99.016567 
3319.000000	99.016486 
3318.000000	99.016231 
3317.000000	99.016219 
3316.000000	99.016564 
3315.000000	99.017073 
3314.000000	99.017515 
3313.000000	99.017824 
3312.000000	99.018082 
3311.000000	99.018379 
3310.000000	99.018732 
3309.000000	99.019108 
3308.000000	99.019473 
3307.000000	99.019815 
3306.000000	99.020134 
3305.000000	99.020430 
3304.000000	99.020713 
3303.000000	99.021003 
3302.000000	99.021329 
3301.000000	99.021722 
3300.000000	99.022198 
3299.000000	99.022745 
3298.000000	99.023312 
3297.000000	99.023833 
3296.000000	99.024274 
3295.000000	99.024664 
3294.000000	99.025078 
3293.000000	99.025570 
3292.000000	99.026128 
3291.000000	99.026675 
3290.000000	99.027132 
3289.000000	99.027465 
3288.000000	99.027691 
3287.000000	99.027883 
3286.000000	99.028135 
3285.000000	99.028516 
3284.000000	99.029024 
3283.000000	99.029574 
3282.000000	99.030064 
3281.000000	99.030435 
3280.000000	99.030673 
3279.000000	99.030799 
3278.000000	99.030899 
3277.000000	99.031155 
3276.000000	99.031730 
3275.000000	99.032602 
3274.000000	99.033545 
3273.000000	99.034292 
3272.000000	99.034741 
3271.000000	99.034965 
3270.000000	99.035137 
3269.000000	99.035455 
3268.000000	99.036065 
3267.000000	99.036993 
3266.000000	99.038113 
3265.000000	99.039244 
3264.000000	99.040273 
3263.000000	99.041182 
3262.000000	99.042003 
3261.000000	99.042788 
3260.000000	99.043563 
3259.000000	99.044235 
3258.000000	99.044604 
3257.000000	99.044557 
3256.000000	99.044256 
3255.000000	99.044087 
3254.000000	99.044375 
3253.000000	99.045158 
3252.000000	99.046207 
3251.000000	99.047198 
3250.000000	99.047933 
3249.000000	99.048430 
3248.000000	99.048850 
3247.000000	99.049336 
3246.000000	99.049907 
3245.000000	99.050510 
3244.000000	99.051139 
3243.000000	99.051872 
3242.000000	99.052798 
3241.000000	99.053930 
3240.000000	99.055153 
3239.000000	99.056226 
3238.000000	99.056924 
3237.000000	99.057223 
3236.000000	99.057361 
3235.000000	99.057650 
3234.000000	99.058225 
3233.000000	99.059018 
3232.000000	99.059920 
3231.000000	99.060883 
3230.000000	99.061866 
3229.000000	99.062779 
3228.000000	99.063535 
3227.000000	99.064105 
3226.000000	99.064490 
3225.000000	99.064739 
3224.000000	99.065022 
3223.000000	99.065580 
3222.000000	99.066520 
3221.000000	99.067725 
3220.000000	99.068968 
3219.000000	99.070103 
3218.000000	99.071053 
3217.000000	99.071711 
3216.000000	99.072004 
3215.000000	99.072119 
3214.000000	99.072455 
3213.000000	99.073214 
3212.000000	99.074170 
3211.000000	99.075028 
3210.000000	99.075904 
3209.000000	99.077161 
3208.000000	99.078798 
3207.000000	99.080274 
3206.000000	99.081086 
3205.000000	99.081383 
3204.000000	99.081853 
3203.000000	99.083008 
3202.000000	99.084722 
3201.000000	99.086522 
3200.000000	99.088133 
3199.000000	99.089546 
3198.000000	99.090700 
3197.000000	99.091450 
3196.000000	99.091905 
3195.000000	99.092459 
3194.000000	99.093232 
3193.000000	99.093757 
3192.000000	99.093577 
3191.000000	99.093070 
3190.000000	99.093305 
3189.000000	99.094996 
3188.000000	99.097770 
3187.000000	99.100414 
3186.000000	99.101801 
3185.000000	99.101549 
3184.000000	99.100060 
3183.000000	99.098230 
3182.000000	99.096922 
3181.000000	99.096482 
3180.000000	99.096648 
3179.000000	99.096928 
3178.000000	99.097109 
3177.000000	99.097378 
3176.000000	99.098026 
3175.000000	99.099211 
3174.000000	99.101033 
3173.000000	99.103606 
3172.000000	99.106821 
3171.000000	99.110018 
3170.000000	99.112210 
3169.000000	99.112885 
3168.000000	99.112587 
3167.000000	99.112584 
3166.000000	99.113746 
3165.000000	99.115824 
3164.000000	99.117832 
3163.000000	99.119040 
3162.000000	99.119488 
3161.000000	99.119678 
3160.000000	99.120045 
3159.000000	99.120718 
3158.000000	99.121530 
3157.000000	99.122127 
3156.000000	99.122220 
3155.000000	99.121877 
3154.000000	99.121564 
3153.000000	99.121813 
3152.000000	99.122822 
3151.000000	99.124337 
3150.000000	99.125840 
3149.000000	99.126898 
3148.000000	99.127459 
3147.000000	99.127858 
3146.000000	99.128422 
3145.000000	99.129084 
3144.000000	99.129552 
3143.000000	99.129854 
3142.000000	99.130470 
3141.000000	99.131750 
3140.000000	99.133383 
3139.000000	99.134654 
3138.000000	99.135231 
3137.000000	99.135475 
3136.000000	99.135962 
3135.000000	99.136848 
3134.000000	99.137782 
3133.000000	99.138352 
3132.000000	99.138479 
3131.000000	99.138430 
3130.000000	99.138518 
3129.000000	99.138820 
3128.000000	99.139148 
3127.000000	99.139275 
3126.000000	99.139169 
3125.000000	99.139004 
3124.000000	99.139006 
3123.000000	99.139295 
3122.000000	99.139818 
3121.000000	99.140421 
3120.000000	99.141004 
3119.000000	99.141552 
3118.000000	99.142001 
3117.000000	99.142171 
3116.000000	99.141972 
3115.000000	99.141653 
3114.000000	99.141619 
3113.000000	99.141930 
3112.000000	99.142173 
3111.000000	99.142008 
3110.000000	99.141707 
3109.000000	99.141847 
3108.000000	99.142513 
3107.000000	99.143127 
3106.000000	99.143151 
3105.000000	99.142742 
3104.000000	99.142522 
3103.000000	99.142868 
3102.000000	99.143677 
3101.000000	99.144649 
3100.000000	99.145550 
3099.000000	99.146226 
3098.000000	99.146576 
3097.000000	99.146680 
3096.000000	99.146819 
3095.000000	99.147245 
3094.000000	99.147912 
3093.000000	99.148524 
3092.000000	99.148859 
3091.000000	99.148899 
3090.000000	99.148664 
3089.000000	99.148199 
3088.000000	99.147883 
3087.000000	99.148406 
3086.000000	99.149989 
3085.000000	99.151770 
3084.000000	99.152485 
3083.000000	99.151735 
3082.000000	99.150263 
3081.000000	99.149061 
3080.000000	99.148534 
3079.000000	99.148525 
3078.000000	99.148616 
3077.000000	99.148253 
3076.000000	99.147116 
3075.000000	99.145723 
3074.000000	99.145239 
3073.000000	99.146294 
3072.000000	99.148325 
3071.000000	99.150457 
3070.000000	99.152462 
3069.000000	99.154170 
3068.000000	99.154433 
3067.000000	99.151926 
3066.000000	99.147198 
3065.000000	99.142971 
3064.000000	99.141652 
3063.000000	99.142969 
3062.000000	99.144611 
3061.000000	99.144931 
3060.000000	99.144469 
3059.000000	99.144916 
3058.000000	99.147132 
3057.000000	99.150359 
3056.000000	99.153046 
3055.000000	99.154185 
3054.000000	99.153897 
3053.000000	99.152911 
3052.000000	99.151680 
3051.000000	99.150117 
3050.000000	99.148067 
3049.000000	99.145642 
3048.000000	99.142796 
3047.000000	99.138914 
3046.000000	99.133466 
3045.000000	99.127163 
3044.000000	99.121882 
3043.000000	99.119046 
3042.000000	99.118339 
3041.000000	99.118314 
3040.000000	99.118059 
3039.000000	99.117810 
3038.000000	99.117908 
3037.000000	99.117570 
3036.000000	99.115167 
3035.000000	99.109883 
3034.000000	99.102920 
3033.000000	99.096516 
3032.000000	99.091558 
3031.000000	99.086618 
3030.000000	99.079515 
3029.000000	99.069411 
3028.000000	99.057237 
3027.000000	99.044650 
3026.000000	99.033097 
3025.000000	99.023490 
3024.000000	99.015801 
3023.000000	99.008663 
3022.000000	99.000091 
3021.000000	98.989150 
3020.000000	98.976763 
3019.000000	98.964722 
3018.000000	98.954190 
3017.000000	98.945189 
3016.000000	98.936898 
3015.000000	98.928018 
3014.000000	98.917358 
3013.000000	98.904641 
3012.000000	98.890464 
3011.000000	98.875184 
3010.000000	98.858466 
3009.000000	98.840584 
3008.000000	98.823581 
3007.000000	98.810050 
3006.000000	98.800575 
3005.000000	98.792949 
3004.000000	98.783924 
3003.000000	98.771376 
3002.000000	98.755208 
3001.000000	98.737304 
3000.000000	98.720699 
2999.000000	98.707618 
2998.000000	98.697762 
2997.000000	98.689170 
2996.000000	98.680843 
2995.000000	98.673125 
2994.000000	98.664754 
2993.000000	98.651315 
2992.000000	98.629071 
2991.000000	98.600471 
2990.000000	98.573936 
2989.000000	98.556967 
2988.000000	98.550501 
2987.000000	98.550163 
2986.000000	98.551577 
2985.000000	98.553571 
2984.000000	98.556758 
2983.000000	98.560835 
2982.000000	98.564124 
2981.000000	98.564989 
2980.000000	98.563040 
2979.000000	98.559088 
2978.000000	98.554239 
2977.000000	98.548945 
2976.000000	98.542756 
2975.000000	98.535030 
2974.000000	98.525843 
2973.000000	98.516057 
2972.000000	98.506606 
2971.000000	98.498101 
2970.000000	98.491236 
2969.000000	98.487039 
2968.000000	98.486268 
2967.000000	98.488588 
2966.000000	98.492643 
2965.000000	98.496928 
2964.000000	98.500547 
2963.000000	98.503361 
2962.000000	98.505690 
2961.000000	98.507777 
2960.000000	98.509423 
2959.000000	98.510430 
2958.000000	98.511622 
2957.000000	98.514824 
2956.000000	98.520951 
2955.000000	98.528288 
2954.000000	98.533822 
2953.000000	98.536916 
2952.000000	98.540814 
2951.000000	98.549417 
2950.000000	98.562512 
2949.000000	98.575040 
2948.000000	98.581474 
2947.000000	98.580364 
2946.000000	98.574611 
2945.000000	98.568021 
2944.000000	98.562083 
2943.000000	98.555926 
2942.000000	98.548361 
2941.000000	98.538950 
2940.000000	98.527267 
2939.000000	98.512307 
2938.000000	98.493503 
2937.000000	98.472174 
2936.000000	98.451228 
2935.000000	98.432999 
2934.000000	98.417514 
2933.000000	98.402914 
2932.000000	98.387203 
2931.000000	98.369446 
2930.000000	98.349810 
2929.000000	98.329305 
2928.000000	98.309800 
2927.000000	98.293803 
2926.000000	98.283439 
2925.000000	98.279081 
2924.000000	98.279140 
2923.000000	98.281607 
2922.000000	98.285985 
2921.000000	98.293385 
2920.000000	98.304611 
2919.000000	98.318702 
2918.000000	98.333733 
2917.000000	98.348585 
2916.000000	98.363330 
2915.000000	98.378188 
2914.000000	98.393041 
2913.000000	98.407947 
2912.000000	98.423086 
2911.000000	98.437740 
2910.000000	98.450174 
2909.000000	98.459310 
2908.000000	98.466029 
2907.000000	98.472017 
2906.000000	98.477549 
2905.000000	98.481057 
2904.000000	98.480894 
2903.000000	98.477473 
2902.000000	98.474072 
2901.000000	98.475799 
2900.000000	98.486600 
2899.000000	98.506082 
2898.000000	98.529048 
2897.000000	98.549133 
2896.000000	98.563462 
2895.000000	98.573469 
2894.000000	98.581834 
2893.000000	98.589733 
2892.000000	98.596988 
2891.000000	98.603427 
2890.000000	98.609245 
2889.000000	98.614760 
2888.000000	98.620509 
2887.000000	98.627161 
2886.000000	98.634800 
2885.000000	98.642719 
2884.000000	98.650430 
2883.000000	98.658418 
2882.000000	98.667370 
2881.000000	98.677076 
2880.000000	98.686816 
2879.000000	98.696512 
2878.000000	98.706593 
2877.000000	98.716619 
2876.000000	98.724800 
2875.000000	98.729436 
2874.000000	98.730618 
2873.000000	98.730406 
2872.000000	98.731486 
2871.000000	98.735575 
2870.000000	98.742628 
2869.000000	98.751051 
2868.000000	98.758748 
2867.000000	98.764505 
2866.000000	98.768758 
2865.000000	98.772963 
2864.000000	98.777853 
2863.000000	98.782168 
2862.000000	98.783379 
2861.000000	98.779998 
2860.000000	98.773175 
2859.000000	98.765787 
2858.000000	98.760098 
2857.000000	98.756690 
2856.000000	98.755435 
2855.000000	98.756707 
2854.000000	98.761206 
2853.000000	98.769019 
2852.000000	98.779603 
2851.000000	98.792652 
2850.000000	98.808561 
2849.000000	98.827949 
2848.000000	98.850836 
2847.000000	98.876081 
2846.000000	98.901347 
2845.000000	98.923925 
2844.000000	98.942304 
2843.000000	98.957311 
2842.000000	98.971527 
2841.000000	98.987182 
2840.000000	99.004248 
2839.000000	99.020333 
2838.000000	99.032396 
2837.000000	99.038927 
2836.000000	99.041123 
2835.000000	99.042381 
2834.000000	99.046262 
2833.000000	99.054098 
2832.000000	99.063956 
2831.000000	99.072065 
2830.000000	99.075893 
2829.000000	99.076375 
2828.000000	99.077223 
2827.000000	99.081625 
2826.000000	99.089379 
2825.000000	99.097327 
2824.000000	99.102528 
2823.000000	99.104897 
2822.000000	99.106895 
2821.000000	99.110994 
2820.000000	99.117550 
2819.000000	99.124941 
2818.000000	99.131349 
2817.000000	99.136067 
2816.000000	99.139134 
2815.000000	99.140408 
2814.000000	99.139830 
2813.000000	99.138566 
2812.000000	99.138773 
2811.000000	99.141387 
2810.000000	99.144659 
2809.000000	99.145937 
2808.000000	99.144772 
2807.000000	99.143366 
2806.000000	99.143825 
2805.000000	99.145924 
2804.000000	99.148074 
2803.000000	99.149624 
2802.000000	99.151308 
2801.000000	99.153725 
2800.000000	99.156247 
2799.000000	99.157659 
2798.000000	99.157526 
2797.000000	99.156718 
2796.000000	99.156608 
2795.000000	99.157773 
2794.000000	99.159527 
2793.000000	99.160831 
2792.000000	99.161497 
2791.000000	99.162230 
2790.000000	99.163664 
2789.000000	99.165806 
2788.000000	99.168319 
2787.000000	99.170757 
2786.000000	99.172518 
2785.000000	99.173230 
2784.000000	99.173410 
2783.000000	99.174055 
2782.000000	99.175259 
2781.000000	99.175905 
2780.000000	99.175209 
2779.000000	99.173966 
2778.000000	99.173717 
2777.000000	99.175006 
2776.000000	99.177030 
2775.000000	99.178724 
2774.000000	99.179664 
2773.000000	99.180027 
2772.000000	99.180203 
2771.000000	99.180572 
2770.000000	99.181393 
2769.000000	99.182712 
2768.000000	99.184407 
2767.000000	99.186293 
2766.000000	99.188121 
2765.000000	99.189529 
2764.000000	99.190234 
2763.000000	99.190333 
2762.000000	99.190314 
2761.000000	99.190628 
2760.000000	99.191366 
2759.000000	99.192388 
2758.000000	99.193523 
2757.000000	99.194571 
2756.000000	99.195333 
2755.000000	99.195840 
2754.000000	99.196397 
2753.000000	99.197155 
2752.000000	99.197793 
2751.000000	99.197850 
2750.000000	99.197334 
2749.000000	99.196763 
2748.000000	99.196614 
2747.000000	99.196945 
2746.000000	99.197555 
2745.000000	99.198293 
2744.000000	99.199112 
2743.000000	99.199976 
2742.000000	99.200865 
2741.000000	99.201803 
2740.000000	99.202858 
2739.000000	99.204151 
2738.000000	99.205823 
2737.000000	99.207832 
2736.000000	99.209752 
2735.000000	99.210951 
2734.000000	99.211066 
2733.000000	99.210238 
2732.000000	99.208912 
2731.000000	99.207549 
2730.000000	99.206561 
2729.000000	99.206329 
2728.000000	99.207084 
2727.000000	99.208716 
2726.000000	99.210749 
2725.000000	99.212601 
2724.000000	99.213884 
2723.000000	99.214574 
2722.000000	99.214968 
2721.000000	99.215421 
2720.000000	99.216059 
2719.000000	99.216731 
2718.000000	99.217237 
2717.000000	99.217551 
2716.000000	99.217816 
2715.000000	99.218242 
2714.000000	99.219008 
2713.000000	99.220117 
2712.000000	99.221245 
2711.000000	99.221900 
2710.000000	99.221929 
2709.000000	99.221752 
2708.000000	99.221957 
2707.000000	99.222607 
2706.000000	99.223179 
2705.000000	99.223209 
2704.000000	99.222786 
2703.000000	99.222370 
2702.000000	99.222270 
2701.000000	99.222458 
2700.000000	99.222783 
2699.000000	99.223160 
2698.000000	99.223530 
2697.000000	99.223788 
2696.000000	99.223850 
2695.000000	99.223776 
2694.000000	99.223769 
2693.000000	99.223990 
2692.000000	99.224381 
2691.000000	99.224690 
2690.000000	99.224735 
2689.000000	99.224653 
2688.000000	99.224793 
2687.000000	99.225306 
2686.000000	99.225931 
2685.000000	99.226242 
2684.000000	99.226131 
2683.000000	99.225943 
2682.000000	99.226121 
2681.000000	99.226773 
2680.000000	99.227615 
2679.000000	99.228254 
2678.000000	99.228468 
2677.000000	99.228260 
2676.000000	99.227836 
2675.000000	99.227506 
2674.000000	99.227478 
2673.000000	99.227671 
2672.000000	99.227764 
2671.000000	99.227515 
2670.000000	99.226990 
2669.000000	99.226461 
2668.000000	99.226122 
2667.000000	99.225967 
2666.000000	99.225967 
2665.000000	99.226221 
2664.000000	99.226824 
2663.000000	99.227663 
2662.000000	99.228429 
2661.000000	99.228885 
2660.000000	99.229054 
2659.000000	99.229103 
2658.000000	99.229107 
2657.000000	99.228992 
2656.000000	99.228736 
2655.000000	99.228521 
2654.000000	99.228594 
2653.000000	99.228982 
2652.000000	99.229431 
2651.000000	99.229689 
2650.000000	99.229783 
2649.000000	99.229944 
2648.000000	99.230285 
2647.000000	99.230696 
2646.000000	99.231056 
2645.000000	99.231408 
2644.000000	99.231817 
2643.000000	99.232200 
2642.000000	99.232405 
2641.000000	99.232432 
2640.000000	99.232458 
2639.000000	99.232657 
2638.000000	99.233064 
2637.000000	99.233599 
2636.000000	99.234133 
2635.000000	99.234553 
2634.000000	99.234826 
2633.000000	99.235048 
2632.000000	99.235373 
2631.000000	99.235822 
2630.000000	99.236231 
2629.000000	99.236455 
2628.000000	99.236540 
2627.000000	99.236662 
2626.000000	99.236912 
2625.000000	99.237210 
2624.000000	99.237436 
2623.000000	99.237549 
2622.000000	99.237577 
2621.000000	99.237580 
2620.000000	99.237641 
2619.000000	99.237821 
2618.000000	99.238071 
2617.000000	99.238257 
2616.000000	99.238317 
2615.000000	99.238364 
2614.000000	99.238553 
2613.000000	99.238896 
2612.000000	99.239270 
2611.000000	99.239559 
2610.000000	99.239720 
2609.000000	99.239741 
2608.000000	99.239620 
2607.000000	99.239437 
2606.000000	99.239358 
2605.000000	99.239514 
2604.000000	99.239857 
2603.000000	99.240167 
2602.000000	99.240264 
2601.000000	99.240201 
2600.000000	99.240220 
2599.000000	99.240469 
2598.000000	99.240817 
2597.000000	99.241001 
2596.000000	99.240872 
2595.000000	99.240422 
2594.000000	99.239717 
2593.000000	99.238900 
2592.000000	99.238254 
2591.000000	99.238024 
2590.000000	99.238192 
2589.000000	99.238512 
2588.000000	99.238753 
2587.000000	99.238892 
2586.000000	99.238937 
2585.000000	99.238769 
2584.000000	99.238304 
2583.000000	99.237679 
2582.000000	99.237177 
2581.000000	99.236936 
2580.000000	99.236866 
2579.000000	99.236791 
2578.000000	99.236651 
2577.000000	99.236522 
2576.000000	99.236504 
2575.000000	99.236632 
2574.000000	99.236841 
2573.000000	99.236997 
2572.000000	99.236976 
2571.000000	99.236756 
2570.000000	99.236409 
2569.000000	99.236037 
2568.000000	99.235734 
2567.000000	99.235596 
2566.000000	99.235657 
2565.000000	99.235834 
2564.000000	99.235978 
2563.000000	99.236030 
2562.000000	99.236030 
2561.000000	99.236014 
2560.000000	99.236002 
2559.000000	99.236093 
2558.000000	99.236392 
2557.000000	99.236778 
2556.000000	99.236880 
2555.000000	99.236469 
2554.000000	99.235803 
2553.000000	99.235472 
2552.000000	99.235785 
2551.000000	99.236519 
2550.000000	99.237271 
2549.000000	99.237949 
2548.000000	99.238656 
2547.000000	99.239259 
2546.000000	99.239429 
2545.000000	99.239143 
2544.000000	99.238886 
2543.000000	99.239186 
2542.000000	99.240066 
2541.000000	99.240995 
2540.000000	99.241418 
2539.000000	99.241206 
2538.000000	99.240581 
2537.000000	99.239740 
2536.000000	99.238639 
2535.000000	99.237234 
2534.000000	99.235912 
2533.000000	99.235435 
2532.000000	99.236246 
2531.000000	99.237920 
2530.000000	99.239462 
2529.000000	99.240327 
2528.000000	99.240839 
2527.000000	99.241488 
2526.000000	99.242150 
2525.000000	99.242348 
2524.000000	99.242142 
2523.000000	99.242239 
2522.000000	99.243072 
2521.000000	99.244146 
2520.000000	99.244610 
2519.000000	99.244252 
2518.000000	99.243584 
2517.000000	99.243121 
2516.000000	99.242879 
2515.000000	99.242650 
2514.000000	99.242420 
2513.000000	99.242357 
2512.000000	99.242476 
2511.000000	99.242485 
2510.000000	99.242044 
2509.000000	99.241183 
2508.000000	99.240411 
2507.000000	99.240272 
2506.000000	99.240766 
2505.000000	99.241275 
2504.000000	99.241134 
2503.000000	99.240216 
2502.000000	99.238934 
2501.000000	99.237885 
2500.000000	99.237550 
2499.000000	99.238175 
2498.000000	99.239686 
2497.000000	99.241577 
2496.000000	99.243102 
2495.000000	99.243782 
2494.000000	99.243609 
2493.000000	99.242837 
2492.000000	99.241736 
2491.000000	99.240568 
2490.000000	99.239630 
2489.000000	99.239077 
2488.000000	99.238718 
2487.000000	99.238188 
2486.000000	99.237374 
2485.000000	99.236627 
2484.000000	99.236453 
2483.000000	99.237010 
2482.000000	99.237932 
2481.000000	99.238573 
2480.000000	99.238544 
2479.000000	99.237977 
2478.000000	99.237329 
2477.000000	99.236908 
2476.000000	99.236663 
2475.000000	99.236436 
2474.000000	99.236248 
2473.000000	99.236227 
2472.000000	99.236396 
2471.000000	99.236706 
2470.000000	99.237175 
2469.000000	99.237750 
2468.000000	99.238064 
2467.000000	99.237684 
2466.000000	99.236759 
2465.000000	99.236097 
2464.000000	99.236321 
2463.000000	99.237174 
2462.000000	99.237893 
2461.000000	99.238107 
2460.000000	99.238040 
2459.000000	99.237995 
2458.000000	99.237982 
2457.000000	99.237815 
2456.000000	99.237235 
2455.000000	99.235976 
2454.000000	99.234072 
2453.000000	99.232150 
2452.000000	99.231044 
2451.000000	99.230992 
2450.000000	99.231527 
2449.000000	99.232146 
2448.000000	99.232769 
2447.000000	99.233513 
2446.000000	99.234481 
2445.000000	99.235953 
2444.000000	99.238287 
2443.000000	99.241197 
2442.000000	99.243506 
2441.000000	99.244129 
2440.000000	99.243133 
2439.000000	99.241476 
2438.000000	99.239867 
2437.000000	99.238371 
2436.000000	99.236877 
2435.000000	99.235278 
2434.000000	99.233230 
2433.000000	99.230416 
2432.000000	99.227336 
2431.000000	99.225333 
2430.000000	99.225441 
2429.000000	99.227495 
2428.000000	99.230557 
2427.000000	99.233912 
2426.000000	99.237208 
2425.000000	99.239788 
2424.000000	99.240611 
2423.000000	99.239171 
2422.000000	99.236305 
2421.000000	99.233855 
2420.000000	99.233144 
2419.000000	99.233958 
2418.000000	99.235114 
2417.000000	99.235811 
2416.000000	99.236227 
2415.000000	99.236833 
2414.000000	99.237633 
2413.000000	99.238347 
2412.000000	99.238945 
2411.000000	99.239560 
2410.000000	99.240102 
2409.000000	99.240395 
2408.000000	99.240650 
2407.000000	99.241356 
2406.000000	99.242622 
2405.000000	99.243916 
2404.000000	99.244615 
2403.000000	99.244574 
2402.000000	99.244055 
2401.000000	99.243342 
2400.000000	99.242601 
2399.000000	99.242035 
2398.000000	99.241955 
2397.000000	99.242614 
2396.000000	99.244005 
2395.000000	99.245812 
2394.000000	99.247584 
2393.000000	99.249039 
2392.000000	99.250214 
2391.000000	99.251330 
2390.000000	99.252540 
2389.000000	99.253799 
2388.000000	99.254914 
2387.000000	99.255707 
2386.000000	99.256195 
2385.000000	99.256649 
2384.000000	99.257420 
2383.000000	99.258628 
2382.000000	99.260085 
2381.000000	99.261485 
2380.000000	99.262641 
2379.000000	99.263471 
2378.000000	99.263913 
2377.000000	99.264042 
2376.000000	99.264185 
2375.000000	99.264695 
2374.000000	99.265581 
2373.000000	99.266522 
2372.000000	99.267188 
2371.000000	99.267608 
2370.000000	99.268063 
2369.000000	99.268702 
2368.000000	99.269371 
2367.000000	99.269846 
2366.000000	99.270106 
2365.000000	99.270296 
2364.000000	99.270558 
2363.000000	99.270927 
2362.000000	99.271361 
2361.000000	99.271791 
2360.000000	99.272152 
2359.000000	99.272432 
2358.000000	99.272655 
2357.000000	99.272847 
2356.000000	99.273008 
2355.000000	99.273137 
2354.000000	99.273242 
2353.000000	99.273314 
2352.000000	99.273347 
2351.000000	99.273355 
2350.000000	99.273349 
2349.000000	99.273330 
2348.000000	99.273295 
2347.000000	99.273233 
2346.000000	99.273058 
2345.000000	99.272727 
2344.000000	99.272366 
2343.000000	99.272191 
2342.000000	99.272320 
2341.000000	99.272648 
2340.000000	99.272911 
2339.000000	99.272905 
2338.000000	99.272732 
2337.000000	99.272609 
2336.000000	99.272612 
2335.000000	99.272605 
2334.000000	99.272409 
2333.000000	99.271697 
2332.000000	99.270261 
2331.000000	99.268398 
2330.000000	99.266849 
2329.000000	99.266015 
2328.000000	99.265653 
2327.000000	99.265357 
2326.000000	99.264862 
2325.000000	99.263914 
2324.000000	99.262317 
2323.000000	99.260529 
2322.000000	99.259664 
2321.000000	99.260287 
2320.000000	99.261668 
2319.000000	99.262292 
2318.000000	99.261564 
2317.000000	99.260177 
2316.000000	99.259246 
2315.000000	99.259101 
2314.000000	99.259197 
2313.000000	99.258852 
2312.000000	99.257990 
2311.000000	99.257165 
2310.000000	99.257035 
2309.000000	99.257599 
2308.000000	99.257991 
2307.000000	99.257249 
2306.000000	99.255343 
2305.000000	99.253122 
2304.000000	99.251259 
2303.000000	99.249549 
2302.000000	99.247565 
2301.000000	99.245467 
2300.000000	99.243834 
2299.000000	99.242791 
2298.000000	99.241861 
2297.000000	99.240726 
2296.000000	99.239682 
2295.000000	99.239105 
2294.000000	99.238746 
2293.000000	99.237965 
2292.000000	99.236543 
2291.000000	99.234956 
2290.000000	99.233778 
2289.000000	99.233106 
2288.000000	99.232652 
2287.000000	99.232172 
2286.000000	99.231620 
2285.000000	99.231029 
2284.000000	99.230453 
2283.000000	99.229914 
2282.000000	99.229188 
2281.000000	99.227779 
2280.000000	99.225424 
2279.000000	99.222714 
2278.000000	99.220864 
2277.000000	99.220521 
2276.000000	99.221223 
2275.000000	99.222007 
2274.000000	99.222406 
2273.000000	99.222474 
2272.000000	99.222041 
2271.000000	99.220601 
2270.000000	99.218182 
2269.000000	99.215931 
2268.000000	99.215218 
2267.000000	99.216332 
2266.000000	99.218285 
2265.000000	99.219764 
2264.000000	99.220094 
2263.000000	99.219284 
2262.000000	99.217913 
2261.000000	99.217100 
2260.000000	99.217820 
2259.000000	99.219705 
2258.000000	99.220946 
2257.000000	99.220136 
2256.000000	99.217849 
2255.000000	99.215889 
2254.000000	99.215102 
2253.000000	99.214756 
2252.000000	99.214105 
2251.000000	99.213517 
2250.000000	99.213699 
2249.000000	99.214596 
2248.000000	99.215508 
2247.000000	99.215741 
2246.000000	99.214744 
2245.000000	99.212182 
2244.000000	99.208423 
2243.000000	99.204675 
2242.000000	99.202116 
2241.000000	99.200996 
2240.000000	99.200748 
2239.000000	99.200715 
2238.000000	99.200482 
2237.000000	99.199659 
2236.000000	99.197804 
2235.000000	99.194746 
2234.000000	99.191029 
2233.000000	99.187992 
2232.000000	99.187166 
2231.000000	99.189192 
2230.000000	99.193167 
2229.000000	99.197208 
2228.000000	99.200033 
2227.000000	99.201752 
2226.000000	99.203048 
2225.000000	99.203992 
2224.000000	99.203934 
2223.000000	99.202437 
2222.000000	99.200058 
2221.000000	99.198183 
2220.000000	99.197847 
2219.000000	99.198788 
2218.000000	99.199864 
2217.000000	99.200371 
2216.000000	99.200695 
2215.000000	99.201412 
2214.000000	99.202186 
2213.000000	99.202003 
2212.000000	99.200412 
2211.000000	99.198098 
2210.000000	99.196318 
2209.000000	99.195772 
2208.000000	99.196172 
2207.000000	99.196658 
2206.000000	99.196567 
2205.000000	99.195898 
2204.000000	99.195064 
2203.000000	99.194375 
2202.000000	99.193867 
2201.000000	99.193523 
2200.000000	99.193381 
2199.000000	99.193360 
2198.000000	99.193227 
2197.000000	99.192874 
2196.000000	99.192533 
2195.000000	99.192511 
2194.000000	99.192807 
2193.000000	99.193151 
2192.000000	99.193278 
2191.000000	99.193130 
2190.000000	99.192785 
2189.000000	99.192363 
2188.000000	99.191996 
2187.000000	99.191799 
2186.000000	99.191809 
2185.000000	99.191993 
2184.000000	99.192297 
2183.000000	99.192652 
2182.000000	99.192858 
2181.000000	99.192703 
2180.000000	99.192303 
2179.000000	99.192138 
2178.000000	99.192476 
2177.000000	99.192944 
2176.000000	99.192906 
2175.000000	99.192178 
2174.000000	99.191145 
2173.000000	99.190345 
2172.000000	99.190093 
2171.000000	99.190452 
2170.000000	99.191279 
2169.000000	99.192260 
2168.000000	99.193152 
2167.000000	99.193928 
2166.000000	99.194530 
2165.000000	99.194704 
2164.000000	99.194354 
2163.000000	99.193838 
2162.000000	99.193556 
2161.000000	99.193411 
2160.000000	99.193010 
2159.000000	99.192280 
2158.000000	99.191599 
2157.000000	99.191457 
2156.000000	99.192201 
2155.000000	99.193780 
2154.000000	99.195502 
2153.000000	99.196495 
2152.000000	99.196671 
2151.000000	99.196853 
2150.000000	99.197847 
2149.000000	99.199874 
2148.000000	99.202840 
2147.000000	99.206265 
2146.000000	99.208736 
2145.000000	99.208740 
2144.000000	99.206457 
2143.000000	99.204138 
2142.000000	99.203638 
2141.000000	99.204389 
2140.000000	99.204795 
2139.000000	99.204625 
2138.000000	99.204834 
2137.000000	99.205412 
2136.000000	99.205051 
2135.000000	99.203267 
2134.000000	99.201442 
2133.000000	99.201094 
2132.000000	99.202010 
2131.000000	99.202657 
2130.000000	99.201940 
2129.000000	99.200109 
2128.000000	99.198350 
2127.000000	99.197718 
2126.000000	99.198329 
2125.000000	99.199400 
2124.000000	99.200201 
2123.000000	99.200965 
2122.000000	99.202422 
2121.000000	99.204521 
2120.000000	99.206120 
2119.000000	99.206181 
2118.000000	99.204829 
2117.000000	99.203082 
2116.000000	99.201814 
2115.000000	99.201263 
2114.000000	99.201293 
2113.000000	99.201612 
2112.000000	99.201777 
2111.000000	99.201319 
2110.000000	99.200059 
2109.000000	99.198338 
2108.000000	99.196798 
2107.000000	99.195792 
2106.000000	99.194935 
2105.000000	99.193423 
2104.000000	99.191035 
2103.000000	99.188688 
2102.000000	99.187637 
2101.000000	99.188106 
2100.000000	99.189137 
2099.000000	99.189661 
2098.000000	99.189525 
2097.000000	99.189497 
2096.000000	99.190393 
2095.000000	99.192173 
2094.000000	99.193609 
2093.000000	99.193118 
2092.000000	99.190291 
2091.000000	99.186643 
2090.000000	99.184469 
2089.000000	99.184568 
2088.000000	99.185756 
2087.000000	99.186453 
2086.000000	99.186397 
2085.000000	99.186455 
2084.000000	99.187301 
2083.000000	99.188791 
2082.000000	99.190318 
2081.000000	99.191320 
2080.000000	99.191583 
2079.000000	99.191307 
2078.000000	99.190933 
2077.000000	99.190978 
2076.000000	99.192051 
2075.000000	99.194577 
2074.000000	99.197974 
2073.000000	99.200442 
2072.000000	99.200482 
2071.000000	99.198482 
2070.000000	99.196260 
2069.000000	99.194969 
2068.000000	99.194186 
2067.000000	99.193242 
2066.000000	99.192394 
2065.000000	99.192173 
2064.000000	99.192298 
2063.000000	99.192078 
2062.000000	99.191532 
2061.000000	99.191467 
2060.000000	99.192524 
2059.000000	99.194385 
2058.000000	99.195778 
2057.000000	99.195441 
2056.000000	99.193339 
2055.000000	99.190839 
2054.000000	99.189361 
2053.000000	99.189089 
2052.000000	99.189547 
2051.000000	99.190742 
2050.000000	99.192614 
2049.000000	99.193770 
2048.000000	99.192366 
2047.000000	99.188387 
2046.000000	99.183795 
2045.000000	99.179978 
2044.000000	99.176542 
2043.000000	99.173000 
2042.000000	99.170075 
2041.000000	99.168681 
2040.000000	99.168767 
2039.000000	99.169929 
2038.000000	99.171969 
2037.000000	99.173964 
2036.000000	99.173981 
2035.000000	99.170913 
2034.000000	99.166054 
2033.000000	99.161957 
2032.000000	99.159837 
2031.000000	99.158957 
2030.000000	99.158088 
2029.000000	99.156724 
2028.000000	99.155080 
2027.000000	99.153708 
2026.000000	99.153232 
2025.000000	99.154112 
2024.000000	99.156261 
2023.000000	99.158654 
2022.000000	99.159543 
2021.000000	99.157803 
2020.000000	99.154617 
2019.000000	99.153122 
2018.000000	99.155363 
2017.000000	99.159961 
2016.000000	99.163283 
2015.000000	99.163349 
2014.000000	99.161388 
2013.000000	99.159913 
2012.000000	99.160297 
2011.000000	99.162344 
2010.000000	99.165268 
2009.000000	99.168503 
2008.000000	99.171822 
2007.000000	99.175018 
2006.000000	99.177376 
2005.000000	99.177799 
2004.000000	99.176005 
2003.000000	99.173231 
2002.000000	99.171276 
2001.000000	99.170715 
2000.000000	99.170640 
1999.000000	99.169998 
1998.000000	99.168704 
1997.000000	99.167596 
1996.000000	99.167592 
1995.000000	99.168977 
1994.000000	99.171231 
1993.000000	99.173280 
1992.000000	99.174234 
1991.000000	99.174054 
1990.000000	99.173328 
1989.000000	99.172685 
1988.000000	99.172445 
1987.000000	99.172604 
1986.000000	99.172894 
1985.000000	99.172972 
1984.000000	99.172744 
1983.000000	99.172458 
1982.000000	99.172401 
1981.000000	99.172536 
1980.000000	99.172547 
1979.000000	99.172243 
1978.000000	99.171787 
1977.000000	99.171473 
1976.000000	99.171370 
1975.000000	99.171318 
1974.000000	99.171206 
1973.000000	99.171130 
1972.000000	99.171231 
1971.000000	99.171480 
1970.000000	99.171702 
1969.000000	99.171734 
1968.000000	99.171571 
1967.000000	99.171332 
1966.000000	99.171184 
1965.000000	99.171186 
1964.000000	99.171292 
1963.000000	99.171439 
1962.000000	99.171618 
1961.000000	99.171843 
1960.000000	99.172095 
1959.000000	99.172367 
1958.000000	99.172778 
1957.000000	99.173453 
1956.000000	99.174231 
1955.000000	99.174731 
1954.000000	99.174886 
1953.000000	99.175165 
1952.000000	99.175928 
1951.000000	99.176767 
1950.000000	99.176935 
1949.000000	99.176256 
1948.000000	99.175349 
1947.000000	99.174814 
1946.000000	99.174459 
1945.000000	99.173595 
1944.000000	99.172123 
1943.000000	99.171145 
1942.000000	99.171990 
1941.000000	99.174677 
1940.000000	99.177719 
1939.000000	99.179677 
1938.000000	99.180592 
1937.000000	99.181686 
1936.000000	99.183732 
1935.000000	99.185920 
1934.000000	99.186715 
1933.000000	99.185815 
1932.000000	99.184800 
1931.000000	99.185643 
1930.000000	99.188712 
1929.000000	99.192327 
1928.000000	99.194631 
1927.000000	99.195381 
1926.000000	99.195667 
1925.000000	99.196372 
1924.000000	99.197397 
1923.000000	99.198505 
1922.000000	99.199754 
1921.000000	99.200847 
1920.000000	99.200757 
1919.000000	99.198632 
1918.000000	99.194883 
1917.000000	99.191159 
1916.000000	99.188976 
1915.000000	99.188683 
1914.000000	99.189777 
1913.000000	99.191650 
1912.000000	99.193796 
1911.000000	99.195758 
1910.000000	99.196992 
1909.000000	99.197143 
1908.000000	99.196864 
1907.000000	99.197455 
1906.000000	99.199561 
1905.000000	99.202305 
1904.000000	99.204064 
1903.000000	99.204392 
1902.000000	99.204090 
1901.000000	99.203931 
1900.000000	99.204051 
1899.000000	99.204316 
1898.000000	99.204813 
1897.000000	99.205691 
1896.000000	99.206748 
1895.000000	99.207606 
1894.000000	99.207937 
1893.000000	99.207627 
1892.000000	99.206980 
1891.000000	99.206660 
1890.000000	99.206968 
1889.000000	99.207329 
1888.000000	99.207135 
1887.000000	99.206697 
1886.000000	99.206800 
1885.000000	99.207923 
1884.000000	99.210029 
1883.000000	99.212849 
1882.000000	99.215788 
1881.000000	99.217945 
1880.000000	99.219087 
1879.000000	99.220039 
1878.000000	99.221759 
1877.000000	99.224199 
1876.000000	99.226214 
1875.000000	99.226742 
1874.000000	99.225600 
1873.000000	99.223279 
1872.000000	99.220651 
1871.000000	99.218710 
1870.000000	99.218034 
1869.000000	99.218177 
1868.000000	99.218317 
1867.000000	99.218753 
1866.000000	99.220315 
1865.000000	99.222786 
1864.000000	99.224897 
1863.000000	99.225546 
1862.000000	99.224724 
1861.000000	99.223434 
1860.000000	99.223010 
1859.000000	99.224189 
1858.000000	99.226538 
1857.000000	99.228687 
1856.000000	99.229716 
1855.000000	99.230065 
1854.000000	99.230701 
1853.000000	99.231662 
1852.000000	99.232310 
1851.000000	99.232427 
1850.000000	99.232487 
1849.000000	99.233143 
1848.000000	99.234447 
1847.000000	99.235852 
1846.000000	99.236668 
1845.000000	99.236577 
1844.000000	99.235870 
1843.000000	99.235392 
1842.000000	99.235713 
1841.000000	99.236425 
1840.000000	99.236868 
1839.000000	99.236778 
1838.000000	99.236365 
1837.000000	99.235943 
1836.000000	99.235631 
1835.000000	99.235473 
1834.000000	99.235481 
1833.000000	99.235613 
1832.000000	99.235809 
1831.000000	99.235917 
1830.000000	99.235808 
1829.000000	99.235731 
1828.000000	99.236078 
1827.000000	99.236799 
1826.000000	99.237497 
1825.000000	99.237943 
1824.000000	99.238193 
1823.000000	99.238329 
1822.000000	99.238155 
1821.000000	99.237502 
1820.000000	99.236826 
1819.000000	99.236949 
1818.000000	99.238178 
1817.000000	99.239836 
1816.000000	99.240819 
1815.000000	99.240936 
1814.000000	99.240855 
1813.000000	99.241246 
1812.000000	99.242120 
1811.000000	99.243082 
1810.000000	99.243948 
1809.000000	99.244573 
1808.000000	99.244658 
1807.000000	99.244133 
1806.000000	99.243311 
1805.000000	99.242548 
1804.000000	99.242015 
1803.000000	99.241899 
1802.000000	99.242231 
1801.000000	99.242573 
1800.000000	99.242286 
1799.000000	99.241428 
1798.000000	99.240970 
1797.000000	99.241555 
1796.000000	99.242863 
1795.000000	99.244108 
1794.000000	99.244792 
1793.000000	99.244850 
1792.000000	99.244241 
1791.000000	99.243109 
1790.000000	99.242056 
1789.000000	99.241354 
1788.000000	99.240976 
1787.000000	99.241077 
1786.000000	99.241888 
1785.000000	99.242930 
1784.000000	99.243135 
1783.000000	99.242183 
1782.000000	99.240229 
1781.000000	99.237670 
1780.000000	99.235043 
1779.000000	99.232698 
1778.000000	99.231300 
1777.000000	99.231116 
1776.000000	99.232156 
1775.000000	99.233527 
1774.000000	99.233713 
1773.000000	99.232509 
1772.000000	99.231518 
1771.000000	99.232267 
1770.000000	99.234451 
1769.000000	99.235589 
1768.000000	99.233612 
1767.000000	99.229296 
1766.000000	99.225444 
1765.000000	99.223749 
1764.000000	99.223203 
1763.000000	99.221902 
1762.000000	99.218881 
1761.000000	99.215258 
1760.000000	99.212408 
1759.000000	99.210244 
1758.000000	99.208963 
1757.000000	99.209410 
1756.000000	99.211652 
1755.000000	99.212743 
1754.000000	99.209607 
1753.000000	99.202641 
1752.000000	99.195393 
1751.000000	99.189151 
1750.000000	99.181874 
1749.000000	99.173025 
1748.000000	99.165193 
1747.000000	99.160464 
1746.000000	99.156731 
1745.000000	99.152090 
1744.000000	99.147549 
1743.000000	99.144957 
1742.000000	99.144859 
1741.000000	99.146113 
1740.000000	99.147298 
1739.000000	99.148644 
1738.000000	99.151298 
1737.000000	99.153805 
1736.000000	99.154508 
1735.000000	99.156453 
1734.000000	99.161997 
1733.000000	99.167756 
1732.000000	99.172091 
1731.000000	99.174006 
1730.000000	99.174202 
1729.000000	99.174678 
1728.000000	99.176399 
1727.000000	99.178640 
1726.000000	99.180443 
1725.000000	99.182781 
1724.000000	99.185680 
1723.000000	99.187529 
1722.000000	99.187902 
1721.000000	99.186952 
1720.000000	99.184740 
1719.000000	99.181755 
1718.000000	99.179134 
1717.000000	99.176301 
1716.000000	99.172571 
1715.000000	99.169545 
1714.000000	99.168292 
1713.000000	99.167667 
1712.000000	99.166490 
1711.000000	99.166318 
1710.000000	99.169038 
1709.000000	99.173677 
1708.000000	99.177830 
1707.000000	99.180896 
1706.000000	99.184560 
1705.000000	99.188780 
1704.000000	99.191395 
1703.000000	99.191586 
1702.000000	99.191133 
1701.000000	99.193422 
1700.000000	99.196367 
1699.000000	99.197148 
1698.000000	99.198521 
1697.000000	99.199525 
1696.000000	99.198156 
1695.000000	99.194294 
1694.000000	99.190890 
1693.000000	99.189183 
1692.000000	99.187698 
1691.000000	99.186421 
1690.000000	99.185937 
1689.000000	99.185896 
1688.000000	99.186224 
1687.000000	99.186409 
1686.000000	99.186443 
1685.000000	99.187058 
1684.000000	99.187022 
1683.000000	99.186428 
1682.000000	99.186782 
1681.000000	99.186174 
1680.000000	99.184858 
1679.000000	99.184640 
1678.000000	99.185681 
1677.000000	99.186565 
1676.000000	99.186188 
1675.000000	99.184353 
1674.000000	99.182003 
1673.000000	99.181009 
1672.000000	99.181511 
1671.000000	99.182573 
1670.000000	99.182907 
1669.000000	99.181109 
1668.000000	99.178146 
1667.000000	99.175278 
1666.000000	99.172227 
1665.000000	99.168995 
1664.000000	99.166688 
1663.000000	99.166346 
1662.000000	99.166698 
1661.000000	99.165943 
1660.000000	99.164758 
1659.000000	99.164315 
1658.000000	99.164586 
1657.000000	99.164784 
1656.000000	99.164354 
1655.000000	99.163495 
1654.000000	99.164316 
1653.000000	99.164863 
1652.000000	99.162266 
1651.000000	99.162332 
1650.000000	99.163680 
1649.000000	99.163453 
1648.000000	99.162588 
1647.000000	99.162420 
1646.000000	99.162348 
1645.000000	99.162318 
1644.000000	99.162606 
1643.000000	99.163109 
1642.000000	99.163289 
1641.000000	99.162665 
1640.000000	99.161771 
1639.000000	99.161276 
1638.000000	99.161772 
1637.000000	99.163985 
1636.000000	99.168114 
1635.000000	99.171869 
1634.000000	99.174075 
1633.000000	99.175173 
1632.000000	99.174380 
1631.000000	99.172399 
1630.000000	99.170591 
1629.000000	99.169573 
1628.000000	99.169364 
1627.000000	99.170347 
1626.000000	99.172357 
1625.000000	99.174736 
1624.000000	99.177461 
1623.000000	99.180594 
1622.000000	99.183408 
1621.000000	99.185452 
1620.000000	99.187274 
1619.000000	99.189439 
1618.000000	99.192478 
1617.000000	99.195294 
1616.000000	99.196699 
1615.000000	99.198395 
1614.000000	99.201180 
1613.000000	99.203752 
1612.000000	99.206166 
1611.000000	99.209396 
1610.000000	99.212406 
1609.000000	99.213412 
1608.000000	99.213182 
1607.000000	99.214038 
1606.000000	99.216046 
1605.000000	99.217858 
1604.000000	99.219633 
1603.000000	99.221735 
1602.000000	99.223642 
1601.000000	99.224858 
1600.000000	99.226122 
1599.000000	99.228243 
1598.000000	99.230696 
1597.000000	99.232451 
1596.000000	99.233147 
1595.000000	99.233052 
1594.000000	99.232462 
1593.000000	99.231934 
1592.000000	99.232567 
1591.000000	99.234870 
1590.000000	99.237646 
1589.000000	99.239228 
1588.000000	99.239544 
1587.000000	99.239801 
1586.000000	99.240517 
1585.000000	99.240965 
1584.000000	99.241356 
1583.000000	99.242327 
1582.000000	99.243093 
1581.000000	99.242897 
1580.000000	99.242120 
1579.000000	99.240994 
1578.000000	99.239131 
1577.000000	99.236982 
1576.000000	99.235426 
1575.000000	99.235110 
1574.000000	99.235699 
1573.000000	99.235938 
1572.000000	99.235565 
1571.000000	99.235548 
1570.000000	99.236238 
1569.000000	99.236703 
1568.000000	99.236959 
1567.000000	99.237085 
1566.000000	99.236509 
1565.000000	99.235299 
1564.000000	99.234370 
1563.000000	99.234154 
1562.000000	99.234062 
1561.000000	99.233667 
1560.000000	99.234115 
1559.000000	99.234824 
1558.000000	99.233858 
1557.000000	99.233212 
1556.000000	99.233354 
1555.000000	99.233571 
1554.000000	99.233455 
1553.000000	99.233069 
1552.000000	99.232653 
1551.000000	99.232219 
1550.000000	99.231922 
1549.000000	99.231866 
1548.000000	99.231999 
1547.000000	99.232134 
1546.000000	99.232043 
1545.000000	99.231760 
1544.000000	99.231571 
1543.000000	99.231814 
1542.000000	99.232716 
1541.000000	99.234181 
1540.000000	99.235340 
1539.000000	99.235614 
1538.000000	99.235627 
1537.000000	99.235866 
1536.000000	99.236150 
1535.000000	99.236456 
1534.000000	99.236825 
1533.000000	99.237131 
1532.000000	99.237309 
1531.000000	99.237431 
1530.000000	99.237573 
1529.000000	99.237731 
1528.000000	99.237903 
1527.000000	99.238225 
1526.000000	99.238774 
1525.000000	99.239449 
1524.000000	99.240174 
1523.000000	99.241177 
1522.000000	99.242838 
1521.000000	99.244393 
1520.000000	99.244667 
1519.000000	99.243626 
1518.000000	99.241812 
1517.000000	99.240261 
1516.000000	99.239679 
1515.000000	99.239873 
1514.000000	99.240227 
1513.000000	99.240508 
1512.000000	99.240644 
1511.000000	99.240344 
1510.000000	99.239767 
1509.000000	99.239771 
1508.000000	99.242114 
1507.000000	99.246331 
1506.000000	99.247781 
1505.000000	99.245456 
1504.000000	99.242953 
1503.000000	99.241806 
1502.000000	99.241736 
1501.000000	99.241963 
1500.000000	99.241184 
1499.000000	99.238446 
1498.000000	99.234401 
1497.000000	99.230830 
1496.000000	99.228246 
1495.000000	99.227111 
1494.000000	99.228256 
1493.000000	99.231197 
1492.000000	99.234736 
1491.000000	99.237813 
1490.000000	99.239180 
1489.000000	99.237620 
1488.000000	99.233243 
1487.000000	99.228321 
1486.000000	99.224896 
1485.000000	99.221688 
1484.000000	99.217725 
1483.000000	99.213992 
1482.000000	99.211845 
1481.000000	99.211064 
1480.000000	99.209700 
1479.000000	99.206950 
1478.000000	99.203432 
1477.000000	99.199724 
1476.000000	99.195495 
1475.000000	99.191622 
1474.000000	99.189230 
1473.000000	99.186862 
1472.000000	99.181111 
1471.000000	99.171841 
1470.000000	99.162502 
1469.000000	99.154517 
1468.000000	99.147482 
1467.000000	99.141710 
1466.000000	99.138226 
1465.000000	99.137229 
1464.000000	99.137938 
1463.000000	99.139044 
1462.000000	99.139977 
1461.000000	99.140196 
1460.000000	99.139126 
1459.000000	99.136452 
1458.000000	99.132424 
1457.000000	99.126273 
1456.000000	99.117470 
1455.000000	99.109362 
1454.000000	99.103919 
1453.000000	99.102382 
1452.000000	99.105893 
1451.000000	99.112634 
1450.000000	99.119073 
1449.000000	99.123112 
1448.000000	99.124802 
1447.000000	99.125781 
1446.000000	99.126675 
1445.000000	99.127364 
1444.000000	99.128079 
1443.000000	99.128463 
1442.000000	99.128943 
1441.000000	99.129931 
1440.000000	99.130988 
1439.000000	99.130996 
1438.000000	99.131175 
1437.000000	99.133412 
1436.000000	99.135265 
1435.000000	99.133701 
1434.000000	99.129873 
1433.000000	99.126296 
1432.000000	99.124338 
1431.000000	99.123623 
1430.000000	99.122754 
1429.000000	99.120894 
1428.000000	99.117449 
1427.000000	99.112919 
1426.000000	99.108127 
1425.000000	99.104447 
1424.000000	99.102663 
1423.000000	99.100652 
1422.000000	99.096082 
1421.000000	99.088687 
1420.000000	99.080159 
1419.000000	99.071748 
1418.000000	99.063936 
1417.000000	99.056778 
1416.000000	99.048608 
1415.000000	99.038307 
1414.000000	99.027120 
1413.000000	99.017646 
1412.000000	99.011326 
1411.000000	99.006985 
1410.000000	99.002667 
1409.000000	98.997826 
1408.000000	98.993231 
1407.000000	98.990655 
1406.000000	98.991377 
1405.000000	98.995105 
1404.000000	99.000335 
1403.000000	99.005463 
1402.000000	99.010578 
1401.000000	99.016697 
1400.000000	99.023786 
1399.000000	99.029342 
1398.000000	99.029838 
1397.000000	99.023164 
1396.000000	99.009853 
1395.000000	98.995493 
1394.000000	98.989193 
1393.000000	98.995758 
1392.000000	99.011374 
1391.000000	99.027585 
1390.000000	99.038254 
1389.000000	99.042135 
1388.000000	99.040900 
1387.000000	99.036709 
1386.000000	99.031680 
1385.000000	99.027770 
1384.000000	99.025853 
1383.000000	99.025145 
1382.000000	99.024603 
1381.000000	99.024403 
1380.000000	99.025856 
1379.000000	99.029905 
1378.000000	99.035939 
1377.000000	99.042571 
1376.000000	99.049126 
1375.000000	99.056019 
1374.000000	99.063806 
1373.000000	99.072610 
1372.000000	99.081976 
1371.000000	99.091022 
1370.000000	99.098701 
1369.000000	99.104598 
1368.000000	99.109501 
1367.000000	99.114498 
1366.000000	99.120363 
1365.000000	99.127493 
1364.000000	99.135866 
1363.000000	99.144519 
1362.000000	99.151767 
1361.000000	99.156617 
1360.000000	99.159667 
1359.000000	99.162645 
1358.000000	99.167385 
1357.000000	99.174711 
1356.000000	99.183585 
1355.000000	99.191560 
1354.000000	99.197072 
1353.000000	99.200768 
1352.000000	99.203753 
1351.000000	99.206049 
1350.000000	99.207133 
1349.000000	99.207596 
1348.000000	99.208700 
1347.000000	99.210484 
1346.000000	99.212309 
1345.000000	99.214205 
1344.000000	99.216725 
1343.000000	99.219593 
1342.000000	99.222125 
1341.000000	99.224685 
1340.000000	99.228262 
1339.000000	99.232282 
1338.000000	99.234893 
1337.000000	99.235751 
1336.000000	99.236340 
1335.000000	99.237391 
1334.000000	99.237911 
1333.000000	99.237171 
1332.000000	99.236164 
1331.000000	99.236198 
1330.000000	99.237077 
1329.000000	99.237761 
1328.000000	99.237970 
1327.000000	99.237999 
1326.000000	99.237458 
1325.000000	99.235711 
1324.000000	99.233363 
1323.000000	99.232013 
1322.000000	99.232746 
1321.000000	99.235431 
1320.000000	99.239371 
1319.000000	99.243743 
1318.000000	99.247378 
1317.000000	99.248875 
1316.000000	99.247538 
1315.000000	99.244185 
1314.000000	99.240814 
1313.000000	99.239127 
1312.000000	99.239305 
1311.000000	99.240384 
1310.000000	99.241529 
1309.000000	99.242499 
1308.000000	99.242973 
1307.000000	99.242338 
1306.000000	99.240437 
1305.000000	99.238188 
1304.000000	99.236924 
1303.000000	99.237167 
1302.000000	99.238478 
1301.000000	99.240086 
1300.000000	99.241363 
1299.000000	99.242063 
1298.000000	99.242721 
1297.000000	99.244309 
1296.000000	99.246854 
1295.000000	99.248700 
1294.000000	99.247992 
1293.000000	99.244718 
1292.000000	99.240604 
1291.000000	99.237322 
1290.000000	99.235529 
1289.000000	99.235370 
1288.000000	99.236675 
1287.000000	99.238333 
1286.000000	99.238584 
1285.000000	99.236500 
1284.000000	99.232598 
1283.000000	99.228052 
1282.000000	99.223654 
1281.000000	99.219717 
1280.000000	99.216604 
1279.000000	99.214473 
1278.000000	99.212709 
1277.000000	99.210318 
1276.000000	99.206836 
1275.000000	99.202559 
1274.000000	99.197983 
1273.000000	99.193336 
1272.000000	99.188607 
1271.000000	99.183751 
1270.000000	99.178750 
1269.000000	99.173597 
1268.000000	99.168351 
1267.000000	99.163114 
1266.000000	99.157944 
1265.000000	99.152809 
1264.000000	99.147617 
1263.000000	99.142296 
1262.000000	99.136855 
1261.000000	99.131417 
1260.000000	99.126222 
1259.000000	99.121430 
1258.000000	99.116902 
1257.000000	99.112434 
1256.000000	99.108324 
1255.000000	99.105437 
1254.000000	99.104266 
1253.000000	99.104064 
1252.000000	99.103490 
1251.000000	99.102285 
1250.000000	99.101727 
1249.000000	99.103124 
1248.000000	99.106286 
1247.000000	99.109659 
1246.000000	99.111352 
1245.000000	99.109723 
1244.000000	99.103952 
1243.000000	99.095536 
1242.000000	99.088871 
1241.000000	99.088248 
1240.000000	99.093834 
1239.000000	99.101084 
1238.000000	99.104867 
1237.000000	99.103884 
1236.000000	99.100209 
1235.000000	99.096081 
1234.000000	99.092347 
1233.000000	99.089155 
1232.000000	99.086242 
1231.000000	99.082569 
1230.000000	99.077385 
1229.000000	99.071991 
1228.000000	99.069010 
1227.000000	99.069455 
1226.000000	99.071636 
1225.000000	99.073366 
1224.000000	99.074215 
1223.000000	99.075045 
1222.000000	99.076456 
1221.000000	99.078549 
1220.000000	99.081422 
1219.000000	99.084928 
1218.000000	99.088253 
1217.000000	99.090385 
1216.000000	99.090877 
1215.000000	99.089924 
1214.000000	99.087893 
1213.000000	99.084887 
1212.000000	99.080630 
1211.000000	99.075009 
1210.000000	99.069048 
1209.000000	99.064755 
1208.000000	99.063223 
1207.000000	99.063172 
1206.000000	99.062244 
1205.000000	99.059375 
1204.000000	99.054902 
1203.000000	99.048953 
1202.000000	99.041452 
1201.000000	99.033637 
1200.000000	99.027713 
1199.000000	99.024315 
1198.000000	99.021628 
1197.000000	99.017581 
1196.000000	99.011433 
1195.000000	99.003044 
1194.000000	98.992577 
1193.000000	98.981514 
1192.000000	98.972252 
1191.000000	98.965273 
1190.000000	98.957812 
1189.000000	98.946951 
1188.000000	98.933383 
1187.000000	98.920821 
1186.000000	98.912073 
1185.000000	98.906798 
1184.000000	98.902657 
1183.000000	98.897281 
1182.000000	98.889421 
1181.000000	98.879656 
1180.000000	98.870145 
1179.000000	98.862545 
1178.000000	98.855911 
1177.000000	98.847558 
1176.000000	98.835992 
1175.000000	98.821916 
1174.000000	98.806347 
1173.000000	98.789240 
1172.000000	98.770825 
1171.000000	98.753015 
1170.000000	98.737906 
1169.000000	98.725212 
1168.000000	98.712518 
1167.000000	98.698424 
1166.000000	98.684720 
1165.000000	98.674853 
1164.000000	98.670682 
1163.000000	98.671219 
1162.000000	98.674176 
1161.000000	98.678232 
1160.000000	98.683359 
1159.000000	98.689069 
1158.000000	98.693044 
1157.000000	98.692017 
1156.000000	98.684087 
1155.000000	98.670475 
1154.000000	98.655404 
1153.000000	98.643704 
1152.000000	98.637361 
1151.000000	98.633920 
1150.000000	98.628803 
1149.000000	98.619726 
1148.000000	98.608446 
1147.000000	98.597944 
1146.000000	98.588621 
1145.000000	98.578106 
1144.000000	98.564354 
1143.000000	98.547942 
1142.000000	98.531546 
1141.000000	98.517952 
1140.000000	98.508485 
1139.000000	98.502194 
1138.000000	98.496069 
1137.000000	98.486905 
1136.000000	98.473726 
1135.000000	98.458249 
1134.000000	98.442547 
1133.000000	98.426362 
1132.000000	98.407425 
1131.000000	98.384705 
1130.000000	98.360807 
1129.000000	98.340118 
1128.000000	98.323863 
1127.000000	98.307714 
1126.000000	98.285822 
1125.000000	98.257536 
1124.000000	98.228951 
1123.000000	98.206700 
1122.000000	98.190874 
1121.000000	98.175467 
1120.000000	98.155244 
1119.000000	98.130495 
1118.000000	98.105142 
1117.000000	98.082087 
1116.000000	98.061387 
1115.000000	98.041753 
1114.000000	98.022328 
1113.000000	98.003053 
1112.000000	97.984036 
1111.000000	97.964766 
1110.000000	97.943942 
1109.000000	97.920552 
1108.000000	97.895394 
1107.000000	97.870954 
1106.000000	97.849249 
1105.000000	97.829894 
1104.000000	97.810462 
1103.000000	97.788870 
1102.000000	97.765554 
1101.000000	97.743232 
1100.000000	97.724253 
1099.000000	97.708288 
1098.000000	97.692991 
1097.000000	97.676784 
1096.000000	97.659980 
1095.000000	97.642743 
1094.000000	97.623125 
1093.000000	97.598350 
1092.000000	97.567628 
1091.000000	97.532919 
1090.000000	97.497306 
1089.000000	97.463302 
1088.000000	97.432295 
1087.000000	97.404356 
1086.000000	97.378273 
1085.000000	97.352519 
1084.000000	97.326320 
1083.000000	97.299268 
1082.000000	97.270485 
1081.000000	97.239449 
1080.000000	97.207471 
1079.000000	97.176875 
1078.000000	97.148582 
1077.000000	97.122073 
1076.000000	97.097961 
1075.000000	97.078683 
1074.000000	97.065697 
1073.000000	97.057210 
1072.000000	97.048883 
1071.000000	97.035171 
1070.000000	97.010184 
1069.000000	96.970854 
1068.000000	96.922037 
1067.000000	96.876950 
1066.000000	96.848640 
1065.000000	96.840129 
1064.000000	96.843343 
1063.000000	96.846225 
1062.000000	96.839913 
1061.000000	96.820552 
1060.000000	96.788492 
1059.000000	96.748638 
1058.000000	96.709779 
1057.000000	96.679871 
1056.000000	96.660602 
1055.000000	96.647183 
1054.000000	96.633675 
1053.000000	96.617944 
1052.000000	96.601121 
1051.000000	96.583901 
1050.000000	96.565586 
1049.000000	96.546329 
1048.000000	96.527829 
1047.000000	96.511397 
1046.000000	96.497179 
1045.000000	96.485199 
1044.000000	96.475029 
1043.000000	96.464453 
1042.000000	96.451135 
1041.000000	96.436340 
1040.000000	96.424514 
1039.000000	96.418402 
1038.000000	96.417217 
1037.000000	96.420330 
1036.000000	96.429168 
1035.000000	96.443519 
1034.000000	96.459359 
1033.000000	96.472701 
1032.000000	96.482221 
1031.000000	96.485871 
1030.000000	96.479994 
1029.000000	96.466893 
1028.000000	96.459575 
1027.000000	96.471763 
1026.000000	96.503325 
1025.000000	96.540033 
1024.000000	96.567740 
1023.000000	96.582933 
1022.000000	96.590133 
1021.000000	96.594964 
1020.000000	96.601337 
1019.000000	96.610878 
1018.000000	96.622125 
1017.000000	96.632208 
1016.000000	96.640674 
1015.000000	96.649909 
1014.000000	96.661343 
1013.000000	96.673382 
1012.000000	96.683776 
1011.000000	96.692143 
1010.000000	96.699728 
1009.000000	96.708417 
1008.000000	96.720216 
1007.000000	96.736006 
1006.000000	96.754572 
1005.000000	96.774121 
1004.000000	96.794385 
1003.000000	96.815841 
1002.000000	96.837952 
1001.000000	96.860148 
1000.000000	96.883313 
999.000000	 96.907715 
998.000000	 96.930566 
997.000000	 96.949024 
996.000000	 96.965237 
995.000000	 96.984876 
994.000000	 97.010165 
993.000000	 97.037435 
992.000000	 97.062225 
991.000000	 97.083890 
990.000000	 97.104088 
989.000000	 97.123638 
988.000000	 97.142721 
987.000000	 97.162255 
986.000000	 97.183258 
985.000000	 97.206043 
984.000000	 97.230905 
983.000000	 97.258245 
982.000000	 97.287595 
981.000000	 97.317600 
980.000000	 97.347473 
979.000000	 97.377885 
978.000000	 97.410092 
977.000000	 97.444898 
976.000000	 97.482244 
975.000000	 97.520546 
974.000000	 97.556789 
973.000000	 97.589092 
972.000000	 97.619325 
971.000000	 97.651661 
970.000000	 97.688212 
969.000000	 97.727138 
968.000000	 97.765027 
967.000000	 97.799879 
966.000000	 97.831781 
965.000000	 97.861984 
964.000000	 97.891600 
963.000000	 97.920507 
962.000000	 97.947648 
961.000000	 97.972865 
960.000000	 97.997597 
959.000000	 98.022659 
958.000000	 98.046274 
957.000000	 98.066048 
956.000000	 98.082418 
955.000000	 98.098409 
954.000000	 98.116051 
953.000000	 98.134699 
952.000000	 98.152985 
951.000000	 98.170539 
950.000000	 98.187016 
949.000000	 98.200872 
948.000000	 98.210366 
947.000000	 98.215415 
946.000000	 98.217870 
945.000000	 98.220214 
944.000000	 98.224328 
943.000000	 98.231271 
942.000000	 98.241598 
941.000000	 98.255154 
940.000000	 98.269941 
939.000000	 98.281773 
938.000000	 98.286965 
937.000000	 98.286442 
936.000000	 98.286238 
935.000000	 98.292576 
934.000000	 98.306497 
933.000000	 98.323828 
932.000000	 98.339606 
931.000000	 98.351666 
930.000000	 98.360726 
929.000000	 98.368262 
928.000000	 98.374388 
927.000000	 98.377630 
926.000000	 98.377258 
925.000000	 98.375663 
924.000000	 98.377006 
923.000000	 98.382909 
922.000000	 98.390778 
921.000000	 98.397040 
920.000000	 98.400453 
919.000000	 98.401347 
918.000000	 98.399705 
917.000000	 98.395848 
916.000000	 98.391567 
915.000000	 98.388587 
914.000000	 98.386891 
913.000000	 98.386326 
912.000000	 98.388745 
911.000000	 98.396451 
910.000000	 98.409461 
909.000000	 98.426330 
908.000000	 98.446457 
907.000000	 98.468908 
906.000000	 98.490047 
905.000000	 98.505895 
904.000000	 98.517036 
903.000000	 98.528573 
902.000000	 98.544815 
901.000000	 98.565711 
900.000000	 98.588279 
899.000000	 98.609290 
898.000000	 98.626439 
897.000000	 98.639108 
896.000000	 98.648742 
895.000000	 98.657312 
894.000000	 98.665514 
893.000000	 98.673842 
892.000000	 98.684779 
891.000000	 98.701366 
890.000000	 98.723262 
889.000000	 98.746403 
888.000000	 98.767185 
887.000000	 98.785229 
886.000000	 98.801792 
885.000000	 98.817692 
884.000000	 98.833421 
883.000000	 98.848936 
882.000000	 98.862232 
881.000000	 98.870537 
880.000000	 98.874763 
879.000000	 98.880891 
878.000000	 98.894376 
877.000000	 98.914130 
876.000000	 98.933958 
875.000000	 98.948930 
874.000000	 98.958433 
873.000000	 98.964143 
872.000000	 98.967798 
871.000000	 98.971226 
870.000000	 98.976751 
869.000000	 98.986757 
868.000000	 99.003078 
867.000000	 99.025600 
866.000000	 99.050303 
865.000000	 99.070430 
864.000000	 99.082279 
863.000000	 99.089314 
862.000000	 99.098261 
861.000000	 99.110850 
860.000000	 99.122500 
859.000000	 99.129769 
858.000000	 99.135372 
857.000000	 99.143843 
856.000000	 99.155498 
855.000000	 99.167909 
854.000000	 99.180653 
853.000000	 99.194246 
852.000000	 99.205910 
851.000000	 99.211637 
850.000000	 99.212819 
849.000000	 99.216010 
848.000000	 99.224448 
847.000000	 99.233927 
846.000000	 99.239252 
845.000000	 99.240930 
844.000000	 99.242572 
843.000000	 99.245029 
842.000000	 99.246973 
841.000000	 99.248802 
840.000000	 99.251250 
839.000000	 99.251260 
838.000000	 99.244361 
837.000000	 99.231726 
836.000000	 99.220486 
835.000000	 99.215372 
834.000000	 99.213699 
833.000000	 99.211302 
832.000000	 99.210254 
831.000000	 99.216183 
830.000000	 99.228581 
829.000000	 99.238444 
828.000000	 99.237966 
827.000000	 99.230193 
826.000000	 99.225893 
825.000000	 99.230847 
824.000000	 99.239400 
823.000000	 99.242414 
822.000000	 99.238767 
821.000000	 99.235396 
820.000000	 99.237368 
819.000000	 99.242454 
818.000000	 99.246239 
817.000000	 99.248510 
816.000000	 99.251595 
815.000000	 99.254263 
814.000000	 99.251243 
813.000000	 99.239348 
812.000000	 99.220856 
811.000000	 99.199112 
810.000000	 99.172968 
809.000000	 99.138190 
808.000000	 99.093823 
807.000000	 99.044685 
806.000000	 98.996746 
805.000000	 98.951688 
804.000000	 98.907837 
803.000000	 98.865786 
802.000000	 98.830545 
801.000000	 98.806821 
800.000000	 98.793531 
799.000000	 98.784952 
798.000000	 98.777725 
797.000000	 98.774848 
796.000000	 98.780841 
795.000000	 98.794589 
794.000000	 98.809750 
793.000000	 98.821904 
792.000000	 98.832560 
791.000000	 98.845398 
790.000000	 98.860965 
789.000000	 98.876011 
788.000000	 98.885717 
787.000000	 98.885238 
786.000000	 98.871431 
785.000000	 98.845534 
784.000000	 98.813690 
783.000000	 98.783514 
782.000000	 98.760123 
781.000000	 98.745453 
780.000000	 98.739667 
779.000000	 98.741520 
778.000000	 98.748347 
777.000000	 98.757695 
776.000000	 98.769125 
775.000000	 98.783682 
774.000000	 98.801748 
773.000000	 98.821829 
772.000000	 98.841183 
771.000000	 98.857799 
770.000000	 98.872577 
769.000000	 98.888727 
768.000000	 98.907237 
767.000000	 98.923696 
766.000000	 98.932434 
765.000000	 98.934141 
764.000000	 98.936400 
763.000000	 98.945264 
762.000000	 98.958289 
761.000000	 98.967453 
760.000000	 98.967666 
759.000000	 98.961414 
758.000000	 98.956612 
757.000000	 98.960227 
756.000000	 98.972139 
755.000000	 98.984387 
754.000000	 98.988318 
753.000000	 98.983824 
752.000000	 98.980016 
751.000000	 98.985747 
750.000000	 99.001076 
749.000000	 99.018664 
748.000000	 99.031544 
747.000000	 99.038218 
746.000000	 99.041807 
745.000000	 99.046720 
744.000000	 99.055513 
743.000000	 99.067246 
742.000000	 99.079042 
741.000000	 99.089824 
740.000000	 99.101246 
739.000000	 99.114189 
738.000000	 99.126154 
737.000000	 99.133692 
736.000000	 99.136032 
735.000000	 99.135064 
734.000000	 99.133301 
733.000000	 99.133479 
732.000000	 99.138729 
731.000000	 99.150126 
730.000000	 99.163891 
729.000000	 99.174113 
728.000000	 99.179265 
727.000000	 99.183172 
726.000000	 99.188691 
725.000000	 99.193547 
724.000000	 99.194038 
723.000000	 99.190096 
722.000000	 99.185143 
721.000000	 99.183063 
720.000000	 99.186725 
719.000000	 99.197026 
718.000000	 99.211327 
717.000000	 99.224330 
716.000000	 99.231909 
715.000000	 99.233233 
714.000000	 99.229648 
713.000000	 99.223667 
712.000000	 99.219552 
711.000000	 99.221778 
710.000000	 99.230396 
709.000000	 99.239488 
708.000000	 99.242279 
707.000000	 99.236910 
706.000000	 99.225787 
705.000000	 99.212103 
704.000000	 99.198831 
703.000000	 99.188822 
702.000000	 99.183872 
701.000000	 99.182972 
700.000000	 99.183003 
699.000000	 99.181427 
698.000000	 99.177596 
697.000000	 99.172414 
696.000000	 99.167409 
695.000000	 99.163639 
694.000000	 99.161665 
693.000000	 99.162415 
692.000000	 99.167254 
691.000000	 99.176667 
690.000000	 99.189037 
689.000000	 99.201728 
688.000000	 99.212966 
687.000000	 99.221560 
686.000000	 99.226023 
685.000000	 99.225694 
684.000000	 99.222445 
683.000000	 99.219911 
682.000000	 99.220455 
681.000000	 99.223701 
680.000000	 99.227513 
679.000000	 99.229777 
678.000000	 99.229458 
677.000000	 99.227273 
676.000000	 99.225863 
675.000000	 99.227383 
674.000000	 99.230947 
673.000000	 99.233573 
672.000000	 99.233764 
671.000000	 99.233130 
670.000000	 99.234397 
669.000000	 99.238669 
668.000000	 99.242764 
667.000000	 99.244237 
666.000000	 99.243509 
665.000000	 99.240989 
664.000000	 99.238473 
663.000000	 99.238484 
662.000000	 99.241557 
661.000000	 99.245460 
660.000000	 99.247066 
659.000000	 99.245855 
658.000000	 99.243398 
657.000000	 99.241562 
656.000000	 99.240588 
655.000000	 99.240000 
654.000000	 99.239751 
653.000000	 99.240083 
652.000000	 99.240940 
651.000000	 99.241760 
650.000000	 99.241869 

