4000.000000	99.752040 
3999.000000	99.753735 
3998.000000	99.752191 
3997.000000	99.748934 
3996.000000	99.746171 
3995.000000	99.745405 
3994.000000	99.747257 
3993.000000	99.751795 
3992.000000	99.758243 
3991.000000	99.764483 
3990.000000	99.767635 
3989.000000	99.765790 
3988.000000	99.759435 
3987.000000	99.751276 
3986.000000	99.744735 
3985.000000	99.742379 
3984.000000	99.744986 
3983.000000	99.751457 
3982.000000	99.759509 
3981.000000	99.766800 
3980.000000	99.771945 
3979.000000	99.774870 
3978.000000	99.776357 
3977.000000	99.777059 
3976.000000	99.776641 
3975.000000	99.773932 
3974.000000	99.768239 
3973.000000	99.760760 
3972.000000	99.754511 
3971.000000	99.752394 
3970.000000	99.755029 
3969.000000	99.760263 
3968.000000	99.764811 
3967.000000	99.766507 
3966.000000	99.765292 
3965.000000	99.762566 
3964.000000	99.759917 
3963.000000	99.758414 
3962.000000	99.758457 
3961.000000	99.759636 
3960.000000	99.760598 
3959.000000	99.759676 
3958.000000	99.756331 
3957.000000	99.752022 
3956.000000	99.749279 
3955.000000	99.749605 
3954.000000	99.752289 
3953.000000	99.755314 
3952.000000	99.757165 
3951.000000	99.757744 
3950.000000	99.757777 
3949.000000	99.757655 
3948.000000	99.757133 
3947.000000	99.756135 
3946.000000	99.755425 
3945.000000	99.755880 
3944.000000	99.756992 
3943.000000	99.756841 
3942.000000	99.754301 
3941.000000	99.750894 
3940.000000	99.749336 
3939.000000	99.750323 
3938.000000	99.751583 
3937.000000	99.750358 
3936.000000	99.746194 
3935.000000	99.740991 
3934.000000	99.736889 
3933.000000	99.735030 
3932.000000	99.736031 
3931.000000	99.740308 
3930.000000	99.747192 
3929.000000	99.754283 
3928.000000	99.758814 
3927.000000	99.759767 
3926.000000	99.758405 
3925.000000	99.756744 
3924.000000	99.755525 
3923.000000	99.753950 
3922.000000	99.751074 
3921.000000	99.747098 
3920.000000	99.743469 
3919.000000	99.741858 
3918.000000	99.742885 
3917.000000	99.745888 
3916.000000	99.749776 
3915.000000	99.753738 
3914.000000	99.756868 
3913.000000	99.757667 
3912.000000	99.754849 
3911.000000	99.748787 
3910.000000	99.741846 
3909.000000	99.737050 
3908.000000	99.736150 
3907.000000	99.739018 
3906.000000	99.743911 
3905.000000	99.748100 
3904.000000	99.748844 
3903.000000	99.745094 
3902.000000	99.738547 
3901.000000	99.731868 
3900.000000	99.726071 
3899.000000	99.720439 
3898.000000	99.714825 
3897.000000	99.711015 
3896.000000	99.711386 
3895.000000	99.717149 
3894.000000	99.728119 
3893.000000	99.742243 
3892.000000	99.754277 
3891.000000	99.758106 
3890.000000	99.752945 
3889.000000	99.744863 
3888.000000	99.740586 
3887.000000	99.741912 
3886.000000	99.745135 
3885.000000	99.744998 
3884.000000	99.741462 
3883.000000	99.739769 
3882.000000	99.742924 
3881.000000	99.747845 
3880.000000	99.748495 
3879.000000	99.742557 
3878.000000	99.734882 
3877.000000	99.732288 
3876.000000	99.736491 
3875.000000	99.743108 
3874.000000	99.746221 
3873.000000	99.744064 
3872.000000	99.739515 
3871.000000	99.735422 
3870.000000	99.731652 
3869.000000	99.727608 
3868.000000	99.726017 
3867.000000	99.730025 
3866.000000	99.737366 
3865.000000	99.742194 
3864.000000	99.741535 
3863.000000	99.737998 
3862.000000	99.736337 
3861.000000	99.737679 
3860.000000	99.738462 
3859.000000	99.734095 
3858.000000	99.722257 
3857.000000	99.705173 
3856.000000	99.690123 
3855.000000	99.686283 
3854.000000	99.693499 
3853.000000	99.697707 
3852.000000	99.693736 
3851.000000	99.694254 
3850.000000	99.705223 
3849.000000	99.719789 
3848.000000	99.731584 
3847.000000	99.739658 
3846.000000	99.745287 
3845.000000	99.749479 
3844.000000	99.752564 
3843.000000	99.754279 
3842.000000	99.754138 
3841.000000	99.752391 
3840.000000	99.750619 
3839.000000	99.750308 
3838.000000	99.750128 
3837.000000	99.747072 
3836.000000	99.740948 
3835.000000	99.735411 
3834.000000	99.733938 
3833.000000	99.736842 
3832.000000	99.742023 
3831.000000	99.747300 
3830.000000	99.752321 
3829.000000	99.757682 
3828.000000	99.762113 
3827.000000	99.762236 
3826.000000	99.756077 
3825.000000	99.746108 
3824.000000	99.737967 
3823.000000	99.736149 
3822.000000	99.739445 
3821.000000	99.740246 
3820.000000	99.733856 
3819.000000	99.725817 
3818.000000	99.723027 
3817.000000	99.725526 
3816.000000	99.728577 
3815.000000	99.727954 
3814.000000	99.725230 
3813.000000	99.724968 
3812.000000	99.727245 
3811.000000	99.728871 
3810.000000	99.729295 
3809.000000	99.731274 
3808.000000	99.736325 
3807.000000	99.741046 
3806.000000	99.741058 
3805.000000	99.737938 
3804.000000	99.736644 
3803.000000	99.738459 
3802.000000	99.739753 
3801.000000	99.735404 
3800.000000	99.726537 
3799.000000	99.721653 
3798.000000	99.724808 
3797.000000	99.730833 
3796.000000	99.733222 
3795.000000	99.731519 
3794.000000	99.731188 
3793.000000	99.737027 
3792.000000	99.747900 
3791.000000	99.758047 
3790.000000	99.762562 
3789.000000	99.761393 
3788.000000	99.758895 
3787.000000	99.759975 
3786.000000	99.765986 
3785.000000	99.773663 
3784.000000	99.778443 
3783.000000	99.778675 
3782.000000	99.776338 
3781.000000	99.773981 
3780.000000	99.771361 
3779.000000	99.765618 
3778.000000	99.755347 
3777.000000	99.743277 
3776.000000	99.733670 
3775.000000	99.728747 
3774.000000	99.728336 
3773.000000	99.731586 
3772.000000	99.737577 
3771.000000	99.744174 
3770.000000	99.748037 
3769.000000	99.748018 
3768.000000	99.747565 
3767.000000	99.750698 
3766.000000	99.756445 
3765.000000	99.760007 
3764.000000	99.758958 
3763.000000	99.756282 
3762.000000	99.756781 
3761.000000	99.762057 
3760.000000	99.769431 
3759.000000	99.774670 
3758.000000	99.775822 
3757.000000	99.773920 
3756.000000	99.770040 
3755.000000	99.764072 
3754.000000	99.755988 
3753.000000	99.747405 
3752.000000	99.740807 
3751.000000	99.735508 
3750.000000	99.727571 
3749.000000	99.716306 
3748.000000	99.706063 
3747.000000	99.700953 
3746.000000	99.701967 
3745.000000	99.706663 
3744.000000	99.707926 
3743.000000	99.703924 
3742.000000	99.704721 
3741.000000	99.714241 
3740.000000	99.723772 
3739.000000	99.727076 
3738.000000	99.726338 
3737.000000	99.726910 
3736.000000	99.731098 
3735.000000	99.736861 
3734.000000	99.741187 
3733.000000	99.742961 
3732.000000	99.743701 
3731.000000	99.746236 
3730.000000	99.752087 
3729.000000	99.759470 
3728.000000	99.764937 
3727.000000	99.767708 
3726.000000	99.770471 
3725.000000	99.775678 
3724.000000	99.782170 
3723.000000	99.785620 
3722.000000	99.782877 
3721.000000	99.775404 
3720.000000	99.767838 
3719.000000	99.763229 
3718.000000	99.760563 
3717.000000	99.756944 
3716.000000	99.750527 
3715.000000	99.741586 
3714.000000	99.731814 
3713.000000	99.723434 
3712.000000	99.718087 
3711.000000	99.715800 
3710.000000	99.715931 
3709.000000	99.717740 
3708.000000	99.720195 
3707.000000	99.722510 
3706.000000	99.724151 
3705.000000	99.724947 
3704.000000	99.725329 
3703.000000	99.726136 
3702.000000	99.727588 
3701.000000	99.729049 
3700.000000	99.730376 
3699.000000	99.731993 
3698.000000	99.733452 
3697.000000	99.733659 
3696.000000	99.732525 
3695.000000	99.731316 
3694.000000	99.730951 
3693.000000	99.730589 
3692.000000	99.729114 
3691.000000	99.727140 
3690.000000	99.725905 
3689.000000	99.724493 
3688.000000	99.721621 
3687.000000	99.720147 
3686.000000	99.724564 
3685.000000	99.733988 
3684.000000	99.742413 
3683.000000	99.745458 
3682.000000	99.743424 
3681.000000	99.738643 
3680.000000	99.731746 
3679.000000	99.721880 
3678.000000	99.710089 
3677.000000	99.700759 
3676.000000	99.696974 
3675.000000	99.694886 
3674.000000	99.691458 
3673.000000	99.691435 
3672.000000	99.699106 
3671.000000	99.713329 
3670.000000	99.727920 
3669.000000	99.734278 
3668.000000	99.730638 
3667.000000	99.722471 
3666.000000	99.714024 
3665.000000	99.706463 
3664.000000	99.700677 
3663.000000	99.698115 
3662.000000	99.699212 
3661.000000	99.702458 
3660.000000	99.705702 
3659.000000	99.708200 
3658.000000	99.710369 
3657.000000	99.711297 
3656.000000	99.708290 
3655.000000	99.701079 
3654.000000	99.693775 
3653.000000	99.689756 
3652.000000	99.688732 
3651.000000	99.688834 
3650.000000	99.687145 
3649.000000	99.680572 
3648.000000	99.670300 
3647.000000	99.661245 
3646.000000	99.657465 
3645.000000	99.660635 
3644.000000	99.669693 
3643.000000	99.680910 
3642.000000	99.689439 
3641.000000	99.692459 
3640.000000	99.691493 
3639.000000	99.691227 
3638.000000	99.695132 
3637.000000	99.702229 
3636.000000	99.707618 
3635.000000	99.705765 
3634.000000	99.694486 
3633.000000	99.676648 
3632.000000	99.658557 
3631.000000	99.646570 
3630.000000	99.643439 
3629.000000	99.644014 
3628.000000	99.640420 
3627.000000	99.635651 
3626.000000	99.638658 
3625.000000	99.649960 
3624.000000	99.662050 
3623.000000	99.667711 
3622.000000	99.665072 
3621.000000	99.658011 
3620.000000	99.652537 
3619.000000	99.651355 
3618.000000	99.652990 
3617.000000	99.656211 
3616.000000	99.661616 
3615.000000	99.669105 
3614.000000	99.676056 
3613.000000	99.678469 
3612.000000	99.674594 
3611.000000	99.667253 
3610.000000	99.661912 
3609.000000	99.662110 
3608.000000	99.666649 
3607.000000	99.671617 
3606.000000	99.674598 
3605.000000	99.675992 
3604.000000	99.677133 
3603.000000	99.678499 
3602.000000	99.679510 
3601.000000	99.679809 
3600.000000	99.680336 
3599.000000	99.682784 
3598.000000	99.688471 
3597.000000	99.697580 
3596.000000	99.708351 
3595.000000	99.716543 
3594.000000	99.717719 
3593.000000	99.711656 
3592.000000	99.703855 
3591.000000	99.701059 
3590.000000	99.705380 
3589.000000	99.712307 
3588.000000	99.714517 
3587.000000	99.709411 
3586.000000	99.701560 
3585.000000	99.696525 
3584.000000	99.695791 
3583.000000	99.698022 
3582.000000	99.701609 
3581.000000	99.705162 
3580.000000	99.706550 
3579.000000	99.703381 
3578.000000	99.695462 
3577.000000	99.686142 
3576.000000	99.680385 
3575.000000	99.680989 
3574.000000	99.686676 
3573.000000	99.693572 
3572.000000	99.698350 
3571.000000	99.700216 
3570.000000	99.700642 
3569.000000	99.701867 
3568.000000	99.705041 
3567.000000	99.709357 
3566.000000	99.713197 
3565.000000	99.715330 
3564.000000	99.714570 
3563.000000	99.709732 
3562.000000	99.700745 
3561.000000	99.690038 
3560.000000	99.681930 
3559.000000	99.679437 
3558.000000	99.682027 
3557.000000	99.686890 
3556.000000	99.691868 
3555.000000	99.696686 
3554.000000	99.701855 
3553.000000	99.707178 
3552.000000	99.711466 
3551.000000	99.713345 
3550.000000	99.712156 
3549.000000	99.708459 
3548.000000	99.703938 
3547.000000	99.700348 
3546.000000	99.697989 
3545.000000	99.695610 
3544.000000	99.692458 
3543.000000	99.689812 
3542.000000	99.689716 
3541.000000	99.692562 
3540.000000	99.696669 
3539.000000	99.700066 
3538.000000	99.701912 
3537.000000	99.702067 
3536.000000	99.700171 
3535.000000	99.696032 
3534.000000	99.690711 
3533.000000	99.686490 
3532.000000	99.685468 
3531.000000	99.688228 
3530.000000	99.693658 
3529.000000	99.699672 
3528.000000	99.704242 
3527.000000	99.706289 
3526.000000	99.705984 
3525.000000	99.704160 
3524.000000	99.701535 
3523.000000	99.698666 
3522.000000	99.696440 
3521.000000	99.695820 
3520.000000	99.696632 
3519.000000	99.696996 
3518.000000	99.694649 
3517.000000	99.689155 
3516.000000	99.682500 
3515.000000	99.677483 
3514.000000	99.675801 
3513.000000	99.677376 
3512.000000	99.680683 
3511.000000	99.683360 
3510.000000	99.683440 
3509.000000	99.680975 
3508.000000	99.678401 
3507.000000	99.678508 
3506.000000	99.681588 
3505.000000	99.684557 
3504.000000	99.683315 
3503.000000	99.676890 
3502.000000	99.669356 
3501.000000	99.666822 
3500.000000	99.671794 
3499.000000	99.680476 
3498.000000	99.686015 
3497.000000	99.685057 
3496.000000	99.681063 
3495.000000	99.680293 
3494.000000	99.684794 
3493.000000	99.690506 
3492.000000	99.692262 
3491.000000	99.689317 
3490.000000	99.685493 
3489.000000	99.684797 
3488.000000	99.687818 
3487.000000	99.692052 
3486.000000	99.694616 
3485.000000	99.694386 
3484.000000	99.692332 
3483.000000	99.690524 
3482.000000	99.690282 
3481.000000	99.690681 
3480.000000	99.689137 
3479.000000	99.683976 
3478.000000	99.676336 
3477.000000	99.669251 
3476.000000	99.665200 
3475.000000	99.664840 
3474.000000	99.667696 
3473.000000	99.672948 
3472.000000	99.679117 
3471.000000	99.683983 
3470.000000	99.686086 
3469.000000	99.686280 
3468.000000	99.686960 
3467.000000	99.689410 
3466.000000	99.692326 
3465.000000	99.693082 
3464.000000	99.689911 
3463.000000	99.682927 
3462.000000	99.673985 
3461.000000	99.666074 
3460.000000	99.662064 
3459.000000	99.662784 
3458.000000	99.666094 
3457.000000	99.668441 
3456.000000	99.667803 
3455.000000	99.665297 
3454.000000	99.663925 
3453.000000	99.665741 
3452.000000	99.670125 
3451.000000	99.674645 
3450.000000	99.677573 
3449.000000	99.679344 
3448.000000	99.681210 
3447.000000	99.682677 
3446.000000	99.681416 
3445.000000	99.676508 
3444.000000	99.670663 
3443.000000	99.667908 
3442.000000	99.669232 
3441.000000	99.671716 
3440.000000	99.672252 
3439.000000	99.670806 
3438.000000	99.669295 
3437.000000	99.668341 
3436.000000	99.666483 
3435.000000	99.662441 
3434.000000	99.657007 
3433.000000	99.652349 
3432.000000	99.650061 
3431.000000	99.650188 
3430.000000	99.651685 
3429.000000	99.653426 
3428.000000	99.655007 
3427.000000	99.656781 
3426.000000	99.659072 
3425.000000	99.661450 
3424.000000	99.663092 
3423.000000	99.663831 
3422.000000	99.664289 
3421.000000	99.664707 
3420.000000	99.664313 
3419.000000	99.662633 
3418.000000	99.661156 
3417.000000	99.662529 
3416.000000	99.667531 
3415.000000	99.673396 
3414.000000	99.675859 
3413.000000	99.672953 
3412.000000	99.666481 
3411.000000	99.659942 
3410.000000	99.655747 
3409.000000	99.654373 
3408.000000	99.655035 
3407.000000	99.656246 
3406.000000	99.656246 
3405.000000	99.654128 
3404.000000	99.650968 
3403.000000	99.649229 
3402.000000	99.650436 
3401.000000	99.653500 
3400.000000	99.655644 
3399.000000	99.655156 
3398.000000	99.653375 
3397.000000	99.653934 
3396.000000	99.659495 
3395.000000	99.668683 
3394.000000	99.676409 
3393.000000	99.677840 
3392.000000	99.672420 
3391.000000	99.663908 
3390.000000	99.656644 
3389.000000	99.652437 
3388.000000	99.650899 
3387.000000	99.651465 
3386.000000	99.654119 
3385.000000	99.658503 
3384.000000	99.663212 
3383.000000	99.666386 
3382.000000	99.666834 
3381.000000	99.664564 
3380.000000	99.660519 
3379.000000	99.655973 
3378.000000	99.652218 
3377.000000	99.650616 
3376.000000	99.652421 
3375.000000	99.657861 
3374.000000	99.665263 
3373.000000	99.671609 
3372.000000	99.674471 
3371.000000	99.673569 
3370.000000	99.670607 
3369.000000	99.667936 
3368.000000	99.667239 
3367.000000	99.668690 
3366.000000	99.670767 
3365.000000	99.671291 
3364.000000	99.669330 
3363.000000	99.666107 
3362.000000	99.663642 
3361.000000	99.662537 
3360.000000	99.661565 
3359.000000	99.659539 
3358.000000	99.657117 
3357.000000	99.656260 
3356.000000	99.657871 
3355.000000	99.660247 
3354.000000	99.660252 
3353.000000	99.656312 
3352.000000	99.650272 
3351.000000	99.646171 
3350.000000	99.647035 
3349.000000	99.652770 
3348.000000	99.660745 
3347.000000	99.667843 
3346.000000	99.671973 
3345.000000	99.672557 
3344.000000	99.670528 
3343.000000	99.667787 
3342.000000	99.665900 
3341.000000	99.664937 
3340.000000	99.663674 
3339.000000	99.661007 
3338.000000	99.657069 
3337.000000	99.653120 
3336.000000	99.650705 
3335.000000	99.650854 
3334.000000	99.653486 
3333.000000	99.657059 
3332.000000	99.659013 
3331.000000	99.657404 
3330.000000	99.652860 
3329.000000	99.648861 
3328.000000	99.649271 
3327.000000	99.654781 
3326.000000	99.661884 
3325.000000	99.665943 
3324.000000	99.665415 
3323.000000	99.662694 
3322.000000	99.660896 
3321.000000	99.660660 
3320.000000	99.660439 
3319.000000	99.659066 
3318.000000	99.657126 
3317.000000	99.656027 
3316.000000	99.656569 
3315.000000	99.658422 
3314.000000	99.660339 
3313.000000	99.660904 
3312.000000	99.659754 
3311.000000	99.658283 
3310.000000	99.658500 
3309.000000	99.660885 
3308.000000	99.663881 
3307.000000	99.665746 
3306.000000	99.666186 
3305.000000	99.665553 
3304.000000	99.663241 
3303.000000	99.658297 
3302.000000	99.651879 
3301.000000	99.647831 
3300.000000	99.649514 
3299.000000	99.656058 
3298.000000	99.662586 
3297.000000	99.664567 
3296.000000	99.661704 
3295.000000	99.657394 
3294.000000	99.655018 
3293.000000	99.655492 
3292.000000	99.658012 
3291.000000	99.661808 
3290.000000	99.666330 
3289.000000	99.670326 
3288.000000	99.672104 
3287.000000	99.671265 
3286.000000	99.669708 
3285.000000	99.670281 
3284.000000	99.674234 
3283.000000	99.680005 
3282.000000	99.684290 
3281.000000	99.684139 
3280.000000	99.678431 
3279.000000	99.668351 
3278.000000	99.657237 
3277.000000	99.649558 
3276.000000	99.648702 
3275.000000	99.654572 
3274.000000	99.663283 
3273.000000	99.669744 
3272.000000	99.670929 
3271.000000	99.666964 
3270.000000	99.659823 
3269.000000	99.651830 
3268.000000	99.645341 
3267.000000	99.642666 
3266.000000	99.645048 
3265.000000	99.651493 
3264.000000	99.659267 
3263.000000	99.666168 
3262.000000	99.672262 
3261.000000	99.678794 
3260.000000	99.685204 
3259.000000	99.688026 
3258.000000	99.683889 
3257.000000	99.673663 
3256.000000	99.662503 
3255.000000	99.655282 
3254.000000	99.652890 
3253.000000	99.653638 
3252.000000	99.656778 
3251.000000	99.662764 
3250.000000	99.670595 
3249.000000	99.677239 
3248.000000	99.680301 
3247.000000	99.679742 
3246.000000	99.676461 
3245.000000	99.670926 
3244.000000	99.664442 
3243.000000	99.660331 
3242.000000	99.661840 
3241.000000	99.668864 
3240.000000	99.677621 
3239.000000	99.683362 
3238.000000	99.683094 
3237.000000	99.676827 
3236.000000	99.667645 
3235.000000	99.660213 
3234.000000	99.657782 
3233.000000	99.660387 
3232.000000	99.666423 
3231.000000	99.675018 
3230.000000	99.685192 
3229.000000	99.693248 
3228.000000	99.693848 
3227.000000	99.685217 
3226.000000	99.672008 
3225.000000	99.661449 
3224.000000	99.657034 
3223.000000	99.656877 
3222.000000	99.657416 
3221.000000	99.657088 
3220.000000	99.656299 
3219.000000	99.655421 
3218.000000	99.654214 
3217.000000	99.652934 
3216.000000	99.652779 
3215.000000	99.654659 
3214.000000	99.657972 
3213.000000	99.661348 
3212.000000	99.664552 
3211.000000	99.668901 
3210.000000	99.675343 
3209.000000	99.682595 
3208.000000	99.687876 
3207.000000	99.689585 
3206.000000	99.688905 
3205.000000	99.688664 
3204.000000	99.690677 
3203.000000	99.694110 
3202.000000	99.696409 
3201.000000	99.695934 
3200.000000	99.693518 
3199.000000	99.691121 
3198.000000	99.689290 
3197.000000	99.687041 
3196.000000	99.684284 
3195.000000	99.682684 
3194.000000	99.682865 
3193.000000	99.682012 
3192.000000	99.676508 
3191.000000	99.667167 
3190.000000	99.660093 
3189.000000	99.661241 
3188.000000	99.670601 
3187.000000	99.681994 
3186.000000	99.687995 
3185.000000	99.685147 
3184.000000	99.675887 
3183.000000	99.666565 
3182.000000	99.663067 
3181.000000	99.666991 
3180.000000	99.675182 
3179.000000	99.682680 
3178.000000	99.686060 
3177.000000	99.684572 
3176.000000	99.679469 
3175.000000	99.673297 
3174.000000	99.669340 
3173.000000	99.670331 
3172.000000	99.676733 
3171.000000	99.686276 
3170.000000	99.695480 
3169.000000	99.701840 
3168.000000	99.704706 
3167.000000	99.704502 
3166.000000	99.701858 
3165.000000	99.697953 
3164.000000	99.695127 
3163.000000	99.695811 
3162.000000	99.700225 
3161.000000	99.705809 
3160.000000	99.709682 
3159.000000	99.711290 
3158.000000	99.711960 
3157.000000	99.712357 
3156.000000	99.711455 
3155.000000	99.708059 
3154.000000	99.702551 
3153.000000	99.696891 
3152.000000	99.693231 
3151.000000	99.692341 
3150.000000	99.692871 
3149.000000	99.692434 
3148.000000	99.690065 
3147.000000	99.687313 
3146.000000	99.686236 
3145.000000	99.686728 
3144.000000	99.686856 
3143.000000	99.685567 
3142.000000	99.683828 
3141.000000	99.683157 
3140.000000	99.684311 
3139.000000	99.687507 
3138.000000	99.692478 
3137.000000	99.697823 
3136.000000	99.701536 
3135.000000	99.702893 
3134.000000	99.702924 
3133.000000	99.702616 
3132.000000	99.701748 
3131.000000	99.700122 
3130.000000	99.698745 
3129.000000	99.698737 
3128.000000	99.699805 
3127.000000	99.700703 
3126.000000	99.700656 
3125.000000	99.699662 
3124.000000	99.698015 
3123.000000	99.696223 
3122.000000	99.694757 
3121.000000	99.693348 
3120.000000	99.691325 
3119.000000	99.689165 
3118.000000	99.688568 
3117.000000	99.690116 
3116.000000	99.692037 
3115.000000	99.692562 
3114.000000	99.692353 
3113.000000	99.692976 
3112.000000	99.693894 
3111.000000	99.693196 
3110.000000	99.691091 
3109.000000	99.690269 
3108.000000	99.692072 
3107.000000	99.694048 
3106.000000	99.692601 
3105.000000	99.687237 
3104.000000	99.681304 
3103.000000	99.679237 
3102.000000	99.683604 
3101.000000	99.693743 
3100.000000	99.705845 
3099.000000	99.714585 
3098.000000	99.716215 
3097.000000	99.711239 
3096.000000	99.704142 
3095.000000	99.699892 
3094.000000	99.700312 
3093.000000	99.703703 
3092.000000	99.707438 
3091.000000	99.710060 
3090.000000	99.710914 
3089.000000	99.709237 
3088.000000	99.705185 
3087.000000	99.701169 
3086.000000	99.700163 
3085.000000	99.702128 
3084.000000	99.703698 
3083.000000	99.702273 
3082.000000	99.699071 
3081.000000	99.697051 
3080.000000	99.697199 
3079.000000	99.698417 
3078.000000	99.699910 
3077.000000	99.701531 
3076.000000	99.702363 
3075.000000	99.701320 
3074.000000	99.699371 
3073.000000	99.699128 
3072.000000	99.701623 
3071.000000	99.705080 
3070.000000	99.707415 
3069.000000	99.708157 
3068.000000	99.707112 
3067.000000	99.703124 
3066.000000	99.696229 
3065.000000	99.690059 
3064.000000	99.689676 
3063.000000	99.696409 
3062.000000	99.706001 
3061.000000	99.712353 
3060.000000	99.712691 
3059.000000	99.709155 
3058.000000	99.706104 
3057.000000	99.706300 
3056.000000	99.709208 
3055.000000	99.712311 
3054.000000	99.713627 
3053.000000	99.713005 
3052.000000	99.711578 
3051.000000	99.710672 
3050.000000	99.711094 
3049.000000	99.712607 
3048.000000	99.713647 
3047.000000	99.712182 
3046.000000	99.707669 
3045.000000	99.702200 
3044.000000	99.699180 
3043.000000	99.700479 
3042.000000	99.704831 
3041.000000	99.709103 
3040.000000	99.711385 
3039.000000	99.712868 
3038.000000	99.716291 
3037.000000	99.722169 
3036.000000	99.727121 
3035.000000	99.726972 
3034.000000	99.721576 
3033.000000	99.715542 
3032.000000	99.713666 
3031.000000	99.716399 
3030.000000	99.720289 
3029.000000	99.721942 
3028.000000	99.720601 
3027.000000	99.717710 
3026.000000	99.715474 
3025.000000	99.715724 
3024.000000	99.718738 
3023.000000	99.722559 
3022.000000	99.724339 
3021.000000	99.722994 
3020.000000	99.720259 
3019.000000	99.718890 
3018.000000	99.720290 
3017.000000	99.724053 
3016.000000	99.728928 
3015.000000	99.733362 
3014.000000	99.735610 
3013.000000	99.734544 
3012.000000	99.730778 
3011.000000	99.726500 
3010.000000	99.723906 
3009.000000	99.724022 
3008.000000	99.726851 
3007.000000	99.731863 
3006.000000	99.737912 
3005.000000	99.743246 
3004.000000	99.746325 
3003.000000	99.746735 
3002.000000	99.745230 
3001.000000	99.743204 
3000.000000	99.742169 
2999.000000	99.742941 
2998.000000	99.744652 
2997.000000	99.745212 
2996.000000	99.743820 
2995.000000	99.742702 
2994.000000	99.745013 
2993.000000	99.750905 
2992.000000	99.757059 
2991.000000	99.760547 
2990.000000	99.761684 
2989.000000	99.762039 
2988.000000	99.761049 
2987.000000	99.756735 
2986.000000	99.749547 
2985.000000	99.743498 
2984.000000	99.742461 
2983.000000	99.746099 
2982.000000	99.750195 
2981.000000	99.750680 
2980.000000	99.747161 
2979.000000	99.742941 
2978.000000	99.742022 
2977.000000	99.745840 
2976.000000	99.752406 
2975.000000	99.758352 
2974.000000	99.761566 
2973.000000	99.761804 
2972.000000	99.759443 
2971.000000	99.754630 
2970.000000	99.747927 
2969.000000	99.741061 
2968.000000	99.736313 
2967.000000	99.735017 
2966.000000	99.736609 
2965.000000	99.738940 
2964.000000	99.739661 
2963.000000	99.737906 
2962.000000	99.735002 
2961.000000	99.733300 
2960.000000	99.734058 
2959.000000	99.736593 
2958.000000	99.739566 
2957.000000	99.742516 
2956.000000	99.745326 
2955.000000	99.746343 
2954.000000	99.742477 
2953.000000	99.732860 
2952.000000	99.722255 
2951.000000	99.718694 
2950.000000	99.725823 
2949.000000	99.738177 
2948.000000	99.745919 
2947.000000	99.744314 
2946.000000	99.737041 
2945.000000	99.730346 
2944.000000	99.726715 
2943.000000	99.725295 
2942.000000	99.725286 
2941.000000	99.725863 
2940.000000	99.724477 
2939.000000	99.718939 
2938.000000	99.710923 
2937.000000	99.704362 
2936.000000	99.700389 
2935.000000	99.696963 
2934.000000	99.693547 
2933.000000	99.692296 
2932.000000	99.693346 
2931.000000	99.692741 
2930.000000	99.687615 
2929.000000	99.680701 
2928.000000	99.676698 
2927.000000	99.676126 
2926.000000	99.675956 
2925.000000	99.674717 
2924.000000	99.673525 
2923.000000	99.672980 
2922.000000	99.672684 
2921.000000	99.673615 
2920.000000	99.677328 
2919.000000	99.682336 
2918.000000	99.684735 
2917.000000	99.683730 
2916.000000	99.683731 
2915.000000	99.689245 
2914.000000	99.699716 
2913.000000	99.711148 
2912.000000	99.720873 
2911.000000	99.728451 
2910.000000	99.733356 
2909.000000	99.734770 
2908.000000	99.733751 
2907.000000	99.733347 
2906.000000	99.735768 
2905.000000	99.740448 
2904.000000	99.745014 
2903.000000	99.746980 
2902.000000	99.744503 
2901.000000	99.737415 
2900.000000	99.728579 
2899.000000	99.722939 
2898.000000	99.723598 
2897.000000	99.728910 
2896.000000	99.734385 
2895.000000	99.737251 
2894.000000	99.738076 
2893.000000	99.738087 
2892.000000	99.736650 
2891.000000	99.732627 
2890.000000	99.727428 
2889.000000	99.724928 
2888.000000	99.727756 
2887.000000	99.734300 
2886.000000	99.739964 
2885.000000	99.741115 
2884.000000	99.737575 
2883.000000	99.731989 
2882.000000	99.727538 
2881.000000	99.726096 
2880.000000	99.727674 
2879.000000	99.730991 
2878.000000	99.734493 
2877.000000	99.736954 
2876.000000	99.737446 
2875.000000	99.735488 
2874.000000	99.731680 
2873.000000	99.727730 
2872.000000	99.725184 
2871.000000	99.724327 
2870.000000	99.724878 
2869.000000	99.727271 
2868.000000	99.732057 
2867.000000	99.738086 
2866.000000	99.742717 
2865.000000	99.744540 
2864.000000	99.744702 
2863.000000	99.744422 
2862.000000	99.742206 
2861.000000	99.735351 
2860.000000	99.724212 
2859.000000	99.713225 
2858.000000	99.706961 
2857.000000	99.706176 
2856.000000	99.708234 
2855.000000	99.710303 
2854.000000	99.711059 
2853.000000	99.710118 
2852.000000	99.707529 
2851.000000	99.704220 
2850.000000	99.701851 
2849.000000	99.701514 
2848.000000	99.702963 
2847.000000	99.705413 
2846.000000	99.708419 
2845.000000	99.711485 
2844.000000	99.713651 
2843.000000	99.714523 
2842.000000	99.715353 
2841.000000	99.717714 
2840.000000	99.720941 
2839.000000	99.722127 
2838.000000	99.719305 
2837.000000	99.713713 
2836.000000	99.708280 
2835.000000	99.704965 
2834.000000	99.704589 
2833.000000	99.708011 
2832.000000	99.715323 
2831.000000	99.723947 
2830.000000	99.729655 
2829.000000	99.730501 
2828.000000	99.728749 
2827.000000	99.728157 
2826.000000	99.730346 
2825.000000	99.734405 
2824.000000	99.738812 
2823.000000	99.742393 
2822.000000	99.744138 
2821.000000	99.743725 
2820.000000	99.742360 
2819.000000	99.741962 
2818.000000	99.743160 
2817.000000	99.744699 
2816.000000	99.744837 
2815.000000	99.742697 
2814.000000	99.738402 
2813.000000	99.732855 
2812.000000	99.727618 
2811.000000	99.724143 
2810.000000	99.722517 
2809.000000	99.721382 
2808.000000	99.719550 
2807.000000	99.717517 
2806.000000	99.717135 
2805.000000	99.719805 
2804.000000	99.724961 
2803.000000	99.730191 
2802.000000	99.733054 
2801.000000	99.733103 
2800.000000	99.731946 
2799.000000	99.731141 
2798.000000	99.730665 
2797.000000	99.730011 
2796.000000	99.729878 
2795.000000	99.731288 
2794.000000	99.733375 
2793.000000	99.733808 
2792.000000	99.731842 
2791.000000	99.729495 
2790.000000	99.729211 
2789.000000	99.731717 
2788.000000	99.736586 
2787.000000	99.743003 
2786.000000	99.748809 
2785.000000	99.750720 
2784.000000	99.747648 
2783.000000	99.742754 
2782.000000	99.740247 
2781.000000	99.740824 
2780.000000	99.742255 
2779.000000	99.743534 
2778.000000	99.745625 
2777.000000	99.748124 
2776.000000	99.748319 
2775.000000	99.744888 
2774.000000	99.740219 
2773.000000	99.737384 
2772.000000	99.736399 
2771.000000	99.735218 
2770.000000	99.733209 
2769.000000	99.731766 
2768.000000	99.732130 
2767.000000	99.734245 
2766.000000	99.737438 
2765.000000	99.740737 
2764.000000	99.742753 
2763.000000	99.742674 
2762.000000	99.741540 
2761.000000	99.741405 
2760.000000	99.742983 
2759.000000	99.744965 
2758.000000	99.745794 
2757.000000	99.745363 
2756.000000	99.744792 
2755.000000	99.745204 
2754.000000	99.746920 
2753.000000	99.749227 
2752.000000	99.750578 
2751.000000	99.749459 
2750.000000	99.745572 
2749.000000	99.740402 
2748.000000	99.736441 
2747.000000	99.735335 
2746.000000	99.736185 
2745.000000	99.735959 
2744.000000	99.732580 
2743.000000	99.727704 
2742.000000	99.725391 
2741.000000	99.727722 
2740.000000	99.732949 
2739.000000	99.738370 
2738.000000	99.743240 
2737.000000	99.747604 
2736.000000	99.750055 
2735.000000	99.748958 
2734.000000	99.745135 
2733.000000	99.741108 
2732.000000	99.737904 
2731.000000	99.734654 
2730.000000	99.731214 
2729.000000	99.729013 
2728.000000	99.728987 
2727.000000	99.730602 
2726.000000	99.733214 
2725.000000	99.736437 
2724.000000	99.738843 
2723.000000	99.738705 
2722.000000	99.736971 
2721.000000	99.737191 
2720.000000	99.740934 
2719.000000	99.745186 
2718.000000	99.746034 
2717.000000	99.743330 
2716.000000	99.739933 
2715.000000	99.737878 
2714.000000	99.737519 
2713.000000	99.739105 
2712.000000	99.742437 
2711.000000	99.745489 
2710.000000	99.746098 
2709.000000	99.745053 
2708.000000	99.744950 
2707.000000	99.745707 
2706.000000	99.744006 
2705.000000	99.738470 
2704.000000	99.732977 
2703.000000	99.732624 
2702.000000	99.737638 
2701.000000	99.743356 
2700.000000	99.745726 
2699.000000	99.744658 
2698.000000	99.741869 
2697.000000	99.737776 
2696.000000	99.732162 
2695.000000	99.726833 
2694.000000	99.725283 
2693.000000	99.728983 
2692.000000	99.735165 
2691.000000	99.739343 
2690.000000	99.739428 
2689.000000	99.736550 
2688.000000	99.732780 
2687.000000	99.729842 
2686.000000	99.729677 
2685.000000	99.733689 
2684.000000	99.740359 
2683.000000	99.745523 
2682.000000	99.746643 
2681.000000	99.745402 
2680.000000	99.744491 
2679.000000	99.743358 
2678.000000	99.739519 
2677.000000	99.733157 
2676.000000	99.727536 
2675.000000	99.724845 
2674.000000	99.724381 
2673.000000	99.725279 
2672.000000	99.728224 
2671.000000	99.733119 
2670.000000	99.737406 
2669.000000	99.738742 
2668.000000	99.737932 
2667.000000	99.737418 
2666.000000	99.738041 
2665.000000	99.739113 
2664.000000	99.740593 
2663.000000	99.742882 
2662.000000	99.744892 
2661.000000	99.744681 
2660.000000	99.742207 
2659.000000	99.739352 
2658.000000	99.736759 
2657.000000	99.732952 
2656.000000	99.727751 
2655.000000	99.724244 
2654.000000	99.724968 
2653.000000	99.727423 
2652.000000	99.726570 
2651.000000	99.721845 
2650.000000	99.718546 
2649.000000	99.720713 
2648.000000	99.725262 
2647.000000	99.725804 
2646.000000	99.720771 
2645.000000	99.714616 
2644.000000	99.711510 
2643.000000	99.711519 
2642.000000	99.713585 
2641.000000	99.718274 
2640.000000	99.725119 
2639.000000	99.730355 
2638.000000	99.730894 
2637.000000	99.728806 
2636.000000	99.728180 
2635.000000	99.728708 
2634.000000	99.726654 
2633.000000	99.721995 
2632.000000	99.719955 
2631.000000	99.724021 
2630.000000	99.731335 
2629.000000	99.737049 
2628.000000	99.739855 
2627.000000	99.740817 
2626.000000	99.739948 
2625.000000	99.737316 
2624.000000	99.735222 
2623.000000	99.735644 
2622.000000	99.737003 
2621.000000	99.736718 
2620.000000	99.735321 
2619.000000	99.734301 
2618.000000	99.731628 
2617.000000	99.724608 
2616.000000	99.717017 
2615.000000	99.717416 
2614.000000	99.728180 
2613.000000	99.740914 
2612.000000	99.745949 
2611.000000	99.742884 
2610.000000	99.737997 
2609.000000	99.734439 
2608.000000	99.730338 
2607.000000	99.725508 
2606.000000	99.724227 
2605.000000	99.729356 
2604.000000	99.737360 
2603.000000	99.741811 
2602.000000	99.739979 
2601.000000	99.734117 
2600.000000	99.728080 
2599.000000	99.725047 
2598.000000	99.727089 
2597.000000	99.733620 
2596.000000	99.740013 
2595.000000	99.740612 
2594.000000	99.734297 
2593.000000	99.725406 
2592.000000	99.718480 
2591.000000	99.714447 
2590.000000	99.713365 
2589.000000	99.717763 
2588.000000	99.729403 
2587.000000	99.743783 
2586.000000	99.752100 
2585.000000	99.749765 
2584.000000	99.740376 
2583.000000	99.730623 
2582.000000	99.724212 
2581.000000	99.721642 
2580.000000	99.722106 
2579.000000	99.722928 
2578.000000	99.720023 
2577.000000	99.712411 
2576.000000	99.704730 
2575.000000	99.702157 
2574.000000	99.704171 
2573.000000	99.706487 
2572.000000	99.707619 
2571.000000	99.709409 
2570.000000	99.711840 
2569.000000	99.712309 
2568.000000	99.710793 
2567.000000	99.710886 
2566.000000	99.713721 
2565.000000	99.715154 
2564.000000	99.712103 
2563.000000	99.708212 
2562.000000	99.709302 
2561.000000	99.715498 
2560.000000	99.721917 
2559.000000	99.725486 
2558.000000	99.726409 
2557.000000	99.723651 
2556.000000	99.714746 
2555.000000	99.701996 
2554.000000	99.694154 
2553.000000	99.698057 
2552.000000	99.710708 
2551.000000	99.722995 
2550.000000	99.729797 
2549.000000	99.732986 
2548.000000	99.735431 
2547.000000	99.736512 
2546.000000	99.734713 
2545.000000	99.731095 
2544.000000	99.727969 
2543.000000	99.726511 
2542.000000	99.727670 
2541.000000	99.732777 
2540.000000	99.740217 
2539.000000	99.743740 
2538.000000	99.738279 
2537.000000	99.726666 
2536.000000	99.716551 
2535.000000	99.711312 
2534.000000	99.708871 
2533.000000	99.709309 
2532.000000	99.716711 
2531.000000	99.730404 
2530.000000	99.740584 
2529.000000	99.738516 
2528.000000	99.727692 
2527.000000	99.719160 
2526.000000	99.718329 
2525.000000	99.722345 
2524.000000	99.728181 
2523.000000	99.735559 
2522.000000	99.741562 
2521.000000	99.740245 
2520.000000	99.730816 
2519.000000	99.720538 
2518.000000	99.715961 
2517.000000	99.715598 
2516.000000	99.714596 
2515.000000	99.712534 
2514.000000	99.712420 
2513.000000	99.715023 
2512.000000	99.718388 
2511.000000	99.720858 
2510.000000	99.721102 
2509.000000	99.717653 
2508.000000	99.712350 
2507.000000	99.711679 
2506.000000	99.719641 
2505.000000	99.730719 
2504.000000	99.735387 
2503.000000	99.732370 
2502.000000	99.730005 
2501.000000	99.734822 
2500.000000	99.744356 
2499.000000	99.753313 
2498.000000	99.761381 
2497.000000	99.770633 
2496.000000	99.778843 
2495.000000	99.780985 
2494.000000	99.776354 
2493.000000	99.769095 
2492.000000	99.760940 
2491.000000	99.748255 
2490.000000	99.729236 
2489.000000	99.710687 
2488.000000	99.702555 
2487.000000	99.705895 
2486.000000	99.710951 
2485.000000	99.709372 
2484.000000	99.704715 
2483.000000	99.706871 
2482.000000	99.718127 
2481.000000	99.729820 
2480.000000	99.733053 
2479.000000	99.727805 
2478.000000	99.719722 
2477.000000	99.712661 
2476.000000	99.707840 
2475.000000	99.706825 
2474.000000	99.710718 
2473.000000	99.717943 
2472.000000	99.726538 
2471.000000	99.737034 
2470.000000	99.749070 
2469.000000	99.756967 
2468.000000	99.754400 
2467.000000	99.743655 
2466.000000	99.734842 
2465.000000	99.734314 
2464.000000	99.738401 
2463.000000	99.740619 
2462.000000	99.740325 
2461.000000	99.740743 
2460.000000	99.742145 
2459.000000	99.741731 
2458.000000	99.738687 
2457.000000	99.735196 
2456.000000	99.732869 
2455.000000	99.731300 
2454.000000	99.729767 
2453.000000	99.727528 
2452.000000	99.722978 
2451.000000	99.715799 
2450.000000	99.709842 
2449.000000	99.710136 
2448.000000	99.715878 
2447.000000	99.719768 
2446.000000	99.716550 
2445.000000	99.709864 
2444.000000	99.707972 
2443.000000	99.714129 
2442.000000	99.723852 
2441.000000	99.730818 
2440.000000	99.732512 
2439.000000	99.730199 
2438.000000	99.726640 
2437.000000	99.724990 
2436.000000	99.726861 
2435.000000	99.729161 
2434.000000	99.725358 
2433.000000	99.713357 
2432.000000	99.700815 
2431.000000	99.698344 
2430.000000	99.707361 
2429.000000	99.718861 
2428.000000	99.725343 
2427.000000	99.728962 
2426.000000	99.734595 
2425.000000	99.739594 
2424.000000	99.736694 
2423.000000	99.725637 
2422.000000	99.715371 
2421.000000	99.713519 
2420.000000	99.718654 
2419.000000	99.724854 
2418.000000	99.729358 
2417.000000	99.732629 
2416.000000	99.734340 
2415.000000	99.733330 
2414.000000	99.730176 
2413.000000	99.726836 
2412.000000	99.724497 
2411.000000	99.723732 
2410.000000	99.725286 
2409.000000	99.728400 
2408.000000	99.729904 
2407.000000	99.727878 
2406.000000	99.725151 
2405.000000	99.726126 
2404.000000	99.730645 
2403.000000	99.734070 
2402.000000	99.733289 
2401.000000	99.729636 
2400.000000	99.725702 
2399.000000	99.722454 
2398.000000	99.720363 
2397.000000	99.720406 
2396.000000	99.722261 
2395.000000	99.723796 
2394.000000	99.724200 
2393.000000	99.725851 
2392.000000	99.731087 
2391.000000	99.738562 
2390.000000	99.745080 
2389.000000	99.750114 
2388.000000	99.756045 
2387.000000	99.763946 
2386.000000	99.771499 
2385.000000	99.775870 
2384.000000	99.776920 
2383.000000	99.776276 
2382.000000	99.774496 
2381.000000	99.771007 
2380.000000	99.766541 
2379.000000	99.763481 
2378.000000	99.762741 
2377.000000	99.762089 
2376.000000	99.759625 
2375.000000	99.757884 
2374.000000	99.761276 
2373.000000	99.769292 
2372.000000	99.776378 
2371.000000	99.780208 
2370.000000	99.785483 
2369.000000	99.795533 
2368.000000	99.804318 
2367.000000	99.802951 
2366.000000	99.792208 
2365.000000	99.781915 
2364.000000	99.778326 
2363.000000	99.778870 
2362.000000	99.780785 
2361.000000	99.785727 
2360.000000	99.792242 
2359.000000	99.793580 
2358.000000	99.787834 
2357.000000	99.783931 
2356.000000	99.789937 
2355.000000	99.799591 
2354.000000	99.800225 
2353.000000	99.790875 
2352.000000	99.783342 
2351.000000	99.784944 
2350.000000	99.790539 
2349.000000	99.793234 
2348.000000	99.792866 
2347.000000	99.793028 
2346.000000	99.793740 
2345.000000	99.792003 
2344.000000	99.789652 
2343.000000	99.791398 
2342.000000	99.796754 
2341.000000	99.798707 
2340.000000	99.793717 
2339.000000	99.787045 
2338.000000	99.784996 
2337.000000	99.787666 
2336.000000	99.791204 
2335.000000	99.793869 
2334.000000	99.795674 
2333.000000	99.795939 
2332.000000	99.793537 
2331.000000	99.789371 
2330.000000	99.785070 
2329.000000	99.782780 
2328.000000	99.783367 
2327.000000	99.786615 
2326.000000	99.789473 
2325.000000	99.787305 
2324.000000	99.778695 
2323.000000	99.768500 
2322.000000	99.765333 
2321.000000	99.772489 
2320.000000	99.784136 
2319.000000	99.791536 
2318.000000	99.791858 
2317.000000	99.789109 
2316.000000	99.786849 
2315.000000	99.784791 
2314.000000	99.781299 
2313.000000	99.777714 
2312.000000	99.776168 
2311.000000	99.777123 
2310.000000	99.779605 
2309.000000	99.784006 
2308.000000	99.789736 
2307.000000	99.792656 
2306.000000	99.787535 
2305.000000	99.775056 
2304.000000	99.762180 
2303.000000	99.754877 
2302.000000	99.752349 
2301.000000	99.750635 
2300.000000	99.748217 
2299.000000	99.746157 
2298.000000	99.744293 
2297.000000	99.741896 
2296.000000	99.740535 
2295.000000	99.742770 
2294.000000	99.746891 
2293.000000	99.747031 
2292.000000	99.740037 
2291.000000	99.729790 
2290.000000	99.722769 
2289.000000	99.721458 
2288.000000	99.724146 
2287.000000	99.728919 
2286.000000	99.734609 
2285.000000	99.738658 
2284.000000	99.737852 
2283.000000	99.731895 
2282.000000	99.723812 
2281.000000	99.715915 
2280.000000	99.707876 
2279.000000	99.699961 
2278.000000	99.695623 
2277.000000	99.698296 
2276.000000	99.706757 
2275.000000	99.715948 
2274.000000	99.721636 
2273.000000	99.722608 
2272.000000	99.719459 
2271.000000	99.713987 
2270.000000	99.709576 
2269.000000	99.709383 
2268.000000	99.713429 
2267.000000	99.719387 
2266.000000	99.726064 
2265.000000	99.733309 
2264.000000	99.738638 
2263.000000	99.738661 
2262.000000	99.735848 
2261.000000	99.738867 
2260.000000	99.751455 
2259.000000	99.764152 
2258.000000	99.763214 
2257.000000	99.746868 
2256.000000	99.726885 
2255.000000	99.713983 
2254.000000	99.708301 
2253.000000	99.705919 
2252.000000	99.707389 
2251.000000	99.714836 
2250.000000	99.725515 
2249.000000	99.734262 
2248.000000	99.739992 
2247.000000	99.744505 
2246.000000	99.746167 
2245.000000	99.740123 
2244.000000	99.725149 
2243.000000	99.706709 
2242.000000	99.693059 
2241.000000	99.690584 
2240.000000	99.701136 
2239.000000	99.719537 
2238.000000	99.733949 
2237.000000	99.733373 
2236.000000	99.716559 
2235.000000	99.691266 
2234.000000	99.665574 
2233.000000	99.644199 
2232.000000	99.632697 
2231.000000	99.638219 
2230.000000	99.661563 
2229.000000	99.691716 
2228.000000	99.713412 
2227.000000	99.719860 
2226.000000	99.715561 
2225.000000	99.708434 
2224.000000	99.702591 
2223.000000	99.698231 
2222.000000	99.694585 
2221.000000	99.690995 
2220.000000	99.686990 
2219.000000	99.683682 
2218.000000	99.684892 
2217.000000	99.694989 
2216.000000	99.714355 
2215.000000	99.737470 
2214.000000	99.756154 
2213.000000	99.764524 
2212.000000	99.761154 
2211.000000	99.748829 
2210.000000	99.734710 
2209.000000	99.728545 
2208.000000	99.734813 
2207.000000	99.745273 
2206.000000	99.744593 
2205.000000	99.726916 
2204.000000	99.703523 
2203.000000	99.690718 
2202.000000	99.693696 
2201.000000	99.705219 
2200.000000	99.715064 
2199.000000	99.715471 
2198.000000	99.702263 
2197.000000	99.679801 
2196.000000	99.663600 
2195.000000	99.668944 
2194.000000	99.694817 
2193.000000	99.724095 
2192.000000	99.740124 
2191.000000	99.738207 
2190.000000	99.722595 
2189.000000	99.701713 
2188.000000	99.687751 
2187.000000	99.691144 
2186.000000	99.710055 
2185.000000	99.730487 
2184.000000	99.740476 
2183.000000	99.739605 
2182.000000	99.733495 
2181.000000	99.727184 
2180.000000	99.726359 
2179.000000	99.735048 
2178.000000	99.746568 
2177.000000	99.745819 
2176.000000	99.728192 
2175.000000	99.708633 
2174.000000	99.703292 
2173.000000	99.708862 
2172.000000	99.709876 
2171.000000	99.700987 
2170.000000	99.691243 
2169.000000	99.689665 
2168.000000	99.697145 
2167.000000	99.711612 
2166.000000	99.730511 
2165.000000	99.746538 
2164.000000	99.751142 
2163.000000	99.746648 
2162.000000	99.747722 
2161.000000	99.765775 
2160.000000	99.794824 
2159.000000	99.815794 
2158.000000	99.813056 
2157.000000	99.785899 
2156.000000	99.747209 
2155.000000	99.714035 
2154.000000	99.697900 
2153.000000	99.699710 
2152.000000	99.711611 
2151.000000	99.723727 
2150.000000	99.730349 
2149.000000	99.732827 
2148.000000	99.737745 
2147.000000	99.749372 
2146.000000	99.763021 
2145.000000	99.769729 
2144.000000	99.768545 
2143.000000	99.768344 
2142.000000	99.774762 
2141.000000	99.781673 
2140.000000	99.780087 
2139.000000	99.769546 
2138.000000	99.754520 
2137.000000	99.735439 
2136.000000	99.712223 
2135.000000	99.693516 
2134.000000	99.692021 
2133.000000	99.709330 
2132.000000	99.732456 
2131.000000	99.746510 
2130.000000	99.745531 
2129.000000	99.732362 
2128.000000	99.715007 
2127.000000	99.703220 
2126.000000	99.701978 
2125.000000	99.706322 
2124.000000	99.707690 
2123.000000	99.706289 
2122.000000	99.710880 
2121.000000	99.724576 
2120.000000	99.738082 
2119.000000	99.741239 
2118.000000	99.735073 
2117.000000	99.727100 
2116.000000	99.720036 
2115.000000	99.712450 
2114.000000	99.707464 
2113.000000	99.711950 
2112.000000	99.725919 
2111.000000	99.739243 
2110.000000	99.741610 
2109.000000	99.732122 
2108.000000	99.717423 
2107.000000	99.703780 
2106.000000	99.693178 
2105.000000	99.684394 
2104.000000	99.675287 
2103.000000	99.665358 
2102.000000	99.657584 
2101.000000	99.656315 
2100.000000	99.662092 
2099.000000	99.670121 
2098.000000	99.675653 
2097.000000	99.679795 
2096.000000	99.687573 
2095.000000	99.700041 
2094.000000	99.710675 
2093.000000	99.711646 
2092.000000	99.703001 
2091.000000	99.693176 
2090.000000	99.689471 
2089.000000	99.689580 
2088.000000	99.684802 
2087.000000	99.671632 
2086.000000	99.657455 
2085.000000	99.653433 
2084.000000	99.663397 
2083.000000	99.681500 
2082.000000	99.699217 
2081.000000	99.711959 
2080.000000	99.719358 
2079.000000	99.722115 
2078.000000	99.720652 
2077.000000	99.716546 
2076.000000	99.713644 
2075.000000	99.716409 
2074.000000	99.726188 
2073.000000	99.739206 
2072.000000	99.749272 
2071.000000	99.753040 
2070.000000	99.752127 
2069.000000	99.750084 
2068.000000	99.748393 
2067.000000	99.745784 
2066.000000	99.740111 
2065.000000	99.730010 
2064.000000	99.716214 
2063.000000	99.702739 
2062.000000	99.695792 
2061.000000	99.699427 
2060.000000	99.712225 
2059.000000	99.729567 
2058.000000	99.748202 
2057.000000	99.766203 
2056.000000	99.779384 
2055.000000	99.782106 
2054.000000	99.774052 
2053.000000	99.763845 
2052.000000	99.762176 
2051.000000	99.770939 
2050.000000	99.780686 
2049.000000	99.778719 
2048.000000	99.759889 
2047.000000	99.730429 
2046.000000	99.703360 
2045.000000	99.690521 
2044.000000	99.695336 
2043.000000	99.710378 
2042.000000	99.723016 
2041.000000	99.725528 
2040.000000	99.720182 
2039.000000	99.714199 
2038.000000	99.712065 
2037.000000	99.714437 
2036.000000	99.721383 
2035.000000	99.732331 
2034.000000	99.742987 
2033.000000	99.746349 
2032.000000	99.738939 
2031.000000	99.724187 
2030.000000	99.709005 
2029.000000	99.698580 
2028.000000	99.693623 
2027.000000	99.690724 
2026.000000	99.686284 
2025.000000	99.682095 
2024.000000	99.685219 
2023.000000	99.698262 
2022.000000	99.711921 
2021.000000	99.713466 
2020.000000	99.703206 
2019.000000	99.694873 
2018.000000	99.696797 
2017.000000	99.699817 
2016.000000	99.690246 
2015.000000	99.669612 
2014.000000	99.652982 
2013.000000	99.651246 
2012.000000	99.662354 
2011.000000	99.678375 
2010.000000	99.693911 
2009.000000	99.706763 
2008.000000	99.717125 
2007.000000	99.728530 
2006.000000	99.744619 
2005.000000	99.762435 
2004.000000	99.772781 
2003.000000	99.769162 
2002.000000	99.754264 
2001.000000	99.736793 
2000.000000	99.723912 
1999.000000	99.717287 
1998.000000	99.714776 
1997.000000	99.715296 
1996.000000	99.721303 
1995.000000	99.735419 
1994.000000	99.754008 
1993.000000	99.766224 
1992.000000	99.762889 
1991.000000	99.746233 
1990.000000	99.727411 
1989.000000	99.715941 
1988.000000	99.714458 
1987.000000	99.719901 
1986.000000	99.724979 
1985.000000	99.721240 
1984.000000	99.707159 
1983.000000	99.692924 
1982.000000	99.691276 
1981.000000	99.702154 
1980.000000	99.712084 
1979.000000	99.711285 
1978.000000	99.705568 
1977.000000	99.707133 
1976.000000	99.717468 
1975.000000	99.727118 
1974.000000	99.730622 
1973.000000	99.734576 
1972.000000	99.749085 
1971.000000	99.773637 
1970.000000	99.793362 
1969.000000	99.791290 
1968.000000	99.766773 
1967.000000	99.739913 
1966.000000	99.732053 
1965.000000	99.742910 
1964.000000	99.753561 
1963.000000	99.749945 
1962.000000	99.735499 
1961.000000	99.721120 
1960.000000	99.711495 
1959.000000	99.705983 
1958.000000	99.705742 
1957.000000	99.711599 
1956.000000	99.718591 
1955.000000	99.720506 
1954.000000	99.718296 
1953.000000	99.717754 
1952.000000	99.719548 
1951.000000	99.718007 
1950.000000	99.710754 
1949.000000	99.703330 
1948.000000	99.702674 
1947.000000	99.709366 
1946.000000	99.717331 
1945.000000	99.718669 
1944.000000	99.709258 
1943.000000	99.693802 
1942.000000	99.684993 
1941.000000	99.691358 
1940.000000	99.706191 
1939.000000	99.714664 
1938.000000	99.711035 
1937.000000	99.704103 
1936.000000	99.704868 
1935.000000	99.713700 
1934.000000	99.723897 
1933.000000	99.733140 
1932.000000	99.744395 
1931.000000	99.757367 
1930.000000	99.766265 
1929.000000	99.766879 
1928.000000	99.762563 
1927.000000	99.760075 
1926.000000	99.761752 
1925.000000	99.763924 
1924.000000	99.761213 
1923.000000	99.753297 
1922.000000	99.746353 
1921.000000	99.746603 
1920.000000	99.752581 
1919.000000	99.755874 
1918.000000	99.750096 
1917.000000	99.738871 
1916.000000	99.730712 
1915.000000	99.727397 
1914.000000	99.724143 
1913.000000	99.718923 
1912.000000	99.715045 
1911.000000	99.714490 
1910.000000	99.713788 
1909.000000	99.709699 
1908.000000	99.705717 
1907.000000	99.707235 
1906.000000	99.713815 
1905.000000	99.721492 
1904.000000	99.729525 
1903.000000	99.740881 
1902.000000	99.754654 
1901.000000	99.763738 
1900.000000	99.762558 
1899.000000	99.752705 
1898.000000	99.739492 
1897.000000	99.727298 
1896.000000	99.719112 
1895.000000	99.717637 
1894.000000	99.723021 
1893.000000	99.731506 
1892.000000	99.738852 
1891.000000	99.743387 
1890.000000	99.744364 
1889.000000	99.740800 
1888.000000	99.734591 
1887.000000	99.730942 
1886.000000	99.733324 
1885.000000	99.739982 
1884.000000	99.746247 
1883.000000	99.749757 
1882.000000	99.751208 
1881.000000	99.750805 
1880.000000	99.747640 
1879.000000	99.741992 
1878.000000	99.736364 
1877.000000	99.734280 
1876.000000	99.737719 
1875.000000	99.745473 
1874.000000	99.753368 
1873.000000	99.756183 
1872.000000	99.751252 
1871.000000	99.740793 
1870.000000	99.730424 
1869.000000	99.724855 
1868.000000	99.724744 
1867.000000	99.727822 
1866.000000	99.731221 
1865.000000	99.733557 
1864.000000	99.735681 
1863.000000	99.738385 
1862.000000	99.739908 
1861.000000	99.737125 
1860.000000	99.729758 
1859.000000	99.721773 
1858.000000	99.717651 
1857.000000	99.718998 
1856.000000	99.725280 
1855.000000	99.735373 
1854.000000	99.746531 
1853.000000	99.753831 
1852.000000	99.754515 
1851.000000	99.751359 
1850.000000	99.749123 
1849.000000	99.750723 
1848.000000	99.755581 
1847.000000	99.760700 
1846.000000	99.761689 
1845.000000	99.755448 
1844.000000	99.744874 
1843.000000	99.738410 
1842.000000	99.739400 
1841.000000	99.741302 
1840.000000	99.737973 
1839.000000	99.731009 
1838.000000	99.726258 
1837.000000	99.725974 
1836.000000	99.726714 
1835.000000	99.725868 
1834.000000	99.725152 
1833.000000	99.727000 
1832.000000	99.730545 
1831.000000	99.731539 
1830.000000	99.726386 
1829.000000	99.718419 
1828.000000	99.715204 
1827.000000	99.719640 
1826.000000	99.728969 
1825.000000	99.737932 
1824.000000	99.741629 
1823.000000	99.738634 
1822.000000	99.730066 
1821.000000	99.718484 
1820.000000	99.708750 
1819.000000	99.706314 
1818.000000	99.713070 
1817.000000	99.724450 
1816.000000	99.732847 
1815.000000	99.735715 
1814.000000	99.736351 
1813.000000	99.738262 
1812.000000	99.741572 
1811.000000	99.744867 
1810.000000	99.748969 
1809.000000	99.754269 
1808.000000	99.757724 
1807.000000	99.755751 
1806.000000	99.747926 
1805.000000	99.737451 
1804.000000	99.729363 
1803.000000	99.727729 
1802.000000	99.731286 
1801.000000	99.732575 
1800.000000	99.725775 
1799.000000	99.714546 
1798.000000	99.708883 
1797.000000	99.713244 
1796.000000	99.722860 
1795.000000	99.730349 
1794.000000	99.732676 
1793.000000	99.731708 
1792.000000	99.730346 
1791.000000	99.729994 
1790.000000	99.730570 
1789.000000	99.729828 
1788.000000	99.726829 
1787.000000	99.724025 
1786.000000	99.724568 
1785.000000	99.727654 
1784.000000	99.728718 
1783.000000	99.725225 
1782.000000	99.718520 
1781.000000	99.712013 
1780.000000	99.708880 
1779.000000	99.709196 
1778.000000	99.712095 
1777.000000	99.716793 
1776.000000	99.723141 
1775.000000	99.730062 
1774.000000	99.735190 
1773.000000	99.737140 
1772.000000	99.736931 
1771.000000	99.737598 
1770.000000	99.739647 
1769.000000	99.738972 
1768.000000	99.732874 
1767.000000	99.724200 
1766.000000	99.718476 
1765.000000	99.717703 
1764.000000	99.719026 
1763.000000	99.718168 
1762.000000	99.713702 
1761.000000	99.709852 
1760.000000	99.711872 
1759.000000	99.718863 
1758.000000	99.727083 
1757.000000	99.733663 
1756.000000	99.738329 
1755.000000	99.741184 
1754.000000	99.741148 
1753.000000	99.738556 
1752.000000	99.736188 
1751.000000	99.734457 
1750.000000	99.730691 
1749.000000	99.725001 
1748.000000	99.721307 
1747.000000	99.723599 
1746.000000	99.730314 
1745.000000	99.736439 
1744.000000	99.738041 
1743.000000	99.733953 
1742.000000	99.726461 
1741.000000	99.719627 
1740.000000	99.717552 
1739.000000	99.722354 
1738.000000	99.732334 
1737.000000	99.741699 
1736.000000	99.746128 
1735.000000	99.746318 
1734.000000	99.741856 
1733.000000	99.733217 
1732.000000	99.726339 
1731.000000	99.721422 
1730.000000	99.718056 
1729.000000	99.717245 
1728.000000	99.718540 
1727.000000	99.720483 
1726.000000	99.722220 
1725.000000	99.723772 
1724.000000	99.723348 
1723.000000	99.718644 
1722.000000	99.711847 
1721.000000	99.706963 
1720.000000	99.705952 
1719.000000	99.708365 
1718.000000	99.711816 
1717.000000	99.713962 
1716.000000	99.716529 
1715.000000	99.721290 
1714.000000	99.726681 
1713.000000	99.730444 
1712.000000	99.731340 
1711.000000	99.730192 
1710.000000	99.728308 
1709.000000	99.726132 
1708.000000	99.724149 
1707.000000	99.722500 
1706.000000	99.719885 
1705.000000	99.715171 
1704.000000	99.710428 
1703.000000	99.708305 
1702.000000	99.709339 
1701.000000	99.712453 
1700.000000	99.711284 
1699.000000	99.708728 
1698.000000	99.713125 
1697.000000	99.717603 
1696.000000	99.714065 
1695.000000	99.705222 
1694.000000	99.701663 
1693.000000	99.703255 
1692.000000	99.702458 
1691.000000	99.697353 
1690.000000	99.691824 
1689.000000	99.689329 
1688.000000	99.690070 
1687.000000	99.691396 
1686.000000	99.692785 
1685.000000	99.696370 
1684.000000	99.697533 
1683.000000	99.696875 
1682.000000	99.699553 
1681.000000	99.699387 
1680.000000	99.695751 
1679.000000	99.692472 
1678.000000	99.690511 
1677.000000	99.687972 
1676.000000	99.684257 
1675.000000	99.680529 
1674.000000	99.679237 
1673.000000	99.682496 
1672.000000	99.689542 
1671.000000	99.698894 
1670.000000	99.708010 
1669.000000	99.712630 
1668.000000	99.713279 
1667.000000	99.711029 
1666.000000	99.703625 
1665.000000	99.690357 
1664.000000	99.674939 
1663.000000	99.664270 
1662.000000	99.661981 
1661.000000	99.664610 
1660.000000	99.667361 
1659.000000	99.668536 
1658.000000	99.669014 
1657.000000	99.669317 
1656.000000	99.669589 
1655.000000	99.672391 
1654.000000	99.681552 
1653.000000	99.684051 
1652.000000	99.673701 
1651.000000	99.669322 
1650.000000	99.669288 
1649.000000	99.669612 
1648.000000	99.669152 
1647.000000	99.665266 
1646.000000	99.658275 
1645.000000	99.655537 
1644.000000	99.657801 
1643.000000	99.661665 
1642.000000	99.665828 
1641.000000	99.669954 
1640.000000	99.673686 
1639.000000	99.675633 
1638.000000	99.675801 
1637.000000	99.676822 
1636.000000	99.679571 
1635.000000	99.681037 
1634.000000	99.681090 
1633.000000	99.680157 
1632.000000	99.676506 
1631.000000	99.671729 
1630.000000	99.668183 
1629.000000	99.666139 
1628.000000	99.664089 
1627.000000	99.661861 
1626.000000	99.660658 
1625.000000	99.661246 
1624.000000	99.663238 
1623.000000	99.664504 
1622.000000	99.664065 
1621.000000	99.662941 
1620.000000	99.661407 
1619.000000	99.659035 
1618.000000	99.657723 
1617.000000	99.660167 
1616.000000	99.666721 
1615.000000	99.675579 
1614.000000	99.682199 
1613.000000	99.683993 
1612.000000	99.683576 
1611.000000	99.684095 
1610.000000	99.684616 
1609.000000	99.683221 
1608.000000	99.681628 
1607.000000	99.682317 
1606.000000	99.683789 
1605.000000	99.683111 
1604.000000	99.681250 
1603.000000	99.680805 
1602.000000	99.682435 
1601.000000	99.684946 
1600.000000	99.687714 
1599.000000	99.691127 
1598.000000	99.695015 
1597.000000	99.698237 
1596.000000	99.699264 
1595.000000	99.697300 
1594.000000	99.693522 
1593.000000	99.691050 
1592.000000	99.692700 
1591.000000	99.697891 
1590.000000	99.702508 
1589.000000	99.703007 
1588.000000	99.700320 
1587.000000	99.698164 
1586.000000	99.698536 
1585.000000	99.699957 
1584.000000	99.700705 
1583.000000	99.700339 
1582.000000	99.698205 
1581.000000	99.694501 
1580.000000	99.690230 
1579.000000	99.685342 
1578.000000	99.678872 
1577.000000	99.672364 
1576.000000	99.669341 
1575.000000	99.673473 
1574.000000	99.683483 
1573.000000	99.692585 
1572.000000	99.697572 
1571.000000	99.700242 
1570.000000	99.702408 
1569.000000	99.703688 
1568.000000	99.704739 
1567.000000	99.703565 
1566.000000	99.696753 
1565.000000	99.685848 
1564.000000	99.676313 
1563.000000	99.671401 
1562.000000	99.669732 
1561.000000	99.671362 
1560.000000	99.681969 
1559.000000	99.691179 
1558.000000	99.688987 
1557.000000	99.691728 
1556.000000	99.693861 
1555.000000	99.690210 
1554.000000	99.684622 
1553.000000	99.682851 
1552.000000	99.685503 
1551.000000	99.687089 
1550.000000	99.684399 
1549.000000	99.680093 
1548.000000	99.677670 
1547.000000	99.675691 
1546.000000	99.669285 
1545.000000	99.657007 
1544.000000	99.643901 
1543.000000	99.637549 
1542.000000	99.640766 
1541.000000	99.649183 
1540.000000	99.653853 
1539.000000	99.656380 
1538.000000	99.665598 
1537.000000	99.678642 
1536.000000	99.689187 
1535.000000	99.695558 
1534.000000	99.696931 
1533.000000	99.693106 
1532.000000	99.689000 
1531.000000	99.687986 
1530.000000	99.689131 
1529.000000	99.691214 
1528.000000	99.693196 
1527.000000	99.694783 
1526.000000	99.696106 
1525.000000	99.697241 
1524.000000	99.698096 
1523.000000	99.699112 
1522.000000	99.701321 
1521.000000	99.703309 
1520.000000	99.703823 
1519.000000	99.702027 
1518.000000	99.696852 
1517.000000	99.691694 
1516.000000	99.690890 
1515.000000	99.694773 
1514.000000	99.700000 
1513.000000	99.705439 
1512.000000	99.712246 
1511.000000	99.718729 
1510.000000	99.721396 
1509.000000	99.718352 
1508.000000	99.712253 
1507.000000	99.705775 
1506.000000	99.701938 
1505.000000	99.703735 
1504.000000	99.706674 
1503.000000	99.707985 
1502.000000	99.708565 
1501.000000	99.709411 
1500.000000	99.709997 
1499.000000	99.708497 
1498.000000	99.703745 
1497.000000	99.697343 
1496.000000	99.693162 
1495.000000	99.695754 
1494.000000	99.705376 
1493.000000	99.717114 
1492.000000	99.726330 
1491.000000	99.730596 
1490.000000	99.729069 
1489.000000	99.723293 
1488.000000	99.716316 
1487.000000	99.710358 
1486.000000	99.706780 
1485.000000	99.704428 
1484.000000	99.702807 
1483.000000	99.703278 
1482.000000	99.706664 
1481.000000	99.711838 
1480.000000	99.715675 
1479.000000	99.716181 
1478.000000	99.713098 
1477.000000	99.707737 
1476.000000	99.702642 
1475.000000	99.701956 
1474.000000	99.707550 
1473.000000	99.714598 
1472.000000	99.716355 
1471.000000	99.713048 
1470.000000	99.708322 
1469.000000	99.702385 
1468.000000	99.695319 
1467.000000	99.689764 
1466.000000	99.689095 
1465.000000	99.692534 
1464.000000	99.696076 
1463.000000	99.697740 
1462.000000	99.699280 
1461.000000	99.702678 
1460.000000	99.707248 
1459.000000	99.709744 
1458.000000	99.706428 
1457.000000	99.697457 
1456.000000	99.690719 
1455.000000	99.692044 
1454.000000	99.696877 
1453.000000	99.702108 
1452.000000	99.707914 
1451.000000	99.713439 
1450.000000	99.716248 
1449.000000	99.714341 
1448.000000	99.707844 
1447.000000	99.700383 
1446.000000	99.695923 
1445.000000	99.695389 
1444.000000	99.697684 
1443.000000	99.700121 
1442.000000	99.701228 
1441.000000	99.701061 
1440.000000	99.700011 
1439.000000	99.697628 
1438.000000	99.694678 
1437.000000	99.692906 
1436.000000	99.692521 
1435.000000	99.693418 
1434.000000	99.694908 
1433.000000	99.696465 
1432.000000	99.698356 
1431.000000	99.699643 
1430.000000	99.698091 
1429.000000	99.693621 
1428.000000	99.688599 
1427.000000	99.685973 
1426.000000	99.686590 
1425.000000	99.689646 
1424.000000	99.693698 
1423.000000	99.695976 
1422.000000	99.694976 
1421.000000	99.691834 
1420.000000	99.689798 
1419.000000	99.689794 
1418.000000	99.690906 
1417.000000	99.693088 
1416.000000	99.694413 
1415.000000	99.693462 
1414.000000	99.690976 
1413.000000	99.688901 
1412.000000	99.689397 
1411.000000	99.693232 
1410.000000	99.698904 
1409.000000	99.703565 
1408.000000	99.705243 
1407.000000	99.705316 
1406.000000	99.706158 
1405.000000	99.707085 
1404.000000	99.706024 
1403.000000	99.703800 
1402.000000	99.704360 
1401.000000	99.709583 
1400.000000	99.716333 
1399.000000	99.719686 
1398.000000	99.719634 
1397.000000	99.719885 
1396.000000	99.720852 
1395.000000	99.720071 
1394.000000	99.717111 
1393.000000	99.715078 
1392.000000	99.715916 
1391.000000	99.718660 
1390.000000	99.722573 
1389.000000	99.727091 
1388.000000	99.729624 
1387.000000	99.727472 
1386.000000	99.722962 
1385.000000	99.721083 
1384.000000	99.722763 
1383.000000	99.724403 
1382.000000	99.723215 
1381.000000	99.720284 
1380.000000	99.718138 
1379.000000	99.717410 
1378.000000	99.716826 
1377.000000	99.715618 
1376.000000	99.714400 
1375.000000	99.714367 
1374.000000	99.716381 
1373.000000	99.720794 
1372.000000	99.726301 
1371.000000	99.730049 
1370.000000	99.729910 
1369.000000	99.726206 
1368.000000	99.721474 
1367.000000	99.717686 
1366.000000	99.715195 
1365.000000	99.713784 
1364.000000	99.713418 
1363.000000	99.713583 
1362.000000	99.713360 
1361.000000	99.712373 
1360.000000	99.711083 
1359.000000	99.710778 
1358.000000	99.712787 
1357.000000	99.716847 
1356.000000	99.720591 
1355.000000	99.721601 
1354.000000	99.720421 
1353.000000	99.720054 
1352.000000	99.721686 
1351.000000	99.723124 
1350.000000	99.721653 
1349.000000	99.717531 
1348.000000	99.713535 
1347.000000	99.710972 
1346.000000	99.709120 
1345.000000	99.707636 
1344.000000	99.707434 
1343.000000	99.708752 
1342.000000	99.710701 
1341.000000	99.713102 
1340.000000	99.716979 
1339.000000	99.722136 
1338.000000	99.726181 
1337.000000	99.727468 
1336.000000	99.727217 
1335.000000	99.727393 
1334.000000	99.727953 
1333.000000	99.727452 
1332.000000	99.725409 
1331.000000	99.722741 
1330.000000	99.720420 
1329.000000	99.719033 
1328.000000	99.719116 
1327.000000	99.720598 
1326.000000	99.722134 
1325.000000	99.722517 
1324.000000	99.722457 
1323.000000	99.723310 
1322.000000	99.724819 
1321.000000	99.725495 
1320.000000	99.725139 
1319.000000	99.725087 
1318.000000	99.725481 
1317.000000	99.724078 
1316.000000	99.719179 
1315.000000	99.712512 
1314.000000	99.707592 
1313.000000	99.705658 
1312.000000	99.704812 
1311.000000	99.703408 
1310.000000	99.702459 
1309.000000	99.703707 
1308.000000	99.706507 
1307.000000	99.708299 
1306.000000	99.707804 
1305.000000	99.706436 
1304.000000	99.706247 
1303.000000	99.707457 
1302.000000	99.708793 
1301.000000	99.709219 
1300.000000	99.708607 
1299.000000	99.707321 
1298.000000	99.706212 
1297.000000	99.706562 
1296.000000	99.708966 
1295.000000	99.712251 
1294.000000	99.714340 
1293.000000	99.714323 
1292.000000	99.712914 
1291.000000	99.711063 
1290.000000	99.709105 
1289.000000	99.707354 
1288.000000	99.706346 
1287.000000	99.705910 
1286.000000	99.704894 
1285.000000	99.702586 
1284.000000	99.699595 
1283.000000	99.696540 
1282.000000	99.692720 
1281.000000	99.687413 
1280.000000	99.682193 
1279.000000	99.680221 
1278.000000	99.682680 
1277.000000	99.687194 
1276.000000	99.690572 
1275.000000	99.692108 
1274.000000	99.693076 
1273.000000	99.693816 
1272.000000	99.692990 
1271.000000	99.690049 
1270.000000	99.686986 
1269.000000	99.686376 
1268.000000	99.688146 
1267.000000	99.689391 
1266.000000	99.687671 
1265.000000	99.683853 
1264.000000	99.681041 
1263.000000	99.680895 
1262.000000	99.681717 
1261.000000	99.680532 
1260.000000	99.676762 
1259.000000	99.673037 
1258.000000	99.672129 
1257.000000	99.674012 
1256.000000	99.676631 
1255.000000	99.678904 
1254.000000	99.681653 
1253.000000	99.685537 
1252.000000	99.689382 
1251.000000	99.691384 
1250.000000	99.690991 
1249.000000	99.688666 
1248.000000	99.684619 
1247.000000	99.679060 
1246.000000	99.673133 
1245.000000	99.668025 
1244.000000	99.663262 
1243.000000	99.657678 
1242.000000	99.652244 
1241.000000	99.650053 
1240.000000	99.652605 
1239.000000	99.657559 
1238.000000	99.661301 
1237.000000	99.662583 
1236.000000	99.662359 
1235.000000	99.661186 
1234.000000	99.658522 
1233.000000	99.654008 
1232.000000	99.647748 
1231.000000	99.639683 
1230.000000	99.630488 
1229.000000	99.623034 
1228.000000	99.620795 
1227.000000	99.623757 
1226.000000	99.627181 
1225.000000	99.625685 
1224.000000	99.618013 
1223.000000	99.607090 
1222.000000	99.596283 
1221.000000	99.586810 
1220.000000	99.578485 
1219.000000	99.571344 
1218.000000	99.565651 
1217.000000	99.560737 
1216.000000	99.554720 
1215.000000	99.545927 
1214.000000	99.534697 
1213.000000	99.523388 
1212.000000	99.514088 
1211.000000	99.506411 
1210.000000	99.498064 
1209.000000	99.487581 
1208.000000	99.475850 
1207.000000	99.464826 
1206.000000	99.455531 
1205.000000	99.447623 
1204.000000	99.440220 
1203.000000	99.432615 
1202.000000	99.424826 
1201.000000	99.417835 
1200.000000	99.412398 
1199.000000	99.406953 
1198.000000	99.397990 
1197.000000	99.383935 
1196.000000	99.367865 
1195.000000	99.354702 
1194.000000	99.345905 
1193.000000	99.338543 
1192.000000	99.329450 
1191.000000	99.318327 
1190.000000	99.306391 
1189.000000	99.293992 
1188.000000	99.280865 
1187.000000	99.267504 
1186.000000	99.254970 
1185.000000	99.243901 
1184.000000	99.234550 
1183.000000	99.227195 
1182.000000	99.221690 
1181.000000	99.216987 
1180.000000	99.211551 
1179.000000	99.203821 
1178.000000	99.192495 
1177.000000	99.177687 
1176.000000	99.162003 
1175.000000	99.148730 
1174.000000	99.137919 
1173.000000	99.125782 
1172.000000	99.109338 
1171.000000	99.090283 
1170.000000	99.072750 
1169.000000	99.058476 
1168.000000	99.046156 
1167.000000	99.034730 
1166.000000	99.025064 
1165.000000	99.018690 
1164.000000	99.016894 
1163.000000	99.020933 
1162.000000	99.030882 
1161.000000	99.043669 
1160.000000	99.054019 
1159.000000	99.058297 
1158.000000	99.056446 
1157.000000	99.049777 
1156.000000	99.038680 
1155.000000	99.023954 
1154.000000	99.008925 
1153.000000	98.997716 
1152.000000	98.990914 
1151.000000	98.984195 
1150.000000	98.972181 
1149.000000	98.953736 
1148.000000	98.933389 
1147.000000	98.917544 
1146.000000	98.908761 
1145.000000	98.903275 
1144.000000	98.894298 
1143.000000	98.878258 
1142.000000	98.857964 
1141.000000	98.839534 
1140.000000	98.826482 
1139.000000	98.817237 
1138.000000	98.807944 
1137.000000	98.796390 
1136.000000	98.782535 
1135.000000	98.766426 
1134.000000	98.747490 
1133.000000	98.725982 
1132.000000	98.703546 
1131.000000	98.681695 
1130.000000	98.661053 
1129.000000	98.642804 
1128.000000	98.628868 
1127.000000	98.618476 
1126.000000	98.606106 
1125.000000	98.586338 
1124.000000	98.560976 
1123.000000	98.538145 
1122.000000	98.522990 
1121.000000	98.511939 
1120.000000	98.498184 
1119.000000	98.480510 
1118.000000	98.463690 
1117.000000	98.451207 
1116.000000	98.440917 
1115.000000	98.428658 
1114.000000	98.413902 
1113.000000	98.400240 
1112.000000	98.390821 
1111.000000	98.384249 
1110.000000	98.375133 
1109.000000	98.358926 
1108.000000	98.336627 
1107.000000	98.314711 
1106.000000	98.299720 
1105.000000	98.292293 
1104.000000	98.286601 
1103.000000	98.275836 
1102.000000	98.258383 
1101.000000	98.238770 
1100.000000	98.222748 
1099.000000	98.212103 
1098.000000	98.204402 
1097.000000	98.196785 
1096.000000	98.188634 
1095.000000	98.180466 
1094.000000	98.172223 
1093.000000	98.163557 
1092.000000	98.154399 
1091.000000	98.144285 
1090.000000	98.132763 
1089.000000	98.121566 
1088.000000	98.114232 
1087.000000	98.111534 
1086.000000	98.109447 
1085.000000	98.104527 
1084.000000	98.099319 
1083.000000	98.098387 
1082.000000	98.100065 
1081.000000	98.096928 
1080.000000	98.084916 
1079.000000	98.067653 
1078.000000	98.050801 
1077.000000	98.036475 
1076.000000	98.024926 
1075.000000	98.016916 
1074.000000	98.010759 
1073.000000	98.000530 
1072.000000	97.981714 
1071.000000	97.957350 
1070.000000	97.935101 
1069.000000	97.918884 
1068.000000	97.905823 
1067.000000	97.890149 
1066.000000	97.867281 
1065.000000	97.835365 
1064.000000	97.796529 
1063.000000	97.757160 
1062.000000	97.724101 
1061.000000	97.699252 
1060.000000	97.678806 
1059.000000	97.657385 
1058.000000	97.631598 
1057.000000	97.600747 
1056.000000	97.566947 
1055.000000	97.534968 
1054.000000	97.509162 
1053.000000	97.488786 
1052.000000	97.467785 
1051.000000	97.440983 
1050.000000	97.409460 
1049.000000	97.377637 
1048.000000	97.346047 
1047.000000	97.310250 
1046.000000	97.267354 
1045.000000	97.220690 
1044.000000	97.176140 
1043.000000	97.135659 
1042.000000	97.097238 
1041.000000	97.060724 
1040.000000	97.029520 
1039.000000	97.004407 
1038.000000	96.979381 
1037.000000	96.947776 
1036.000000	96.910697 
1035.000000	96.875261 
1034.000000	96.845701 
1033.000000	96.820764 
1032.000000	96.799567 
1031.000000	96.784760 
1030.000000	96.778299 
1029.000000	96.777974 
1028.000000	96.779791 
1027.000000	96.780816 
1026.000000	96.778628 
1025.000000	96.771344 
1024.000000	96.759756 
1023.000000	96.746804 
1022.000000	96.733784 
1021.000000	96.720016 
1020.000000	96.707336 
1019.000000	96.700974 
1018.000000	96.703218 
1017.000000	96.709119 
1016.000000	96.711405 
1015.000000	96.707553 
1014.000000	96.699473 
1013.000000	96.688441 
1012.000000	96.673911 
1011.000000	96.656539 
1010.000000	96.639126 
1009.000000	96.624300 
1008.000000	96.613360 
1007.000000	96.607478 
1006.000000	96.607929 
1005.000000	96.614456 
1004.000000	96.624621 
1003.000000	96.635652 
1002.000000	96.646609 
1001.000000	96.658256 
1000.000000	96.670761 
999.000000	 96.682238 
998.000000	 96.690569 
997.000000	 96.696710 
996.000000	 96.704783 
995.000000	 96.717921 
994.000000	 96.734896 
993.000000	 96.751749 
992.000000	 96.765609 
991.000000	 96.775853 
990.000000	 96.783192 
989.000000	 96.789695 
988.000000	 96.798701 
987.000000	 96.812318 
986.000000	 96.829238 
985.000000	 96.846827 
984.000000	 96.864831 
983.000000	 96.885137 
982.000000	 96.908640 
981.000000	 96.934636 
980.000000	 96.962706 
979.000000	 96.992553 
978.000000	 97.022162 
977.000000	 97.049064 
976.000000	 97.074109 
975.000000	 97.101640 
974.000000	 97.134786 
973.000000	 97.171946 
972.000000	 97.208831 
971.000000	 97.242978 
970.000000	 97.275599 
969.000000	 97.309551 
968.000000	 97.345985 
967.000000	 97.383250 
966.000000	 97.419372 
965.000000	 97.454795 
964.000000	 97.490918 
963.000000	 97.526487 
962.000000	 97.558635 
961.000000	 97.588071 
960.000000	 97.619079 
959.000000	 97.652086 
958.000000	 97.680595 
957.000000	 97.699810 
956.000000	 97.714924 
955.000000	 97.735200 
954.000000	 97.761715 
953.000000	 97.787198 
952.000000	 97.807419 
951.000000	 97.825687 
950.000000	 97.844721 
949.000000	 97.861098 
948.000000	 97.871522 
947.000000	 97.879225 
946.000000	 97.889061 
945.000000	 97.899675 
944.000000	 97.905861 
943.000000	 97.906816 
942.000000	 97.906985 
941.000000	 97.909350 
940.000000	 97.912523 
939.000000	 97.914912 
938.000000	 97.917642 
937.000000	 97.922036 
936.000000	 97.927352 
935.000000	 97.932929 
934.000000	 97.940492 
933.000000	 97.952410 
932.000000	 97.968828 
931.000000	 97.987805 
930.000000	 98.007010 
929.000000	 98.023610 
928.000000	 98.033475 
927.000000	 98.033300 
926.000000	 98.024562 
925.000000	 98.013896 
924.000000	 98.008420 
923.000000	 98.011126 
922.000000	 98.020716 
921.000000	 98.033948 
920.000000	 98.046448 
919.000000	 98.052920 
918.000000	 98.050234 
917.000000	 98.041245 
916.000000	 98.033232 
915.000000	 98.031404 
914.000000	 98.035507 
913.000000	 98.043228 
912.000000	 98.054009 
911.000000	 98.067682 
910.000000	 98.082658 
909.000000	 98.098926 
908.000000	 98.120318 
907.000000	 98.148993 
906.000000	 98.178598 
905.000000	 98.198442 
904.000000	 98.206036 
903.000000	 98.212003 
902.000000	 98.230766 
901.000000	 98.268423 
900.000000	 98.320080 
899.000000	 98.374858 
898.000000	 98.420849 
897.000000	 98.448686 
896.000000	 98.455630 
895.000000	 98.448185 
894.000000	 98.439227 
893.000000	 98.440418 
892.000000	 98.455987 
891.000000	 98.482354 
890.000000	 98.512840 
889.000000	 98.543054 
888.000000	 98.572136 
887.000000	 98.599581 
886.000000	 98.623020 
885.000000	 98.640881 
884.000000	 98.655805 
883.000000	 98.672328 
882.000000	 98.690726 
881.000000	 98.705710 
880.000000	 98.712359 
879.000000	 98.711604 
878.000000	 98.709271 
877.000000	 98.711692 
876.000000	 98.722794 
875.000000	 98.742314 
874.000000	 98.764895 
873.000000	 98.783775 
872.000000	 98.797624 
871.000000	 98.811515 
870.000000	 98.829368 
869.000000	 98.848633 
868.000000	 98.865199 
867.000000	 98.879681 
866.000000	 98.894051 
865.000000	 98.905042 
864.000000	 98.908007 
863.000000	 98.907190 
862.000000	 98.914301 
861.000000	 98.933657 
860.000000	 98.954986 
859.000000	 98.965815 
858.000000	 98.966633 
857.000000	 98.968170 
856.000000	 98.976842 
855.000000	 98.989315 
854.000000	 98.999833 
853.000000	 99.006337 
852.000000	 99.009305 
851.000000	 99.010805 
850.000000	 99.015940 
849.000000	 99.029507 
848.000000	 99.049091 
847.000000	 99.066040 
846.000000	 99.075099 
845.000000	 99.078109 
844.000000	 99.076352 
843.000000	 99.066326 
842.000000	 99.048126 
841.000000	 99.031704 
840.000000	 99.026971 
839.000000	 99.030755 
838.000000	 99.031381 
837.000000	 99.024835 
836.000000	 99.017990 
835.000000	 99.015237 
834.000000	 99.010966 
833.000000	 98.999473 
832.000000	 98.984937 
831.000000	 98.974657 
830.000000	 98.966580 
829.000000	 98.951946 
828.000000	 98.930315 
827.000000	 98.914412 
826.000000	 98.916409 
825.000000	 98.933800 
824.000000	 98.953037 
823.000000	 98.964429 
822.000000	 98.969254 
821.000000	 98.973552 
820.000000	 98.979676 
819.000000	 98.985492 
818.000000	 98.989413 
817.000000	 98.993591 
816.000000	 99.001165 
815.000000	 99.010919 
814.000000	 99.016346 
813.000000	 99.011160 
812.000000	 98.994847 
811.000000	 98.971063 
810.000000	 98.940927 
809.000000	 98.900316 
808.000000	 98.845334 
807.000000	 98.779141 
806.000000	 98.711143 
805.000000	 98.649518 
804.000000	 98.596535 
803.000000	 98.550945 
802.000000	 98.511910 
801.000000	 98.479245 
800.000000	 98.452098 
799.000000	 98.430036 
798.000000	 98.414976 
797.000000	 98.409814 
796.000000	 98.414594 
795.000000	 98.425493 
794.000000	 98.438012 
793.000000	 98.449944 
792.000000	 98.461308 
791.000000	 98.473746 
790.000000	 98.490493 
789.000000	 98.513315 
788.000000	 98.536753 
787.000000	 98.548232 
786.000000	 98.538106 
785.000000	 98.508957 
784.000000	 98.472721 
783.000000	 98.440698 
782.000000	 98.418710 
781.000000	 98.407818 
780.000000	 98.403675 
779.000000	 98.397194 
778.000000	 98.383543 
777.000000	 98.371037 
776.000000	 98.373960 
775.000000	 98.394785 
774.000000	 98.420212 
773.000000	 98.437431 
772.000000	 98.447433 
771.000000	 98.458874 
770.000000	 98.476044 
769.000000	 98.497673 
768.000000	 98.520807 
767.000000	 98.539745 
766.000000	 98.547522 
765.000000	 98.546013 
764.000000	 98.548938 
763.000000	 98.565486 
762.000000	 98.584415 
761.000000	 98.584991 
760.000000	 98.563413 
759.000000	 98.538873 
758.000000	 98.531877 
757.000000	 98.544320 
756.000000	 98.562485 
755.000000	 98.571282 
754.000000	 98.562786 
753.000000	 98.539608 
752.000000	 98.516451 
751.000000	 98.513035 
750.000000	 98.536920 
749.000000	 98.573213 
748.000000	 98.596691 
747.000000	 98.596077 
746.000000	 98.584549 
745.000000	 98.585308 
744.000000	 98.608471 
743.000000	 98.643733 
742.000000	 98.674418 
741.000000	 98.694873 
740.000000	 98.711389 
739.000000	 98.729473 
738.000000	 98.746730 
737.000000	 98.758175 
736.000000	 98.761414 
735.000000	 98.754557 
734.000000	 98.737029 
733.000000	 98.717472 
732.000000	 98.713077 
731.000000	 98.732302 
730.000000	 98.762817 
729.000000	 98.785774 
728.000000	 98.797759 
727.000000	 98.808266 
726.000000	 98.819273 
725.000000	 98.820723 
724.000000	 98.807583 
723.000000	 98.789413 
722.000000	 98.778791 
721.000000	 98.779533 
720.000000	 98.790542 
719.000000	 98.812011 
718.000000	 98.841276 
717.000000	 98.869259 
716.000000	 98.887033 
715.000000	 98.891188 
714.000000	 98.879947 
713.000000	 98.852311 
712.000000	 98.817331 
711.000000	 98.796067 
710.000000	 98.803051 
709.000000	 98.828475 
708.000000	 98.847556 
707.000000	 98.845924 
706.000000	 98.828530 
705.000000	 98.805525 
704.000000	 98.780553 
703.000000	 98.756505 
702.000000	 98.741779 
701.000000	 98.741395 
700.000000	 98.745247 
699.000000	 98.733366 
698.000000	 98.696645 
697.000000	 98.648990 
696.000000	 98.615145 
695.000000	 98.607498 
694.000000	 98.616499 
693.000000	 98.623500 
692.000000	 98.619350 
691.000000	 98.609225 
690.000000	 98.606289 
689.000000	 98.624792 
688.000000	 98.672011 
687.000000	 98.737036 
686.000000	 98.790262 
685.000000	 98.805570 
684.000000	 98.784783 
683.000000	 98.753772 
682.000000	 98.735133 
681.000000	 98.730750 
680.000000	 98.728195 
679.000000	 98.714489 
678.000000	 98.684371 
677.000000	 98.648493 
676.000000	 98.633622 
675.000000	 98.658798 
674.000000	 98.709914 
673.000000	 98.748714 
672.000000	 98.750344 
671.000000	 98.722720 
670.000000	 98.689041 
669.000000	 98.668327 
668.000000	 98.671725 
667.000000	 98.694261 
666.000000	 98.718781 
665.000000	 98.737266 
664.000000	 98.758016 
663.000000	 98.795749 
662.000000	 98.848939 
661.000000	 98.891569 
660.000000	 98.901347 
659.000000	 98.885625 
658.000000	 98.864644 
657.000000	 98.837682 
656.000000	 98.787687 
655.000000	 98.721039 
654.000000	 98.680161 
653.000000	 98.699115 
652.000000	 98.761883 
651.000000	 98.819139 
650.000000	 98.835317 

