4000.000000	99.553916 
3999.000000	99.553059 
3998.000000	99.552025 
3997.000000	99.550802 
3996.000000	99.549531 
3995.000000	99.548420 
3994.000000	99.547672 
3993.000000	99.547389 
3992.000000	99.547442 
3991.000000	99.547450 
3990.000000	99.547066 
3989.000000	99.546358 
3988.000000	99.545837 
3987.000000	99.545988 
3986.000000	99.546772 
3985.000000	99.547577 
3984.000000	99.547669 
3983.000000	99.546685 
3982.000000	99.544781 
3981.000000	99.542527 
3980.000000	99.540536 
3979.000000	99.539092 
3978.000000	99.538186 
3977.000000	99.537823 
3976.000000	99.538165 
3975.000000	99.539321 
3974.000000	99.541067 
3973.000000	99.542752 
3972.000000	99.543599 
3971.000000	99.543254 
3970.000000	99.542015 
3969.000000	99.540568 
3968.000000	99.539433 
3967.000000	99.538652 
3966.000000	99.538007 
3965.000000	99.537464 
3964.000000	99.537186 
3963.000000	99.537126 
3962.000000	99.536828 
3961.000000	99.535820 
3960.000000	99.534114 
3959.000000	99.532291 
3958.000000	99.531018 
3957.000000	99.530473 
3956.000000	99.530335 
3955.000000	99.530187 
3954.000000	99.529842 
3953.000000	99.529326 
3952.000000	99.528728 
3951.000000	99.528287 
3950.000000	99.528361 
3949.000000	99.529159 
3948.000000	99.530483 
3947.000000	99.531783 
3946.000000	99.532629 
3945.000000	99.533013 
3944.000000	99.533169 
3943.000000	99.533076 
3942.000000	99.532484 
3941.000000	99.531414 
3940.000000	99.530198 
3939.000000	99.528959 
3938.000000	99.527417 
3937.000000	99.525307 
3936.000000	99.522981 
3935.000000	99.521401 
3934.000000	99.521462 
3933.000000	99.523277 
3932.000000	99.525952 
3931.000000	99.528085 
3930.000000	99.528798 
3929.000000	99.528284 
3928.000000	99.527484 
3927.000000	99.527252 
3926.000000	99.527815 
3925.000000	99.528738 
3924.000000	99.529279 
3923.000000	99.529118 
3922.000000	99.528604 
3921.000000	99.528349 
3920.000000	99.528657 
3919.000000	99.529367 
3918.000000	99.530199 
3917.000000	99.530962 
3916.000000	99.531459 
3915.000000	99.531511 
3914.000000	99.531228 
3913.000000	99.530962 
3912.000000	99.530831 
3911.000000	99.530614 
3910.000000	99.530155 
3909.000000	99.529673 
3908.000000	99.529515 
3907.000000	99.529599 
3906.000000	99.529247 
3905.000000	99.527739 
3904.000000	99.524978 
3903.000000	99.521921 
3902.000000	99.520102 
3901.000000	99.520379 
3900.000000	99.522451 
3899.000000	99.525051 
3898.000000	99.526874 
3897.000000	99.527555 
3896.000000	99.527503 
3895.000000	99.527235 
3894.000000	99.526926 
3893.000000	99.526310 
3892.000000	99.524981 
3891.000000	99.522920 
3890.000000	99.520651 
3889.000000	99.518724 
3888.000000	99.517376 
3887.000000	99.516785 
3886.000000	99.516918 
3885.000000	99.517307 
3884.000000	99.517537 
3883.000000	99.517832 
3882.000000	99.518672 
3881.000000	99.519907 
3880.000000	99.520737 
3879.000000	99.520754 
3878.000000	99.520489 
3877.000000	99.520744 
3876.000000	99.521901 
3875.000000	99.523571 
3874.000000	99.524718 
3873.000000	99.524518 
3872.000000	99.523127 
3871.000000	99.521531 
3870.000000	99.520581 
3869.000000	99.520373 
3868.000000	99.520609 
3867.000000	99.521140 
3866.000000	99.522073 
3865.000000	99.523228 
3864.000000	99.523716 
3863.000000	99.522992 
3862.000000	99.521715 
3861.000000	99.521032 
3860.000000	99.521454 
3859.000000	99.522774 
3858.000000	99.524315 
3857.000000	99.525396 
3856.000000	99.525716 
3855.000000	99.525959 
3854.000000	99.527109 
3853.000000	99.528936 
3852.000000	99.530752 
3851.000000	99.532292 
3850.000000	99.533173 
3849.000000	99.533206 
3848.000000	99.532476 
3847.000000	99.531264 
3846.000000	99.529965 
3845.000000	99.528824 
3844.000000	99.527884 
3843.000000	99.527380 
3842.000000	99.527567 
3841.000000	99.528332 
3840.000000	99.529290 
3839.000000	99.529994 
3838.000000	99.530039 
3837.000000	99.529395 
3836.000000	99.528424 
3835.000000	99.527778 
3834.000000	99.528128 
3833.000000	99.529879 
3832.000000	99.532869 
3831.000000	99.536196 
3830.000000	99.538741 
3829.000000	99.539898 
3828.000000	99.539679 
3827.000000	99.538603 
3826.000000	99.537420 
3825.000000	99.536520 
3824.000000	99.535830 
3823.000000	99.535575 
3822.000000	99.536018 
3821.000000	99.536522 
3820.000000	99.536396 
3819.000000	99.536049 
3818.000000	99.535834 
3817.000000	99.535542 
3816.000000	99.534718 
3815.000000	99.532949 
3814.000000	99.530407 
3813.000000	99.528068 
3812.000000	99.527249 
3811.000000	99.528472 
3810.000000	99.530983 
3809.000000	99.533575 
3808.000000	99.535675 
3807.000000	99.537335 
3806.000000	99.538582 
3805.000000	99.539253 
3804.000000	99.539490 
3803.000000	99.540053 
3802.000000	99.541160 
3801.000000	99.541628 
3800.000000	99.540497 
3799.000000	99.538168 
3798.000000	99.535551 
3797.000000	99.533238 
3796.000000	99.531131 
3795.000000	99.528820 
3794.000000	99.526301 
3793.000000	99.524032 
3792.000000	99.522482 
3791.000000	99.521644 
3790.000000	99.521258 
3789.000000	99.521337 
3788.000000	99.522152 
3787.000000	99.523638 
3786.000000	99.525310 
3785.000000	99.526699 
3784.000000	99.527743 
3783.000000	99.528600 
3782.000000	99.529439 
3781.000000	99.530385 
3780.000000	99.531147 
3779.000000	99.531019 
3778.000000	99.529727 
3777.000000	99.527601 
3776.000000	99.525051 
3775.000000	99.522517 
3774.000000	99.520311 
3773.000000	99.518513 
3772.000000	99.517181 
3771.000000	99.516501 
3770.000000	99.516361 
3769.000000	99.516401 
3768.000000	99.516722 
3767.000000	99.517644 
3766.000000	99.518991 
3765.000000	99.520064 
3764.000000	99.520134 
3763.000000	99.519016 
3762.000000	99.517349 
3761.000000	99.516206 
3760.000000	99.516139 
3759.000000	99.516862 
3758.000000	99.518011 
3757.000000	99.519541 
3756.000000	99.521100 
3755.000000	99.522023 
3754.000000	99.522021 
3753.000000	99.521473 
3752.000000	99.520637 
3751.000000	99.518907 
3750.000000	99.516265 
3749.000000	99.514150 
3748.000000	99.513361 
3747.000000	99.513132 
3746.000000	99.512530 
3745.000000	99.511509 
3744.000000	99.510492 
3743.000000	99.509657 
3742.000000	99.508741 
3741.000000	99.507408 
3740.000000	99.505503 
3739.000000	99.503006 
3738.000000	99.500675 
3737.000000	99.500215 
3736.000000	99.502373 
3735.000000	99.505242 
3734.000000	99.505919 
3733.000000	99.503878 
3732.000000	99.500959 
3731.000000	99.498883 
3730.000000	99.497715 
3729.000000	99.496519 
3728.000000	99.494804 
3727.000000	99.492872 
3726.000000	99.491087 
3725.000000	99.489562 
3724.000000	99.488560 
3723.000000	99.488504 
3722.000000	99.489318 
3721.000000	99.490529 
3720.000000	99.491537 
3719.000000	99.491586 
3718.000000	99.490406 
3717.000000	99.488564 
3716.000000	99.486498 
3715.000000	99.484043 
3714.000000	99.481146 
3713.000000	99.478717 
3712.000000	99.477637 
3711.000000	99.477479 
3710.000000	99.477059 
3709.000000	99.475217 
3708.000000	99.471412 
3707.000000	99.466022 
3706.000000	99.460113 
3705.000000	99.455007 
3704.000000	99.451642 
3703.000000	99.449831 
3702.000000	99.447874 
3701.000000	99.443999 
3700.000000	99.438146 
3699.000000	99.431629 
3698.000000	99.425861 
3697.000000	99.421849 
3696.000000	99.419629 
3695.000000	99.418357 
3694.000000	99.417425 
3693.000000	99.417026 
3692.000000	99.417228 
3691.000000	99.416997 
3690.000000	99.414642 
3689.000000	99.409710 
3688.000000	99.404135 
3687.000000	99.399806 
3686.000000	99.396385 
3685.000000	99.393262 
3684.000000	99.391009 
3683.000000	99.390326 
3682.000000	99.390594 
3681.000000	99.390057 
3680.000000	99.387168 
3679.000000	99.381290 
3678.000000	99.373311 
3677.000000	99.366795 
3676.000000	99.365610 
3675.000000	99.368564 
3674.000000	99.371185 
3673.000000	99.370965 
3672.000000	99.368415 
3671.000000	99.366839 
3670.000000	99.368670 
3669.000000	99.372619 
3668.000000	99.376488 
3667.000000	99.379529 
3666.000000	99.381589 
3665.000000	99.382557 
3664.000000	99.382404 
3663.000000	99.381396 
3662.000000	99.380213 
3661.000000	99.379359 
3660.000000	99.378563 
3659.000000	99.377244 
3658.000000	99.375697 
3657.000000	99.375212 
3656.000000	99.376659 
3655.000000	99.379457 
3654.000000	99.382217 
3653.000000	99.383821 
3652.000000	99.383862 
3651.000000	99.382612 
3650.000000	99.380846 
3649.000000	99.380382 
3648.000000	99.383252 
3647.000000	99.389040 
3646.000000	99.395262 
3645.000000	99.400430 
3644.000000	99.405001 
3643.000000	99.409866 
3642.000000	99.415319 
3641.000000	99.420771 
3640.000000	99.425378 
3639.000000	99.428611 
3638.000000	99.430256 
3637.000000	99.430478 
3636.000000	99.429816 
3635.000000	99.428936 
3634.000000	99.428020 
3633.000000	99.426729 
3632.000000	99.425194 
3631.000000	99.424719 
3630.000000	99.426926 
3629.000000	99.430690 
3628.000000	99.432786 
3627.000000	99.433139 
3626.000000	99.434067 
3625.000000	99.436539 
3624.000000	99.439641 
3623.000000	99.441854 
3622.000000	99.442535 
3621.000000	99.442847 
3620.000000	99.444252 
3619.000000	99.446208 
3618.000000	99.447055 
3617.000000	99.446637 
3616.000000	99.446124 
3615.000000	99.446602 
3614.000000	99.447827 
3613.000000	99.448393 
3612.000000	99.447609 
3611.000000	99.446607 
3610.000000	99.446983 
3609.000000	99.448894 
3608.000000	99.450938 
3607.000000	99.452189 
3606.000000	99.453651 
3605.000000	99.456662 
3604.000000	99.461026 
3603.000000	99.465234 
3602.000000	99.467930 
3601.000000	99.469155 
3600.000000	99.469669 
3599.000000	99.469695 
3598.000000	99.468945 
3597.000000	99.467365 
3596.000000	99.465419 
3595.000000	99.464054 
3594.000000	99.463827 
3593.000000	99.464328 
3592.000000	99.464636 
3591.000000	99.464027 
3590.000000	99.462897 
3589.000000	99.462740 
3588.000000	99.464578 
3587.000000	99.467239 
3586.000000	99.469007 
3585.000000	99.469998 
3584.000000	99.471575 
3583.000000	99.474316 
3582.000000	99.477444 
3581.000000	99.479695 
3580.000000	99.480418 
3579.000000	99.479801 
3578.000000	99.478265 
3577.000000	99.476303 
3576.000000	99.474700 
3575.000000	99.474393 
3574.000000	99.475661 
3573.000000	99.477463 
3572.000000	99.478235 
3571.000000	99.477152 
3570.000000	99.474459 
3569.000000	99.471250 
3568.000000	99.468960 
3567.000000	99.468232 
3566.000000	99.468716 
3565.000000	99.470156 
3564.000000	99.472810 
3563.000000	99.476985 
3562.000000	99.482473 
3561.000000	99.488155 
3560.000000	99.492551 
3559.000000	99.494798 
3558.000000	99.495195 
3557.000000	99.494748 
3556.000000	99.494372 
3555.000000	99.494313 
3554.000000	99.494227 
3553.000000	99.493382 
3552.000000	99.491169 
3551.000000	99.487731 
3550.000000	99.483896 
3549.000000	99.480571 
3548.000000	99.478586 
3547.000000	99.478468 
3546.000000	99.480001 
3545.000000	99.481831 
3544.000000	99.482465 
3543.000000	99.481912 
3542.000000	99.481904 
3541.000000	99.484091 
3540.000000	99.488507 
3539.000000	99.493616 
3538.000000	99.497753 
3537.000000	99.500214 
3536.000000	99.501132 
3535.000000	99.500977 
3534.000000	99.500181 
3533.000000	99.499227 
3532.000000	99.498646 
3531.000000	99.498846 
3530.000000	99.499657 
3529.000000	99.500135 
3528.000000	99.499297 
3527.000000	99.497234 
3526.000000	99.495228 
3525.000000	99.494527 
3524.000000	99.495148 
3523.000000	99.496028 
3522.000000	99.496334 
3521.000000	99.496219 
3520.000000	99.496399 
3519.000000	99.497331 
3518.000000	99.498949 
3517.000000	99.500869 
3516.000000	99.502590 
3515.000000	99.503687 
3514.000000	99.503891 
3513.000000	99.503199 
3512.000000	99.501937 
3511.000000	99.500651 
3510.000000	99.499757 
3509.000000	99.499311 
3508.000000	99.499169 
3507.000000	99.499343 
3506.000000	99.500081 
3505.000000	99.501452 
3504.000000	99.503017 
3503.000000	99.504159 
3502.000000	99.504799 
3501.000000	99.505471 
3500.000000	99.506597 
3499.000000	99.507920 
3498.000000	99.508753 
3497.000000	99.508760 
3496.000000	99.508293 
3495.000000	99.508005 
3494.000000	99.508216 
3493.000000	99.508751 
3492.000000	99.509313 
3491.000000	99.509817 
3490.000000	99.510386 
3489.000000	99.511126 
3488.000000	99.511949 
3487.000000	99.512625 
3486.000000	99.512965 
3485.000000	99.512994 
3484.000000	99.512951 
3483.000000	99.513122 
3482.000000	99.513601 
3481.000000	99.514229 
3480.000000	99.514765 
3479.000000	99.515090 
3478.000000	99.515246 
3477.000000	99.515334 
3476.000000	99.515498 
3475.000000	99.515921 
3474.000000	99.516732 
3473.000000	99.517844 
3472.000000	99.518920 
3471.000000	99.519651 
3470.000000	99.520036 
3469.000000	99.520336 
3468.000000	99.520771 
3467.000000	99.521265 
3466.000000	99.521602 
3465.000000	99.521721 
3464.000000	99.521765 
3463.000000	99.521913 
3462.000000	99.522207 
3461.000000	99.522583 
3460.000000	99.522979 
3459.000000	99.523385 
3458.000000	99.523781 
3457.000000	99.524083 
3456.000000	99.524207 
3455.000000	99.524189 
3454.000000	99.524196 
3453.000000	99.524398 
3452.000000	99.524812 
3451.000000	99.525319 
3450.000000	99.525803 
3449.000000	99.526241 
3448.000000	99.526624 
3447.000000	99.526859 
3446.000000	99.526850 
3445.000000	99.526680 
3444.000000	99.526613 
3443.000000	99.526855 
3442.000000	99.527313 
3441.000000	99.527654 
3440.000000	99.527624 
3439.000000	99.527274 
3438.000000	99.526822 
3437.000000	99.526359 
3436.000000	99.525830 
3435.000000	99.525291 
3434.000000	99.524999 
3433.000000	99.525212 
3432.000000	99.525894 
3431.000000	99.526682 
3430.000000	99.527228 
3429.000000	99.527533 
3428.000000	99.527876 
3427.000000	99.528433 
3426.000000	99.528976 
3425.000000	99.529056 
3424.000000	99.528480 
3423.000000	99.527514 
3422.000000	99.526649 
3421.000000	99.526128 
3420.000000	99.525904 
3419.000000	99.525915 
3418.000000	99.526199 
3417.000000	99.526708 
3416.000000	99.527195 
3415.000000	99.527402 
3414.000000	99.527277 
3413.000000	99.526957 
3412.000000	99.526630 
3411.000000	99.526461 
3410.000000	99.526524 
3409.000000	99.526706 
3408.000000	99.526733 
3407.000000	99.526394 
3406.000000	99.525779 
3405.000000	99.525228 
3404.000000	99.525055 
3403.000000	99.525333 
3402.000000	99.525878 
3401.000000	99.526403 
3400.000000	99.526737 
3399.000000	99.526958 
3398.000000	99.527308 
3397.000000	99.527943 
3396.000000	99.528750 
3395.000000	99.529397 
3394.000000	99.529548 
3393.000000	99.529053 
3392.000000	99.528041 
3391.000000	99.526959 
3390.000000	99.526358 
3389.000000	99.526527 
3388.000000	99.527326 
3387.000000	99.528307 
3386.000000	99.529098 
3385.000000	99.529673 
3384.000000	99.530225 
3383.000000	99.530845 
3382.000000	99.531305 
3381.000000	99.531238 
3380.000000	99.530522 
3379.000000	99.529481 
3378.000000	99.528674 
3377.000000	99.528400 
3376.000000	99.528502 
3375.000000	99.528617 
3374.000000	99.528580 
3373.000000	99.528527 
3372.000000	99.528658 
3371.000000	99.529015 
3370.000000	99.529475 
3369.000000	99.529858 
3368.000000	99.530015 
3367.000000	99.529912 
3366.000000	99.529658 
3365.000000	99.529404 
3364.000000	99.529173 
3363.000000	99.528871 
3362.000000	99.528460 
3361.000000	99.528035 
3360.000000	99.527672 
3359.000000	99.527284 
3358.000000	99.526752 
3357.000000	99.526195 
3356.000000	99.525949 
3355.000000	99.526192 
3354.000000	99.526656 
3353.000000	99.526839 
3352.000000	99.526502 
3351.000000	99.525898 
3350.000000	99.525534 
3349.000000	99.525716 
3348.000000	99.526348 
3347.000000	99.527033 
3346.000000	99.527364 
3345.000000	99.527193 
3344.000000	99.526672 
3343.000000	99.526121 
3342.000000	99.525760 
3341.000000	99.525496 
3340.000000	99.525012 
3339.000000	99.524117 
3338.000000	99.523037 
3337.000000	99.522309 
3336.000000	99.522296 
3335.000000	99.522837 
3334.000000	99.523412 
3333.000000	99.523734 
3332.000000	99.524037 
3331.000000	99.524640 
3330.000000	99.525356 
3329.000000	99.525576 
3328.000000	99.524998 
3327.000000	99.524008 
3326.000000	99.523157 
3325.000000	99.522455 
3324.000000	99.521435 
3323.000000	99.519918 
3322.000000	99.518412 
3321.000000	99.517650 
3320.000000	99.517915 
3319.000000	99.518906 
3318.000000	99.520066 
3317.000000	99.520985 
3316.000000	99.521552 
3315.000000	99.521869 
3314.000000	99.522131 
3313.000000	99.522575 
3312.000000	99.523424 
3311.000000	99.524695 
3310.000000	99.525973 
3309.000000	99.526600 
3308.000000	99.526274 
3307.000000	99.525340 
3306.000000	99.524414 
3305.000000	99.523774 
3304.000000	99.523320 
3303.000000	99.522979 
3302.000000	99.522789 
3301.000000	99.522583 
3300.000000	99.521949 
3299.000000	99.520727 
3298.000000	99.519367 
3297.000000	99.518608 
3296.000000	99.518781 
3295.000000	99.519546 
3294.000000	99.520234 
3293.000000	99.520407 
3292.000000	99.520101 
3291.000000	99.519579 
3290.000000	99.518980 
3289.000000	99.518283 
3288.000000	99.517507 
3287.000000	99.516815 
3286.000000	99.516350 
3285.000000	99.516045 
3284.000000	99.515703 
3283.000000	99.515231 
3282.000000	99.514731 
3281.000000	99.514376 
3280.000000	99.514255 
3279.000000	99.514317 
3278.000000	99.514409 
3277.000000	99.514343 
3276.000000	99.513983 
3275.000000	99.513309 
3274.000000	99.512449 
3273.000000	99.511657 
3272.000000	99.511166 
3271.000000	99.511038 
3270.000000	99.511119 
3269.000000	99.511169 
3268.000000	99.511058 
3267.000000	99.510801 
3266.000000	99.510429 
3265.000000	99.509937 
3264.000000	99.509415 
3263.000000	99.509133 
3262.000000	99.509339 
3261.000000	99.509986 
3260.000000	99.510713 
3259.000000	99.511132 
3258.000000	99.511048 
3257.000000	99.510444 
3256.000000	99.509414 
3255.000000	99.508158 
3254.000000	99.506971 
3253.000000	99.506161 
3252.000000	99.505969 
3251.000000	99.506502 
3250.000000	99.507577 
3249.000000	99.508692 
3248.000000	99.509362 
3247.000000	99.509470 
3246.000000	99.509197 
3245.000000	99.508673 
3244.000000	99.507877 
3243.000000	99.506894 
3242.000000	99.506016 
3241.000000	99.505471 
3240.000000	99.505265 
3239.000000	99.505407 
3238.000000	99.506089 
3237.000000	99.507437 
3236.000000	99.509156 
3235.000000	99.510578 
3234.000000	99.511123 
3233.000000	99.510651 
3232.000000	99.509472 
3231.000000	99.508153 
3230.000000	99.507186 
3229.000000	99.506720 
3228.000000	99.506561 
3227.000000	99.506406 
3226.000000	99.506064 
3225.000000	99.505511 
3224.000000	99.504843 
3223.000000	99.504240 
3222.000000	99.503861 
3221.000000	99.503693 
3220.000000	99.503537 
3219.000000	99.503205 
3218.000000	99.502722 
3217.000000	99.502317 
3216.000000	99.502238 
3215.000000	99.502558 
3214.000000	99.503069 
3213.000000	99.503367 
3212.000000	99.503144 
3211.000000	99.502408 
3210.000000	99.501444 
3209.000000	99.500588 
3208.000000	99.500040 
3207.000000	99.499851 
3206.000000	99.499938 
3205.000000	99.500066 
3204.000000	99.499972 
3203.000000	99.499596 
3202.000000	99.499117 
3201.000000	99.498770 
3200.000000	99.498636 
3199.000000	99.498646 
3198.000000	99.498690 
3197.000000	99.498675 
3196.000000	99.498566 
3195.000000	99.498426 
3194.000000	99.498364 
3193.000000	99.498379 
3192.000000	99.498326 
3191.000000	99.498067 
3190.000000	99.497601 
3189.000000	99.497057 
3188.000000	99.496587 
3187.000000	99.496273 
3186.000000	99.496157 
3185.000000	99.496261 
3184.000000	99.496511 
3183.000000	99.496711 
3182.000000	99.496703 
3181.000000	99.496530 
3180.000000	99.496410 
3179.000000	99.496554 
3178.000000	99.497002 
3177.000000	99.497537 
3176.000000	99.497830 
3175.000000	99.497774 
3174.000000	99.497600 
3173.000000	99.497477 
3172.000000	99.497115 
3171.000000	99.496127 
3170.000000	99.494760 
3169.000000	99.493894 
3168.000000	99.494050 
3167.000000	99.494748 
3166.000000	99.495061 
3165.000000	99.494631 
3164.000000	99.493880 
3163.000000	99.493372 
3162.000000	99.493254 
3161.000000	99.493342 
3160.000000	99.493463 
3159.000000	99.493593 
3158.000000	99.493766 
3157.000000	99.493937 
3156.000000	99.493944 
3155.000000	99.493580 
3154.000000	99.492648 
3153.000000	99.490981 
3152.000000	99.488575 
3151.000000	99.485891 
3150.000000	99.483856 
3149.000000	99.483216 
3148.000000	99.483903 
3147.000000	99.485161 
3146.000000	99.486375 
3145.000000	99.487516 
3144.000000	99.488685 
3143.000000	99.489663 
3142.000000	99.490173 
3141.000000	99.490319 
3140.000000	99.490459 
3139.000000	99.490699 
3138.000000	99.490776 
3137.000000	99.490453 
3136.000000	99.489847 
3135.000000	99.489328 
3134.000000	99.489164 
3133.000000	99.489295 
3132.000000	99.489377 
3131.000000	99.489075 
3130.000000	99.488352 
3129.000000	99.487537 
3128.000000	99.487120 
3127.000000	99.487451 
3126.000000	99.488544 
3125.000000	99.489994 
3124.000000	99.491156 
3123.000000	99.491583 
3122.000000	99.491344 
3121.000000	99.490885 
3120.000000	99.490539 
3119.000000	99.490331 
3118.000000	99.490203 
3117.000000	99.490221 
3116.000000	99.490427 
3115.000000	99.490703 
3114.000000	99.490921 
3113.000000	99.491115 
3112.000000	99.491364 
3111.000000	99.491595 
3110.000000	99.491640 
3109.000000	99.491436 
3108.000000	99.491038 
3107.000000	99.490487 
3106.000000	99.489798 
3105.000000	99.489072 
3104.000000	99.488569 
3103.000000	99.488559 
3102.000000	99.489118 
3101.000000	99.490058 
3100.000000	99.490999 
3099.000000	99.491631 
3098.000000	99.491976 
3097.000000	99.492304 
3096.000000	99.492769 
3095.000000	99.493188 
3094.000000	99.493275 
3093.000000	99.493016 
3092.000000	99.492684 
3091.000000	99.492494 
3090.000000	99.492423 
3089.000000	99.492450 
3088.000000	99.492759 
3087.000000	99.493473 
3086.000000	99.494291 
3085.000000	99.494664 
3084.000000	99.494353 
3083.000000	99.493558 
3082.000000	99.492517 
3081.000000	99.491341 
3080.000000	99.490317 
3079.000000	99.490020 
3078.000000	99.490928 
3077.000000	99.493046 
3076.000000	99.495848 
3075.000000	99.498323 
3074.000000	99.499180 
3073.000000	99.497662 
3072.000000	99.494477 
3071.000000	99.491389 
3070.000000	99.489417 
3069.000000	99.487848 
3068.000000	99.485528 
3067.000000	99.482744 
3066.000000	99.481210 
3065.000000	99.482373 
3064.000000	99.486154 
3063.000000	99.491014 
3062.000000	99.494716 
3061.000000	99.495368 
3060.000000	99.492627 
3059.000000	99.488067 
3058.000000	99.483973 
3057.000000	99.481708 
3056.000000	99.481477 
3055.000000	99.483054 
3054.000000	99.485722 
3053.000000	99.487723 
3052.000000	99.487086 
3051.000000	99.483549 
3050.000000	99.479128 
3049.000000	99.476313 
3048.000000	99.475935 
3047.000000	99.476787 
3046.000000	99.476689 
3045.000000	99.473845 
3044.000000	99.468165 
3043.000000	99.461908 
3042.000000	99.458406 
3041.000000	99.459225 
3040.000000	99.462577 
3039.000000	99.464841 
3038.000000	99.463454 
3037.000000	99.458181 
3036.000000	99.450261 
3035.000000	99.441121 
3034.000000	99.431801 
3033.000000	99.422895 
3032.000000	99.414676 
3031.000000	99.407238 
3030.000000	99.400413 
3029.000000	99.393726 
3028.000000	99.386912 
3027.000000	99.380619 
3026.000000	99.376000 
3025.000000	99.372995 
3024.000000	99.369411 
3023.000000	99.362571 
3022.000000	99.351889 
3021.000000	99.339134 
3020.000000	99.326133 
3019.000000	99.313066 
3018.000000	99.299609 
3017.000000	99.286749 
3016.000000	99.276058 
3015.000000	99.267229 
3014.000000	99.257828 
3013.000000	99.246215 
3012.000000	99.233745 
3011.000000	99.222986 
3010.000000	99.214281 
3009.000000	99.205339 
3008.000000	99.194041 
3007.000000	99.180381 
3006.000000	99.165527 
3005.000000	99.150268 
3004.000000	99.135109 
3003.000000	99.120859 
3002.000000	99.108178 
3001.000000	99.096974 
3000.000000	99.086933 
2999.000000	99.078198 
2998.000000	99.071028 
2997.000000	99.065294 
2996.000000	99.060681 
2995.000000	99.056365 
2994.000000	99.049772 
2993.000000	99.036961 
2992.000000	99.016131 
2991.000000	98.990723 
2990.000000	98.967771 
2989.000000	98.952919 
2988.000000	98.947658 
2987.000000	98.950387 
2986.000000	98.958216 
2985.000000	98.967741 
2984.000000	98.975865 
2983.000000	98.981079 
2982.000000	98.983534 
2981.000000	98.983876 
2980.000000	98.982891 
2979.000000	98.982192 
2978.000000	98.983599 
2977.000000	98.986975 
2976.000000	98.989707 
2975.000000	98.989317 
2974.000000	98.986162 
2973.000000	98.983026 
2972.000000	98.982790 
2971.000000	98.986950 
2970.000000	98.995410 
2969.000000	99.006592 
2968.000000	99.018220 
2967.000000	99.028969 
2966.000000	99.039289 
2965.000000	99.050105 
2964.000000	99.061114 
2963.000000	99.070932 
2962.000000	99.078519 
2961.000000	99.083792 
2960.000000	99.087234 
2959.000000	99.089765 
2958.000000	99.092825 
2957.000000	99.097617 
2956.000000	99.103976 
2955.000000	99.110562 
2954.000000	99.116506 
2953.000000	99.122498 
2952.000000	99.129965 
2951.000000	99.139312 
2950.000000	99.149207 
2949.000000	99.157598 
2948.000000	99.163278 
2947.000000	99.166516 
2946.000000	99.168588 
2945.000000	99.171051 
2944.000000	99.175118 
2943.000000	99.180944 
2942.000000	99.187109 
2941.000000	99.191398 
2940.000000	99.192820 
2939.000000	99.192864 
2938.000000	99.194295 
2937.000000	99.198849 
2936.000000	99.206444 
2935.000000	99.215990 
2934.000000	99.225911 
2933.000000	99.234074 
2932.000000	99.238570 
2931.000000	99.239146 
2930.000000	99.237440 
2929.000000	99.235661 
2928.000000	99.235184 
2927.000000	99.235916 
2926.000000	99.236140 
2925.000000	99.233364 
2924.000000	99.226589 
2923.000000	99.217874 
2922.000000	99.210554 
2921.000000	99.205666 
2920.000000	99.201293 
2919.000000	99.195497 
2918.000000	99.188502 
2917.000000	99.181507 
2916.000000	99.174761 
2915.000000	99.167636 
2914.000000	99.159720 
2913.000000	99.151052 
2912.000000	99.142173 
2911.000000	99.134562 
2910.000000	99.130062 
2909.000000	99.128982 
2908.000000	99.129309 
2907.000000	99.128617 
2906.000000	99.125915 
2905.000000	99.121005 
2904.000000	99.113230 
2903.000000	99.102684 
2902.000000	99.092335 
2901.000000	99.087561 
2900.000000	99.091610 
2899.000000	99.103102 
2898.000000	99.116682 
2897.000000	99.126565 
2896.000000	99.130249 
2895.000000	99.129717 
2894.000000	99.129224 
2893.000000	99.131348 
2892.000000	99.135220 
2891.000000	99.138539 
2890.000000	99.140513 
2889.000000	99.141999 
2888.000000	99.143566 
2887.000000	99.144950 
2886.000000	99.146406 
2885.000000	99.149168 
2884.000000	99.154058 
2883.000000	99.160568 
2882.000000	99.167813 
2881.000000	99.175646 
2880.000000	99.184301 
2879.000000	99.193552 
2878.000000	99.202868 
2877.000000	99.212074 
2876.000000	99.221277 
2875.000000	99.230305 
2874.000000	99.238631 
2873.000000	99.245805 
2872.000000	99.251653 
2871.000000	99.256205 
2870.000000	99.259805 
2869.000000	99.263402 
2868.000000	99.268432 
2867.000000	99.276017 
2866.000000	99.286056 
2865.000000	99.297179 
2864.000000	99.307888 
2863.000000	99.317876 
2862.000000	99.327990 
2861.000000	99.338812 
2860.000000	99.349709 
2859.000000	99.359628 
2858.000000	99.368387 
2857.000000	99.376549 
2856.000000	99.384130 
2855.000000	99.390041 
2854.000000	99.393186 
2853.000000	99.393917 
2852.000000	99.394113 
2851.000000	99.395830 
2850.000000	99.399849 
2849.000000	99.405200 
2848.000000	99.409991 
2847.000000	99.412874 
2846.000000	99.413848 
2845.000000	99.413782 
2844.000000	99.413431 
2843.000000	99.413127 
2842.000000	99.413279 
2841.000000	99.414720 
2840.000000	99.418309 
2839.000000	99.424167 
2838.000000	99.431291 
2837.000000	99.437946 
2836.000000	99.442632 
2835.000000	99.444966 
2834.000000	99.445729 
2833.000000	99.446053 
2832.000000	99.446538 
2831.000000	99.447029 
2830.000000	99.446918 
2829.000000	99.445606 
2828.000000	99.443107 
2827.000000	99.440503 
2826.000000	99.439475 
2825.000000	99.440797 
2824.000000	99.443378 
2823.000000	99.445275 
2822.000000	99.445744 
2821.000000	99.445923 
2820.000000	99.447359 
2819.000000	99.450355 
2818.000000	99.453993 
2817.000000	99.457381 
2816.000000	99.460353 
2815.000000	99.463018 
2814.000000	99.465156 
2813.000000	99.466343 
2812.000000	99.466541 
2811.000000	99.466369 
2810.000000	99.466722 
2809.000000	99.468052 
2808.000000	99.469896 
2807.000000	99.471080 
2806.000000	99.470561 
2805.000000	99.468246 
2804.000000	99.465154 
2803.000000	99.462744 
2802.000000	99.461949 
2801.000000	99.462760 
2800.000000	99.464505 
2799.000000	99.466381 
2798.000000	99.467844 
2797.000000	99.468703 
2796.000000	99.469019 
2795.000000	99.469018 
2794.000000	99.469128 
2793.000000	99.469967 
2792.000000	99.471946 
2791.000000	99.474672 
2790.000000	99.476961 
2789.000000	99.477897 
2788.000000	99.477851 
2787.000000	99.478040 
2786.000000	99.478930 
2785.000000	99.479534 
2784.000000	99.478641 
2783.000000	99.476297 
2782.000000	99.473722 
2781.000000	99.472003 
2780.000000	99.471369 
2779.000000	99.471548 
2778.000000	99.472181 
2777.000000	99.472882 
2776.000000	99.473445 
2775.000000	99.474181 
2774.000000	99.475669 
2773.000000	99.478066 
2772.000000	99.480994 
2771.000000	99.484085 
2770.000000	99.487166 
2769.000000	99.489810 
2768.000000	99.491311 
2767.000000	99.491477 
2766.000000	99.491070 
2765.000000	99.490967 
2764.000000	99.491018 
2763.000000	99.490182 
2762.000000	99.487738 
2761.000000	99.484057 
2760.000000	99.480319 
2759.000000	99.477681 
2758.000000	99.476679 
2757.000000	99.477220 
2756.000000	99.478872 
2755.000000	99.481062 
2754.000000	99.483043 
2753.000000	99.484034 
2752.000000	99.483860 
2751.000000	99.483448 
2750.000000	99.484211 
2749.000000	99.486643 
2748.000000	99.489756 
2747.000000	99.492123 
2746.000000	99.493289 
2745.000000	99.493833 
2744.000000	99.494303 
2743.000000	99.494550 
2742.000000	99.494155 
2741.000000	99.493115 
2740.000000	99.491857 
2739.000000	99.490752 
2738.000000	99.489828 
2737.000000	99.488997 
2736.000000	99.488434 
2735.000000	99.488539 
2734.000000	99.489381 
2733.000000	99.490296 
2732.000000	99.490352 
2731.000000	99.489312 
2730.000000	99.487958 
2729.000000	99.487431 
2728.000000	99.488404 
2727.000000	99.490875 
2726.000000	99.494274 
2725.000000	99.497577 
2724.000000	99.499770 
2723.000000	99.500759 
2722.000000	99.501585 
2721.000000	99.503276 
2720.000000	99.505478 
2719.000000	99.506720 
2718.000000	99.506030 
2717.000000	99.503770 
2716.000000	99.500900 
2715.000000	99.497973 
2714.000000	99.495158 
2713.000000	99.492736 
2712.000000	99.491058 
2711.000000	99.490181 
2710.000000	99.489981 
2709.000000	99.490525 
2708.000000	99.491894 
2707.000000	99.493669 
2706.000000	99.495148 
2705.000000	99.496359 
2704.000000	99.498441 
2703.000000	99.502492 
2702.000000	99.508095 
2701.000000	99.513308 
2700.000000	99.516345 
2699.000000	99.517128 
2698.000000	99.517145 
2697.000000	99.517820 
2696.000000	99.518986 
2695.000000	99.519031 
2694.000000	99.516661 
2693.000000	99.512413 
2692.000000	99.508224 
2691.000000	99.505326 
2690.000000	99.502925 
2689.000000	99.499349 
2688.000000	99.494349 
2687.000000	99.489732 
2686.000000	99.487736 
2685.000000	99.489217 
2684.000000	99.493384 
2683.000000	99.498569 
2682.000000	99.503135 
2681.000000	99.506233 
2680.000000	99.508204 
2679.000000	99.510158 
2678.000000	99.512935 
2677.000000	99.516659 
2676.000000	99.521210 
2675.000000	99.526428 
2674.000000	99.531441 
2673.000000	99.534390 
2672.000000	99.533639 
2671.000000	99.529239 
2670.000000	99.522864 
2669.000000	99.516391 
2668.000000	99.510712 
2667.000000	99.505789 
2666.000000	99.501347 
2665.000000	99.497442 
2664.000000	99.494502 
2663.000000	99.492890 
2662.000000	99.492542 
2661.000000	99.493348 
2660.000000	99.495752 
2659.000000	99.500277 
2658.000000	99.506380 
2657.000000	99.512599 
2656.000000	99.518255 
2655.000000	99.524066 
2654.000000	99.530433 
2653.000000	99.536191 
2652.000000	99.540263 
2651.000000	99.543578 
2650.000000	99.547611 
2649.000000	99.551253 
2648.000000	99.551197 
2647.000000	99.545895 
2646.000000	99.537751 
2645.000000	99.530781 
2644.000000	99.526695 
2643.000000	99.523993 
2642.000000	99.520231 
2641.000000	99.514482 
2640.000000	99.508071 
2639.000000	99.503390 
2638.000000	99.501742 
2637.000000	99.502266 
2636.000000	99.503302 
2635.000000	99.504534 
2634.000000	99.506952 
2633.000000	99.510961 
2632.000000	99.515831 
2631.000000	99.521171 
2630.000000	99.527504 
2629.000000	99.534693 
2628.000000	99.541018 
2627.000000	99.544747 
2626.000000	99.545771 
2625.000000	99.544910 
2624.000000	99.542478 
2623.000000	99.538467 
2622.000000	99.533470 
2621.000000	99.528393 
2620.000000	99.523587 
2619.000000	99.519029 
2618.000000	99.514938 
2617.000000	99.511593 
2616.000000	99.509084 
2615.000000	99.507946 
2614.000000	99.509312 
2613.000000	99.513450 
2612.000000	99.518669 
2611.000000	99.522836 
2610.000000	99.525788 
2609.000000	99.529127 
2608.000000	99.533886 
2607.000000	99.539587 
2606.000000	99.545578 
2605.000000	99.551877 
2604.000000	99.558012 
2603.000000	99.562073 
2602.000000	99.562001 
2601.000000	99.557747 
2600.000000	99.551653 
2599.000000	99.546417 
2598.000000	99.542641 
2597.000000	99.538475 
2596.000000	99.531734 
2595.000000	99.522459 
2594.000000	99.513342 
2593.000000	99.507425 
2592.000000	99.505691 
2591.000000	99.507132 
2590.000000	99.510500 
2589.000000	99.515133 
2588.000000	99.520196 
2587.000000	99.524372 
2586.000000	99.527155 
2585.000000	99.529853 
2584.000000	99.534293 
2583.000000	99.540442 
2582.000000	99.546027 
2581.000000	99.548782 
2580.000000	99.548494 
2579.000000	99.546528 
2578.000000	99.543887 
2577.000000	99.540399 
2576.000000	99.535595 
2575.000000	99.529630 
2574.000000	99.523244 
2573.000000	99.517410 
2572.000000	99.513138 
2571.000000	99.510928 
2570.000000	99.510062 
2569.000000	99.509003 
2568.000000	99.507046 
2567.000000	99.505207 
2566.000000	99.505022 
2565.000000	99.506818 
2564.000000	99.509634 
2563.000000	99.512560 
2562.000000	99.515519 
2561.000000	99.518785 
2560.000000	99.522132 
2559.000000	99.524501 
2558.000000	99.524615 
2557.000000	99.522339 
2556.000000	99.519501 
2555.000000	99.518626 
2554.000000	99.520344 
2553.000000	99.522675 
2552.000000	99.523250 
2551.000000	99.521560 
2550.000000	99.518503 
2549.000000	99.514774 
2548.000000	99.510654 
2547.000000	99.506846 
2546.000000	99.504331 
2545.000000	99.503387 
2544.000000	99.503551 
2543.000000	99.504393 
2542.000000	99.505560 
2541.000000	99.506313 
2540.000000	99.505992 
2539.000000	99.504948 
2538.000000	99.504222 
2537.000000	99.504239 
2536.000000	99.504493 
2535.000000	99.504515 
2534.000000	99.504456 
2533.000000	99.504560 
2532.000000	99.504659 
2531.000000	99.504495 
2530.000000	99.504169 
2529.000000	99.503932 
2528.000000	99.503731 
2527.000000	99.503252 
2526.000000	99.502352 
2525.000000	99.501265 
2524.000000	99.500421 
2523.000000	99.500115 
2522.000000	99.500310 
2521.000000	99.500701 
2520.000000	99.500917 
2519.000000	99.500762 
2518.000000	99.500227 
2517.000000	99.499411 
2516.000000	99.498509 
2515.000000	99.497803 
2514.000000	99.497491 
2513.000000	99.497535 
2512.000000	99.497736 
2511.000000	99.497968 
2510.000000	99.498221 
2509.000000	99.498457 
2508.000000	99.498573 
2507.000000	99.498562 
2506.000000	99.498551 
2505.000000	99.498602 
2504.000000	99.498579 
2503.000000	99.498315 
2502.000000	99.497851 
2501.000000	99.497440 
2500.000000	99.497332 
2499.000000	99.497616 
2498.000000	99.498210 
2497.000000	99.498870 
2496.000000	99.499289 
2495.000000	99.499279 
2494.000000	99.498894 
2493.000000	99.498402 
2492.000000	99.498070 
2491.000000	99.497977 
2490.000000	99.498008 
2489.000000	99.498021 
2488.000000	99.498068 
2487.000000	99.498403 
2486.000000	99.499149 
2485.000000	99.499920 
2484.000000	99.500058 
2483.000000	99.499304 
2482.000000	99.498005 
2481.000000	99.496696 
2480.000000	99.495648 
2479.000000	99.494931 
2478.000000	99.494596 
2477.000000	99.494573 
2476.000000	99.494612 
2475.000000	99.494601 
2474.000000	99.494737 
2473.000000	99.495167 
2472.000000	99.495633 
2471.000000	99.495736 
2470.000000	99.495424 
2469.000000	99.495002 
2468.000000	99.494753 
2467.000000	99.494719 
2466.000000	99.494756 
2465.000000	99.494596 
2464.000000	99.493972 
2463.000000	99.492906 
2462.000000	99.491825 
2461.000000	99.491177 
2460.000000	99.490916 
2459.000000	99.490578 
2458.000000	99.489862 
2457.000000	99.488939 
2456.000000	99.488164 
2455.000000	99.487721 
2454.000000	99.487615 
2453.000000	99.487744 
2452.000000	99.487887 
2451.000000	99.487769 
2450.000000	99.487231 
2449.000000	99.486300 
2448.000000	99.485156 
2447.000000	99.484114 
2446.000000	99.483561 
2445.000000	99.483701 
2444.000000	99.484309 
2443.000000	99.484790 
2442.000000	99.484625 
2441.000000	99.483744 
2440.000000	99.482573 
2439.000000	99.481744 
2438.000000	99.481610 
2437.000000	99.481954 
2436.000000	99.482180 
2435.000000	99.481912 
2434.000000	99.481373 
2433.000000	99.481096 
2432.000000	99.481383 
2431.000000	99.482126 
2430.000000	99.482997 
2429.000000	99.483621 
2428.000000	99.483638 
2427.000000	99.482896 
2426.000000	99.481692 
2425.000000	99.480637 
2424.000000	99.480120 
2423.000000	99.480076 
2422.000000	99.480332 
2421.000000	99.480854 
2420.000000	99.481416 
2419.000000	99.481290 
2418.000000	99.479819 
2417.000000	99.477275 
2416.000000	99.474837 
2415.000000	99.473414 
2414.000000	99.472781 
2413.000000	99.472193 
2412.000000	99.471533 
2411.000000	99.471356 
2410.000000	99.471905 
2409.000000	99.472660 
2408.000000	99.472919 
2407.000000	99.472488 
2406.000000	99.471624 
2405.000000	99.470696 
2404.000000	99.470117 
2403.000000	99.470191 
2402.000000	99.470666 
2401.000000	99.470692 
2400.000000	99.469651 
2399.000000	99.467813 
2398.000000	99.465950 
2397.000000	99.464527 
2396.000000	99.463651 
2395.000000	99.463398 
2394.000000	99.463550 
2393.000000	99.463342 
2392.000000	99.462198 
2391.000000	99.460651 
2390.000000	99.459799 
2389.000000	99.459950 
2388.000000	99.460548 
2387.000000	99.461315 
2386.000000	99.462543 
2385.000000	99.464096 
2384.000000	99.465086 
2383.000000	99.464984 
2382.000000	99.464344 
2381.000000	99.464038 
2380.000000	99.464158 
2379.000000	99.464238 
2378.000000	99.464224 
2377.000000	99.464602 
2376.000000	99.465660 
2375.000000	99.467101 
2374.000000	99.468311 
2373.000000	99.468709 
2372.000000	99.467940 
2371.000000	99.466167 
2370.000000	99.464250 
2369.000000	99.463228 
2368.000000	99.463470 
2367.000000	99.464652 
2366.000000	99.466323 
2365.000000	99.468291 
2364.000000	99.470344 
2363.000000	99.471996 
2362.000000	99.472979 
2361.000000	99.473494 
2360.000000	99.473942 
2359.000000	99.474538 
2358.000000	99.475071 
2357.000000	99.475418 
2356.000000	99.475891 
2355.000000	99.476785 
2354.000000	99.477868 
2353.000000	99.478632 
2352.000000	99.479083 
2351.000000	99.479617 
2350.000000	99.480408 
2349.000000	99.481263 
2348.000000	99.481885 
2347.000000	99.482338 
2346.000000	99.482964 
2345.000000	99.484049 
2344.000000	99.485493 
2343.000000	99.486782 
2342.000000	99.487520 
2341.000000	99.487523 
2340.000000	99.487157 
2339.000000	99.487218 
2338.000000	99.488167 
2337.000000	99.489523 
2336.000000	99.490254 
2335.000000	99.489791 
2334.000000	99.488499 
2333.000000	99.487347 
2332.000000	99.487148 
2331.000000	99.487917 
2330.000000	99.488835 
2329.000000	99.489363 
2328.000000	99.489817 
2327.000000	99.491422 
2326.000000	99.494501 
2325.000000	99.497778 
2324.000000	99.499414 
2323.000000	99.499120 
2322.000000	99.498669 
2321.000000	99.499323 
2320.000000	99.500159 
2319.000000	99.499471 
2318.000000	99.497325 
2317.000000	99.495258 
2316.000000	99.494116 
2315.000000	99.493518 
2314.000000	99.492985 
2313.000000	99.492895 
2312.000000	99.493488 
2311.000000	99.494283 
2310.000000	99.494093 
2309.000000	99.492172 
2308.000000	99.488639 
2307.000000	99.484875 
2306.000000	99.482576 
2305.000000	99.482534 
2304.000000	99.483939 
2303.000000	99.485489 
2302.000000	99.486629 
2301.000000	99.487787 
2300.000000	99.489554 
2299.000000	99.492411 
2298.000000	99.496241 
2297.000000	99.499865 
2296.000000	99.501327 
2295.000000	99.499992 
2294.000000	99.497594 
2293.000000	99.496798 
2292.000000	99.498513 
2291.000000	99.501643 
2290.000000	99.504742 
2289.000000	99.507075 
2288.000000	99.508244 
2287.000000	99.508018 
2286.000000	99.506628 
2285.000000	99.504344 
2284.000000	99.500922 
2283.000000	99.496477 
2282.000000	99.492631 
2281.000000	99.491260 
2280.000000	99.492050 
2279.000000	99.492674 
2278.000000	99.491882 
2277.000000	99.491014 
2276.000000	99.491711 
2275.000000	99.493453 
2274.000000	99.494475 
2273.000000	99.494321 
2272.000000	99.494158 
2271.000000	99.494942 
2270.000000	99.496339 
2269.000000	99.497465 
2268.000000	99.497855 
2267.000000	99.497448 
2266.000000	99.496187 
2265.000000	99.494001 
2264.000000	99.490991 
2263.000000	99.487583 
2262.000000	99.484611 
2261.000000	99.483066 
2260.000000	99.483425 
2259.000000	99.485029 
2258.000000	99.486312 
2257.000000	99.486145 
2256.000000	99.484836 
2255.000000	99.483611 
2254.000000	99.483266 
2253.000000	99.483673 
2252.000000	99.484475 
2251.000000	99.485643 
2250.000000	99.487015 
2249.000000	99.487952 
2248.000000	99.487912 
2247.000000	99.487197 
2246.000000	99.486381 
2245.000000	99.485519 
2244.000000	99.484445 
2243.000000	99.483360 
2242.000000	99.482603 
2241.000000	99.482149 
2240.000000	99.481765 
2239.000000	99.481459 
2238.000000	99.481326 
2237.000000	99.481149 
2236.000000	99.480620 
2235.000000	99.479814 
2234.000000	99.479053 
2233.000000	99.478520 
2232.000000	99.478128 
2231.000000	99.477761 
2230.000000	99.477393 
2229.000000	99.477044 
2228.000000	99.476723 
2227.000000	99.476436 
2226.000000	99.476177 
2225.000000	99.475935 
2224.000000	99.475697 
2223.000000	99.475456 
2222.000000	99.475206 
2221.000000	99.474941 
2220.000000	99.474655 
2219.000000	99.474345 
2218.000000	99.474019 
2217.000000	99.473689 
2216.000000	99.473361 
2215.000000	99.473033 
2214.000000	99.472701 
2213.000000	99.472366 
2212.000000	99.472036 
2211.000000	99.471722 
2210.000000	99.471435 
2209.000000	99.471184 
2208.000000	99.470979 
2207.000000	99.470820 
2206.000000	99.470702 
2205.000000	99.470638 
2204.000000	99.470511 
2203.000000	99.470240 
2202.000000	99.470361 
2201.000000	99.471435 
2200.000000	99.472965 
2199.000000	99.473734 
2198.000000	99.473057 
2197.000000	99.471357 
2196.000000	99.469803 
2195.000000	99.469464 
2194.000000	99.470634 
2193.000000	99.472521 
2192.000000	99.473653 
2191.000000	99.473181 
2190.000000	99.471948 
2189.000000	99.471931 
2188.000000	99.474022 
2187.000000	99.476447 
2186.000000	99.476009 
2185.000000	99.471307 
2184.000000	99.464415 
2183.000000	99.458957 
2182.000000	99.456398 
2181.000000	99.455222 
2180.000000	99.453817 
2179.000000	99.452887 
2178.000000	99.453920 
2177.000000	99.456374 
2176.000000	99.458071 
2175.000000	99.458006 
2174.000000	99.457198 
2173.000000	99.457080 
2172.000000	99.458861 
2171.000000	99.464049 
2170.000000	99.473141 
2169.000000	99.483339 
2168.000000	99.489993 
2167.000000	99.491404 
2166.000000	99.490312 
2165.000000	99.490103 
2164.000000	99.491513 
2163.000000	99.493809 
2162.000000	99.495969 
2161.000000	99.494812 
2160.000000	99.485465 
2159.000000	99.467257 
2158.000000	99.447261 
2157.000000	99.433691 
2156.000000	99.427512 
2155.000000	99.424769 
2154.000000	99.423851 
2153.000000	99.426354 
2152.000000	99.431907 
2151.000000	99.436358 
2150.000000	99.436345 
2149.000000	99.433590 
2148.000000	99.433154 
2147.000000	99.437985 
2146.000000	99.445786 
2145.000000	99.450821 
2144.000000	99.449215 
2143.000000	99.442568 
2142.000000	99.436440 
2141.000000	99.434885 
2140.000000	99.436967 
2139.000000	99.438993 
2138.000000	99.439131 
2137.000000	99.438688 
2136.000000	99.439247 
2135.000000	99.440212 
2134.000000	99.439891 
2133.000000	99.438115 
2132.000000	99.436643 
2131.000000	99.436831 
2130.000000	99.437689 
2129.000000	99.436862 
2128.000000	99.433498 
2127.000000	99.429474 
2126.000000	99.427414 
2125.000000	99.428165 
2124.000000	99.430865 
2123.000000	99.434775 
2122.000000	99.439744 
2121.000000	99.444980 
2120.000000	99.448896 
2119.000000	99.450692 
2118.000000	99.451178 
2117.000000	99.451616 
2116.000000	99.452382 
2115.000000	99.453181 
2114.000000	99.453902 
2113.000000	99.454506 
2112.000000	99.454516 
2111.000000	99.453653 
2110.000000	99.452729 
2109.000000	99.452910 
2108.000000	99.454001 
2107.000000	99.454275 
2106.000000	99.452337 
2105.000000	99.448695 
2104.000000	99.445503 
2103.000000	99.444713 
2102.000000	99.446459 
2101.000000	99.448928 
2100.000000	99.449945 
2099.000000	99.449000 
2098.000000	99.447468 
2097.000000	99.447001 
2096.000000	99.448102 
2095.000000	99.450312 
2094.000000	99.452986 
2093.000000	99.455453 
2092.000000	99.456986 
2091.000000	99.457348 
2090.000000	99.457260 
2089.000000	99.457736 
2088.000000	99.458822 
2087.000000	99.459399 
2086.000000	99.458430 
2085.000000	99.456235 
2084.000000	99.454512 
2083.000000	99.454943 
2082.000000	99.457748 
2081.000000	99.461373 
2080.000000	99.463976 
2079.000000	99.465352 
2078.000000	99.466935 
2077.000000	99.469864 
2076.000000	99.473459 
2075.000000	99.475887 
2074.000000	99.475886 
2073.000000	99.473597 
2072.000000	99.470388 
2071.000000	99.467908 
2070.000000	99.467043 
2069.000000	99.467334 
2068.000000	99.467450 
2067.000000	99.466548 
2066.000000	99.465025 
2065.000000	99.464016 
2064.000000	99.464419 
2063.000000	99.466390 
2062.000000	99.469163 
2061.000000	99.471227 
2060.000000	99.471545 
2059.000000	99.470826 
2058.000000	99.470954 
2057.000000	99.472886 
2056.000000	99.475704 
2055.000000	99.477916 
2054.000000	99.479185 
2053.000000	99.480213 
2052.000000	99.481438 
2051.000000	99.482451 
2050.000000	99.482569 
2049.000000	99.481514 
2048.000000	99.479657 
2047.000000	99.477941 
2046.000000	99.477363 
2045.000000	99.478107 
2044.000000	99.479191 
2043.000000	99.479272 
2042.000000	99.477990 
2041.000000	99.476127 
2040.000000	99.474684 
2039.000000	99.473921 
2038.000000	99.473495 
2037.000000	99.473049 
2036.000000	99.472459 
2035.000000	99.471687 
2034.000000	99.470651 
2033.000000	99.469372 
2032.000000	99.468172 
2031.000000	99.467532 
2030.000000	99.467646 
2029.000000	99.468171 
2028.000000	99.468349 
2027.000000	99.467702 
2026.000000	99.466281 
2025.000000	99.464431 
2024.000000	99.462560 
2023.000000	99.461068 
2022.000000	99.460326 
2021.000000	99.460392 
2020.000000	99.460713 
2019.000000	99.460554 
2018.000000	99.459715 
2017.000000	99.458549 
2016.000000	99.457398 
2015.000000	99.456395 
2014.000000	99.455707 
2013.000000	99.455423 
2012.000000	99.455231 
2011.000000	99.454738 
2010.000000	99.454182 
2009.000000	99.454278 
2008.000000	99.455324 
2007.000000	99.456915 
2006.000000	99.458472 
2005.000000	99.459595 
2004.000000	99.460082 
2003.000000	99.460086 
2002.000000	99.459954 
2001.000000	99.459338 
2000.000000	99.457071 
1999.000000	99.452759 
1998.000000	99.447740 
1997.000000	99.443689 
1996.000000	99.441203 
1995.000000	99.440522 
1994.000000	99.442380 
1993.000000	99.446611 
1992.000000	99.450865 
1991.000000	99.452668 
1990.000000	99.452124 
1989.000000	99.450898 
1988.000000	99.450087 
1987.000000	99.450846 
1986.000000	99.455321 
1985.000000	99.464319 
1984.000000	99.474664 
1983.000000	99.481591 
1982.000000	99.483212 
1981.000000	99.480425 
1980.000000	99.474290 
1979.000000	99.465958 
1978.000000	99.457885 
1977.000000	99.451638 
1976.000000	99.445239 
1975.000000	99.436181 
1974.000000	99.426697 
1973.000000	99.422468 
1972.000000	99.425893 
1971.000000	99.433598 
1970.000000	99.440642 
1969.000000	99.445310 
1968.000000	99.448898 
1967.000000	99.452699 
1966.000000	99.456708 
1965.000000	99.460147 
1964.000000	99.461874 
1963.000000	99.460678 
1962.000000	99.456166 
1961.000000	99.449737 
1960.000000	99.444210 
1959.000000	99.441748 
1958.000000	99.442033 
1957.000000	99.442589 
1956.000000	99.441071 
1955.000000	99.436966 
1954.000000	99.430918 
1953.000000	99.423409 
1952.000000	99.415139 
1951.000000	99.408239 
1950.000000	99.405326 
1949.000000	99.406774 
1948.000000	99.409997 
1947.000000	99.412211 
1946.000000	99.412869 
1945.000000	99.412453 
1944.000000	99.410617 
1943.000000	99.407158 
1942.000000	99.403776 
1941.000000	99.402610 
1940.000000	99.403634 
1939.000000	99.405095 
1938.000000	99.405768 
1937.000000	99.405972 
1936.000000	99.406700 
1935.000000	99.408205 
1934.000000	99.409527 
1933.000000	99.409425 
1932.000000	99.407758 
1931.000000	99.405856 
1930.000000	99.405332 
1929.000000	99.406387 
1928.000000	99.407678 
1927.000000	99.407930 
1926.000000	99.406965 
1925.000000	99.405138 
1924.000000	99.402826 
1923.000000	99.400804 
1922.000000	99.400210 
1921.000000	99.401377 
1920.000000	99.403373 
1919.000000	99.404886 
1918.000000	99.405397 
1917.000000	99.405246 
1916.000000	99.404860 
1915.000000	99.404506 
1914.000000	99.404477 
1913.000000	99.404905 
1912.000000	99.405453 
1911.000000	99.405617 
1910.000000	99.405311 
1909.000000	99.404822 
1908.000000	99.404370 
1907.000000	99.404059 
1906.000000	99.404032 
1905.000000	99.404249 
1904.000000	99.404262 
1903.000000	99.403586 
1902.000000	99.402259 
1901.000000	99.400855 
1900.000000	99.399957 
1899.000000	99.399768 
1898.000000	99.400217 
1897.000000	99.401046 
1896.000000	99.401844 
1895.000000	99.402310 
1894.000000	99.402521 
1893.000000	99.402727 
1892.000000	99.402901 
1891.000000	99.402761 
1890.000000	99.402255 
1889.000000	99.401743 
1888.000000	99.401542 
1887.000000	99.401622 
1886.000000	99.401838 
1885.000000	99.402091 
1884.000000	99.402227 
1883.000000	99.402065 
1882.000000	99.401630 
1881.000000	99.401194 
1880.000000	99.401016 
1879.000000	99.401113 
1878.000000	99.401265 
1877.000000	99.401186 
1876.000000	99.400823 
1875.000000	99.400552 
1874.000000	99.400923 
1873.000000	99.402085 
1872.000000	99.403487 
1871.000000	99.404280 
1870.000000	99.404102 
1869.000000	99.403290 
1868.000000	99.402366 
1867.000000	99.401471 
1866.000000	99.400713 
1865.000000	99.400391 
1864.000000	99.400695 
1863.000000	99.401558 
1862.000000	99.402821 
1861.000000	99.404253 
1860.000000	99.405388 
1859.000000	99.405869 
1858.000000	99.406027 
1857.000000	99.406583 
1856.000000	99.407794 
1855.000000	99.409395 
1854.000000	99.411129 
1853.000000	99.412710 
1852.000000	99.413431 
1851.000000	99.412656 
1850.000000	99.410800 
1849.000000	99.409212 
1848.000000	99.408764 
1847.000000	99.409135 
1846.000000	99.409665 
1845.000000	99.409922 
1844.000000	99.409371 
1843.000000	99.407813 
1842.000000	99.406228 
1841.000000	99.405903 
1840.000000	99.407317 
1839.000000	99.410036 
1838.000000	99.413262 
1837.000000	99.416207 
1836.000000	99.418110 
1835.000000	99.418697 
1834.000000	99.418686 
1833.000000	99.419213 
1832.000000	99.420695 
1831.000000	99.422309 
1830.000000	99.423072 
1829.000000	99.423282 
1828.000000	99.423805 
1827.000000	99.424191 
1826.000000	99.423375 
1825.000000	99.421753 
1824.000000	99.420851 
1823.000000	99.420979 
1822.000000	99.420949 
1821.000000	99.419510 
1820.000000	99.416166 
1819.000000	99.411329 
1818.000000	99.406733 
1817.000000	99.404823 
1816.000000	99.406281 
1815.000000	99.409204 
1814.000000	99.411706 
1813.000000	99.414188 
1812.000000	99.418180 
1811.000000	99.423588 
1810.000000	99.429175 
1809.000000	99.434690 
1808.000000	99.439501 
1807.000000	99.441361 
1806.000000	99.439040 
1805.000000	99.434516 
1804.000000	99.430955 
1803.000000	99.429028 
1802.000000	99.427313 
1801.000000	99.425634 
1800.000000	99.424918 
1799.000000	99.424882 
1798.000000	99.424635 
1797.000000	99.424249 
1796.000000	99.424429 
1795.000000	99.425666 
1794.000000	99.427905 
1793.000000	99.430424 
1792.000000	99.432195 
1791.000000	99.432652 
1790.000000	99.432474 
1789.000000	99.433092 
1788.000000	99.435202 
1787.000000	99.438161 
1786.000000	99.440646 
1785.000000	99.441774 
1784.000000	99.441457 
1783.000000	99.440481 
1782.000000	99.440099 
1781.000000	99.440843 
1780.000000	99.441635 
1779.000000	99.441079 
1778.000000	99.439429 
1777.000000	99.438225 
1776.000000	99.438421 
1775.000000	99.439958 
1774.000000	99.442353 
1773.000000	99.444861 
1772.000000	99.446639 
1771.000000	99.447523 
1770.000000	99.448049 
1769.000000	99.448590 
1768.000000	99.449315 
1767.000000	99.450169 
1766.000000	99.451059 
1765.000000	99.452167 
1764.000000	99.453659 
1763.000000	99.455327 
1762.000000	99.456658 
1761.000000	99.457498 
1760.000000	99.458212 
1759.000000	99.459028 
1758.000000	99.459797 
1757.000000	99.460346 
1756.000000	99.460745 
1755.000000	99.461178 
1754.000000	99.461495 
1753.000000	99.461320 
1752.000000	99.460811 
1751.000000	99.461105 
1750.000000	99.462876 
1749.000000	99.465203 
1748.000000	99.466988 
1747.000000	99.468081 
1746.000000	99.468741 
1745.000000	99.469143 
1744.000000	99.469704 
1743.000000	99.470816 
1742.000000	99.472123 
1741.000000	99.473013 
1740.000000	99.473328 
1739.000000	99.473384 
1738.000000	99.473491 
1737.000000	99.473659 
1736.000000	99.473706 
1735.000000	99.473405 
1734.000000	99.472847 
1733.000000	99.472623 
1732.000000	99.472974 
1731.000000	99.473650 
1730.000000	99.474389 
1729.000000	99.474935 
1728.000000	99.475178 
1727.000000	99.475225 
1726.000000	99.475213 
1725.000000	99.475219 
1724.000000	99.475372 
1723.000000	99.475871 
1722.000000	99.476758 
1721.000000	99.477897 
1720.000000	99.479078 
1719.000000	99.480022 
1718.000000	99.480410 
1717.000000	99.480363 
1716.000000	99.480232 
1715.000000	99.480024 
1714.000000	99.479791 
1713.000000	99.479715 
1712.000000	99.479796 
1711.000000	99.479915 
1710.000000	99.480023 
1709.000000	99.480162 
1708.000000	99.480349 
1707.000000	99.480540 
1706.000000	99.480760 
1705.000000	99.481080 
1704.000000	99.481400 
1703.000000	99.481487 
1702.000000	99.481247 
1701.000000	99.480887 
1700.000000	99.480906 
1699.000000	99.481382 
1698.000000	99.482027 
1697.000000	99.482684 
1696.000000	99.483380 
1695.000000	99.484043 
1694.000000	99.484587 
1693.000000	99.484996 
1692.000000	99.485254 
1691.000000	99.485388 
1690.000000	99.485523 
1689.000000	99.485805 
1688.000000	99.486199 
1687.000000	99.486487 
1686.000000	99.486565 
1685.000000	99.486591 
1684.000000	99.486747 
1683.000000	99.487024 
1682.000000	99.487428 
1681.000000	99.487776 
1680.000000	99.488031 
1679.000000	99.488273 
1678.000000	99.488564 
1677.000000	99.488904 
1676.000000	99.489346 
1675.000000	99.490116 
1674.000000	99.491237 
1673.000000	99.492369 
1672.000000	99.493195 
1671.000000	99.493820 
1670.000000	99.494565 
1669.000000	99.495451 
1668.000000	99.496290 
1667.000000	99.497041 
1666.000000	99.497481 
1665.000000	99.497325 
1664.000000	99.496652 
1663.000000	99.496170 
1662.000000	99.496776 
1661.000000	99.498524 
1660.000000	99.500369 
1659.000000	99.501724 
1658.000000	99.503060 
1657.000000	99.504539 
1656.000000	99.505131 
1655.000000	99.504357 
1654.000000	99.503598 
1653.000000	99.503905 
1652.000000	99.504628 
1651.000000	99.506025 
1650.000000	99.506223 
1649.000000	99.504956 
1648.000000	99.502854 
1647.000000	99.500754 
1646.000000	99.499446 
1645.000000	99.499817 
1644.000000	99.501554 
1643.000000	99.503500 
1642.000000	99.504913 
1641.000000	99.505736 
1640.000000	99.506059 
1639.000000	99.505980 
1638.000000	99.505765 
1637.000000	99.505729 
1636.000000	99.505404 
1635.000000	99.504668 
1634.000000	99.505441 
1633.000000	99.507862 
1632.000000	99.510321 
1631.000000	99.511847 
1630.000000	99.512409 
1629.000000	99.512456 
1628.000000	99.512501 
1627.000000	99.513162 
1626.000000	99.514844 
1625.000000	99.517287 
1624.000000	99.519679 
1623.000000	99.521530 
1622.000000	99.523298 
1621.000000	99.525109 
1620.000000	99.525932 
1619.000000	99.525413 
1618.000000	99.524756 
1617.000000	99.524641 
1616.000000	99.523845 
1615.000000	99.522294 
1614.000000	99.520683 
1613.000000	99.518855 
1612.000000	99.516907 
1611.000000	99.515451 
1610.000000	99.515122 
1609.000000	99.515674 
1608.000000	99.516259 
1607.000000	99.516648 
1606.000000	99.516908 
1605.000000	99.516699 
1604.000000	99.515925 
1603.000000	99.515728 
1602.000000	99.517118 
1601.000000	99.519222 
1600.000000	99.520669 
1599.000000	99.521579 
1598.000000	99.522837 
1597.000000	99.524423 
1596.000000	99.525661 
1595.000000	99.526504 
1594.000000	99.527425 
1593.000000	99.528239 
1592.000000	99.528373 
1591.000000	99.528060 
1590.000000	99.528200 
1589.000000	99.529044 
1588.000000	99.530047 
1587.000000	99.530840 
1586.000000	99.531469 
1585.000000	99.531879 
1584.000000	99.531915 
1583.000000	99.531723 
1582.000000	99.531729 
1581.000000	99.532063 
1580.000000	99.532522 
1579.000000	99.532971 
1578.000000	99.533414 
1577.000000	99.533786 
1576.000000	99.534013 
1575.000000	99.534200 
1574.000000	99.534451 
1573.000000	99.534730 
1572.000000	99.535000 
1571.000000	99.535267 
1570.000000	99.535536 
1569.000000	99.535797 
1568.000000	99.536041 
1567.000000	99.536266 
1566.000000	99.536470 
1565.000000	99.536656 
1564.000000	99.536825 
1563.000000	99.536975 
1562.000000	99.537103 
1561.000000	99.537197 
1560.000000	99.537248 
1559.000000	99.537251 
1558.000000	99.537216 
1557.000000	99.537157 
1556.000000	99.537073 
1555.000000	99.536959 
1554.000000	99.536813 
1553.000000	99.536638 
1552.000000	99.536439 
1551.000000	99.536220 
1550.000000	99.535987 
1549.000000	99.535744 
1548.000000	99.535490 
1547.000000	99.535221 
1546.000000	99.534937 
1545.000000	99.534641 
1544.000000	99.534342 
1543.000000	99.534045 
1542.000000	99.533758 
1541.000000	99.533485 
1540.000000	99.533220 
1539.000000	99.532959 
1538.000000	99.532705 
1537.000000	99.532464 
1536.000000	99.532232 
1535.000000	99.532003 
1534.000000	99.531772 
1533.000000	99.531533 
1532.000000	99.531293 
1531.000000	99.531028 
1530.000000	99.530687 
1529.000000	99.530299 
1528.000000	99.529940 
1527.000000	99.529587 
1526.000000	99.529167 
1525.000000	99.528780 
1524.000000	99.528547 
1523.000000	99.528407 
1522.000000	99.528328 
1521.000000	99.528409 
1520.000000	99.528364 
1519.000000	99.527627 
1518.000000	99.526149 
1517.000000	99.524664 
1516.000000	99.523843 
1515.000000	99.523528 
1514.000000	99.523181 
1513.000000	99.522610 
1512.000000	99.522054 
1511.000000	99.521637 
1510.000000	99.521006 
1509.000000	99.520096 
1508.000000	99.520121 
1507.000000	99.521755 
1506.000000	99.522198 
1505.000000	99.521162 
1504.000000	99.520183 
1503.000000	99.519327 
1502.000000	99.518924 
1501.000000	99.519677 
1500.000000	99.522034 
1499.000000	99.525444 
1498.000000	99.528105 
1497.000000	99.529054 
1496.000000	99.529011 
1495.000000	99.527947 
1494.000000	99.524962 
1493.000000	99.520276 
1492.000000	99.515108 
1491.000000	99.510990 
1490.000000	99.508884 
1489.000000	99.508688 
1488.000000	99.508831 
1487.000000	99.507772 
1486.000000	99.506360 
1485.000000	99.506038 
1484.000000	99.506682 
1483.000000	99.507230 
1482.000000	99.506776 
1481.000000	99.505341 
1480.000000	99.503593 
1479.000000	99.502011 
1478.000000	99.500956 
1477.000000	99.500855 
1476.000000	99.501555 
1475.000000	99.501436 
1474.000000	99.499815 
1473.000000	99.498797 
1472.000000	99.500244 
1471.000000	99.502482 
1470.000000	99.503618 
1469.000000	99.504234 
1468.000000	99.505572 
1467.000000	99.507442 
1466.000000	99.508685 
1465.000000	99.508823 
1464.000000	99.508232 
1463.000000	99.507443 
1462.000000	99.506804 
1461.000000	99.507123 
1460.000000	99.509054 
1459.000000	99.511698 
1458.000000	99.511365 
1457.000000	99.505165 
1456.000000	99.497071 
1455.000000	99.491778 
1454.000000	99.488917 
1453.000000	99.487629 
1452.000000	99.487403 
1451.000000	99.487537 
1450.000000	99.487727 
1449.000000	99.488854 
1448.000000	99.491520 
1447.000000	99.493984 
1446.000000	99.494439 
1445.000000	99.493709 
1444.000000	99.493206 
1443.000000	99.492890 
1442.000000	99.491857 
1441.000000	99.490187 
1440.000000	99.489450 
1439.000000	99.490844 
1438.000000	99.492491 
1437.000000	99.491285 
1436.000000	99.487683 
1435.000000	99.483941 
1434.000000	99.480579 
1433.000000	99.478052 
1432.000000	99.476895 
1431.000000	99.477509 
1430.000000	99.478968 
1429.000000	99.479643 
1428.000000	99.479200 
1427.000000	99.477796 
1426.000000	99.474948 
1425.000000	99.469842 
1424.000000	99.464009 
1423.000000	99.460754 
1422.000000	99.459825 
1421.000000	99.457860 
1420.000000	99.452489 
1419.000000	99.444458 
1418.000000	99.434135 
1417.000000	99.421623 
1416.000000	99.409783 
1415.000000	99.400795 
1414.000000	99.393249 
1413.000000	99.384099 
1412.000000	99.373523 
1411.000000	99.365110 
1410.000000	99.360212 
1409.000000	99.357022 
1408.000000	99.354606 
1407.000000	99.353354 
1406.000000	99.353090 
1405.000000	99.353682 
1404.000000	99.356855 
1403.000000	99.363437 
1402.000000	99.370435 
1401.000000	99.374671 
1400.000000	99.376271 
1399.000000	99.377532 
1398.000000	99.377303 
1397.000000	99.370716 
1396.000000	99.356172 
1395.000000	99.340292 
1394.000000	99.333265 
1393.000000	99.338504 
1392.000000	99.352442 
1391.000000	99.369266 
1390.000000	99.383809 
1389.000000	99.392902 
1388.000000	99.396061 
1387.000000	99.395186 
1386.000000	99.392442 
1385.000000	99.389286 
1384.000000	99.386957 
1383.000000	99.386427 
1382.000000	99.387797 
1381.000000	99.390887 
1380.000000	99.395477 
1379.000000	99.401023 
1378.000000	99.406531 
1377.000000	99.411050 
1376.000000	99.414726 
1375.000000	99.419029 
1374.000000	99.425217 
1373.000000	99.432326 
1372.000000	99.438455 
1371.000000	99.443674 
1370.000000	99.449962 
1369.000000	99.457826 
1368.000000	99.466081 
1367.000000	99.473850 
1366.000000	99.481055 
1365.000000	99.487364 
1364.000000	99.491513 
1363.000000	99.493050 
1362.000000	99.494040 
1361.000000	99.496752 
1360.000000	99.500989 
1359.000000	99.505516 
1358.000000	99.510253 
1357.000000	99.515643 
1356.000000	99.521274 
1355.000000	99.526249 
1354.000000	99.530498 
1353.000000	99.534480 
1352.000000	99.537077 
1351.000000	99.536099 
1350.000000	99.532735 
1349.000000	99.530333 
1348.000000	99.530782 
1347.000000	99.533518 
1346.000000	99.537520 
1345.000000	99.542099 
1344.000000	99.546504 
1343.000000	99.550054 
1342.000000	99.552644 
1341.000000	99.553987 
1340.000000	99.553216 
1339.000000	99.550448 
1338.000000	99.547501 
1337.000000	99.546156 
1336.000000	99.546551 
1335.000000	99.547684 
1334.000000	99.549032 
1333.000000	99.550788 
1332.000000	99.552655 
1331.000000	99.553748 
1330.000000	99.553739 
1329.000000	99.552948 
1328.000000	99.551731 
1327.000000	99.550422 
1326.000000	99.549631 
1325.000000	99.549308 
1324.000000	99.549292 
1323.000000	99.549984 
1322.000000	99.551677 
1321.000000	99.553488 
1320.000000	99.554097 
1319.000000	99.553453 
1318.000000	99.552852 
1317.000000	99.553239 
1316.000000	99.554047 
1315.000000	99.554032 
1314.000000	99.552689 
1313.000000	99.550801 
1312.000000	99.549738 
1311.000000	99.550293 
1310.000000	99.552142 
1309.000000	99.554222 
1308.000000	99.555530 
1307.000000	99.555506 
1306.000000	99.554156 
1305.000000	99.551842 
1304.000000	99.549782 
1303.000000	99.549553 
1302.000000	99.551624 
1301.000000	99.554463 
1300.000000	99.555737 
1299.000000	99.554349 
1298.000000	99.551112 
1297.000000	99.547878 
1296.000000	99.546205 
1295.000000	99.546817 
1294.000000	99.549509 
1293.000000	99.553292 
1292.000000	99.556756 
1291.000000	99.558464 
1290.000000	99.557603 
1289.000000	99.554752 
1288.000000	99.551681 
1287.000000	99.549658 
1286.000000	99.548027 
1285.000000	99.545384 
1284.000000	99.541966 
1283.000000	99.539600 
1282.000000	99.539018 
1281.000000	99.538764 
1280.000000	99.537305 
1279.000000	99.534851 
1278.000000	99.532171 
1277.000000	99.529076 
1276.000000	99.525007 
1275.000000	99.520451 
1274.000000	99.516560 
1273.000000	99.513863 
1272.000000	99.512078 
1271.000000	99.510614 
1270.000000	99.508561 
1269.000000	99.504974 
1268.000000	99.500065 
1267.000000	99.495390 
1266.000000	99.491884 
1265.000000	99.488636 
1264.000000	99.484439 
1263.000000	99.479558 
1262.000000	99.474998 
1261.000000	99.470956 
1260.000000	99.467180 
1259.000000	99.464098 
1258.000000	99.462069 
1257.000000	99.460323 
1256.000000	99.457954 
1255.000000	99.455534 
1254.000000	99.454383 
1253.000000	99.454530 
1252.000000	99.454650 
1251.000000	99.454002 
1250.000000	99.453285 
1249.000000	99.453505 
1248.000000	99.455036 
1247.000000	99.457660 
1246.000000	99.460298 
1245.000000	99.460850 
1244.000000	99.457652 
1243.000000	99.451716 
1242.000000	99.446882 
1241.000000	99.446601 
1240.000000	99.450946 
1239.000000	99.456691 
1238.000000	99.460098 
1237.000000	99.459699 
1236.000000	99.456469 
1235.000000	99.452318 
1234.000000	99.448441 
1233.000000	99.444854 
1232.000000	99.441317 
1231.000000	99.438208 
1230.000000	99.436089 
1229.000000	99.434734 
1228.000000	99.433358 
1227.000000	99.431924 
1226.000000	99.431500 
1225.000000	99.432845 
1224.000000	99.435075 
1223.000000	99.436291 
1222.000000	99.435461 
1221.000000	99.433396 
1220.000000	99.431957 
1219.000000	99.432433 
1218.000000	99.434465 
1217.000000	99.436418 
1216.000000	99.436909 
1215.000000	99.435937 
1214.000000	99.434533 
1213.000000	99.433540 
1212.000000	99.432966 
1211.000000	99.432076 
1210.000000	99.429842 
1209.000000	99.425714 
1208.000000	99.420437 
1207.000000	99.415742 
1206.000000	99.412637 
1205.000000	99.410376 
1204.000000	99.407631 
1203.000000	99.404069 
1202.000000	99.399928 
1201.000000	99.394749 
1200.000000	99.387927 
1199.000000	99.380284 
1198.000000	99.373719 
1197.000000	99.369092 
1196.000000	99.365427 
1195.000000	99.361332 
1194.000000	99.356169 
1193.000000	99.349610 
1192.000000	99.341370 
1191.000000	99.332032 
1190.000000	99.323231 
1189.000000	99.316474 
1188.000000	99.312193 
1187.000000	99.309867 
1186.000000	99.308309 
1185.000000	99.305838 
1184.000000	99.300993 
1183.000000	99.293421 
1182.000000	99.283886 
1181.000000	99.273638 
1180.000000	99.264185 
1179.000000	99.257046 
1178.000000	99.252397 
1177.000000	99.248076 
1176.000000	99.241317 
1175.000000	99.231823 
1174.000000	99.222079 
1173.000000	99.214216 
1172.000000	99.207817 
1171.000000	99.201281 
1170.000000	99.194068 
1169.000000	99.186711 
1168.000000	99.179472 
1167.000000	99.171973 
1166.000000	99.163903 
1165.000000	99.155690 
1164.000000	99.148780 
1163.000000	99.145197 
1162.000000	99.145978 
1161.000000	99.149711 
1160.000000	99.153364 
1159.000000	99.155062 
1158.000000	99.155187 
1157.000000	99.154422 
1156.000000	99.151885 
1155.000000	99.146091 
1154.000000	99.136856 
1153.000000	99.125292 
1152.000000	99.112614 
1151.000000	99.099999 
1150.000000	99.088979 
1149.000000	99.080586 
1148.000000	99.073965 
1147.000000	99.066628 
1146.000000	99.056439 
1145.000000	99.043289 
1144.000000	99.029141 
1143.000000	99.016798 
1142.000000	99.008077 
1141.000000	99.002429 
1140.000000	98.997242 
1139.000000	98.989816 
1138.000000	98.979315 
1137.000000	98.967074 
1136.000000	98.955310 
1135.000000	98.945385 
1134.000000	98.936857 
1133.000000	98.928091 
1132.000000	98.917904 
1131.000000	98.906413 
1130.000000	98.894166 
1129.000000	98.880986 
1128.000000	98.866422 
1127.000000	98.851090 
1126.000000	98.836661 
1125.000000	98.824340 
1124.000000	98.813857 
1123.000000	98.803885 
1122.000000	98.792826 
1121.000000	98.779487 
1120.000000	98.763903 
1119.000000	98.747497 
1118.000000	98.731576 
1117.000000	98.715623 
1116.000000	98.698004 
1115.000000	98.678398 
1114.000000	98.658512 
1113.000000	98.640048 
1112.000000	98.622939 
1111.000000	98.606196 
1110.000000	98.589533 
1109.000000	98.573245 
1108.000000	98.557230 
1107.000000	98.540721 
1106.000000	98.523261 
1105.000000	98.505378 
1104.000000	98.487860 
1103.000000	98.470722 
1102.000000	98.453666 
1101.000000	98.437345 
1100.000000	98.423657 
1099.000000	98.412717 
1098.000000	98.402081 
1097.000000	98.388940 
1096.000000	98.373214 
1095.000000	98.357081 
1094.000000	98.341500 
1093.000000	98.324800 
1092.000000	98.305119 
1091.000000	98.282730 
1090.000000	98.259047 
1089.000000	98.234366 
1088.000000	98.207937 
1087.000000	98.179967 
1086.000000	98.152346 
1085.000000	98.127078 
1084.000000	98.104492 
1083.000000	98.083156 
1082.000000	98.061234 
1081.000000	98.037999 
1080.000000	98.014235 
1079.000000	97.991241 
1078.000000	97.969714 
1077.000000	97.949986 
1076.000000	97.932983 
1075.000000	97.919818 
1074.000000	97.910321 
1073.000000	97.902834 
1072.000000	97.895055 
1071.000000	97.883517 
1070.000000	97.862903 
1069.000000	97.829450 
1068.000000	97.787204 
1067.000000	97.748850 
1066.000000	97.726567 
1065.000000	97.722183 
1064.000000	97.727097 
1063.000000	97.730126 
1062.000000	97.723988 
1061.000000	97.705844 
1060.000000	97.676666 
1059.000000	97.642501 
1058.000000	97.613147 
1057.000000	97.595516 
1056.000000	97.587748 
1055.000000	97.580733 
1054.000000	97.566003 
1053.000000	97.542452 
1052.000000	97.515762 
1051.000000	97.491967 
1050.000000	97.472185 
1049.000000	97.453940 
1048.000000	97.436297 
1047.000000	97.421424 
1046.000000	97.410928 
1045.000000	97.403055 
1044.000000	97.394857 
1043.000000	97.385934 
1042.000000	97.378336 
1041.000000	97.373015 
1040.000000	97.368143 
1039.000000	97.361895 
1038.000000	97.356056 
1037.000000	97.355448 
1036.000000	97.363398 
1035.000000	97.378501 
1034.000000	97.396139 
1033.000000	97.412156 
1032.000000	97.423614 
1031.000000	97.427251 
1030.000000	97.421122 
1029.000000	97.409578 
1028.000000	97.403721 
1027.000000	97.413167 
1026.000000	97.437288 
1025.000000	97.466298 
1024.000000	97.490534 
1023.000000	97.506535 
1022.000000	97.515168 
1021.000000	97.517995 
1020.000000	97.517079 
1019.000000	97.515781 
1018.000000	97.517008 
1017.000000	97.520937 
1016.000000	97.525737 
1015.000000	97.530241 
1014.000000	97.535235 
1013.000000	97.542266 
1012.000000	97.551510 
1011.000000	97.560843 
1010.000000	97.567681 
1009.000000	97.572401 
1008.000000	97.578890 
1007.000000	97.590533 
1006.000000	97.606624 
1005.000000	97.624116 
1004.000000	97.641688 
1003.000000	97.659813 
1002.000000	97.677710 
1001.000000	97.693333 
1000.000000	97.706614 
999.000000	 97.719914 
998.000000	 97.734401 
997.000000	 97.748378 
996.000000	 97.760469 
995.000000	 97.772571 
994.000000	 97.788085 
993.000000	 97.808192 
992.000000	 97.830702 
991.000000	 97.851560 
990.000000	 97.867241 
989.000000	 97.877299 
988.000000	 97.885203 
987.000000	 97.895303 
986.000000	 97.908809 
985.000000	 97.924549 
984.000000	 97.943162 
983.000000	 97.967150 
982.000000	 97.996056 
981.000000	 98.024862 
980.000000	 98.049332 
979.000000	 98.070813 
978.000000	 98.093476 
977.000000	 98.119022 
976.000000	 98.146498 
975.000000	 98.175235 
974.000000	 98.205025 
973.000000	 98.234609 
972.000000	 98.262777 
971.000000	 98.290250 
970.000000	 98.318240 
969.000000	 98.346100 
968.000000	 98.372803 
967.000000	 98.399659 
966.000000	 98.428441 
965.000000	 98.457257 
964.000000	 98.481752 
963.000000	 98.500869 
962.000000	 98.518363 
961.000000	 98.537605 
960.000000	 98.557509 
959.000000	 98.575014 
958.000000	 98.589271 
957.000000	 98.601833 
956.000000	 98.614740 
955.000000	 98.630171 
954.000000	 98.650028 
953.000000	 98.673439 
952.000000	 98.695717 
951.000000	 98.712081 
950.000000	 98.722222 
949.000000	 98.729796 
948.000000	 98.738042 
947.000000	 98.747671 
946.000000	 98.758631 
945.000000	 98.771498 
944.000000	 98.786188 
943.000000	 98.800624 
942.000000	 98.811952 
941.000000	 98.818917 
940.000000	 98.822592 
939.000000	 98.824962 
938.000000	 98.827030 
937.000000	 98.828291 
936.000000	 98.828154 
935.000000	 98.827614 
934.000000	 98.828816 
933.000000	 98.832695 
932.000000	 98.838019 
931.000000	 98.843507 
930.000000	 98.850088 
929.000000	 98.859917 
928.000000	 98.873214 
927.000000	 98.887024 
926.000000	 98.897418 
925.000000	 98.902551 
924.000000	 98.903468 
923.000000	 98.902502 
922.000000	 98.901153 
921.000000	 98.899414 
920.000000	 98.897057 
919.000000	 98.895150 
918.000000	 98.895503 
917.000000	 98.898403 
916.000000	 98.901740 
915.000000	 98.903261 
914.000000	 98.903377 
913.000000	 98.904949 
912.000000	 98.910357 
911.000000	 98.919318 
910.000000	 98.929339 
909.000000	 98.937883 
908.000000	 98.944042 
907.000000	 98.948484 
906.000000	 98.952427 
905.000000	 98.957183 
904.000000	 98.964769 
903.000000	 98.977947 
902.000000	 98.997986 
901.000000	 99.021962 
900.000000	 99.043737 
899.000000	 99.059166 
898.000000	 99.069644 
897.000000	 99.079236 
896.000000	 99.089186 
895.000000	 99.097403 
894.000000	 99.103448 
893.000000	 99.111229 
892.000000	 99.124851 
891.000000	 99.143225 
890.000000	 99.161000 
889.000000	 99.174834 
888.000000	 99.186599 
887.000000	 99.199653 
886.000000	 99.213705 
885.000000	 99.225150 
884.000000	 99.231968 
883.000000	 99.236414 
882.000000	 99.242259 
881.000000	 99.250498 
880.000000	 99.259353 
879.000000	 99.268164 
878.000000	 99.279161 
877.000000	 99.294029 
876.000000	 99.309835 
875.000000	 99.320540 
874.000000	 99.323118 
873.000000	 99.321038 
872.000000	 99.321389 
871.000000	 99.328646 
870.000000	 99.341525 
869.000000	 99.354867 
868.000000	 99.364240 
867.000000	 99.369454 
866.000000	 99.374354 
865.000000	 99.383039 
864.000000	 99.396042 
863.000000	 99.410531 
862.000000	 99.423978 
861.000000	 99.436355 
860.000000	 99.448314 
859.000000	 99.459158 
858.000000	 99.468398 
857.000000	 99.477970 
856.000000	 99.490129 
855.000000	 99.503156 
854.000000	 99.511954 
853.000000	 99.513949 
852.000000	 99.512382 
851.000000	 99.512432 
850.000000	 99.515473 
849.000000	 99.519053 
848.000000	 99.521457 
847.000000	 99.523853 
846.000000	 99.528045 
845.000000	 99.534286 
844.000000	 99.542032 
843.000000	 99.551022 
842.000000	 99.560008 
841.000000	 99.565573 
840.000000	 99.564621 
839.000000	 99.558448 
838.000000	 99.552405 
837.000000	 99.549963 
836.000000	 99.548680 
835.000000	 99.544527 
834.000000	 99.539229 
833.000000	 99.539339 
832.000000	 99.546427 
831.000000	 99.551975 
830.000000	 99.546690 
829.000000	 99.533629 
828.000000	 99.526805 
827.000000	 99.534630 
826.000000	 99.549205 
825.000000	 99.556372 
824.000000	 99.553002 
823.000000	 99.548335 
822.000000	 99.549980 
821.000000	 99.555362 
820.000000	 99.557939 
819.000000	 99.555706 
818.000000	 99.551345 
817.000000	 99.547735 
816.000000	 99.545593 
815.000000	 99.543596 
814.000000	 99.538746 
813.000000	 99.527753 
812.000000	 99.509959 
811.000000	 99.488561 
810.000000	 99.467586 
809.000000	 99.447732 
808.000000	 99.426223 
807.000000	 99.400127 
806.000000	 99.368530 
805.000000	 99.331952 
804.000000	 99.291742 
803.000000	 99.251065 
802.000000	 99.215170 
801.000000	 99.189129 
800.000000	 99.174650 
799.000000	 99.169036 
798.000000	 99.167612 
797.000000	 99.167824 
796.000000	 99.170796 
795.000000	 99.178714 
794.000000	 99.191863 
793.000000	 99.208945 
792.000000	 99.228292 
791.000000	 99.246236 
790.000000	 99.255728 
789.000000	 99.250817 
788.000000	 99.233803 
787.000000	 99.215346 
786.000000	 99.205454 
785.000000	 99.205450 
784.000000	 99.209521 
783.000000	 99.211767 
782.000000	 99.210141 
781.000000	 99.205527 
780.000000	 99.199856 
779.000000	 99.194918 
778.000000	 99.191545 
777.000000	 99.190599 
776.000000	 99.195157 
775.000000	 99.209373 
774.000000	 99.233198 
773.000000	 99.259875 
772.000000	 99.281164 
771.000000	 99.294272 
770.000000	 99.301583 
769.000000	 99.305315 
768.000000	 99.305928 
767.000000	 99.305393 
766.000000	 99.307907 
765.000000	 99.315464 
764.000000	 99.324971 
763.000000	 99.331395 
762.000000	 99.332706 
761.000000	 99.330877 
760.000000	 99.329500 
759.000000	 99.331592 
758.000000	 99.338338 
757.000000	 99.348480 
756.000000	 99.359341 
755.000000	 99.369329 
754.000000	 99.378995 
753.000000	 99.389290 
752.000000	 99.399853 
751.000000	 99.409618 
750.000000	 99.418106 
749.000000	 99.424914 
748.000000	 99.428856 
747.000000	 99.429609 
746.000000	 99.430111 
745.000000	 99.434783 
744.000000	 99.444206 
743.000000	 99.453472 
742.000000	 99.457659 
741.000000	 99.457860 
740.000000	 99.459661 
739.000000	 99.466195 
738.000000	 99.475102 
737.000000	 99.482668 
736.000000	 99.488477 
735.000000	 99.494628 
734.000000	 99.502499 
733.000000	 99.512264 
732.000000	 99.523772 
731.000000	 99.534978 
730.000000	 99.540961 
729.000000	 99.538189 
728.000000	 99.529972 
727.000000	 99.524262 
726.000000	 99.525220 
725.000000	 99.530180 
724.000000	 99.535473 
723.000000	 99.541430 
722.000000	 99.549663 
721.000000	 99.558400 
720.000000	 99.563416 
719.000000	 99.562604 
718.000000	 99.557568 
717.000000	 99.551390 
716.000000	 99.546986 
715.000000	 99.546327 
714.000000	 99.548866 
713.000000	 99.551511 
712.000000	 99.551985 
711.000000	 99.551620 
710.000000	 99.553207 
709.000000	 99.556684 
708.000000	 99.558806 
707.000000	 99.557088 
706.000000	 99.552697 
705.000000	 99.549066 
704.000000	 99.548019 
703.000000	 99.547863 
702.000000	 99.544868 
701.000000	 99.536656 
700.000000	 99.524085 
699.000000	 99.509623 
698.000000	 99.494812 
697.000000	 99.479972 
696.000000	 99.465591 
695.000000	 99.453077 
694.000000	 99.444747 
693.000000	 99.444706 
692.000000	 99.457466 
691.000000	 99.481418 
690.000000	 99.505175 
689.000000	 99.516095 
688.000000	 99.514100 
687.000000	 99.512015 
686.000000	 99.519612 
685.000000	 99.533107 
684.000000	 99.542752 
683.000000	 99.544235 
682.000000	 99.539999 
681.000000	 99.535350 
680.000000	 99.536623 
679.000000	 99.547494 
678.000000	 99.562351 
677.000000	 99.569091 
676.000000	 99.563613 
675.000000	 99.554784 
674.000000	 99.552605 
673.000000	 99.556108 
672.000000	 99.557142 
671.000000	 99.551553 
670.000000	 99.540358 
669.000000	 99.526150 
668.000000	 99.514436 
667.000000	 99.510106 
666.000000	 99.515746 
665.000000	 99.530670 
664.000000	 99.545113 
663.000000	 99.550966 
662.000000	 99.550918 
661.000000	 99.555215 
660.000000	 99.568840 
659.000000	 99.584814 
658.000000	 99.590577 
657.000000	 99.579518 
656.000000	 99.555928 
655.000000	 99.530969 
654.000000	 99.513050 
653.000000	 99.499393 
652.000000	 99.480777 
651.000000	 99.456301 
650.000000	 99.439082 

