4000.000000	99.866531 
3999.000000	99.866598 
3998.000000	99.866410 
3997.000000	99.866117 
3996.000000	99.865918 
3995.000000	99.865944 
3994.000000	99.866183 
3993.000000	99.866495 
3992.000000	99.866688 
3991.000000	99.866629 
3990.000000	99.866311 
3989.000000	99.865871 
3988.000000	99.865525 
3987.000000	99.865406 
3986.000000	99.865459 
3985.000000	99.865468 
3984.000000	99.865232 
3983.000000	99.864709 
3982.000000	99.864022 
3981.000000	99.863347 
3980.000000	99.862776 
3979.000000	99.862336 
3978.000000	99.862142 
3977.000000	99.862449 
3976.000000	99.863417 
3975.000000	99.864765 
3974.000000	99.865742 
3973.000000	99.865638 
3972.000000	99.864303 
3971.000000	99.862245 
3970.000000	99.860326 
3969.000000	99.859233 
3968.000000	99.859149 
3967.000000	99.859773 
3966.000000	99.860578 
3965.000000	99.861158 
3964.000000	99.861378 
3963.000000	99.861180 
3962.000000	99.860362 
3961.000000	99.858686 
3960.000000	99.856273 
3959.000000	99.853830 
3958.000000	99.852263 
3957.000000	99.851978 
3956.000000	99.852599 
3955.000000	99.853416 
3954.000000	99.854143 
3953.000000	99.855062 
3952.000000	99.856444 
3951.000000	99.858014 
3950.000000	99.859150 
3949.000000	99.859574 
3948.000000	99.859685 
3947.000000	99.860068 
3946.000000	99.860772 
3945.000000	99.861275 
3944.000000	99.861096 
3943.000000	99.860277 
3942.000000	99.859293 
3941.000000	99.858607 
3940.000000	99.858310 
3939.000000	99.858199 
3938.000000	99.858093 
3937.000000	99.858039 
3936.000000	99.858195 
3935.000000	99.858585 
3934.000000	99.859023 
3933.000000	99.859317 
3932.000000	99.859562 
3931.000000	99.860163 
3930.000000	99.861452 
3929.000000	99.863252 
3928.000000	99.864781 
3927.000000	99.865110 
3926.000000	99.863888 
3925.000000	99.861722 
3924.000000	99.859702 
3923.000000	99.858447 
3922.000000	99.857835 
3921.000000	99.857464 
3920.000000	99.857114 
3919.000000	99.856838 
3918.000000	99.856886 
3917.000000	99.857506 
3916.000000	99.858625 
3915.000000	99.859756 
3914.000000	99.860341 
3913.000000	99.860247 
3912.000000	99.859802 
3911.000000	99.859487 
3910.000000	99.859536 
3909.000000	99.859817 
3908.000000	99.860001 
3907.000000	99.859833 
3906.000000	99.859342 
3905.000000	99.858852 
3904.000000	99.858732 
3903.000000	99.859043 
3902.000000	99.859520 
3901.000000	99.859874 
3900.000000	99.860050 
3899.000000	99.860134 
3898.000000	99.860150 
3897.000000	99.860080 
3896.000000	99.859987 
3895.000000	99.859978 
3894.000000	99.859974 
3893.000000	99.859722 
3892.000000	99.859147 
3891.000000	99.858690 
3890.000000	99.858817 
3889.000000	99.859324 
3888.000000	99.859505 
3887.000000	99.859011 
3886.000000	99.858293 
3885.000000	99.858011 
3884.000000	99.858069 
3883.000000	99.857819 
3882.000000	99.857107 
3881.000000	99.856544 
3880.000000	99.856712 
3879.000000	99.857438 
3878.000000	99.857918 
3877.000000	99.857578 
3876.000000	99.856751 
3875.000000	99.856453 
3874.000000	99.857323 
3873.000000	99.858763 
3872.000000	99.859421 
3871.000000	99.858749 
3870.000000	99.857740 
3869.000000	99.857693 
3868.000000	99.858413 
3867.000000	99.858678 
3866.000000	99.858117 
3865.000000	99.857647 
3864.000000	99.858127 
3863.000000	99.859480 
3862.000000	99.861099 
3861.000000	99.862557 
3860.000000	99.863637 
3859.000000	99.864500 
3858.000000	99.865630 
3857.000000	99.867259 
3856.000000	99.868627 
3855.000000	99.868577 
3854.000000	99.867402 
3853.000000	99.866674 
3852.000000	99.866545 
3851.000000	99.865740 
3850.000000	99.863857 
3849.000000	99.861712 
3848.000000	99.860068 
3847.000000	99.859083 
3846.000000	99.858722 
3845.000000	99.859091 
3844.000000	99.860211 
3843.000000	99.861788 
3842.000000	99.863092 
3841.000000	99.863395 
3840.000000	99.862656 
3839.000000	99.861738 
3838.000000	99.861548 
3837.000000	99.862029 
3836.000000	99.862225 
3835.000000	99.861324 
3834.000000	99.859289 
3833.000000	99.856801 
3832.000000	99.854871 
3831.000000	99.854188 
3830.000000	99.854601 
3829.000000	99.855368 
3828.000000	99.855929 
3827.000000	99.856512 
3826.000000	99.857704 
3825.000000	99.859463 
3824.000000	99.860823 
3823.000000	99.860813 
3822.000000	99.859531 
3821.000000	99.858291 
3820.000000	99.858182 
3819.000000	99.858867 
3818.000000	99.859354 
3817.000000	99.859218 
3816.000000	99.858900 
3815.000000	99.858865 
3814.000000	99.858842 
3813.000000	99.858462 
3812.000000	99.858001 
3811.000000	99.857914 
3810.000000	99.858117 
3809.000000	99.858035 
3808.000000	99.857409 
3807.000000	99.856865 
3806.000000	99.857189 
3805.000000	99.858213 
3804.000000	99.858997 
3803.000000	99.858829 
3802.000000	99.857732 
3801.000000	99.856345 
3800.000000	99.855030 
3799.000000	99.853569 
3798.000000	99.852051 
3797.000000	99.851100 
3796.000000	99.851168 
3795.000000	99.851964 
3794.000000	99.852693 
3793.000000	99.852822 
3792.000000	99.852490 
3791.000000	99.852121 
3790.000000	99.851906 
3789.000000	99.851649 
3788.000000	99.851039 
3787.000000	99.850007 
3786.000000	99.848897 
3785.000000	99.848243 
3784.000000	99.848289 
3783.000000	99.848767 
3782.000000	99.849251 
3781.000000	99.849732 
3780.000000	99.850496 
3779.000000	99.851423 
3778.000000	99.851856 
3777.000000	99.851370 
3776.000000	99.850375 
3775.000000	99.849843 
3774.000000	99.850337 
3773.000000	99.851463 
3772.000000	99.852450 
3771.000000	99.853195 
3770.000000	99.854247 
3769.000000	99.855713 
3768.000000	99.856785 
3767.000000	99.856685 
3766.000000	99.855646 
3765.000000	99.854699 
3764.000000	99.854482 
3763.000000	99.854554 
3762.000000	99.854092 
3761.000000	99.852960 
3760.000000	99.851745 
3759.000000	99.851092 
3758.000000	99.851332 
3757.000000	99.852610 
3756.000000	99.854799 
3755.000000	99.857537 
3754.000000	99.860522 
3753.000000	99.863531 
3752.000000	99.865829 
3751.000000	99.866055 
3750.000000	99.863853 
3749.000000	99.860854 
3748.000000	99.858601 
3747.000000	99.856969 
3746.000000	99.855277 
3745.000000	99.853799 
3744.000000	99.853700 
3743.000000	99.854804 
3742.000000	99.855570 
3741.000000	99.855856 
3740.000000	99.856753 
3739.000000	99.858361 
3738.000000	99.859335 
3737.000000	99.858620 
3736.000000	99.856759 
3735.000000	99.854995 
3734.000000	99.853816 
3733.000000	99.853162 
3732.000000	99.853077 
3731.000000	99.853310 
3730.000000	99.853016 
3729.000000	99.851492 
3728.000000	99.849030 
3727.000000	99.846782 
3726.000000	99.845583 
3725.000000	99.845067 
3724.000000	99.844385 
3723.000000	99.843383 
3722.000000	99.842518 
3721.000000	99.842039 
3720.000000	99.841717 
3719.000000	99.841318 
3718.000000	99.840956 
3717.000000	99.840779 
3716.000000	99.840472 
3715.000000	99.839447 
3714.000000	99.837512 
3713.000000	99.835132 
3712.000000	99.832887 
3711.000000	99.830832 
3710.000000	99.828818 
3709.000000	99.827114 
3708.000000	99.826121 
3707.000000	99.825819 
3706.000000	99.825759 
3705.000000	99.825448 
3704.000000	99.824720 
3703.000000	99.823767 
3702.000000	99.822837 
3701.000000	99.821963 
3700.000000	99.820976 
3699.000000	99.819713 
3698.000000	99.818210 
3697.000000	99.816708 
3696.000000	99.815411 
3695.000000	99.814295 
3694.000000	99.813216 
3693.000000	99.812090 
3692.000000	99.810925 
3691.000000	99.809747 
3690.000000	99.808568 
3689.000000	99.807415 
3688.000000	99.806314 
3687.000000	99.805250 
3686.000000	99.804186 
3685.000000	99.803107 
3684.000000	99.802009 
3683.000000	99.800896 
3682.000000	99.799769 
3681.000000	99.798628 
3680.000000	99.797474 
3679.000000	99.796305 
3678.000000	99.795115 
3677.000000	99.793900 
3676.000000	99.792660 
3675.000000	99.791407 
3674.000000	99.790152 
3673.000000	99.788898 
3672.000000	99.787647 
3671.000000	99.786396 
3670.000000	99.785137 
3669.000000	99.783862 
3668.000000	99.782564 
3667.000000	99.781236 
3666.000000	99.779873 
3665.000000	99.778511 
3664.000000	99.777178 
3663.000000	99.775779 
3662.000000	99.774147 
3661.000000	99.772258 
3660.000000	99.770359 
3659.000000	99.768793 
3658.000000	99.767798 
3657.000000	99.767406 
3656.000000	99.767396 
3655.000000	99.767197 
3654.000000	99.766039 
3653.000000	99.763529 
3652.000000	99.760325 
3651.000000	99.758106 
3650.000000	99.758079 
3649.000000	99.759110 
3648.000000	99.758919 
3647.000000	99.757193 
3646.000000	99.755357 
3645.000000	99.754317 
3644.000000	99.753602 
3643.000000	99.752247 
3642.000000	99.749826 
3641.000000	99.746725 
3640.000000	99.743669 
3639.000000	99.741146 
3638.000000	99.739123 
3637.000000	99.737033 
3636.000000	99.734388 
3635.000000	99.731618 
3634.000000	99.729929 
3633.000000	99.729862 
3632.000000	99.730530 
3631.000000	99.730692 
3630.000000	99.730116 
3629.000000	99.729147 
3628.000000	99.727118 
3627.000000	99.723259 
3626.000000	99.718388 
3625.000000	99.714669 
3624.000000	99.713779 
3623.000000	99.715480 
3622.000000	99.718034 
3621.000000	99.719905 
3620.000000	99.720947 
3619.000000	99.721978 
3618.000000	99.723750 
3617.000000	99.726180 
3616.000000	99.728196 
3615.000000	99.728721 
3614.000000	99.727989 
3613.000000	99.727725 
3612.000000	99.729818 
3611.000000	99.734744 
3610.000000	99.741159 
3609.000000	99.746813 
3608.000000	99.749858 
3607.000000	99.749868 
3606.000000	99.747933 
3605.000000	99.745638 
3604.000000	99.744048 
3603.000000	99.743340 
3602.000000	99.743243 
3601.000000	99.743684 
3600.000000	99.744974 
3599.000000	99.747251 
3598.000000	99.750140 
3597.000000	99.752904 
3596.000000	99.754975 
3595.000000	99.756241 
3594.000000	99.756773 
3593.000000	99.756348 
3592.000000	99.754660 
3591.000000	99.751917 
3590.000000	99.749149 
3589.000000	99.747761 
3588.000000	99.748404 
3587.000000	99.750337 
3586.000000	99.752365 
3585.000000	99.753867 
3584.000000	99.754677 
3583.000000	99.754787 
3582.000000	99.754385 
3581.000000	99.753776 
3580.000000	99.753171 
3579.000000	99.752566 
3578.000000	99.751859 
3577.000000	99.750934 
3576.000000	99.749642 
3575.000000	99.747926 
3574.000000	99.746103 
3573.000000	99.744856 
3572.000000	99.744747 
3571.000000	99.745798 
3570.000000	99.747563 
3569.000000	99.749453 
3568.000000	99.750872 
3567.000000	99.751263 
3566.000000	99.750472 
3565.000000	99.749054 
3564.000000	99.747874 
3563.000000	99.747403 
3562.000000	99.747517 
3561.000000	99.747754 
3560.000000	99.747716 
3559.000000	99.747323 
3558.000000	99.746752 
3557.000000	99.746258 
3556.000000	99.746034 
3555.000000	99.746135 
3554.000000	99.746414 
3553.000000	99.746566 
3552.000000	99.746319 
3551.000000	99.745641 
3550.000000	99.744749 
3549.000000	99.743970 
3548.000000	99.743539 
3547.000000	99.743459 
3546.000000	99.743489 
3545.000000	99.743356 
3544.000000	99.743024 
3543.000000	99.742695 
3542.000000	99.742584 
3541.000000	99.742744 
3540.000000	99.743063 
3539.000000	99.743355 
3538.000000	99.743423 
3537.000000	99.743098 
3536.000000	99.742342 
3535.000000	99.741343 
3534.000000	99.740458 
3533.000000	99.739930 
3532.000000	99.739657 
3531.000000	99.739278 
3530.000000	99.738556 
3529.000000	99.737678 
3528.000000	99.737096 
3527.000000	99.737078 
3526.000000	99.737507 
3525.000000	99.738082 
3524.000000	99.738598 
3523.000000	99.739022 
3522.000000	99.739432 
3521.000000	99.739919 
3520.000000	99.740495 
3519.000000	99.741047 
3518.000000	99.741404 
3517.000000	99.741432 
3516.000000	99.741103 
3515.000000	99.740513 
3514.000000	99.739839 
3513.000000	99.739187 
3512.000000	99.738513 
3511.000000	99.737710 
3510.000000	99.736814 
3509.000000	99.736077 
3508.000000	99.735727 
3507.000000	99.735665 
3506.000000	99.735556 
3505.000000	99.735230 
3504.000000	99.734929 
3503.000000	99.735065 
3502.000000	99.735792 
3501.000000	99.736840 
3500.000000	99.737652 
3499.000000	99.737688 
3498.000000	99.736709 
3497.000000	99.734939 
3496.000000	99.732998 
3495.000000	99.731517 
3494.000000	99.730709 
3493.000000	99.730369 
3492.000000	99.730184 
3491.000000	99.729993 
3490.000000	99.729792 
3489.000000	99.729587 
3488.000000	99.729372 
3487.000000	99.729193 
3486.000000	99.729149 
3485.000000	99.729285 
3484.000000	99.729490 
3483.000000	99.729528 
3482.000000	99.729188 
3481.000000	99.728433 
3480.000000	99.727423 
3479.000000	99.726413 
3478.000000	99.725622 
3477.000000	99.725166 
3476.000000	99.725037 
3475.000000	99.725099 
3474.000000	99.725106 
3473.000000	99.724844 
3472.000000	99.724270 
3471.000000	99.723515 
3470.000000	99.722766 
3469.000000	99.722113 
3468.000000	99.721541 
3467.000000	99.721014 
3466.000000	99.720531 
3465.000000	99.720103 
3464.000000	99.719722 
3463.000000	99.719349 
3462.000000	99.718941 
3461.000000	99.718471 
3460.000000	99.717952 
3459.000000	99.717436 
3458.000000	99.716978 
3457.000000	99.716591 
3456.000000	99.716245 
3455.000000	99.715895 
3454.000000	99.715517 
3453.000000	99.715120 
3452.000000	99.714728 
3451.000000	99.714357 
3450.000000	99.714017 
3449.000000	99.713710 
3448.000000	99.713432 
3447.000000	99.713151 
3446.000000	99.712822 
3445.000000	99.712423 
3444.000000	99.711992 
3443.000000	99.711610 
3442.000000	99.711333 
3441.000000	99.711143 
3440.000000	99.710958 
3439.000000	99.710696 
3438.000000	99.710342 
3437.000000	99.709949 
3436.000000	99.709592 
3435.000000	99.709302 
3434.000000	99.709048 
3433.000000	99.708783 
3432.000000	99.708509 
3431.000000	99.708262 
3430.000000	99.708036 
3429.000000	99.707792 
3428.000000	99.707590 
3427.000000	99.707604 
3426.000000	99.707926 
3425.000000	99.708366 
3424.000000	99.708561 
3423.000000	99.708308 
3422.000000	99.707770 
3421.000000	99.707325 
3420.000000	99.707200 
3419.000000	99.707300 
3418.000000	99.707376 
3417.000000	99.707305 
3416.000000	99.707141 
3415.000000	99.706916 
3414.000000	99.706497 
3413.000000	99.705749 
3412.000000	99.704804 
3411.000000	99.704041 
3410.000000	99.703733 
3409.000000	99.703813 
3408.000000	99.704005 
3407.000000	99.704123 
3406.000000	99.704166 
3405.000000	99.704179 
3404.000000	99.704175 
3403.000000	99.704222 
3402.000000	99.704496 
3401.000000	99.705145 
3400.000000	99.706057 
3399.000000	99.706792 
3398.000000	99.706859 
3397.000000	99.706067 
3396.000000	99.704668 
3395.000000	99.703204 
3394.000000	99.702136 
3393.000000	99.701668 
3392.000000	99.701828 
3391.000000	99.702526 
3390.000000	99.703473 
3389.000000	99.704214 
3388.000000	99.704426 
3387.000000	99.704203 
3386.000000	99.703982 
3385.000000	99.704166 
3384.000000	99.704831 
3383.000000	99.705727 
3382.000000	99.706466 
3381.000000	99.706730 
3380.000000	99.706455 
3379.000000	99.705914 
3378.000000	99.705527 
3377.000000	99.705509 
3376.000000	99.705736 
3375.000000	99.705979 
3374.000000	99.706152 
3373.000000	99.706280 
3372.000000	99.706363 
3371.000000	99.706438 
3370.000000	99.706708 
3369.000000	99.707416 
3368.000000	99.708495 
3367.000000	99.709498 
3366.000000	99.709982 
3365.000000	99.709891 
3364.000000	99.709498 
3363.000000	99.709067 
3362.000000	99.708648 
3361.000000	99.708176 
3360.000000	99.707651 
3359.000000	99.707201 
3358.000000	99.707019 
3357.000000	99.707230 
3356.000000	99.707725 
3355.000000	99.708151 
3354.000000	99.708222 
3353.000000	99.708065 
3352.000000	99.708111 
3351.000000	99.708575 
3350.000000	99.709181 
3349.000000	99.709491 
3348.000000	99.709413 
3347.000000	99.709203 
3346.000000	99.709068 
3345.000000	99.708981 
3344.000000	99.708948 
3343.000000	99.709215 
3342.000000	99.710021 
3341.000000	99.711238 
3340.000000	99.712417 
3339.000000	99.713136 
3338.000000	99.713204 
3337.000000	99.712675 
3336.000000	99.711863 
3335.000000	99.711290 
3334.000000	99.711416 
3333.000000	99.712328 
3332.000000	99.713722 
3331.000000	99.715159 
3330.000000	99.716308 
3329.000000	99.716973 
3328.000000	99.717038 
3327.000000	99.716450 
3326.000000	99.715248 
3325.000000	99.713636 
3324.000000	99.712056 
3323.000000	99.711124 
3322.000000	99.711296 
3321.000000	99.712615 
3320.000000	99.714776 
3319.000000	99.717315 
3318.000000	99.719692 
3317.000000	99.721366 
3316.000000	99.722135 
3315.000000	99.722451 
3314.000000	99.723116 
3313.000000	99.724395 
3312.000000	99.725646 
3311.000000	99.726071 
3310.000000	99.725707 
3309.000000	99.725412 
3308.000000	99.725884 
3307.000000	99.726922 
3306.000000	99.727747 
3305.000000	99.727824 
3304.000000	99.727258 
3303.000000	99.726580 
3302.000000	99.726295 
3301.000000	99.726453 
3300.000000	99.726485 
3299.000000	99.725585 
3298.000000	99.723549 
3297.000000	99.721253 
3296.000000	99.720023 
3295.000000	99.720402 
3294.000000	99.721795 
3293.000000	99.723284 
3292.000000	99.724611 
3291.000000	99.726138 
3290.000000	99.728062 
3289.000000	99.730010 
3288.000000	99.731335 
3287.000000	99.731645 
3286.000000	99.731125 
3285.000000	99.730563 
3284.000000	99.730861 
3283.000000	99.732190 
3282.000000	99.733650 
3281.000000	99.734042 
3280.000000	99.733003 
3279.000000	99.731205 
3278.000000	99.729627 
3277.000000	99.728789 
3276.000000	99.728707 
3275.000000	99.729097 
3274.000000	99.729426 
3273.000000	99.729145 
3272.000000	99.728209 
3271.000000	99.727177 
3270.000000	99.726574 
3269.000000	99.726307 
3268.000000	99.725997 
3267.000000	99.725667 
3266.000000	99.725709 
3265.000000	99.726211 
3264.000000	99.726755 
3263.000000	99.727016 
3262.000000	99.727226 
3261.000000	99.727801 
3260.000000	99.728755 
3259.000000	99.729719 
3258.000000	99.730451 
3257.000000	99.731040 
3256.000000	99.731588 
3255.000000	99.731891 
3254.000000	99.731632 
3253.000000	99.730796 
3252.000000	99.729795 
3251.000000	99.729148 
3250.000000	99.729094 
3249.000000	99.729540 
3248.000000	99.730244 
3247.000000	99.730938 
3246.000000	99.731338 
3245.000000	99.731170 
3244.000000	99.730299 
3243.000000	99.728863 
3242.000000	99.727254 
3241.000000	99.725941 
3240.000000	99.725230 
3239.000000	99.725175 
3238.000000	99.725695 
3237.000000	99.726663 
3236.000000	99.727848 
3235.000000	99.728821 
3234.000000	99.729117 
3233.000000	99.728617 
3232.000000	99.727684 
3231.000000	99.726879 
3230.000000	99.726527 
3229.000000	99.726651 
3228.000000	99.727166 
3227.000000	99.727934 
3226.000000	99.728677 
3225.000000	99.729109 
3224.000000	99.729212 
3223.000000	99.729222 
3222.000000	99.729309 
3221.000000	99.729413 
3220.000000	99.729467 
3219.000000	99.729587 
3218.000000	99.729913 
3217.000000	99.730354 
3216.000000	99.730662 
3215.000000	99.730726 
3214.000000	99.730676 
3213.000000	99.730711 
3212.000000	99.730911 
3211.000000	99.731194 
3210.000000	99.731388 
3209.000000	99.731353 
3208.000000	99.731100 
3207.000000	99.730818 
3206.000000	99.730722 
3205.000000	99.730848 
3204.000000	99.731068 
3203.000000	99.731256 
3202.000000	99.731419 
3201.000000	99.731638 
3200.000000	99.731936 
3199.000000	99.732246 
3198.000000	99.732504 
3197.000000	99.732697 
3196.000000	99.732825 
3195.000000	99.732868 
3194.000000	99.732821 
3193.000000	99.732730 
3192.000000	99.732675 
3191.000000	99.732692 
3190.000000	99.732756 
3189.000000	99.732823 
3188.000000	99.732872 
3187.000000	99.732906 
3186.000000	99.732926 
3185.000000	99.732936 
3184.000000	99.732962 
3183.000000	99.733025 
3182.000000	99.733083 
3181.000000	99.733054 
3180.000000	99.732916 
3179.000000	99.732730 
3178.000000	99.732571 
3177.000000	99.732467 
3176.000000	99.732401 
3175.000000	99.732355 
3174.000000	99.732311 
3173.000000	99.732251 
3172.000000	99.732171 
3171.000000	99.732092 
3170.000000	99.732034 
3169.000000	99.731992 
3168.000000	99.731937 
3167.000000	99.731859 
3166.000000	99.731779 
3165.000000	99.731731 
3164.000000	99.731728 
3163.000000	99.731751 
3162.000000	99.731765 
3161.000000	99.731739 
3160.000000	99.731668 
3159.000000	99.731585 
3158.000000	99.731533 
3157.000000	99.731538 
3156.000000	99.731583 
3155.000000	99.731610 
3154.000000	99.731536 
3153.000000	99.731296 
3152.000000	99.730899 
3151.000000	99.730505 
3150.000000	99.730325 
3149.000000	99.730431 
3148.000000	99.730694 
3147.000000	99.730941 
3146.000000	99.731139 
3145.000000	99.731362 
3144.000000	99.731650 
3143.000000	99.731934 
3142.000000	99.732078 
3141.000000	99.731990 
3140.000000	99.731722 
3139.000000	99.731467 
3138.000000	99.731411 
3137.000000	99.731557 
3136.000000	99.731755 
3135.000000	99.731889 
3134.000000	99.732003 
3133.000000	99.732188 
3132.000000	99.732429 
3131.000000	99.732614 
3130.000000	99.732675 
3129.000000	99.732669 
3128.000000	99.732731 
3127.000000	99.732969 
3126.000000	99.733419 
3125.000000	99.734043 
3124.000000	99.734751 
3123.000000	99.735397 
3122.000000	99.735779 
3121.000000	99.735744 
3120.000000	99.735332 
3119.000000	99.734808 
3118.000000	99.734477 
3117.000000	99.734429 
3116.000000	99.734539 
3115.000000	99.734660 
3114.000000	99.734789 
3113.000000	99.735017 
3112.000000	99.735420 
3111.000000	99.736008 
3110.000000	99.736716 
3109.000000	99.737399 
3108.000000	99.737862 
3107.000000	99.737972 
3106.000000	99.737791 
3105.000000	99.737640 
3104.000000	99.737916 
3103.000000	99.738749 
3102.000000	99.739799 
3101.000000	99.740523 
3100.000000	99.740750 
3099.000000	99.740825 
3098.000000	99.741108 
3097.000000	99.741477 
3096.000000	99.741629 
3095.000000	99.741718 
3094.000000	99.742288 
3093.000000	99.743507 
3092.000000	99.744766 
3091.000000	99.745240 
3090.000000	99.744672 
3089.000000	99.743455 
3088.000000	99.742222 
3087.000000	99.741363 
3086.000000	99.740881 
3085.000000	99.740592 
3084.000000	99.740475 
3083.000000	99.740814 
3082.000000	99.741838 
3081.000000	99.743267 
3080.000000	99.744450 
3079.000000	99.745026 
3078.000000	99.745232 
3077.000000	99.745494 
3076.000000	99.745938 
3075.000000	99.746414 
3074.000000	99.746772 
3073.000000	99.746907 
3072.000000	99.746748 
3071.000000	99.746422 
3070.000000	99.746298 
3069.000000	99.746636 
3068.000000	99.747250 
3067.000000	99.747708 
3066.000000	99.747784 
3065.000000	99.747534 
3064.000000	99.747023 
3063.000000	99.746228 
3062.000000	99.745169 
3061.000000	99.743965 
3060.000000	99.742785 
3059.000000	99.741895 
3058.000000	99.741659 
3057.000000	99.742248 
3056.000000	99.743331 
3055.000000	99.744189 
3054.000000	99.744297 
3053.000000	99.743708 
3052.000000	99.742946 
3051.000000	99.742540 
3050.000000	99.742583 
3049.000000	99.742719 
3048.000000	99.742554 
3047.000000	99.742084 
3046.000000	99.741634 
3045.000000	99.741408 
3044.000000	99.741257 
3043.000000	99.740944 
3042.000000	99.740501 
3041.000000	99.740193 
3040.000000	99.740175 
3039.000000	99.740305 
3038.000000	99.740288 
3037.000000	99.739948 
3036.000000	99.739338 
3035.000000	99.738627 
3034.000000	99.737944 
3033.000000	99.737303 
3032.000000	99.736659 
3031.000000	99.736014 
3030.000000	99.735457 
3029.000000	99.735080 
3028.000000	99.734820 
3027.000000	99.734431 
3026.000000	99.733710 
3025.000000	99.732759 
3024.000000	99.731932 
3023.000000	99.731417 
3022.000000	99.730944 
3021.000000	99.730016 
3020.000000	99.728459 
3019.000000	99.726678 
3018.000000	99.725270 
3017.000000	99.724418 
3016.000000	99.723855 
3015.000000	99.723405 
3014.000000	99.723353 
3013.000000	99.724037 
3012.000000	99.725111 
3011.000000	99.725457 
3010.000000	99.724123 
3009.000000	99.721275 
3008.000000	99.718298 
3007.000000	99.716656 
3006.000000	99.716591 
3005.000000	99.717053 
3004.000000	99.716871 
3003.000000	99.715909 
3002.000000	99.714904 
3001.000000	99.714409 
3000.000000	99.714237 
2999.000000	99.713839 
2998.000000	99.712808 
2997.000000	99.710989 
2996.000000	99.708505 
2995.000000	99.705900 
2994.000000	99.703926 
2993.000000	99.702886 
2992.000000	99.702337 
2991.000000	99.701659 
2990.000000	99.700774 
2989.000000	99.700112 
2988.000000	99.699989 
2987.000000	99.700355 
2986.000000	99.701108 
2985.000000	99.702310 
2984.000000	99.703855 
2983.000000	99.705100 
2982.000000	99.705239 
2981.000000	99.704263 
2980.000000	99.703315 
2979.000000	99.703703 
2978.000000	99.705568 
2977.000000	99.707766 
2976.000000	99.709148 
2975.000000	99.709628 
2974.000000	99.709858 
2973.000000	99.710375 
2972.000000	99.711415 
2971.000000	99.713115 
2970.000000	99.715327 
2969.000000	99.717446 
2968.000000	99.718979 
2967.000000	99.720186 
2966.000000	99.721753 
2965.000000	99.724015 
2964.000000	99.726905 
2963.000000	99.730297 
2962.000000	99.733753 
2961.000000	99.736212 
2960.000000	99.736912 
2959.000000	99.736576 
2958.000000	99.736820 
2957.000000	99.738211 
2956.000000	99.739770 
2955.000000	99.740525 
2954.000000	99.740637 
2953.000000	99.740600 
2952.000000	99.740318 
2951.000000	99.739613 
2950.000000	99.739027 
2949.000000	99.739378 
2948.000000	99.740879 
2947.000000	99.743173 
2946.000000	99.745872 
2945.000000	99.748570 
2944.000000	99.750729 
2943.000000	99.752147 
2942.000000	99.753372 
2941.000000	99.755162 
2940.000000	99.757752 
2939.000000	99.760983 
2938.000000	99.764771 
2937.000000	99.768823 
2936.000000	99.772187 
2935.000000	99.773904 
2934.000000	99.774233 
2933.000000	99.774667 
2932.000000	99.776447 
2931.000000	99.779313 
2930.000000	99.781952 
2929.000000	99.783426 
2928.000000	99.783854 
2927.000000	99.783888 
2926.000000	99.783955 
2925.000000	99.784143 
2924.000000	99.784460 
2923.000000	99.784668 
2922.000000	99.783926 
2921.000000	99.781268 
2920.000000	99.776831 
2919.000000	99.772201 
2918.000000	99.768914 
2917.000000	99.766735 
2916.000000	99.764037 
2915.000000	99.759905 
2914.000000	99.755267 
2913.000000	99.751740 
2912.000000	99.749864 
2911.000000	99.748928 
2910.000000	99.748252 
2909.000000	99.748045 
2908.000000	99.748793 
2907.000000	99.750102 
2906.000000	99.750518 
2905.000000	99.748737 
2904.000000	99.744930 
2903.000000	99.740743 
2902.000000	99.737943 
2901.000000	99.737206 
2900.000000	99.738032 
2899.000000	99.739415 
2898.000000	99.740305 
2897.000000	99.739975 
2896.000000	99.738569 
2895.000000	99.737270 
2894.000000	99.737420 
2893.000000	99.739259 
2892.000000	99.741669 
2891.000000	99.743187 
2890.000000	99.743227 
2889.000000	99.742406 
2888.000000	99.741917 
2887.000000	99.742531 
2886.000000	99.743997 
2885.000000	99.745313 
2884.000000	99.745637 
2883.000000	99.744909 
2882.000000	99.743658 
2881.000000	99.742533 
2880.000000	99.742173 
2879.000000	99.743099 
2878.000000	99.745293 
2877.000000	99.747966 
2876.000000	99.750086 
2875.000000	99.751108 
2874.000000	99.750952 
2873.000000	99.749618 
2872.000000	99.747409 
2871.000000	99.745373 
2870.000000	99.744806 
2869.000000	99.746055 
2868.000000	99.748184 
2867.000000	99.749925 
2866.000000	99.750759 
2865.000000	99.751051 
2864.000000	99.751571 
2863.000000	99.752955 
2862.000000	99.755270 
2861.000000	99.757944 
2860.000000	99.760451 
2859.000000	99.762968 
2858.000000	99.765967 
2857.000000	99.769248 
2856.000000	99.771886 
2855.000000	99.773099 
2854.000000	99.772668 
2853.000000	99.770680 
2852.000000	99.767581 
2851.000000	99.764401 
2850.000000	99.762044 
2849.000000	99.760265 
2848.000000	99.758230 
2847.000000	99.756174 
2846.000000	99.755459 
2845.000000	99.756651 
2844.000000	99.758503 
2843.000000	99.759454 
2842.000000	99.759429 
2841.000000	99.759360 
2840.000000	99.759582 
2839.000000	99.759612 
2838.000000	99.759110 
2837.000000	99.758171 
2836.000000	99.756875 
2835.000000	99.755335 
2834.000000	99.754082 
2833.000000	99.753672 
2832.000000	99.753858 
2831.000000	99.753724 
2830.000000	99.752815 
2829.000000	99.751676 
2828.000000	99.751123 
2827.000000	99.751333 
2826.000000	99.751830 
2825.000000	99.752107 
2824.000000	99.752045 
2823.000000	99.751834 
2822.000000	99.751690 
2821.000000	99.751670 
2820.000000	99.751677 
2819.000000	99.751586 
2818.000000	99.751341 
2817.000000	99.750963 
2816.000000	99.750520 
2815.000000	99.750109 
2814.000000	99.749806 
2813.000000	99.749603 
2812.000000	99.749436 
2811.000000	99.749259 
2810.000000	99.749070 
2809.000000	99.748878 
2808.000000	99.748697 
2807.000000	99.748552 
2806.000000	99.748461 
2805.000000	99.748418 
2804.000000	99.748400 
2803.000000	99.748382 
2802.000000	99.748351 
2801.000000	99.748307 
2800.000000	99.748256 
2799.000000	99.748207 
2798.000000	99.748169 
2797.000000	99.748150 
2796.000000	99.748152 
2795.000000	99.748170 
2794.000000	99.748202 
2793.000000	99.748241 
2792.000000	99.748286 
2791.000000	99.748335 
2790.000000	99.748386 
2789.000000	99.748440 
2788.000000	99.748495 
2787.000000	99.748549 
2786.000000	99.748602 
2785.000000	99.748652 
2784.000000	99.748701 
2783.000000	99.748748 
2782.000000	99.748795 
2781.000000	99.748841 
2780.000000	99.748885 
2779.000000	99.748924 
2778.000000	99.748958 
2777.000000	99.748988 
2776.000000	99.749017 
2775.000000	99.749042 
2774.000000	99.749065 
2773.000000	99.749085 
2772.000000	99.749104 
2771.000000	99.749133 
2770.000000	99.749178 
2769.000000	99.749225 
2768.000000	99.749246 
2767.000000	99.749232 
2766.000000	99.749205 
2765.000000	99.749194 
2764.000000	99.749194 
2763.000000	99.749177 
2762.000000	99.749144 
2761.000000	99.749127 
2760.000000	99.749127 
2759.000000	99.749084 
2758.000000	99.748972 
2757.000000	99.748831 
2756.000000	99.748669 
2755.000000	99.748473 
2754.000000	99.748362 
2753.000000	99.748539 
2752.000000	99.748989 
2751.000000	99.749375 
2750.000000	99.749367 
2749.000000	99.748971 
2748.000000	99.748438 
2747.000000	99.747998 
2746.000000	99.747785 
2745.000000	99.747845 
2744.000000	99.748025 
2743.000000	99.747983 
2742.000000	99.747540 
2741.000000	99.746970 
2740.000000	99.746731 
2739.000000	99.746907 
2738.000000	99.747087 
2737.000000	99.746814 
2736.000000	99.746052 
2735.000000	99.745168 
2734.000000	99.744548 
2733.000000	99.744286 
2732.000000	99.744261 
2731.000000	99.744451 
2730.000000	99.745035 
2729.000000	99.746088 
2728.000000	99.747309 
2727.000000	99.748280 
2726.000000	99.748937 
2725.000000	99.749539 
2724.000000	99.750204 
2723.000000	99.750690 
2722.000000	99.750724 
2721.000000	99.750355 
2720.000000	99.749809 
2719.000000	99.749214 
2718.000000	99.748627 
2717.000000	99.748192 
2716.000000	99.748064 
2715.000000	99.748256 
2714.000000	99.748637 
2713.000000	99.749071 
2712.000000	99.749451 
2711.000000	99.749672 
2710.000000	99.749670 
2709.000000	99.749498 
2708.000000	99.749300 
2707.000000	99.749185 
2706.000000	99.749160 
2705.000000	99.749178 
2704.000000	99.749225 
2703.000000	99.749341 
2702.000000	99.749554 
2701.000000	99.749817 
2700.000000	99.750009 
2699.000000	99.750025 
2698.000000	99.749884 
2697.000000	99.749700 
2696.000000	99.749587 
2695.000000	99.749559 
2694.000000	99.749556 
2693.000000	99.749522 
2692.000000	99.749459 
2691.000000	99.749411 
2690.000000	99.749399 
2689.000000	99.749391 
2688.000000	99.749356 
2687.000000	99.749289 
2686.000000	99.749204 
2685.000000	99.749113 
2684.000000	99.749017 
2683.000000	99.748901 
2682.000000	99.748764 
2681.000000	99.748622 
2680.000000	99.748496 
2679.000000	99.748398 
2678.000000	99.748334 
2677.000000	99.748297 
2676.000000	99.748274 
2675.000000	99.748259 
2674.000000	99.748235 
2673.000000	99.748177 
2672.000000	99.748078 
2671.000000	99.747964 
2670.000000	99.747870 
2669.000000	99.747799 
2668.000000	99.747728 
2667.000000	99.747656 
2666.000000	99.747620 
2665.000000	99.747648 
2664.000000	99.747727 
2663.000000	99.747814 
2662.000000	99.747875 
2661.000000	99.747903 
2660.000000	99.747921 
2659.000000	99.747942 
2658.000000	99.747933 
2657.000000	99.747831 
2656.000000	99.747632 
2655.000000	99.747417 
2654.000000	99.747281 
2653.000000	99.747274 
2652.000000	99.747454 
2651.000000	99.747883 
2650.000000	99.748456 
2649.000000	99.748794 
2648.000000	99.748516 
2647.000000	99.747595 
2646.000000	99.746485 
2645.000000	99.745780 
2644.000000	99.745787 
2643.000000	99.746488 
2642.000000	99.747620 
2641.000000	99.748746 
2640.000000	99.749452 
2639.000000	99.749696 
2638.000000	99.749876 
2637.000000	99.750339 
2636.000000	99.750845 
2635.000000	99.750828 
2634.000000	99.750135 
2633.000000	99.749316 
2632.000000	99.749143 
2631.000000	99.749932 
2630.000000	99.751287 
2629.000000	99.752355 
2628.000000	99.752409 
2627.000000	99.751331 
2626.000000	99.749648 
2625.000000	99.748073 
2624.000000	99.746996 
2623.000000	99.746453 
2622.000000	99.746349 
2621.000000	99.746448 
2620.000000	99.746235 
2619.000000	99.745150 
2618.000000	99.743220 
2617.000000	99.741324 
2616.000000	99.740547 
2615.000000	99.741165 
2614.000000	99.742333 
2613.000000	99.742828 
2612.000000	99.742211 
2611.000000	99.741196 
2610.000000	99.740922 
2609.000000	99.741935 
2608.000000	99.743854 
2607.000000	99.745817 
2606.000000	99.747243 
2605.000000	99.748198 
2604.000000	99.749149 
2603.000000	99.750275 
2602.000000	99.751007 
2601.000000	99.750528 
2600.000000	99.748822 
2599.000000	99.746935 
2598.000000	99.745950 
2597.000000	99.745837 
2596.000000	99.745721 
2595.000000	99.745106 
2594.000000	99.744367 
2593.000000	99.744046 
2592.000000	99.744117 
2591.000000	99.744144 
2590.000000	99.743850 
2589.000000	99.743326 
2588.000000	99.742849 
2587.000000	99.742655 
2586.000000	99.742747 
2585.000000	99.742898 
2584.000000	99.742938 
2583.000000	99.742997 
2582.000000	99.743238 
2581.000000	99.743421 
2580.000000	99.743087 
2579.000000	99.742210 
2578.000000	99.741361 
2577.000000	99.741095 
2576.000000	99.741392 
2575.000000	99.741874 
2574.000000	99.742310 
2573.000000	99.742733 
2572.000000	99.743207 
2571.000000	99.743697 
2570.000000	99.744096 
2569.000000	99.744293 
2568.000000	99.744279 
2567.000000	99.744193 
2566.000000	99.744242 
2565.000000	99.744498 
2564.000000	99.744849 
2563.000000	99.745126 
2562.000000	99.745290 
2561.000000	99.745404 
2560.000000	99.745525 
2559.000000	99.745654 
2558.000000	99.745784 
2557.000000	99.745938 
2556.000000	99.746146 
2555.000000	99.746401 
2554.000000	99.746658 
2553.000000	99.746903 
2552.000000	99.747179 
2551.000000	99.747535 
2550.000000	99.747959 
2549.000000	99.748347 
2548.000000	99.748598 
2547.000000	99.748715 
2546.000000	99.748819 
2545.000000	99.749024 
2544.000000	99.749368 
2543.000000	99.749819 
2542.000000	99.750292 
2541.000000	99.750682 
2540.000000	99.750905 
2539.000000	99.750934 
2538.000000	99.750793 
2537.000000	99.750574 
2536.000000	99.750487 
2535.000000	99.750782 
2534.000000	99.751528 
2533.000000	99.752455 
2532.000000	99.753175 
2531.000000	99.753571 
2530.000000	99.753856 
2529.000000	99.754261 
2528.000000	99.754813 
2527.000000	99.755440 
2526.000000	99.756040 
2525.000000	99.756330 
2524.000000	99.755947 
2523.000000	99.754946 
2522.000000	99.754015 
2521.000000	99.753837 
2520.000000	99.754299 
2519.000000	99.754608 
2518.000000	99.754211 
2517.000000	99.753384 
2516.000000	99.752862 
2515.000000	99.753142 
2514.000000	99.754322 
2513.000000	99.756304 
2512.000000	99.758785 
2511.000000	99.761085 
2510.000000	99.762385 
2509.000000	99.762351 
2508.000000	99.761395 
2507.000000	99.760225 
2506.000000	99.759216 
2505.000000	99.758404 
2504.000000	99.757846 
2503.000000	99.757642 
2502.000000	99.757623 
2501.000000	99.757375 
2500.000000	99.756705 
2499.000000	99.755902 
2498.000000	99.755404 
2497.000000	99.755364 
2496.000000	99.755691 
2495.000000	99.756291 
2494.000000	99.757083 
2493.000000	99.757898 
2492.000000	99.758565 
2491.000000	99.759059 
2490.000000	99.759368 
2489.000000	99.759277 
2488.000000	99.758569 
2487.000000	99.757421 
2486.000000	99.756416 
2485.000000	99.756059 
2484.000000	99.756341 
2483.000000	99.756821 
2482.000000	99.757039 
2481.000000	99.756903 
2480.000000	99.756667 
2479.000000	99.756609 
2478.000000	99.756757 
2477.000000	99.756954 
2476.000000	99.757081 
2475.000000	99.757122 
2474.000000	99.757050 
2473.000000	99.756791 
2472.000000	99.756333 
2471.000000	99.755789 
2470.000000	99.755297 
2469.000000	99.754945 
2468.000000	99.754793 
2467.000000	99.754870 
2466.000000	99.755108 
2465.000000	99.755352 
2464.000000	99.755467 
2463.000000	99.755444 
2462.000000	99.755359 
2461.000000	99.755272 
2460.000000	99.755186 
2459.000000	99.755105 
2458.000000	99.755068 
2457.000000	99.755096 
2456.000000	99.755168 
2455.000000	99.755251 
2454.000000	99.755312 
2453.000000	99.755309 
2452.000000	99.755224 
2451.000000	99.755114 
2450.000000	99.755103 
2449.000000	99.755252 
2448.000000	99.755503 
2447.000000	99.755719 
2446.000000	99.755819 
2445.000000	99.755803 
2444.000000	99.755721 
2443.000000	99.755641 
2442.000000	99.755624 
2441.000000	99.755691 
2440.000000	99.755797 
2439.000000	99.755894 
2438.000000	99.756003 
2437.000000	99.756215 
2436.000000	99.756602 
2435.000000	99.757150 
2434.000000	99.757702 
2433.000000	99.758033 
2432.000000	99.758036 
2431.000000	99.757839 
2430.000000	99.757695 
2429.000000	99.757695 
2428.000000	99.757726 
2427.000000	99.757699 
2426.000000	99.757728 
2425.000000	99.757970 
2424.000000	99.758346 
2423.000000	99.758566 
2422.000000	99.758459 
2421.000000	99.758121 
2420.000000	99.757799 
2419.000000	99.757716 
2418.000000	99.758023 
2417.000000	99.758727 
2416.000000	99.759537 
2415.000000	99.759966 
2414.000000	99.759748 
2413.000000	99.759054 
2412.000000	99.758326 
2411.000000	99.757878 
2410.000000	99.757710 
2409.000000	99.757647 
2408.000000	99.757602 
2407.000000	99.757725 
2406.000000	99.758216 
2405.000000	99.759013 
2404.000000	99.759754 
2403.000000	99.760091 
2402.000000	99.760031 
2401.000000	99.759831 
2400.000000	99.759661 
2399.000000	99.759456 
2398.000000	99.759033 
2397.000000	99.758303 
2396.000000	99.757443 
2395.000000	99.756921 
2394.000000	99.757232 
2393.000000	99.758450 
2392.000000	99.760031 
2391.000000	99.761166 
2390.000000	99.761400 
2389.000000	99.760924 
2388.000000	99.760408 
2387.000000	99.760489 
2386.000000	99.761270 
2385.000000	99.762276 
2384.000000	99.763015 
2383.000000	99.763573 
2382.000000	99.764506 
2381.000000	99.766160 
2380.000000	99.768270 
2379.000000	99.770185 
2378.000000	99.771376 
2377.000000	99.771633 
2376.000000	99.771059 
2375.000000	99.770121 
2374.000000	99.769520 
2373.000000	99.769667 
2372.000000	99.770352 
2371.000000	99.771012 
2370.000000	99.771324 
2369.000000	99.771445 
2368.000000	99.771712 
2367.000000	99.772252 
2366.000000	99.772871 
2365.000000	99.773235 
2364.000000	99.773190 
2363.000000	99.772926 
2362.000000	99.772788 
2361.000000	99.772936 
2360.000000	99.773272 
2359.000000	99.773610 
2358.000000	99.773841 
2357.000000	99.773959 
2356.000000	99.774002 
2355.000000	99.774031 
2354.000000	99.774098 
2353.000000	99.774205 
2352.000000	99.774304 
2351.000000	99.774353 
2350.000000	99.774343 
2349.000000	99.774298 
2348.000000	99.774272 
2347.000000	99.774292 
2346.000000	99.774342 
2345.000000	99.774377 
2344.000000	99.774338 
2343.000000	99.774226 
2342.000000	99.774056 
2341.000000	99.773967 
2340.000000	99.774074 
2339.000000	99.774289 
2338.000000	99.774331 
2337.000000	99.774011 
2336.000000	99.773470 
2335.000000	99.772924 
2334.000000	99.772381 
2333.000000	99.771658 
2332.000000	99.770950 
2331.000000	99.770912 
2330.000000	99.772148 
2329.000000	99.773843 
2328.000000	99.774460 
2327.000000	99.772990 
2326.000000	99.770423 
2325.000000	99.768659 
2324.000000	99.768558 
2323.000000	99.769138 
2322.000000	99.768632 
2321.000000	99.766549 
2320.000000	99.763838 
2319.000000	99.761724 
2318.000000	99.760693 
2317.000000	99.760530 
2316.000000	99.761229 
2315.000000	99.763020 
2314.000000	99.766280 
2313.000000	99.770489 
2312.000000	99.774595 
2311.000000	99.777337 
2310.000000	99.778518 
2309.000000	99.778639 
2308.000000	99.778419 
2307.000000	99.777722 
2306.000000	99.775980 
2305.000000	99.772815 
2304.000000	99.769009 
2303.000000	99.766125 
2302.000000	99.765404 
2301.000000	99.766428 
2300.000000	99.767741 
2299.000000	99.768321 
2298.000000	99.768448 
2297.000000	99.768304 
2296.000000	99.767027 
2295.000000	99.763479 
2294.000000	99.758163 
2293.000000	99.753192 
2292.000000	99.750309 
2291.000000	99.749320 
2290.000000	99.748912 
2289.000000	99.748368 
2288.000000	99.748061 
2287.000000	99.748344 
2286.000000	99.748494 
2285.000000	99.747175 
2284.000000	99.743924 
2283.000000	99.740081 
2282.000000	99.737857 
2281.000000	99.738334 
2280.000000	99.740569 
2279.000000	99.742816 
2278.000000	99.744342 
2277.000000	99.745617 
2276.000000	99.746964 
2275.000000	99.747825 
2274.000000	99.747658 
2273.000000	99.747032 
2272.000000	99.747293 
2271.000000	99.749124 
2270.000000	99.751780 
2269.000000	99.753721 
2268.000000	99.753916 
2267.000000	99.752452 
2266.000000	99.750254 
2265.000000	99.748477 
2264.000000	99.747942 
2263.000000	99.748790 
2262.000000	99.750387 
2261.000000	99.751648 
2260.000000	99.751922 
2259.000000	99.751632 
2258.000000	99.751903 
2257.000000	99.753386 
2256.000000	99.755549 
2255.000000	99.757138 
2254.000000	99.757382 
2253.000000	99.756672 
2252.000000	99.756136 
2251.000000	99.756568 
2250.000000	99.757917 
2249.000000	99.759757 
2248.000000	99.761912 
2247.000000	99.764286 
2246.000000	99.766276 
2245.000000	99.766968 
2244.000000	99.766157 
2243.000000	99.764633 
2242.000000	99.763215 
2241.000000	99.761953 
2240.000000	99.760705 
2239.000000	99.759999 
2238.000000	99.760533 
2237.000000	99.762060 
2236.000000	99.763537 
2235.000000	99.764449 
2234.000000	99.765313 
2233.000000	99.766701 
2232.000000	99.768503 
2231.000000	99.770300 
2230.000000	99.771790 
2229.000000	99.772657 
2228.000000	99.772704 
2227.000000	99.772363 
2226.000000	99.772542 
2225.000000	99.773719 
2224.000000	99.775611 
2223.000000	99.777834 
2222.000000	99.780267 
2221.000000	99.782330 
2220.000000	99.782716 
2219.000000	99.780713 
2218.000000	99.777386 
2217.000000	99.774854 
2216.000000	99.774164 
2215.000000	99.774829 
2214.000000	99.775961 
2213.000000	99.776963 
2212.000000	99.777359 
2211.000000	99.776874 
2210.000000	99.775900 
2209.000000	99.775154 
2208.000000	99.774773 
2207.000000	99.774471 
2206.000000	99.774627 
2205.000000	99.776167 
2204.000000	99.778935 
2203.000000	99.781113 
2202.000000	99.781041 
2201.000000	99.779153 
2200.000000	99.777348 
2199.000000	99.776680 
2198.000000	99.776615 
2197.000000	99.776352 
2196.000000	99.775971 
2195.000000	99.775911 
2194.000000	99.775943 
2193.000000	99.775476 
2192.000000	99.774814 
2191.000000	99.775278 
2190.000000	99.777606 
2189.000000	99.780584 
2188.000000	99.781840 
2187.000000	99.780063 
2186.000000	99.775902 
2185.000000	99.771121 
2184.000000	99.767380 
2183.000000	99.765865 
2182.000000	99.767084 
2181.000000	99.770272 
2180.000000	99.773820 
2179.000000	99.776996 
2178.000000	99.780472 
2177.000000	99.784646 
2176.000000	99.788409 
2175.000000	99.790346 
2174.000000	99.790470 
2173.000000	99.790011 
2172.000000	99.789937 
2171.000000	99.790434 
2170.000000	99.791494 
2169.000000	99.792991 
2168.000000	99.794349 
2167.000000	99.795084 
2166.000000	99.795693 
2165.000000	99.797134 
2164.000000	99.799210 
2163.000000	99.800383 
2162.000000	99.799671 
2161.000000	99.797916 
2160.000000	99.796971 
2159.000000	99.797801 
2158.000000	99.799848 
2157.000000	99.801728 
2156.000000	99.802311 
2155.000000	99.801368 
2154.000000	99.799635 
2153.000000	99.798379 
2152.000000	99.798333 
2151.000000	99.799099 
2150.000000	99.799641 
2149.000000	99.799358 
2148.000000	99.798501 
2147.000000	99.797610 
2146.000000	99.796872 
2145.000000	99.796235 
2144.000000	99.795832 
2143.000000	99.795913 
2142.000000	99.796406 
2141.000000	99.796861 
2140.000000	99.796867 
2139.000000	99.796392 
2138.000000	99.795717 
2137.000000	99.795157 
2136.000000	99.794887 
2135.000000	99.794906 
2134.000000	99.794994 
2133.000000	99.794764 
2132.000000	99.793967 
2131.000000	99.792742 
2130.000000	99.791405 
2129.000000	99.789998 
2128.000000	99.788305 
2127.000000	99.786421 
2126.000000	99.785035 
2125.000000	99.784834 
2124.000000	99.785692 
2123.000000	99.786630 
2122.000000	99.786641 
2121.000000	99.785469 
2120.000000	99.783674 
2119.000000	99.782220 
2118.000000	99.781816 
2117.000000	99.782548 
2116.000000	99.783954 
2115.000000	99.785451 
2114.000000	99.786675 
2113.000000	99.787408 
2112.000000	99.787532 
2111.000000	99.787204 
2110.000000	99.786916 
2109.000000	99.787142 
2108.000000	99.787844 
2107.000000	99.788597 
2106.000000	99.789097 
2105.000000	99.789451 
2104.000000	99.789935 
2103.000000	99.790620 
2102.000000	99.791301 
2101.000000	99.791748 
2100.000000	99.791943 
2099.000000	99.792071 
2098.000000	99.792335 
2097.000000	99.792819 
2096.000000	99.793476 
2095.000000	99.794203 
2094.000000	99.794884 
2093.000000	99.795437 
2092.000000	99.795850 
2091.000000	99.796180 
2090.000000	99.796507 
2089.000000	99.796881 
2088.000000	99.797321 
2087.000000	99.797838 
2086.000000	99.798443 
2085.000000	99.799116 
2084.000000	99.799804 
2083.000000	99.800455 
2082.000000	99.801044 
2081.000000	99.801586 
2080.000000	99.802131 
2079.000000	99.802737 
2078.000000	99.803427 
2077.000000	99.804170 
2076.000000	99.804895 
2075.000000	99.805530 
2074.000000	99.806019 
2073.000000	99.806382 
2072.000000	99.806732 
2071.000000	99.807234 
2070.000000	99.808071 
2069.000000	99.809314 
2068.000000	99.810665 
2067.000000	99.811507 
2066.000000	99.811551 
2065.000000	99.811359 
2064.000000	99.811848 
2063.000000	99.813283 
2062.000000	99.815247 
2061.000000	99.817531 
2060.000000	99.820336 
2059.000000	99.823354 
2058.000000	99.825344 
2057.000000	99.825284 
2056.000000	99.823655 
2055.000000	99.822025 
2054.000000	99.821275 
2053.000000	99.820875 
2052.000000	99.820124 
2051.000000	99.819615 
2050.000000	99.820916 
2049.000000	99.824882 
2048.000000	99.830540 
2047.000000	99.835606 
2046.000000	99.838211 
2045.000000	99.838286 
2044.000000	99.837521 
2043.000000	99.837784 
2042.000000	99.839340 
2041.000000	99.841010 
2040.000000	99.842216 
2039.000000	99.844077 
2038.000000	99.847792 
2037.000000	99.852693 
2036.000000	99.857033 
2035.000000	99.860318 
2034.000000	99.863354 
2033.000000	99.866197 
2032.000000	99.868053 
2031.000000	99.869185 
2030.000000	99.870629 
2029.000000	99.871630 
2028.000000	99.869695 
2027.000000	99.864206 
2026.000000	99.858359 
2025.000000	99.856241 
2024.000000	99.858536 
2023.000000	99.862281 
2022.000000	99.863981 
2021.000000	99.862185 
2020.000000	99.857935 
2019.000000	99.853925 
2018.000000	99.852720 
2017.000000	99.854564 
2016.000000	99.857055 
2015.000000	99.857850 
2014.000000	99.857229 
2013.000000	99.857024 
2012.000000	99.857701 
2011.000000	99.857882 
2010.000000	99.856671 
2009.000000	99.855166 
2008.000000	99.855225 
2007.000000	99.857328 
2006.000000	99.859879 
2005.000000	99.860261 
2004.000000	99.856754 
2003.000000	99.850076 
2002.000000	99.843305 
2001.000000	99.839527 
2000.000000	99.839214 
1999.000000	99.840292 
1998.000000	99.840794 
1997.000000	99.840885 
1996.000000	99.841845 
1995.000000	99.843815 
1994.000000	99.845402 
1993.000000	99.845481 
1992.000000	99.844928 
1991.000000	99.846027 
1990.000000	99.850033 
1989.000000	99.855759 
1988.000000	99.860561 
1987.000000	99.862575 
1986.000000	99.861756 
1985.000000	99.859207 
1984.000000	99.856309 
1983.000000	99.854521 
1982.000000	99.855086 
1981.000000	99.857947 
1980.000000	99.861192 
1979.000000	99.862560 
1978.000000	99.861666 
1977.000000	99.860249 
1976.000000	99.860052 
1975.000000	99.860931 
1974.000000	99.861199 
1973.000000	99.859189 
1972.000000	99.854588 
1971.000000	99.849009 
1970.000000	99.845227 
1969.000000	99.845030 
1968.000000	99.847653 
1967.000000	99.850217 
1966.000000	99.850209 
1965.000000	99.847344 
1964.000000	99.843044 
1963.000000	99.839019 
1962.000000	99.836368 
1961.000000	99.835326 
1960.000000	99.835268 
1959.000000	99.835189 
1958.000000	99.834484 
1957.000000	99.833215 
1956.000000	99.831814 
1955.000000	99.830860 
1954.000000	99.830997 
1953.000000	99.832580 
1952.000000	99.835172 
1951.000000	99.837558 
1950.000000	99.838527 
1949.000000	99.837564 
1948.000000	99.834830 
1947.000000	99.830916 
1946.000000	99.826715 
1945.000000	99.823164 
1944.000000	99.820802 
1943.000000	99.819561 
1942.000000	99.819073 
1941.000000	99.819064 
1940.000000	99.819318 
1939.000000	99.819473 
1938.000000	99.819175 
1937.000000	99.818442 
1936.000000	99.817675 
1935.000000	99.817224 
1934.000000	99.816946 
1933.000000	99.816218 
1932.000000	99.814492 
1931.000000	99.811951 
1930.000000	99.809662 
1929.000000	99.808754 
1928.000000	99.809298 
1927.000000	99.810169 
1926.000000	99.810224 
1925.000000	99.809492 
1924.000000	99.808736 
1923.000000	99.808234 
1922.000000	99.807596 
1921.000000	99.806595 
1920.000000	99.805461 
1919.000000	99.804367 
1918.000000	99.803154 
1917.000000	99.801642 
1916.000000	99.799919 
1915.000000	99.798165 
1914.000000	99.796514 
1913.000000	99.795205 
1912.000000	99.794553 
1911.000000	99.794538 
1910.000000	99.794581 
1909.000000	99.793969 
1908.000000	99.792591 
1907.000000	99.791121 
1906.000000	99.790483 
1905.000000	99.791120 
1904.000000	99.792659 
1903.000000	99.794155 
1902.000000	99.794822 
1901.000000	99.794597 
1900.000000	99.793966 
1899.000000	99.793319 
1898.000000	99.792653 
1897.000000	99.791786 
1896.000000	99.790596 
1895.000000	99.789045 
1894.000000	99.787323 
1893.000000	99.785995 
1892.000000	99.785659 
1891.000000	99.786365 
1890.000000	99.787525 
1889.000000	99.788539 
1888.000000	99.789392 
1887.000000	99.790258 
1886.000000	99.790882 
1885.000000	99.790911 
1884.000000	99.790495 
1883.000000	99.790026 
1882.000000	99.789495 
1881.000000	99.788659 
1880.000000	99.787750 
1879.000000	99.787365 
1878.000000	99.787529 
1877.000000	99.787444 
1876.000000	99.786479 
1875.000000	99.785040 
1874.000000	99.784048 
1873.000000	99.783793 
1872.000000	99.783864 
1871.000000	99.784139 
1870.000000	99.785304 
1869.000000	99.787953 
1868.000000	99.791304 
1867.000000	99.793615 
1866.000000	99.794065 
1865.000000	99.793135 
1864.000000	99.791842 
1863.000000	99.790837 
1862.000000	99.790122 
1861.000000	99.789523 
1860.000000	99.789079 
1859.000000	99.788855 
1858.000000	99.788669 
1857.000000	99.788281 
1856.000000	99.787774 
1855.000000	99.787505 
1854.000000	99.787673 
1853.000000	99.788117 
1852.000000	99.788573 
1851.000000	99.788963 
1850.000000	99.789321 
1849.000000	99.789588 
1848.000000	99.789639 
1847.000000	99.789468 
1846.000000	99.789225 
1845.000000	99.789068 
1844.000000	99.788967 
1843.000000	99.788733 
1842.000000	99.788269 
1841.000000	99.787676 
1840.000000	99.787184 
1839.000000	99.787010 
1838.000000	99.787196 
1837.000000	99.787578 
1836.000000	99.787921 
1835.000000	99.788098 
1834.000000	99.788102 
1833.000000	99.787954 
1832.000000	99.787686 
1831.000000	99.787359 
1830.000000	99.787089 
1829.000000	99.786972 
1828.000000	99.787004 
1827.000000	99.787111 
1826.000000	99.787158 
1825.000000	99.787045 
1824.000000	99.786781 
1823.000000	99.786470 
1822.000000	99.786206 
1821.000000	99.786007 
1820.000000	99.785856 
1819.000000	99.785731 
1818.000000	99.785612 
1817.000000	99.785494 
1816.000000	99.785381 
1815.000000	99.785278 
1814.000000	99.785179 
1813.000000	99.785074 
1812.000000	99.784962 
1811.000000	99.784850 
1810.000000	99.784740 
1809.000000	99.784634 
1808.000000	99.784535 
1807.000000	99.784450 
1806.000000	99.784378 
1805.000000	99.784313 
1804.000000	99.784253 
1803.000000	99.784210 
1802.000000	99.784193 
1801.000000	99.784198 
1800.000000	99.784220 
1799.000000	99.784254 
1798.000000	99.784301 
1797.000000	99.784358 
1796.000000	99.784421 
1795.000000	99.784491 
1794.000000	99.784568 
1793.000000	99.784658 
1792.000000	99.784765 
1791.000000	99.784895 
1790.000000	99.785045 
1789.000000	99.785208 
1788.000000	99.785376 
1787.000000	99.785542 
1786.000000	99.785707 
1785.000000	99.785880 
1784.000000	99.786068 
1783.000000	99.786271 
1782.000000	99.786489 
1781.000000	99.786718 
1780.000000	99.786959 
1779.000000	99.787213 
1778.000000	99.787483 
1777.000000	99.787764 
1776.000000	99.788052 
1775.000000	99.788338 
1774.000000	99.788618 
1773.000000	99.788888 
1772.000000	99.789150 
1771.000000	99.789414 
1770.000000	99.789687 
1769.000000	99.789976 
1768.000000	99.790278 
1767.000000	99.790594 
1766.000000	99.790925 
1765.000000	99.791270 
1764.000000	99.791625 
1763.000000	99.791978 
1762.000000	99.792325 
1761.000000	99.792667 
1760.000000	99.793006 
1759.000000	99.793345 
1758.000000	99.793682 
1757.000000	99.794010 
1756.000000	99.794326 
1755.000000	99.794626 
1754.000000	99.794912 
1753.000000	99.795187 
1752.000000	99.795453 
1751.000000	99.795712 
1750.000000	99.795964 
1749.000000	99.796208 
1748.000000	99.796444 
1747.000000	99.796673 
1746.000000	99.796903 
1745.000000	99.797138 
1744.000000	99.797380 
1743.000000	99.797620 
1742.000000	99.797849 
1741.000000	99.798062 
1740.000000	99.798261 
1739.000000	99.798448 
1738.000000	99.798623 
1737.000000	99.798788 
1736.000000	99.798940 
1735.000000	99.799081 
1734.000000	99.799209 
1733.000000	99.799327 
1732.000000	99.799443 
1731.000000	99.799560 
1730.000000	99.799679 
1729.000000	99.799799 
1728.000000	99.799913 
1727.000000	99.800020 
1726.000000	99.800120 
1725.000000	99.800211 
1724.000000	99.800286 
1723.000000	99.800343 
1722.000000	99.800381 
1721.000000	99.800412 
1720.000000	99.800448 
1719.000000	99.800501 
1718.000000	99.800572 
1717.000000	99.800658 
1716.000000	99.800750 
1715.000000	99.800845 
1714.000000	99.800948 
1713.000000	99.801064 
1712.000000	99.801193 
1711.000000	99.801333 
1710.000000	99.801479 
1709.000000	99.801629 
1708.000000	99.801783 
1707.000000	99.801941 
1706.000000	99.802109 
1705.000000	99.802287 
1704.000000	99.802476 
1703.000000	99.802675 
1702.000000	99.802876 
1701.000000	99.803075 
1700.000000	99.803279 
1699.000000	99.803494 
1698.000000	99.803705 
1697.000000	99.803880 
1696.000000	99.804025 
1695.000000	99.804231 
1694.000000	99.804564 
1693.000000	99.804956 
1692.000000	99.805315 
1691.000000	99.805649 
1690.000000	99.806009 
1689.000000	99.806344 
1688.000000	99.806541 
1687.000000	99.806622 
1686.000000	99.806822 
1685.000000	99.807454 
1684.000000	99.808449 
1683.000000	99.809193 
1682.000000	99.809574 
1681.000000	99.809815 
1680.000000	99.810000 
1679.000000	99.810217 
1678.000000	99.810641 
1677.000000	99.811433 
1676.000000	99.812541 
1675.000000	99.813600 
1674.000000	99.814295 
1673.000000	99.814717 
1672.000000	99.815056 
1671.000000	99.815311 
1670.000000	99.815339 
1669.000000	99.815116 
1668.000000	99.814988 
1667.000000	99.815347 
1666.000000	99.816185 
1665.000000	99.817187 
1664.000000	99.818015 
1663.000000	99.818506 
1662.000000	99.818637 
1661.000000	99.818434 
1660.000000	99.818019 
1659.000000	99.817706 
1658.000000	99.817882 
1657.000000	99.818669 
1656.000000	99.819769 
1655.000000	99.820622 
1654.000000	99.820669 
1653.000000	99.819558 
1652.000000	99.817914 
1651.000000	99.816895 
1650.000000	99.816471 
1649.000000	99.816244 
1648.000000	99.816024 
1647.000000	99.815725 
1646.000000	99.815426 
1645.000000	99.815367 
1644.000000	99.815615 
1643.000000	99.815942 
1642.000000	99.816000 
1641.000000	99.815448 
1640.000000	99.814202 
1639.000000	99.812648 
1638.000000	99.811380 
1637.000000	99.810660 
1636.000000	99.810194 
1635.000000	99.809671 
1634.000000	99.809564 
1633.000000	99.810231 
1632.000000	99.811195 
1631.000000	99.811773 
1630.000000	99.811677 
1629.000000	99.811053 
1628.000000	99.810070 
1627.000000	99.808669 
1626.000000	99.806823 
1625.000000	99.804799 
1624.000000	99.803153 
1623.000000	99.802478 
1622.000000	99.802934 
1621.000000	99.804104 
1620.000000	99.805335 
1619.000000	99.806050 
1618.000000	99.805894 
1617.000000	99.804929 
1616.000000	99.803670 
1615.000000	99.802603 
1614.000000	99.801844 
1613.000000	99.801417 
1612.000000	99.801505 
1611.000000	99.802246 
1610.000000	99.803466 
1609.000000	99.804738 
1608.000000	99.805667 
1607.000000	99.806031 
1606.000000	99.805773 
1605.000000	99.805074 
1604.000000	99.804388 
1603.000000	99.804164 
1602.000000	99.804489 
1601.000000	99.805078 
1600.000000	99.805788 
1599.000000	99.806810 
1598.000000	99.808244 
1597.000000	99.809725 
1596.000000	99.810654 
1595.000000	99.810807 
1594.000000	99.810594 
1593.000000	99.810705 
1592.000000	99.811557 
1591.000000	99.813128 
1590.000000	99.815064 
1589.000000	99.816898 
1588.000000	99.818334 
1587.000000	99.819415 
1586.000000	99.820389 
1585.000000	99.821414 
1584.000000	99.822460 
1583.000000	99.823468 
1582.000000	99.824471 
1581.000000	99.825494 
1580.000000	99.826455 
1579.000000	99.827285 
1578.000000	99.828121 
1577.000000	99.829274 
1576.000000	99.830771 
1575.000000	99.832116 
1574.000000	99.832983 
1573.000000	99.833457 
1572.000000	99.833752 
1571.000000	99.834305 
1570.000000	99.835820 
1569.000000	99.838581 
1568.000000	99.841948 
1567.000000	99.844982 
1566.000000	99.847085 
1565.000000	99.848097 
1564.000000	99.848296 
1563.000000	99.848153 
1562.000000	99.847930 
1561.000000	99.847719 
1560.000000	99.848163 
1559.000000	99.850399 
1558.000000	99.853330 
1557.000000	99.855627 
1556.000000	99.857587 
1555.000000	99.859283 
1554.000000	99.860429 
1553.000000	99.860750 
1552.000000	99.860466 
1551.000000	99.860216 
1550.000000	99.860665 
1549.000000	99.861928 
1548.000000	99.863521 
1547.000000	99.865002 
1546.000000	99.866342 
1545.000000	99.867685 
1544.000000	99.868793 
1543.000000	99.869006 
1542.000000	99.867920 
1541.000000	99.865884 
1540.000000	99.863951 
1539.000000	99.863014 
1538.000000	99.863118 
1537.000000	99.863780 
1536.000000	99.864648 
1535.000000	99.865689 
1534.000000	99.866795 
1533.000000	99.867463 
1532.000000	99.867373 
1531.000000	99.866903 
1530.000000	99.866554 
1529.000000	99.866491 
1528.000000	99.866536 
1527.000000	99.866379 
1526.000000	99.865912 
1525.000000	99.865296 
1524.000000	99.864662 
1523.000000	99.864026 
1522.000000	99.863542 
1521.000000	99.863447 
1520.000000	99.863640 
1519.000000	99.863858 
1518.000000	99.864005 
1517.000000	99.864105 
1516.000000	99.864027 
1515.000000	99.863595 
1514.000000	99.862866 
1513.000000	99.862149 
1512.000000	99.861868 
1511.000000	99.862265 
1510.000000	99.863243 
1509.000000	99.864495 
1508.000000	99.865500 
1507.000000	99.865299 
1506.000000	99.863329 
1505.000000	99.860887 
1504.000000	99.859248 
1503.000000	99.858364 
1502.000000	99.857922 
1501.000000	99.857722 
1500.000000	99.857718 
1499.000000	99.857976 
1498.000000	99.858382 
1497.000000	99.858308 
1496.000000	99.857072 
1495.000000	99.854996 
1494.000000	99.853157 
1493.000000	99.852100 
1492.000000	99.851438 
1491.000000	99.850409 
1490.000000	99.848881 
1489.000000	99.847709 
1488.000000	99.847580 
1487.000000	99.848234 
1486.000000	99.849117 
1485.000000	99.850030 
1484.000000	99.851004 
1483.000000	99.851877 
1482.000000	99.852258 
1481.000000	99.851910 
1480.000000	99.851037 
1479.000000	99.850035 
1478.000000	99.849188 
1477.000000	99.848697 
1476.000000	99.848645 
1475.000000	99.848749 
1474.000000	99.848394 
1473.000000	99.847251 
1472.000000	99.845917 
1471.000000	99.845350 
1470.000000	99.845738 
1469.000000	99.846642 
1468.000000	99.847634 
1467.000000	99.848470 
1466.000000	99.848935 
1465.000000	99.848852 
1464.000000	99.848394 
1463.000000	99.848006 
1462.000000	99.847779 
1461.000000	99.847376 
1460.000000	99.846581 
1459.000000	99.845595 
1458.000000	99.844799 
1457.000000	99.844210 
1456.000000	99.843667 
1455.000000	99.843539 
1454.000000	99.844129 
1453.000000	99.845142 
1452.000000	99.845842 
1451.000000	99.845622 
1450.000000	99.844531 
1449.000000	99.843181 
1448.000000	99.842195 
1447.000000	99.841720 
1446.000000	99.841490 
1445.000000	99.841236 
1444.000000	99.840830 
1443.000000	99.840195 
1442.000000	99.839273 
1441.000000	99.838111 
1440.000000	99.836915 
1439.000000	99.835944 
1438.000000	99.835371 
1437.000000	99.835283 
1436.000000	99.835703 
1435.000000	99.836595 
1434.000000	99.837777 
1433.000000	99.838798 
1432.000000	99.839097 
1431.000000	99.838430 
1430.000000	99.837116 
1429.000000	99.835714 
1428.000000	99.834596 
1427.000000	99.833926 
1426.000000	99.833733 
1425.000000	99.833975 
1424.000000	99.834601 
1423.000000	99.835542 
1422.000000	99.836625 
1421.000000	99.837463 
1420.000000	99.837612 
1419.000000	99.836991 
1418.000000	99.835824 
1417.000000	99.834179 
1416.000000	99.832075 
1415.000000	99.830001 
1414.000000	99.828740 
1413.000000	99.828382 
1412.000000	99.828048 
1411.000000	99.827059 
1410.000000	99.826067 
1409.000000	99.826310 
1408.000000	99.828065 
1407.000000	99.830330 
1406.000000	99.831839 
1405.000000	99.832210 
1404.000000	99.832153 
1403.000000	99.832615 
1402.000000	99.833806 
1401.000000	99.835174 
1400.000000	99.836077 
1399.000000	99.836420 
1398.000000	99.836569 
1397.000000	99.836632 
1396.000000	99.836300 
1395.000000	99.835589 
1394.000000	99.835193 
1393.000000	99.835679 
1392.000000	99.836880 
1391.000000	99.838361 
1390.000000	99.839984 
1389.000000	99.841839 
1388.000000	99.843831 
1387.000000	99.845524 
1386.000000	99.846465 
1385.000000	99.846515 
1384.000000	99.845877 
1383.000000	99.845096 
1382.000000	99.844877 
1381.000000	99.845533 
1380.000000	99.846768 
1379.000000	99.848086 
1378.000000	99.849237 
1377.000000	99.850175 
1376.000000	99.850840 
1375.000000	99.851238 
1374.000000	99.851574 
1373.000000	99.852031 
1372.000000	99.852523 
1371.000000	99.852924 
1370.000000	99.853333 
1369.000000	99.853964 
1368.000000	99.854845 
1367.000000	99.855788 
1366.000000	99.856609 
1365.000000	99.857259 
1364.000000	99.857781 
1363.000000	99.858232 
1362.000000	99.858673 
1361.000000	99.859152 
1360.000000	99.859691 
1359.000000	99.860283 
1358.000000	99.860892 
1357.000000	99.861436 
1356.000000	99.861841 
1355.000000	99.862118 
1354.000000	99.862376 
1353.000000	99.862721 
1352.000000	99.863161 
1351.000000	99.863643 
1350.000000	99.864109 
1349.000000	99.864504 
1348.000000	99.864786 
1347.000000	99.864978 
1346.000000	99.865166 
1345.000000	99.865403 
1344.000000	99.865632 
1343.000000	99.865764 
1342.000000	99.865809 
1341.000000	99.865873 
1340.000000	99.866008 
1339.000000	99.866124 
1338.000000	99.866132 
1337.000000	99.866096 
1336.000000	99.866157 
1335.000000	99.866380 
1334.000000	99.866705 
1333.000000	99.866979 
1332.000000	99.867074 
1331.000000	99.866964 
1330.000000	99.866738 
1329.000000	99.866530 
1328.000000	99.866404 
1327.000000	99.866365 
1326.000000	99.866432 
1325.000000	99.866632 
1324.000000	99.866904 
1323.000000	99.867085 
1322.000000	99.867069 
1321.000000	99.866936 
1320.000000	99.866844 
1319.000000	99.866797 
1318.000000	99.866629 
1317.000000	99.866274 
1316.000000	99.865928 
1315.000000	99.865887 
1314.000000	99.866226 
1313.000000	99.866705 
1312.000000	99.867003 
1311.000000	99.867036 
1310.000000	99.866938 
1309.000000	99.866823 
1308.000000	99.866679 
1307.000000	99.866524 
1306.000000	99.866511 
1305.000000	99.866785 
1304.000000	99.867273 
1303.000000	99.867714 
1302.000000	99.867843 
1301.000000	99.867487 
1300.000000	99.866646 
1299.000000	99.865663 
1298.000000	99.865144 
1297.000000	99.865445 
1296.000000	99.866248 
1295.000000	99.866830 
1294.000000	99.866828 
1293.000000	99.866527 
1292.000000	99.866437 
1291.000000	99.866818 
1290.000000	99.867562 
1289.000000	99.868261 
1288.000000	99.868360 
1287.000000	99.867580 
1286.000000	99.866348 
1285.000000	99.865552 
1284.000000	99.865663 
1283.000000	99.866254 
1282.000000	99.866443 
1281.000000	99.865693 
1280.000000	99.864262 
1279.000000	99.863215 
1278.000000	99.863782 
1277.000000	99.866007 
1276.000000	99.867993 
1275.000000	99.867442 
1274.000000	99.864327 
1273.000000	99.861258 
1272.000000	99.860553 
1271.000000	99.861822 
1270.000000	99.863242 
1269.000000	99.864283 
1268.000000	99.865849 
1267.000000	99.868224 
1266.000000	99.870338 
1265.000000	99.871171 
1264.000000	99.870803 
1263.000000	99.869739 
1262.000000	99.867942 
1261.000000	99.865093 
1260.000000	99.861470 
1259.000000	99.858106 
1258.000000	99.855926 
1257.000000	99.854905 
1256.000000	99.854277 
1255.000000	99.853524 
1254.000000	99.852934 
1253.000000	99.853069 
1252.000000	99.854033 
1251.000000	99.855572 
1250.000000	99.857533 
1249.000000	99.859595 
1248.000000	99.860757 
1247.000000	99.859954 
1246.000000	99.857315 
1245.000000	99.854097 
1244.000000	99.851081 
1243.000000	99.847827 
1242.000000	99.844099 
1241.000000	99.841346 
1240.000000	99.841755 
1239.000000	99.845697 
1238.000000	99.850720 
1237.000000	99.853431 
1236.000000	99.852184 
1235.000000	99.847889 
1234.000000	99.842559 
1233.000000	99.837290 
1232.000000	99.831711 
1231.000000	99.825233 
1230.000000	99.818362 
1229.000000	99.812411 
1228.000000	99.807861 
1227.000000	99.803276 
1226.000000	99.796224 
1225.000000	99.785419 
1224.000000	99.771950 
1223.000000	99.758322 
1222.000000	99.746143 
1221.000000	99.734783 
1220.000000	99.722400 
1219.000000	99.707997 
1218.000000	99.692184 
1217.000000	99.676129 
1216.000000	99.660262 
1215.000000	99.644122 
1214.000000	99.627075 
1213.000000	99.608898 
1212.000000	99.589809 
1211.000000	99.570112 
1210.000000	99.549895 
1209.000000	99.529231 
1208.000000	99.508707 
1207.000000	99.489355 
1206.000000	99.471677 
1205.000000	99.454971 
1204.000000	99.438012 
1203.000000	99.420247 
1202.000000	99.401977 
1201.000000	99.383584 
1200.000000	99.365056 
1199.000000	99.346291 
1198.000000	99.327512 
1197.000000	99.309211 
1196.000000	99.291664 
1195.000000	99.274409 
1194.000000	99.256341 
1193.000000	99.236772 
1192.000000	99.216328 
1191.000000	99.196223 
1190.000000	99.176566 
1189.000000	99.156159 
1188.000000	99.134218 
1187.000000	99.111382 
1186.000000	99.088515 
1185.000000	99.065398 
1184.000000	99.041511 
1183.000000	99.017525 
1182.000000	98.994984 
1181.000000	98.974529 
1180.000000	98.954983 
1179.000000	98.934029 
1178.000000	98.909608 
1177.000000	98.881236 
1176.000000	98.850523 
1175.000000	98.820063 
1174.000000	98.791333 
1173.000000	98.763808 
1172.000000	98.736032 
1171.000000	98.706803 
1170.000000	98.675492 
1169.000000	98.642763 
1168.000000	98.611527 
1167.000000	98.585760 
1166.000000	98.567494 
1165.000000	98.556042 
1164.000000	98.550638 
1163.000000	98.552187 
1162.000000	98.561270 
1161.000000	98.575801 
1160.000000	98.591752 
1159.000000	98.604984 
1158.000000	98.611466 
1157.000000	98.607627 
1156.000000	98.592774 
1155.000000	98.570672 
1154.000000	98.546803 
1153.000000	98.523862 
1152.000000	98.501116 
1151.000000	98.477382 
1150.000000	98.452549 
1149.000000	98.426575 
1148.000000	98.399423 
1147.000000	98.372498 
1146.000000	98.348136 
1145.000000	98.326692 
1144.000000	98.305539 
1143.000000	98.281976 
1142.000000	98.256209 
1141.000000	98.230467 
1140.000000	98.205693 
1139.000000	98.180157 
1138.000000	98.151471 
1137.000000	98.119378 
1136.000000	98.086174 
1135.000000	98.054557 
1134.000000	98.025446 
1133.000000	97.997989 
1132.000000	97.970990 
1131.000000	97.943693 
1130.000000	97.915849 
1129.000000	97.888119 
1128.000000	97.861890 
1127.000000	97.837195 
1126.000000	97.811077 
1125.000000	97.779882 
1124.000000	97.743371 
1123.000000	97.704961 
1122.000000	97.667698 
1121.000000	97.632018 
1120.000000	97.598105 
1119.000000	97.567888 
1118.000000	97.542820 
1117.000000	97.521184 
1116.000000	97.499236 
1115.000000	97.474216 
1114.000000	97.445305 
1113.000000	97.412876 
1112.000000	97.378230 
1111.000000	97.343458 
1110.000000	97.310394 
1109.000000	97.279943 
1108.000000	97.252425 
1107.000000	97.227393 
1106.000000	97.203061 
1105.000000	97.177491 
1104.000000	97.150779 
1103.000000	97.124680 
1102.000000	97.100050 
1101.000000	97.076407 
1100.000000	97.053950 
1099.000000	97.033558 
1098.000000	97.014533 
1097.000000	96.994761 
1096.000000	96.973810 
1095.000000	96.953628 
1094.000000	96.935595 
1093.000000	96.919192 
1092.000000	96.903921 
1091.000000	96.889827 
1090.000000	96.875546 
1089.000000	96.858696 
1088.000000	96.839182 
1087.000000	96.819578 
1086.000000	96.801547 
1085.000000	96.784577 
1084.000000	96.768989 
1083.000000	96.756958 
1082.000000	96.749165 
1081.000000	96.743139 
1080.000000	96.736173 
1079.000000	96.727361 
1078.000000	96.715994 
1077.000000	96.700968 
1076.000000	96.682844 
1075.000000	96.663545 
1074.000000	96.643068 
1073.000000	96.619623 
1072.000000	96.593617 
1071.000000	96.567194 
1070.000000	96.538380 
1069.000000	96.500682 
1068.000000	96.451706 
1067.000000	96.398446 
1066.000000	96.350179 
1065.000000	96.308180 
1064.000000	96.266179 
1063.000000	96.218774 
1062.000000	96.165935 
1061.000000	96.111274 
1060.000000	96.059422 
1059.000000	96.013996 
1058.000000	95.975248 
1057.000000	95.940151 
1056.000000	95.906023 
1055.000000	95.872342 
1054.000000	95.837815 
1053.000000	95.798399 
1052.000000	95.750815 
1051.000000	95.696361 
1050.000000	95.639173 
1049.000000	95.582515 
1048.000000	95.528233 
1047.000000	95.476618 
1046.000000	95.424799 
1045.000000	95.368768 
1044.000000	95.309193 
1043.000000	95.252019 
1042.000000	95.200949 
1041.000000	95.152560 
1040.000000	95.101797 
1039.000000	95.049521 
1038.000000	95.001274 
1037.000000	94.960776 
1036.000000	94.927981 
1035.000000	94.901671 
1034.000000	94.880633 
1033.000000	94.863159 
1032.000000	94.847693 
1031.000000	94.833381 
1030.000000	94.819088 
1029.000000	94.803679 
1028.000000	94.788494 
1027.000000	94.777412 
1026.000000	94.772685 
1025.000000	94.772240 
1024.000000	94.772477 
1023.000000	94.772132 
1022.000000	94.771975 
1021.000000	94.772067 
1020.000000	94.770601 
1019.000000	94.765016 
1018.000000	94.754425 
1017.000000	94.741888 
1016.000000	94.733299 
1015.000000	94.732057 
1014.000000	94.735460 
1013.000000	94.738387 
1012.000000	94.739316 
1011.000000	94.739867 
1010.000000	94.740037 
1009.000000	94.738085 
1008.000000	94.734658 
1007.000000	94.732724 
1006.000000	94.733386 
1005.000000	94.735941 
1004.000000	94.742137 
1003.000000	94.755559 
1002.000000	94.775700 
1001.000000	94.796939 
1000.000000	94.814994 
999.000000	 94.830830 
998.000000	 94.847007 
997.000000	 94.864018 
996.000000	 94.881869 
995.000000	 94.901788 
994.000000	 94.924269 
993.000000	 94.947822 
992.000000	 94.971205 
991.000000	 94.995063 
990.000000	 95.020836 
989.000000	 95.049958 
988.000000	 95.083719 
987.000000	 95.121121 
986.000000	 95.157672 
985.000000	 95.190343 
984.000000	 95.223501 
983.000000	 95.265256 
982.000000	 95.317374 
981.000000	 95.373124 
980.000000	 95.426190 
979.000000	 95.477722 
978.000000	 95.532910 
977.000000	 95.594453 
976.000000	 95.661255 
975.000000	 95.730083 
974.000000	 95.796656 
973.000000	 95.858121 
972.000000	 95.916215 
971.000000	 95.975593 
970.000000	 96.038004 
969.000000	 96.100980 
968.000000	 96.163129 
967.000000	 96.226735 
966.000000	 96.292971 
965.000000	 96.358254 
964.000000	 96.418688 
963.000000	 96.475616 
962.000000	 96.533221 
961.000000	 96.591926 
960.000000	 96.647717 
959.000000	 96.697881 
958.000000	 96.744578 
957.000000	 96.791988 
956.000000	 96.841558 
955.000000	 96.890997 
954.000000	 96.937263 
953.000000	 96.979640 
952.000000	 97.019397 
951.000000	 97.056709 
950.000000	 97.089451 
949.000000	 97.116440 
948.000000	 97.140753 
947.000000	 97.167091 
946.000000	 97.195592 
945.000000	 97.221165 
944.000000	 97.240345 
943.000000	 97.256412 
942.000000	 97.275826 
941.000000	 97.301009 
940.000000	 97.328667 
939.000000	 97.354033 
938.000000	 97.374622 
937.000000	 97.390722 
936.000000	 97.404601 
935.000000	 97.419412 
934.000000	 97.437305 
933.000000	 97.458100 
932.000000	 97.480252 
931.000000	 97.502442 
930.000000	 97.523529 
929.000000	 97.542230 
928.000000	 97.558554 
927.000000	 97.575062 
926.000000	 97.594921 
925.000000	 97.618668 
924.000000	 97.644060 
923.000000	 97.668681 
922.000000	 97.691003 
921.000000	 97.709098 
920.000000	 97.720772 
919.000000	 97.726553 
918.000000	 97.731261 
917.000000	 97.740584 
916.000000	 97.755936 
915.000000	 97.773806 
914.000000	 97.790565 
913.000000	 97.807156 
912.000000	 97.827982 
911.000000	 97.855443 
910.000000	 97.887095 
909.000000	 97.919314 
908.000000	 97.952751 
907.000000	 97.991850 
906.000000	 98.038719 
905.000000	 98.089637 
904.000000	 98.138687 
903.000000	 98.183428 
902.000000	 98.225604 
901.000000	 98.267665 
900.000000	 98.310924 
899.000000	 98.356496 
898.000000	 98.404990 
897.000000	 98.454252 
896.000000	 98.499696 
895.000000	 98.538702 
894.000000	 98.573618 
893.000000	 98.608972 
892.000000	 98.646726 
891.000000	 98.685587 
890.000000	 98.723362 
889.000000	 98.757801 
888.000000	 98.786604 
887.000000	 98.810168 
886.000000	 98.834243 
885.000000	 98.865983 
884.000000	 98.905701 
883.000000	 98.945279 
882.000000	 98.976865 
881.000000	 99.001195 
880.000000	 99.025202 
879.000000	 99.052925 
878.000000	 99.081477 
877.000000	 99.106165 
876.000000	 99.127328 
875.000000	 99.150767 
874.000000	 99.181668 
873.000000	 99.218824 
872.000000	 99.255748 
871.000000	 99.287376 
870.000000	 99.314019 
869.000000	 99.338006 
868.000000	 99.359231 
867.000000	 99.377086 
866.000000	 99.394853 
865.000000	 99.417451 
864.000000	 99.444749 
863.000000	 99.471626 
862.000000	 99.495594 
861.000000	 99.519913 
860.000000	 99.547172 
859.000000	 99.574011 
858.000000	 99.595432 
857.000000	 99.611420 
856.000000	 99.626297 
855.000000	 99.643913 
854.000000	 99.665787 
853.000000	 99.691034 
852.000000	 99.715086 
851.000000	 99.731378 
850.000000	 99.738155 
849.000000	 99.741644 
848.000000	 99.749098 
847.000000	 99.760566 
846.000000	 99.770659 
845.000000	 99.776113 
844.000000	 99.777767 
843.000000	 99.777096 
842.000000	 99.775309 
841.000000	 99.774898 
840.000000	 99.777732 
839.000000	 99.781391 
838.000000	 99.780382 
837.000000	 99.771157 
836.000000	 99.754179 
835.000000	 99.732554 
834.000000	 99.711145 
833.000000	 99.695190 
832.000000	 99.686292 
831.000000	 99.680821 
830.000000	 99.675710 
829.000000	 99.674294 
828.000000	 99.681547 
827.000000	 99.694620 
826.000000	 99.704974 
825.000000	 99.710874 
824.000000	 99.719940 
823.000000	 99.736482 
822.000000	 99.754385 
821.000000	 99.766976 
820.000000	 99.775938 
819.000000	 99.784590 
818.000000	 99.788417 
817.000000	 99.779015 
816.000000	 99.755036 
815.000000	 99.723605 
814.000000	 99.690934 
813.000000	 99.655729 
812.000000	 99.612740 
811.000000	 99.558311 
810.000000	 99.489767 
809.000000	 99.402739 
808.000000	 99.293750 
807.000000	 99.165513 
806.000000	 99.026638 
805.000000	 98.885458 
804.000000	 98.746554 
803.000000	 98.613544 
802.000000	 98.491986 
801.000000	 98.388041 
800.000000	 98.306414 
799.000000	 98.250710 
798.000000	 98.223787 
797.000000	 98.225758 
796.000000	 98.251556 
795.000000	 98.291530 
794.000000	 98.335596 
793.000000	 98.377220 
792.000000	 98.413526 
791.000000	 98.443016 
790.000000	 98.464425 
789.000000	 98.476370 
788.000000	 98.476321 
787.000000	 98.461242 
786.000000	 98.431351 
785.000000	 98.391653 
784.000000	 98.347061 
783.000000	 98.297635 
782.000000	 98.242545 
781.000000	 98.188255 
780.000000	 98.147637 
779.000000	 98.129034 
778.000000	 98.129828 
777.000000	 98.143016 
776.000000	 98.166538 
775.000000	 98.202778 
774.000000	 98.252124 
773.000000	 98.311377 
772.000000	 98.376354 
771.000000	 98.441618 
770.000000	 98.499157 
769.000000	 98.542017 
768.000000	 98.569581 
767.000000	 98.587127 
766.000000	 98.600954 
765.000000	 98.615844 
764.000000	 98.635403 
763.000000	 98.660747 
762.000000	 98.688232 
761.000000	 98.711523 
760.000000	 98.727354 
759.000000	 98.738399 
758.000000	 98.750705 
757.000000	 98.769427 
756.000000	 98.796424 
755.000000	 98.829805 
754.000000	 98.865047 
753.000000	 98.897364 
752.000000	 98.923228 
751.000000	 98.940478 
750.000000	 98.949602 
749.000000	 98.956052 
748.000000	 98.968593 
747.000000	 98.992397 
746.000000	 99.024335 
745.000000	 99.057231 
744.000000	 99.087593 
743.000000	 99.116528 
742.000000	 99.144622 
741.000000	 99.170362 
740.000000	 99.194186 
739.000000	 99.220209 
738.000000	 99.251730 
737.000000	 99.286943 
736.000000	 99.320883 
735.000000	 99.350083 
734.000000	 99.373723 
733.000000	 99.391848 
732.000000	 99.404784 
731.000000	 99.413873 
730.000000	 99.420734 
729.000000	 99.425396 
728.000000	 99.426875 
727.000000	 99.426630 
726.000000	 99.430341 
725.000000	 99.444681 
724.000000	 99.471778 
723.000000	 99.506931 
722.000000	 99.541543 
721.000000	 99.568525 
720.000000	 99.586109 
719.000000	 99.597617 
718.000000	 99.607337 
717.000000	 99.616117 
716.000000	 99.621383 
715.000000	 99.621757 
714.000000	 99.620852 
713.000000	 99.625305 
712.000000	 99.638774 
711.000000	 99.658462 
710.000000	 99.677313 
709.000000	 99.688821 
708.000000	 99.690249 
707.000000	 99.683132 
706.000000	 99.671648 
705.000000	 99.659721 
704.000000	 99.648602 
703.000000	 99.636420 
702.000000	 99.618756 
701.000000	 99.589053 
700.000000	 99.540566 
699.000000	 99.471276 
698.000000	 99.388390 
697.000000	 99.307213 
696.000000	 99.244746 
695.000000	 99.213028 
694.000000	 99.215276 
693.000000	 99.244855 
692.000000	 99.287834 
691.000000	 99.330298 
690.000000	 99.365797 
689.000000	 99.395311 
688.000000	 99.421541 
687.000000	 99.446707 
686.000000	 99.474263 
685.000000	 99.506041 
684.000000	 99.536065 
683.000000	 99.553510 
682.000000	 99.555588 
681.000000	 99.552926 
680.000000	 99.557996 
679.000000	 99.572102 
678.000000	 99.588774 
677.000000	 99.605663 
676.000000	 99.625385 
675.000000	 99.646947 
674.000000	 99.665237 
673.000000	 99.679354 
672.000000	 99.693870 
671.000000	 99.710703 
670.000000	 99.725286 
669.000000	 99.731091 
668.000000	 99.726992 
667.000000	 99.723337 
666.000000	 99.730623 
665.000000	 99.747888 
664.000000	 99.772159 
663.000000	 99.798975 
662.000000	 99.818506 
661.000000	 99.821013 
660.000000	 99.805025 
659.000000	 99.779177 
658.000000	 99.758633 
657.000000	 99.756817 
656.000000	 99.777406 
655.000000	 99.811773 
654.000000	 99.843717 
653.000000	 99.861637 
652.000000	 99.866114 
651.000000	 99.866370 
650.000000	 99.871297 

