4000.000000	99.253317 
3999.000000	99.252852 
3998.000000	99.253090 
3997.000000	99.255053 
3996.000000	99.257481 
3995.000000	99.258031 
3994.000000	99.256060 
3993.000000	99.253499 
3992.000000	99.252603 
3991.000000	99.253332 
3990.000000	99.253567 
3989.000000	99.251557 
3988.000000	99.247566 
3987.000000	99.243364 
3986.000000	99.240740 
3985.000000	99.240489 
3984.000000	99.242202 
3983.000000	99.244931 
3982.000000	99.248223 
3981.000000	99.252424 
3980.000000	99.257820 
3979.000000	99.263700 
3978.000000	99.268651 
3977.000000	99.271665 
3976.000000	99.272543 
3975.000000	99.271190 
3974.000000	99.267196 
3973.000000	99.260626 
3972.000000	99.253081 
3971.000000	99.247335 
3970.000000	99.245788 
3969.000000	99.248857 
3968.000000	99.254535 
3967.000000	99.259661 
3966.000000	99.261958 
3965.000000	99.261277 
3964.000000	99.258938 
3963.000000	99.256461 
3962.000000	99.254911 
3961.000000	99.254799 
3960.000000	99.255714 
3959.000000	99.256028 
3958.000000	99.254369 
3957.000000	99.251575 
3956.000000	99.250121 
3955.000000	99.251257 
3954.000000	99.253344 
3953.000000	99.253753 
3952.000000	99.251509 
3951.000000	99.247976 
3950.000000	99.245065 
3949.000000	99.242989 
3948.000000	99.240421 
3947.000000	99.237124 
3946.000000	99.235338 
3945.000000	99.237262 
3944.000000	99.241822 
3943.000000	99.245243 
3942.000000	99.245365 
3941.000000	99.244244 
3940.000000	99.244826 
3939.000000	99.246276 
3938.000000	99.245503 
3937.000000	99.241818 
3936.000000	99.237709 
3935.000000	99.235591 
3934.000000	99.235387 
3933.000000	99.236310 
3932.000000	99.238547 
3931.000000	99.242212 
3930.000000	99.245867 
3929.000000	99.247097 
3928.000000	99.245220 
3927.000000	99.241691 
3926.000000	99.237747 
3925.000000	99.233429 
3924.000000	99.229451 
3923.000000	99.227607 
3922.000000	99.227396 
3921.000000	99.226009 
3920.000000	99.223422 
3919.000000	99.223365 
3918.000000	99.227419 
3917.000000	99.232160 
3916.000000	99.234363 
3915.000000	99.235719 
3914.000000	99.239201 
3913.000000	99.243888 
3912.000000	99.246565 
3911.000000	99.245242 
3910.000000	99.240051 
3909.000000	99.232642 
3908.000000	99.225260 
3907.000000	99.220460 
3906.000000	99.218895 
3905.000000	99.218434 
3904.000000	99.216082 
3903.000000	99.213059 
3902.000000	99.214188 
3901.000000	99.219900 
3900.000000	99.223846 
3899.000000	99.221293 
3898.000000	99.215197 
3897.000000	99.210721 
3896.000000	99.208425 
3895.000000	99.206897 
3894.000000	99.208956 
3893.000000	99.218021 
3892.000000	99.229252 
3891.000000	99.232038 
3890.000000	99.226229 
3889.000000	99.223779 
3888.000000	99.229316 
3887.000000	99.235691 
3886.000000	99.234266 
3885.000000	99.224254 
3884.000000	99.216845 
3883.000000	99.221588 
3882.000000	99.232335 
3881.000000	99.237393 
3880.000000	99.232049 
3879.000000	99.222306 
3878.000000	99.219938 
3877.000000	99.227735 
3876.000000	99.236683 
3875.000000	99.236414 
3874.000000	99.224150 
3873.000000	99.209737 
3872.000000	99.205103 
3871.000000	99.207680 
3870.000000	99.204346 
3869.000000	99.193602 
3868.000000	99.192330 
3867.000000	99.207832 
3866.000000	99.223950 
3865.000000	99.227692 
3864.000000	99.224449 
3863.000000	99.224434 
3862.000000	99.228940 
3861.000000	99.231337 
3860.000000	99.226898 
3859.000000	99.215190 
3858.000000	99.196680 
3857.000000	99.175321 
3856.000000	99.160954 
3855.000000	99.165558 
3854.000000	99.182802 
3853.000000	99.185374 
3852.000000	99.175734 
3851.000000	99.186187 
3850.000000	99.213668 
3849.000000	99.233238 
3848.000000	99.239160 
3847.000000	99.239001 
3846.000000	99.238121 
3845.000000	99.236483 
3844.000000	99.232350 
3843.000000	99.224461 
3842.000000	99.214782 
3841.000000	99.207987 
3840.000000	99.206966 
3839.000000	99.210702 
3838.000000	99.214649 
3837.000000	99.215576 
3836.000000	99.215490 
3835.000000	99.218628 
3834.000000	99.225149 
3833.000000	99.231705 
3832.000000	99.234548 
3831.000000	99.233065 
3830.000000	99.230995 
3829.000000	99.231772 
3828.000000	99.233531 
3827.000000	99.230271 
3826.000000	99.219515 
3825.000000	99.208629 
3824.000000	99.208045 
3823.000000	99.219294 
3822.000000	99.231645 
3821.000000	99.228774 
3820.000000	99.212187 
3819.000000	99.206305 
3818.000000	99.218643 
3817.000000	99.231816 
3816.000000	99.231336 
3815.000000	99.220442 
3814.000000	99.216607 
3813.000000	99.224630 
3812.000000	99.229426 
3811.000000	99.223121 
3810.000000	99.215107 
3809.000000	99.216153 
3808.000000	99.223783 
3807.000000	99.224097 
3806.000000	99.212424 
3805.000000	99.203248 
3804.000000	99.207348 
3803.000000	99.217584 
3802.000000	99.220971 
3801.000000	99.209450 
3800.000000	99.194717 
3799.000000	99.196643 
3798.000000	99.210312 
3797.000000	99.219194 
3796.000000	99.219304 
3795.000000	99.218090 
3794.000000	99.223066 
3793.000000	99.232811 
3792.000000	99.241225 
3791.000000	99.245114 
3790.000000	99.244565 
3789.000000	99.240756 
3788.000000	99.237000 
3787.000000	99.237669 
3786.000000	99.243479 
3785.000000	99.249454 
3784.000000	99.251184 
3783.000000	99.250534 
3782.000000	99.251901 
3781.000000	99.255178 
3780.000000	99.255875 
3779.000000	99.250595 
3778.000000	99.242370 
3777.000000	99.237497 
3776.000000	99.236185 
3775.000000	99.233558 
3774.000000	99.228716 
3773.000000	99.226721 
3772.000000	99.230532 
3771.000000	99.235288 
3770.000000	99.233592 
3769.000000	99.226646 
3768.000000	99.224121 
3767.000000	99.230154 
3766.000000	99.237348 
3765.000000	99.238141 
3764.000000	99.234981 
3763.000000	99.235721 
3762.000000	99.241438 
3761.000000	99.246384 
3760.000000	99.247789 
3759.000000	99.246644 
3758.000000	99.242527 
3757.000000	99.234282 
3756.000000	99.223648 
3755.000000	99.214329 
3754.000000	99.207481 
3753.000000	99.203593 
3752.000000	99.204187 
3751.000000	99.204696 
3750.000000	99.194045 
3749.000000	99.172454 
3748.000000	99.156146 
3747.000000	99.157024 
3746.000000	99.171870 
3745.000000	99.186558 
3744.000000	99.183395 
3743.000000	99.171803 
3742.000000	99.179485 
3741.000000	99.197229 
3740.000000	99.200902 
3739.000000	99.192936 
3738.000000	99.187957 
3737.000000	99.191057 
3736.000000	99.196384 
3735.000000	99.201437 
3734.000000	99.209903 
3733.000000	99.220146 
3732.000000	99.224290 
3731.000000	99.222080 
3730.000000	99.221872 
3729.000000	99.226290 
3728.000000	99.229275 
3727.000000	99.226766 
3726.000000	99.222286 
3725.000000	99.222264 
3724.000000	99.227399 
3723.000000	99.231716 
3722.000000	99.231891 
3721.000000	99.230884 
3720.000000	99.232999 
3719.000000	99.237489 
3718.000000	99.238518 
3717.000000	99.231548 
3716.000000	99.217892 
3715.000000	99.202118 
3714.000000	99.187588 
3713.000000	99.177390 
3712.000000	99.173570 
3711.000000	99.175028 
3710.000000	99.180474 
3709.000000	99.188580 
3708.000000	99.194594 
3707.000000	99.193757 
3706.000000	99.186426 
3705.000000	99.177627 
3704.000000	99.172405 
3703.000000	99.172421 
3702.000000	99.174896 
3701.000000	99.175687 
3700.000000	99.175181 
3699.000000	99.176023 
3698.000000	99.175925 
3697.000000	99.169931 
3696.000000	99.158583 
3695.000000	99.148133 
3694.000000	99.142269 
3693.000000	99.138509 
3692.000000	99.134379 
3691.000000	99.131477 
3690.000000	99.131139 
3689.000000	99.129999 
3688.000000	99.126166 
3687.000000	99.126646 
3686.000000	99.136434 
3685.000000	99.147764 
3684.000000	99.151045 
3683.000000	99.147310 
3682.000000	99.143178 
3681.000000	99.139158 
3680.000000	99.128574 
3679.000000	99.110335 
3678.000000	99.093830 
3677.000000	99.087350 
3676.000000	99.084978 
3675.000000	99.072714 
3674.000000	99.059228 
3673.000000	99.064076 
3672.000000	99.079669 
3671.000000	99.090229 
3670.000000	99.092548 
3669.000000	99.089769 
3668.000000	99.090972 
3667.000000	99.098631 
3666.000000	99.104622 
3665.000000	99.105310 
3664.000000	99.104191 
3663.000000	99.104291 
3662.000000	99.104080 
3661.000000	99.100476 
3660.000000	99.093772 
3659.000000	99.088531 
3658.000000	99.088155 
3657.000000	99.089425 
3656.000000	99.084840 
3655.000000	99.074999 
3654.000000	99.069347 
3653.000000	99.070121 
3652.000000	99.072580 
3651.000000	99.075743 
3650.000000	99.078860 
3649.000000	99.076037 
3648.000000	99.067044 
3647.000000	99.060508 
3646.000000	99.062828 
3645.000000	99.072626 
3644.000000	99.083959 
3643.000000	99.091489 
3642.000000	99.093703 
3641.000000	99.093103 
3640.000000	99.093193 
3639.000000	99.095430 
3638.000000	99.099333 
3637.000000	99.105345 
3636.000000	99.112654 
3635.000000	99.115349 
3634.000000	99.106369 
3633.000000	99.086757 
3632.000000	99.066836 
3631.000000	99.056904 
3630.000000	99.060228 
3629.000000	99.066029 
3628.000000	99.061356 
3627.000000	99.056521 
3626.000000	99.062730 
3625.000000	99.070132 
3624.000000	99.070166 
3623.000000	99.065745 
3622.000000	99.062622 
3621.000000	99.063372 
3620.000000	99.067118 
3619.000000	99.070967 
3618.000000	99.073827 
3617.000000	99.078929 
3616.000000	99.087516 
3615.000000	99.095251 
3614.000000	99.096839 
3613.000000	99.090827 
3612.000000	99.081589 
3611.000000	99.076054 
3610.000000	99.077805 
3609.000000	99.085343 
3608.000000	99.094398 
3607.000000	99.101519 
3606.000000	99.106043 
3605.000000	99.108379 
3604.000000	99.109228 
3603.000000	99.110440 
3602.000000	99.113229 
3601.000000	99.116744 
3600.000000	99.120208 
3599.000000	99.124349 
3598.000000	99.128994 
3597.000000	99.132439 
3596.000000	99.133578 
3595.000000	99.132253 
3594.000000	99.129123 
3593.000000	99.126445 
3592.000000	99.127414 
3591.000000	99.133230 
3590.000000	99.142331 
3589.000000	99.150800 
3588.000000	99.153428 
3587.000000	99.147940 
3586.000000	99.140109 
3585.000000	99.137583 
3584.000000	99.140127 
3583.000000	99.142581 
3582.000000	99.141879 
3581.000000	99.138037 
3580.000000	99.132285 
3579.000000	99.126084 
3578.000000	99.120852 
3577.000000	99.117829 
3576.000000	99.118023 
3575.000000	99.120985 
3574.000000	99.124241 
3573.000000	99.124699 
3572.000000	99.121254 
3571.000000	99.115737 
3570.000000	99.111246 
3569.000000	99.109503 
3568.000000	99.109544 
3567.000000	99.109558 
3566.000000	99.110669 
3565.000000	99.116089 
3564.000000	99.124355 
3563.000000	99.129899 
3562.000000	99.130264 
3561.000000	99.127974 
3560.000000	99.126478 
3559.000000	99.126618 
3558.000000	99.126842 
3557.000000	99.125666 
3556.000000	99.123706 
3555.000000	99.123155 
3554.000000	99.125028 
3553.000000	99.127471 
3552.000000	99.127437 
3551.000000	99.124064 
3550.000000	99.119083 
3549.000000	99.114546 
3548.000000	99.111766 
3547.000000	99.111470 
3546.000000	99.113112 
3545.000000	99.115242 
3544.000000	99.117317 
3543.000000	99.119858 
3542.000000	99.122802 
3541.000000	99.124882 
3540.000000	99.125228 
3539.000000	99.124788 
3538.000000	99.125252 
3537.000000	99.126906 
3536.000000	99.128123 
3535.000000	99.127270 
3534.000000	99.124169 
3533.000000	99.119920 
3532.000000	99.116098 
3531.000000	99.114008 
3530.000000	99.113633 
3529.000000	99.113299 
3528.000000	99.111778 
3527.000000	99.110434 
3526.000000	99.111942 
3525.000000	99.116344 
3524.000000	99.120262 
3523.000000	99.120701 
3522.000000	99.118512 
3521.000000	99.116837 
3520.000000	99.116954 
3519.000000	99.117206 
3518.000000	99.115841 
3517.000000	99.113610 
3516.000000	99.112885 
3515.000000	99.114998 
3514.000000	99.119187 
3513.000000	99.123583 
3512.000000	99.126292 
3511.000000	99.126026 
3510.000000	99.122953 
3509.000000	99.118987 
3508.000000	99.116692 
3507.000000	99.117029 
3506.000000	99.117971 
3505.000000	99.115877 
3504.000000	99.109051 
3503.000000	99.100342 
3502.000000	99.095865 
3501.000000	99.099944 
3500.000000	99.110925 
3499.000000	99.122267 
3498.000000	99.127661 
3497.000000	99.125343 
3496.000000	99.118382 
3495.000000	99.111415 
3494.000000	99.107195 
3493.000000	99.105648 
3492.000000	99.105235 
3491.000000	99.104885 
3490.000000	99.104916 
3489.000000	99.106148 
3488.000000	99.108246 
3487.000000	99.109391 
3486.000000	99.107970 
3485.000000	99.104423 
3484.000000	99.101187 
3483.000000	99.100748 
3482.000000	99.103332 
3481.000000	99.106427 
3480.000000	99.106952 
3479.000000	99.104225 
3478.000000	99.100724 
3477.000000	99.099417 
3476.000000	99.100450 
3475.000000	99.101121 
3474.000000	99.099505 
3473.000000	99.096943 
3472.000000	99.095928 
3471.000000	99.096510 
3470.000000	99.096378 
3469.000000	99.094184 
3468.000000	99.091140 
3467.000000	99.089115 
3466.000000	99.088399 
3465.000000	99.087872 
3464.000000	99.086404 
3463.000000	99.083520 
3462.000000	99.079267 
3461.000000	99.074208 
3460.000000	99.069489 
3459.000000	99.066572 
3458.000000	99.066669 
3457.000000	99.070061 
3456.000000	99.075477 
3455.000000	99.080503 
3454.000000	99.083213 
3453.000000	99.083527 
3452.000000	99.082897 
3451.000000	99.082844 
3450.000000	99.083884 
3449.000000	99.085355 
3448.000000	99.085857 
3447.000000	99.084057 
3446.000000	99.080014 
3445.000000	99.075699 
3444.000000	99.073437 
3443.000000	99.073735 
3442.000000	99.074948 
3441.000000	99.075238 
3440.000000	99.074651 
3439.000000	99.074651 
3438.000000	99.075818 
3437.000000	99.076734 
3436.000000	99.075485 
3435.000000	99.072071 
3434.000000	99.068685 
3433.000000	99.067463 
3432.000000	99.068332 
3431.000000	99.069305 
3430.000000	99.068565 
3429.000000	99.065954 
3428.000000	99.062672 
3427.000000	99.059814 
3426.000000	99.057659 
3425.000000	99.056421 
3424.000000	99.057128 
3423.000000	99.060848 
3422.000000	99.066719 
3421.000000	99.071423 
3420.000000	99.071506 
3419.000000	99.066543 
3418.000000	99.059693 
3417.000000	99.054914 
3416.000000	99.053680 
3415.000000	99.054312 
3414.000000	99.054229 
3413.000000	99.052585 
3412.000000	99.050679 
3411.000000	99.050237 
3410.000000	99.051922 
3409.000000	99.055220 
3408.000000	99.058736 
3407.000000	99.060246 
3406.000000	99.057646 
3405.000000	99.051125 
3404.000000	99.044130 
3403.000000	99.041074 
3402.000000	99.043773 
3401.000000	99.050436 
3400.000000	99.057795 
3399.000000	99.063467 
3398.000000	99.066676 
3397.000000	99.067761 
3396.000000	99.067402 
3395.000000	99.066047 
3394.000000	99.064045 
3393.000000	99.062263 
3392.000000	99.061840 
3391.000000	99.062830 
3390.000000	99.063751 
3389.000000	99.063299 
3388.000000	99.062062 
3387.000000	99.061587 
3386.000000	99.062091 
3385.000000	99.062312 
3384.000000	99.061667 
3383.000000	99.061232 
3382.000000	99.062050 
3381.000000	99.063383 
3380.000000	99.063335 
3379.000000	99.060847 
3378.000000	99.056769 
3377.000000	99.053269 
3376.000000	99.052382 
3375.000000	99.054678 
3374.000000	99.058983 
3373.000000	99.063345 
3372.000000	99.066355 
3371.000000	99.067666 
3370.000000	99.067722 
3369.000000	99.067399 
3368.000000	99.067455 
3367.000000	99.067644 
3366.000000	99.066483 
3365.000000	99.062701 
3364.000000	99.057057 
3363.000000	99.052100 
3362.000000	99.049806 
3361.000000	99.049898 
3360.000000	99.050736 
3359.000000	99.051349 
3358.000000	99.052211 
3357.000000	99.054301 
3356.000000	99.057793 
3355.000000	99.061532 
3354.000000	99.063737 
3353.000000	99.063558 
3352.000000	99.062209 
3351.000000	99.062239 
3350.000000	99.065311 
3349.000000	99.070700 
3348.000000	99.076033 
3347.000000	99.079277 
3346.000000	99.079882 
3345.000000	99.078517 
3344.000000	99.076259 
3343.000000	99.073946 
3342.000000	99.071847 
3341.000000	99.069788 
3340.000000	99.067665 
3339.000000	99.065722 
3338.000000	99.064200 
3337.000000	99.062842 
3336.000000	99.061120 
3335.000000	99.059098 
3334.000000	99.057832 
3333.000000	99.058621 
3332.000000	99.061714 
3331.000000	99.065787 
3330.000000	99.068847 
3329.000000	99.069891 
3328.000000	99.069749 
3327.000000	99.070150 
3326.000000	99.071908 
3325.000000	99.074240 
3324.000000	99.075913 
3323.000000	99.076692 
3322.000000	99.077267 
3321.000000	99.077887 
3320.000000	99.077569 
3319.000000	99.075142 
3318.000000	99.071111 
3317.000000	99.068076 
3316.000000	99.068770 
3315.000000	99.073387 
3314.000000	99.078990 
3313.000000	99.081948 
3312.000000	99.081107 
3311.000000	99.078513 
3310.000000	99.077049 
3309.000000	99.077713 
3308.000000	99.079398 
3307.000000	99.080872 
3306.000000	99.082126 
3305.000000	99.083515 
3304.000000	99.084299 
3303.000000	99.083025 
3302.000000	99.079529 
3301.000000	99.075862 
3300.000000	99.074644 
3299.000000	99.076673 
3298.000000	99.080471 
3297.000000	99.083938 
3296.000000	99.086048 
3295.000000	99.087095 
3294.000000	99.087957 
3293.000000	99.089348 
3292.000000	99.091308 
3291.000000	99.093101 
3290.000000	99.093860 
3289.000000	99.093490 
3288.000000	99.092758 
3287.000000	99.092404 
3286.000000	99.092369 
3285.000000	99.092070 
3284.000000	99.091237 
3283.000000	99.090329 
3282.000000	99.090231 
3281.000000	99.091436 
3280.000000	99.093151 
3279.000000	99.093402 
3278.000000	99.090772 
3277.000000	99.086257 
3276.000000	99.082822 
3275.000000	99.082727 
3274.000000	99.085581 
3273.000000	99.089089 
3272.000000	99.090929 
3271.000000	99.089667 
3270.000000	99.084976 
3269.000000	99.078201 
3268.000000	99.072455 
3267.000000	99.071031 
3266.000000	99.075192 
3265.000000	99.083595 
3264.000000	99.093589 
3263.000000	99.102614 
3262.000000	99.108861 
3261.000000	99.111571 
3260.000000	99.110978 
3259.000000	99.107755 
3258.000000	99.102595 
3257.000000	99.096509 
3256.000000	99.091191 
3255.000000	99.088539 
3254.000000	99.089582 
3253.000000	99.093864 
3252.000000	99.099585 
3251.000000	99.104239 
3250.000000	99.105893 
3249.000000	99.104629 
3248.000000	99.102567 
3247.000000	99.101804 
3246.000000	99.102278 
3245.000000	99.102075 
3244.000000	99.099908 
3243.000000	99.096983 
3242.000000	99.096389 
3241.000000	99.100530 
3240.000000	99.108584 
3239.000000	99.116309 
3238.000000	99.119172 
3237.000000	99.116148 
3236.000000	99.110030 
3235.000000	99.103988 
3234.000000	99.099018 
3233.000000	99.095415 
3232.000000	99.095111 
3231.000000	99.100406 
3230.000000	99.110524 
3229.000000	99.121126 
3228.000000	99.127604 
3227.000000	99.127963 
3226.000000	99.122723 
3225.000000	99.113749 
3224.000000	99.103934 
3223.000000	99.096663 
3222.000000	99.094198 
3221.000000	99.096545 
3220.000000	99.101965 
3219.000000	99.108051 
3218.000000	99.112384 
3217.000000	99.113372 
3216.000000	99.111378 
3215.000000	99.108632 
3214.000000	99.107273 
3213.000000	99.107631 
3212.000000	99.108824 
3211.000000	99.110530 
3210.000000	99.113301 
3209.000000	99.117222 
3208.000000	99.121054 
3207.000000	99.123121 
3206.000000	99.122922 
3205.000000	99.121798 
3204.000000	99.122014 
3203.000000	99.124978 
3202.000000	99.130184 
3201.000000	99.135788 
3200.000000	99.140001 
3199.000000	99.141803 
3198.000000	99.140897 
3197.000000	99.137958 
3196.000000	99.134995 
3195.000000	99.134353 
3194.000000	99.136418 
3193.000000	99.138687 
3192.000000	99.137941 
3191.000000	99.133511 
3190.000000	99.128111 
3189.000000	99.125550 
3188.000000	99.127741 
3187.000000	99.133421 
3186.000000	99.139144 
3185.000000	99.141627 
3184.000000	99.139887 
3183.000000	99.135570 
3182.000000	99.131168 
3181.000000	99.127961 
3180.000000	99.125823 
3179.000000	99.124551 
3178.000000	99.124390 
3177.000000	99.124987 
3176.000000	99.124820 
3175.000000	99.122755 
3174.000000	99.120099 
3173.000000	99.120108 
3172.000000	99.124817 
3171.000000	99.132590 
3170.000000	99.139422 
3169.000000	99.142684 
3168.000000	99.143209 
3167.000000	99.143652 
3166.000000	99.145436 
3165.000000	99.147692 
3164.000000	99.148805 
3163.000000	99.148360 
3162.000000	99.147530 
3161.000000	99.148006 
3160.000000	99.150694 
3159.000000	99.155046 
3158.000000	99.159211 
3157.000000	99.161015 
3156.000000	99.159288 
3155.000000	99.154694 
3154.000000	99.149496 
3153.000000	99.146434 
3152.000000	99.147122 
3151.000000	99.150762 
3150.000000	99.154418 
3149.000000	99.155380 
3148.000000	99.153712 
3147.000000	99.152032 
3146.000000	99.152419 
3145.000000	99.154057 
3144.000000	99.154626 
3143.000000	99.153632 
3142.000000	99.153289 
3141.000000	99.155735 
3140.000000	99.160082 
3139.000000	99.162991 
3138.000000	99.162231 
3137.000000	99.159197 
3136.000000	99.157433 
3135.000000	99.158842 
3134.000000	99.161901 
3133.000000	99.163699 
3132.000000	99.163060 
3131.000000	99.161002 
3130.000000	99.158588 
3129.000000	99.155695 
3128.000000	99.152421 
3127.000000	99.150643 
3126.000000	99.152767 
3125.000000	99.158762 
3124.000000	99.165306 
3123.000000	99.168330 
3122.000000	99.166258 
3121.000000	99.161056 
3120.000000	99.156709 
3119.000000	99.156372 
3118.000000	99.159999 
3117.000000	99.164333 
3116.000000	99.165750 
3115.000000	99.163402 
3114.000000	99.159259 
3113.000000	99.155307 
3112.000000	99.151834 
3111.000000	99.148815 
3110.000000	99.147464 
3109.000000	99.148876 
3108.000000	99.151763 
3107.000000	99.153236 
3106.000000	99.152052 
3105.000000	99.149861 
3104.000000	99.149041 
3103.000000	99.150492 
3102.000000	99.153978 
3101.000000	99.159342 
3100.000000	99.166056 
3099.000000	99.172075 
3098.000000	99.174792 
3097.000000	99.173689 
3096.000000	99.171144 
3095.000000	99.169996 
3094.000000	99.170924 
3093.000000	99.172663 
3092.000000	99.173974 
3091.000000	99.174469 
3090.000000	99.174003 
3089.000000	99.172541 
3088.000000	99.170819 
3087.000000	99.170152 
3086.000000	99.171089 
3085.000000	99.172850 
3084.000000	99.174412 
3083.000000	99.175529 
3082.000000	99.176321 
3081.000000	99.176603 
3080.000000	99.176227 
3079.000000	99.175465 
3078.000000	99.174337 
3077.000000	99.172141 
3076.000000	99.168659 
3075.000000	99.165546 
3074.000000	99.165306 
3073.000000	99.168634 
3072.000000	99.173701 
3071.000000	99.178259 
3070.000000	99.181329 
3069.000000	99.182357 
3068.000000	99.180107 
3067.000000	99.173973 
3066.000000	99.166071 
3065.000000	99.160458 
3064.000000	99.159548 
3063.000000	99.161924 
3062.000000	99.164206 
3061.000000	99.164642 
3060.000000	99.164388 
3059.000000	99.165548 
3058.000000	99.168684 
3057.000000	99.172493 
3056.000000	99.175465 
3055.000000	99.177315 
3054.000000	99.178688 
3053.000000	99.179842 
3052.000000	99.180193 
3051.000000	99.179320 
3050.000000	99.177985 
3049.000000	99.177482 
3048.000000	99.177779 
3047.000000	99.176975 
3046.000000	99.173331 
3045.000000	99.167693 
3044.000000	99.163086 
3043.000000	99.161618 
3042.000000	99.162455 
3041.000000	99.163242 
3040.000000	99.162936 
3039.000000	99.162540 
3038.000000	99.163337 
3037.000000	99.165218 
3036.000000	99.166772 
3035.000000	99.166342 
3034.000000	99.162911 
3033.000000	99.156800 
3032.000000	99.149909 
3031.000000	99.144652 
3030.000000	99.141841 
3029.000000	99.139679 
3028.000000	99.135424 
3027.000000	99.128198 
3026.000000	99.119925 
3025.000000	99.113416 
3024.000000	99.109797 
3023.000000	99.107708 
3022.000000	99.104537 
3021.000000	99.098257 
3020.000000	99.088877 
3019.000000	99.078880 
3018.000000	99.071905 
3017.000000	99.069874 
3016.000000	99.070802 
3015.000000	99.070022 
3014.000000	99.064165 
3013.000000	99.053794 
3012.000000	99.041836 
3011.000000	99.030042 
3010.000000	99.018035 
3009.000000	99.005630 
3008.000000	98.994619 
3007.000000	98.987378 
3006.000000	98.984271 
3005.000000	98.983068 
3004.000000	98.980554 
3003.000000	98.974267 
3002.000000	98.963490 
3001.000000	98.949851 
3000.000000	98.936886 
2999.000000	98.927690 
2998.000000	98.922521 
2997.000000	98.919389 
2996.000000	98.916975 
2995.000000	98.915570 
2994.000000	98.914355 
2993.000000	98.909292 
2992.000000	98.896042 
2991.000000	98.875391 
2990.000000	98.854374 
2989.000000	98.840821 
2988.000000	98.836970 
2987.000000	98.838934 
2986.000000	98.841864 
2985.000000	98.844508 
2984.000000	98.848478 
2983.000000	98.854342 
2982.000000	98.859946 
2981.000000	98.862681 
2980.000000	98.862320 
2979.000000	98.860743 
2978.000000	98.859412 
2977.000000	98.858161 
2976.000000	98.856393 
2975.000000	98.854332 
2974.000000	98.852472 
2973.000000	98.850535 
2972.000000	98.847837 
2971.000000	98.844505 
2970.000000	98.841684 
2969.000000	98.840555 
2968.000000	98.841643 
2967.000000	98.844957 
2966.000000	98.850189 
2965.000000	98.856606 
2964.000000	98.863340 
2963.000000	98.870141 
2962.000000	98.877444 
2961.000000	98.885226 
2960.000000	98.892168 
2959.000000	98.896758 
2958.000000	98.899436 
2957.000000	98.902824 
2956.000000	98.908873 
2955.000000	98.915899 
2954.000000	98.919575 
2953.000000	98.917849 
2952.000000	98.914331 
2951.000000	98.915438 
2950.000000	98.923627 
2949.000000	98.934324 
2948.000000	98.940418 
2947.000000	98.939226 
2946.000000	98.934235 
2945.000000	98.930508 
2944.000000	98.929970 
2943.000000	98.931343 
2942.000000	98.932806 
2941.000000	98.933127 
2940.000000	98.930959 
2939.000000	98.925006 
2938.000000	98.915615 
2937.000000	98.905439 
2936.000000	98.897914 
2935.000000	98.895076 
2934.000000	98.896538 
2933.000000	98.899776 
2932.000000	98.901352 
2931.000000	98.898881 
2930.000000	98.892604 
2929.000000	98.884949 
2928.000000	98.878379 
2927.000000	98.873963 
2926.000000	98.871911 
2925.000000	98.872318 
2924.000000	98.874692 
2923.000000	98.877573 
2922.000000	98.879758 
2921.000000	98.881668 
2920.000000	98.884552 
2919.000000	98.888516 
2918.000000	98.892289 
2917.000000	98.894978 
2916.000000	98.897118 
2915.000000	98.899737 
2914.000000	98.903164 
2913.000000	98.907111 
2912.000000	98.911122 
2911.000000	98.914359 
2910.000000	98.915630 
2909.000000	98.914543 
2908.000000	98.912377 
2907.000000	98.910917 
2906.000000	98.910297 
2905.000000	98.908557 
2904.000000	98.903666 
2903.000000	98.896032 
2902.000000	98.889018 
2901.000000	98.887067 
2900.000000	98.892645 
2899.000000	98.904297 
2898.000000	98.917351 
2897.000000	98.927095 
2896.000000	98.932093 
2895.000000	98.934668 
2894.000000	98.938197 
2893.000000	98.943811 
2892.000000	98.949640 
2891.000000	98.953075 
2890.000000	98.953573 
2889.000000	98.953165 
2888.000000	98.954305 
2887.000000	98.957536 
2886.000000	98.961436 
2885.000000	98.964491 
2884.000000	98.966449 
2883.000000	98.967923 
2882.000000	98.969557 
2881.000000	98.972114 
2880.000000	98.976840 
2879.000000	98.984747 
2878.000000	98.995242 
2877.000000	99.005764 
2876.000000	99.013103 
2875.000000	99.015358 
2874.000000	99.013125 
2873.000000	99.009227 
2872.000000	99.007110 
2871.000000	99.008816 
2870.000000	99.014038 
2869.000000	99.020905 
2868.000000	99.027564 
2867.000000	99.033225 
2866.000000	99.038325 
2865.000000	99.044110 
2864.000000	99.051563 
2863.000000	99.060014 
2862.000000	99.066921 
2861.000000	99.069769 
2860.000000	99.068529 
2859.000000	99.065855 
2858.000000	99.064666 
2857.000000	99.065887 
2856.000000	99.068592 
2855.000000	99.071936 
2854.000000	99.076435 
2853.000000	99.083261 
2852.000000	99.092459 
2851.000000	99.102143 
2850.000000	99.109817 
2849.000000	99.114695 
2848.000000	99.118469 
2847.000000	99.123508 
2846.000000	99.130384 
2845.000000	99.137429 
2844.000000	99.142610 
2843.000000	99.145517 
2842.000000	99.147543 
2841.000000	99.150408 
2840.000000	99.154590 
2839.000000	99.159051 
2838.000000	99.162364 
2837.000000	99.164022 
2836.000000	99.164535 
2835.000000	99.164511 
2834.000000	99.164210 
2833.000000	99.164100 
2832.000000	99.165121 
2831.000000	99.167857 
2830.000000	99.171875 
2829.000000	99.176445 
2828.000000	99.181492 
2827.000000	99.187077 
2826.000000	99.192128 
2825.000000	99.194684 
2824.000000	99.193818 
2823.000000	99.191032 
2822.000000	99.189482 
2821.000000	99.191720 
2820.000000	99.197766 
2819.000000	99.204926 
2818.000000	99.209724 
2817.000000	99.210525 
2816.000000	99.208313 
2815.000000	99.204987 
2814.000000	99.201693 
2813.000000	99.199224 
2812.000000	99.198828 
2811.000000	99.201014 
2810.000000	99.203918 
2809.000000	99.204622 
2808.000000	99.202475 
2807.000000	99.199846 
2806.000000	99.199168 
2805.000000	99.200527 
2804.000000	99.202797 
2803.000000	99.205772 
2802.000000	99.209807 
2801.000000	99.214018 
2800.000000	99.216255 
2799.000000	99.215072 
2798.000000	99.211130 
2797.000000	99.206682 
2796.000000	99.204050 
2795.000000	99.204315 
2794.000000	99.206807 
2793.000000	99.209662 
2792.000000	99.211095 
2791.000000	99.210392 
2790.000000	99.208130 
2789.000000	99.205944 
2788.000000	99.205772 
2787.000000	99.208371 
2786.000000	99.212339 
2785.000000	99.215377 
2784.000000	99.216757 
2783.000000	99.217641 
2782.000000	99.218742 
2781.000000	99.218942 
2780.000000	99.217099 
2779.000000	99.214194 
2778.000000	99.212443 
2777.000000	99.212807 
2776.000000	99.214390 
2775.000000	99.215846 
2774.000000	99.216349 
2773.000000	99.215629 
2772.000000	99.214236 
2771.000000	99.213740 
2770.000000	99.215663 
2769.000000	99.220101 
2768.000000	99.225935 
2767.000000	99.231959 
2766.000000	99.236917 
2765.000000	99.239044 
2764.000000	99.237174 
2763.000000	99.232557 
2762.000000	99.228418 
2761.000000	99.227310 
2760.000000	99.229518 
2759.000000	99.233793 
2758.000000	99.238383 
2757.000000	99.241312 
2756.000000	99.241300 
2755.000000	99.239185 
2754.000000	99.237251 
2753.000000	99.236439 
2752.000000	99.235263 
2751.000000	99.232294 
2750.000000	99.228527 
2749.000000	99.226068 
2748.000000	99.225307 
2747.000000	99.224839 
2746.000000	99.223807 
2745.000000	99.222874 
2744.000000	99.222853 
2743.000000	99.223596 
2742.000000	99.224619 
2741.000000	99.225906 
2740.000000	99.227648 
2739.000000	99.229740 
2738.000000	99.231937 
2737.000000	99.234119 
2736.000000	99.236099 
2735.000000	99.237442 
2734.000000	99.237708 
2733.000000	99.236759 
2732.000000	99.234830 
2731.000000	99.232537 
2730.000000	99.230797 
2729.000000	99.230429 
2728.000000	99.231648 
2727.000000	99.233956 
2726.000000	99.236369 
2725.000000	99.237744 
2724.000000	99.237372 
2723.000000	99.235786 
2722.000000	99.234718 
2721.000000	99.235619 
2720.000000	99.238119 
2719.000000	99.240344 
2718.000000	99.240688 
2717.000000	99.238975 
2716.000000	99.236322 
2715.000000	99.234649 
2714.000000	99.236013 
2713.000000	99.241082 
2712.000000	99.247714 
2711.000000	99.252094 
2710.000000	99.252219 
2709.000000	99.249810 
2708.000000	99.248117 
2707.000000	99.248269 
2706.000000	99.248587 
2705.000000	99.247182 
2704.000000	99.244222 
2703.000000	99.241441 
2702.000000	99.240179 
2701.000000	99.240271 
2700.000000	99.240520 
2699.000000	99.239863 
2698.000000	99.238168 
2697.000000	99.236105 
2696.000000	99.234520 
2695.000000	99.234143 
2694.000000	99.235631 
2693.000000	99.238926 
2692.000000	99.242144 
2691.000000	99.242151 
2690.000000	99.237681 
2689.000000	99.231805 
2688.000000	99.229886 
2687.000000	99.234464 
2686.000000	99.242788 
2685.000000	99.249716 
2684.000000	99.252247 
2683.000000	99.250854 
2682.000000	99.247551 
2681.000000	99.244054 
2680.000000	99.241627 
2679.000000	99.241301 
2678.000000	99.243414 
2677.000000	99.247092 
2676.000000	99.250495 
2675.000000	99.251749 
2674.000000	99.250042 
2673.000000	99.246271 
2672.000000	99.242584 
2671.000000	99.240773 
2670.000000	99.240752 
2669.000000	99.240645 
2668.000000	99.238502 
2667.000000	99.234135 
2666.000000	99.229555 
2665.000000	99.227668 
2664.000000	99.230173 
2663.000000	99.236307 
2662.000000	99.243510 
2661.000000	99.249239 
2660.000000	99.251992 
2659.000000	99.250944 
2658.000000	99.245739 
2657.000000	99.237514 
2656.000000	99.229657 
2655.000000	99.226297 
2654.000000	99.229281 
2653.000000	99.236616 
2652.000000	99.243904 
2651.000000	99.247311 
2650.000000	99.245640 
2649.000000	99.240353 
2648.000000	99.234049 
2647.000000	99.228836 
2646.000000	99.225877 
2645.000000	99.225940 
2644.000000	99.229428 
2643.000000	99.235330 
2642.000000	99.240739 
2641.000000	99.242569 
2640.000000	99.240231 
2639.000000	99.236427 
2638.000000	99.235147 
2637.000000	99.238651 
2636.000000	99.245667 
2635.000000	99.252049 
2634.000000	99.253780 
2633.000000	99.250307 
2632.000000	99.244917 
2631.000000	99.241390 
2630.000000	99.240659 
2629.000000	99.241290 
2628.000000	99.242212 
2627.000000	99.243411 
2626.000000	99.244309 
2625.000000	99.243583 
2624.000000	99.241219 
2623.000000	99.239124 
2622.000000	99.238817 
2621.000000	99.239792 
2620.000000	99.241019 
2619.000000	99.242544 
2618.000000	99.244163 
2617.000000	99.243801 
2616.000000	99.239474 
2615.000000	99.232721 
2614.000000	99.228130 
2613.000000	99.228852 
2612.000000	99.233783 
2611.000000	99.239649 
2610.000000	99.244538 
2609.000000	99.248329 
2608.000000	99.250679 
2607.000000	99.250481 
2606.000000	99.247835 
2605.000000	99.245245 
2604.000000	99.245399 
2603.000000	99.247825 
2602.000000	99.249080 
2601.000000	99.246875 
2600.000000	99.243008 
2599.000000	99.241191 
2598.000000	99.242731 
2597.000000	99.245729 
2596.000000	99.247947 
2595.000000	99.248558 
2594.000000	99.247150 
2593.000000	99.243389 
2592.000000	99.238722 
2591.000000	99.236518 
2590.000000	99.238925 
2589.000000	99.244688 
2588.000000	99.251187 
2587.000000	99.257075 
2586.000000	99.261272 
2585.000000	99.261148 
2584.000000	99.254729 
2583.000000	99.244435 
2582.000000	99.235843 
2581.000000	99.231999 
2580.000000	99.230760 
2579.000000	99.228426 
2578.000000	99.224356 
2577.000000	99.221234 
2576.000000	99.222141 
2575.000000	99.228156 
2574.000000	99.237573 
2573.000000	99.246455 
2572.000000	99.250819 
2571.000000	99.249392 
2570.000000	99.244111 
2569.000000	99.237988 
2568.000000	99.233274 
2567.000000	99.231508 
2566.000000	99.233529 
2565.000000	99.238468 
2564.000000	99.243912 
2563.000000	99.248042 
2562.000000	99.250735 
2561.000000	99.252027 
2560.000000	99.251101 
2559.000000	99.248076 
2558.000000	99.245231 
2557.000000	99.244421 
2556.000000	99.244206 
2555.000000	99.241908 
2554.000000	99.238128 
2553.000000	99.236603 
2552.000000	99.239075 
2551.000000	99.242722 
2550.000000	99.243932 
2549.000000	99.242708 
2548.000000	99.241528 
2547.000000	99.241069 
2546.000000	99.239296 
2545.000000	99.234740 
2544.000000	99.229012 
2543.000000	99.225508 
2542.000000	99.226444 
2541.000000	99.231360 
2540.000000	99.237703 
2539.000000	99.242391 
2538.000000	99.243220 
2537.000000	99.239411 
2536.000000	99.231413 
2535.000000	99.221079 
2534.000000	99.212330 
2533.000000	99.210281 
2532.000000	99.217635 
2531.000000	99.231497 
2530.000000	99.244937 
2529.000000	99.252540 
2528.000000	99.254068 
2527.000000	99.252786 
2526.000000	99.251714 
2525.000000	99.252448 
2524.000000	99.256169 
2523.000000	99.263479 
2522.000000	99.272730 
2521.000000	99.279890 
2520.000000	99.281290 
2519.000000	99.276549 
2518.000000	99.268621 
2517.000000	99.261122 
2516.000000	99.255720 
2515.000000	99.251945 
2514.000000	99.249158 
2513.000000	99.247917 
2512.000000	99.248611 
2511.000000	99.249252 
2510.000000	99.246608 
2509.000000	99.240728 
2508.000000	99.236888 
2507.000000	99.240716 
2506.000000	99.251344 
2505.000000	99.261235 
2504.000000	99.263394 
2503.000000	99.257451 
2502.000000	99.248330 
2501.000000	99.240984 
2500.000000	99.237843 
2499.000000	99.239703 
2498.000000	99.246384 
2497.000000	99.255945 
2496.000000	99.264710 
2495.000000	99.269079 
2494.000000	99.267374 
2493.000000	99.260283 
2492.000000	99.250278 
2491.000000	99.240545 
2490.000000	99.233644 
2489.000000	99.230552 
2488.000000	99.230755 
2487.000000	99.232989 
2486.000000	99.235936 
2485.000000	99.238964 
2484.000000	99.242640 
2483.000000	99.247814 
2482.000000	99.253601 
2481.000000	99.257239 
2480.000000	99.257203 
2479.000000	99.255644 
2478.000000	99.255888 
2477.000000	99.257691 
2476.000000	99.257136 
2475.000000	99.251967 
2474.000000	99.245137 
2473.000000	99.241768 
2472.000000	99.244002 
2471.000000	99.250316 
2470.000000	99.258371 
2469.000000	99.265870 
2468.000000	99.269121 
2467.000000	99.264243 
2466.000000	99.251805 
2465.000000	99.238704 
2464.000000	99.233040 
2463.000000	99.236916 
2462.000000	99.245230 
2461.000000	99.251227 
2460.000000	99.252119 
2459.000000	99.249530 
2458.000000	99.246327 
2457.000000	99.244100 
2456.000000	99.242771 
2455.000000	99.241169 
2454.000000	99.237925 
2453.000000	99.232718 
2452.000000	99.227024 
2451.000000	99.223123 
2450.000000	99.221997 
2449.000000	99.222501 
2448.000000	99.222938 
2447.000000	99.223310 
2446.000000	99.225582 
2445.000000	99.231562 
2444.000000	99.240582 
2443.000000	99.249413 
2442.000000	99.254508 
2441.000000	99.254488 
2440.000000	99.250758 
2439.000000	99.246175 
2438.000000	99.243334 
2437.000000	99.243619 
2436.000000	99.246651 
2435.000000	99.249895 
2434.000000	99.249438 
2433.000000	99.242643 
2432.000000	99.230853 
2431.000000	99.219005 
2430.000000	99.211963 
2429.000000	99.211260 
2428.000000	99.215515 
2427.000000	99.223137 
2426.000000	99.233142 
2425.000000	99.243178 
2424.000000	99.248658 
2423.000000	99.245994 
2422.000000	99.236848 
2421.000000	99.227747 
2420.000000	99.224518 
2419.000000	99.227667 
2418.000000	99.233534 
2417.000000	99.238758 
2416.000000	99.242305 
2415.000000	99.244018 
2414.000000	99.243483 
2413.000000	99.241020 
2412.000000	99.238213 
2411.000000	99.236284 
2410.000000	99.234853 
2409.000000	99.233306 
2408.000000	99.232524 
2407.000000	99.233966 
2406.000000	99.237594 
2405.000000	99.242001 
2404.000000	99.246172 
2403.000000	99.249587 
2402.000000	99.250755 
2401.000000	99.247657 
2400.000000	99.240476 
2399.000000	99.232541 
2398.000000	99.227511 
2397.000000	99.226439 
2396.000000	99.228348 
2395.000000	99.232462 
2394.000000	99.238285 
2393.000000	99.244059 
2392.000000	99.247144 
2391.000000	99.246684 
2390.000000	99.244860 
2389.000000	99.244717 
2388.000000	99.247163 
2387.000000	99.250535 
2386.000000	99.252597 
2385.000000	99.252310 
2384.000000	99.250028 
2383.000000	99.246872 
2382.000000	99.244248 
2381.000000	99.243285 
2380.000000	99.243915 
2379.000000	99.244429 
2378.000000	99.242695 
2377.000000	99.238540 
2376.000000	99.234699 
2375.000000	99.234593 
2374.000000	99.238987 
2373.000000	99.245341 
2372.000000	99.251226 
2371.000000	99.257402 
2370.000000	99.266053 
2369.000000	99.275567 
2368.000000	99.278667 
2367.000000	99.267820 
2366.000000	99.243872 
2365.000000	99.218541 
2364.000000	99.206095 
2363.000000	99.211063 
2362.000000	99.225622 
2361.000000	99.237691 
2360.000000	99.240829 
2359.000000	99.238450 
2358.000000	99.237543 
2357.000000	99.241472 
2356.000000	99.249004 
2355.000000	99.256169 
2354.000000	99.261103 
2353.000000	99.263081 
2352.000000	99.260759 
2351.000000	99.250946 
2350.000000	99.231976 
2349.000000	99.209441 
2348.000000	99.192310 
2347.000000	99.187288 
2346.000000	99.193892 
2345.000000	99.204577 
2344.000000	99.212704 
2343.000000	99.216337 
2342.000000	99.220372 
2341.000000	99.227254 
2340.000000	99.234704 
2339.000000	99.239855 
2338.000000	99.242657 
2337.000000	99.246317 
2336.000000	99.251316 
2335.000000	99.255178 
2334.000000	99.254757 
2333.000000	99.251951 
2332.000000	99.249997 
2331.000000	99.250917 
2330.000000	99.251511 
2329.000000	99.251351 
2328.000000	99.250388 
2327.000000	99.250652 
2326.000000	99.251064 
2325.000000	99.249816 
2324.000000	99.247066 
2323.000000	99.245413 
2322.000000	99.249732 
2321.000000	99.261935 
2320.000000	99.278785 
2319.000000	99.293329 
2318.000000	99.299067 
2317.000000	99.295741 
2316.000000	99.287069 
2315.000000	99.279270 
2314.000000	99.274987 
2313.000000	99.275262 
2312.000000	99.277919 
2311.000000	99.281705 
2310.000000	99.284958 
2309.000000	99.287930 
2308.000000	99.289391 
2307.000000	99.287806 
2306.000000	99.281616 
2305.000000	99.272882 
2304.000000	99.264823 
2303.000000	99.259277 
2302.000000	99.254722 
2301.000000	99.250237 
2300.000000	99.246073 
2299.000000	99.242835 
2298.000000	99.239123 
2297.000000	99.235053 
2296.000000	99.233265 
2295.000000	99.236454 
2294.000000	99.242288 
2293.000000	99.245389 
2292.000000	99.242876 
2291.000000	99.236825 
2290.000000	99.230681 
2289.000000	99.225950 
2288.000000	99.222842 
2287.000000	99.221416 
2286.000000	99.220938 
2285.000000	99.219465 
2284.000000	99.216141 
2283.000000	99.212379 
2282.000000	99.209628 
2281.000000	99.206639 
2280.000000	99.201370 
2279.000000	99.195189 
2278.000000	99.193095 
2277.000000	99.198413 
2276.000000	99.208364 
2275.000000	99.216404 
2274.000000	99.218347 
2273.000000	99.215018 
2272.000000	99.208709 
2271.000000	99.199739 
2270.000000	99.188457 
2269.000000	99.179238 
2268.000000	99.178604 
2267.000000	99.188258 
2266.000000	99.202182 
2265.000000	99.212178 
2264.000000	99.214993 
2263.000000	99.213510 
2262.000000	99.213208 
2261.000000	99.218549 
2260.000000	99.229877 
2259.000000	99.241092 
2258.000000	99.242949 
2257.000000	99.232144 
2256.000000	99.216298 
2255.000000	99.206632 
2254.000000	99.206486 
2253.000000	99.210174 
2252.000000	99.212092 
2251.000000	99.212898 
2250.000000	99.216103 
2249.000000	99.222526 
2248.000000	99.229526 
2247.000000	99.233587 
2246.000000	99.232290 
2245.000000	99.225468 
2244.000000	99.215299 
2243.000000	99.204242 
2242.000000	99.192917 
2241.000000	99.181167 
2240.000000	99.170446 
2239.000000	99.162994 
2238.000000	99.158904 
2237.000000	99.156040 
2236.000000	99.152796 
2235.000000	99.149109 
2234.000000	99.145260 
2233.000000	99.141992 
2232.000000	99.141573 
2231.000000	99.146378 
2230.000000	99.156332 
2229.000000	99.169501 
2228.000000	99.184418 
2227.000000	99.199240 
2226.000000	99.209604 
2225.000000	99.211235 
2224.000000	99.205250 
2223.000000	99.197716 
2222.000000	99.193461 
2221.000000	99.192877 
2220.000000	99.194518 
2219.000000	99.197472 
2218.000000	99.200931 
2217.000000	99.204829 
2216.000000	99.211321 
2215.000000	99.221936 
2214.000000	99.232346 
2213.000000	99.233904 
2212.000000	99.222795 
2211.000000	99.205590 
2210.000000	99.194108 
2209.000000	99.195747 
2208.000000	99.208316 
2207.000000	99.221971 
2206.000000	99.226083 
2205.000000	99.216835 
2204.000000	99.199194 
2203.000000	99.181008 
2202.000000	99.166960 
2201.000000	99.159224 
2200.000000	99.159317 
2199.000000	99.164483 
2198.000000	99.165650 
2197.000000	99.156053 
2196.000000	99.141253 
2195.000000	99.134215 
2194.000000	99.140798 
2193.000000	99.155866 
2192.000000	99.172454 
2191.000000	99.186948 
2190.000000	99.194997 
2189.000000	99.191859 
2188.000000	99.180425 
2187.000000	99.171493 
2186.000000	99.172299 
2185.000000	99.180281 
2184.000000	99.190103 
2183.000000	99.199711 
2182.000000	99.206766 
2181.000000	99.207534 
2180.000000	99.203804 
2179.000000	99.202800 
2178.000000	99.205391 
2177.000000	99.202220 
2176.000000	99.187346 
2175.000000	99.168659 
2174.000000	99.157702 
2173.000000	99.155000 
2172.000000	99.152746 
2171.000000	99.147407 
2170.000000	99.142728 
2169.000000	99.143661 
2168.000000	99.152862 
2167.000000	99.169785 
2166.000000	99.188136 
2165.000000	99.198188 
2164.000000	99.197491 
2163.000000	99.195338 
2162.000000	99.201207 
2161.000000	99.213338 
2160.000000	99.224114 
2159.000000	99.231171 
2158.000000	99.235857 
2157.000000	99.236721 
2156.000000	99.233107 
2155.000000	99.228936 
2154.000000	99.225325 
2153.000000	99.215817 
2152.000000	99.196611 
2151.000000	99.176872 
2150.000000	99.171253 
2149.000000	99.184414 
2148.000000	99.208097 
2147.000000	99.230155 
2146.000000	99.240900 
2145.000000	99.235430 
2144.000000	99.217928 
2143.000000	99.201231 
2142.000000	99.195492 
2141.000000	99.198748 
2140.000000	99.203226 
2139.000000	99.207299 
2138.000000	99.214120 
2137.000000	99.221379 
2136.000000	99.221513 
2135.000000	99.212883 
2134.000000	99.203720 
2133.000000	99.202808 
2132.000000	99.210304 
2131.000000	99.218650 
2130.000000	99.219445 
2129.000000	99.209898 
2128.000000	99.195579 
2127.000000	99.185713 
2126.000000	99.183447 
2125.000000	99.183224 
2124.000000	99.180832 
2123.000000	99.181968 
2122.000000	99.194392 
2121.000000	99.213913 
2120.000000	99.226199 
2119.000000	99.223316 
2118.000000	99.211649 
2117.000000	99.201966 
2116.000000	99.198129 
2115.000000	99.198561 
2114.000000	99.202751 
2113.000000	99.210727 
2112.000000	99.218870 
2111.000000	99.221315 
2110.000000	99.215400 
2109.000000	99.203728 
2108.000000	99.191753 
2107.000000	99.184421 
2106.000000	99.183061 
2105.000000	99.183474 
2104.000000	99.178826 
2103.000000	99.166873 
2102.000000	99.153406 
2101.000000	99.146781 
2100.000000	99.149706 
2099.000000	99.157799 
2098.000000	99.165457 
2097.000000	99.171189 
2096.000000	99.176604 
2095.000000	99.180947 
2094.000000	99.178524 
2093.000000	99.164387 
2092.000000	99.143227 
2091.000000	99.128992 
2090.000000	99.131980 
2089.000000	99.147192 
2088.000000	99.159505 
2087.000000	99.160547 
2086.000000	99.155955 
2085.000000	99.155349 
2084.000000	99.160218 
2083.000000	99.164933 
2082.000000	99.166116 
2081.000000	99.166130 
2080.000000	99.168028 
2079.000000	99.170998 
2078.000000	99.172400 
2077.000000	99.172654 
2076.000000	99.176357 
2075.000000	99.187679 
2074.000000	99.204389 
2073.000000	99.217804 
2072.000000	99.220278 
2071.000000	99.212387 
2070.000000	99.201320 
2069.000000	99.193062 
2068.000000	99.188303 
2067.000000	99.185401 
2066.000000	99.183842 
2065.000000	99.183466 
2064.000000	99.183101 
2063.000000	99.182272 
2062.000000	99.182855 
2061.000000	99.187314 
2060.000000	99.195855 
2059.000000	99.206063 
2058.000000	99.214495 
2057.000000	99.218351 
2056.000000	99.216873 
2055.000000	99.211563 
2054.000000	99.204029 
2053.000000	99.193970 
2052.000000	99.180910 
2051.000000	99.167835 
2050.000000	99.160751 
2049.000000	99.162717 
2048.000000	99.169320 
2047.000000	99.172680 
2046.000000	99.169365 
2045.000000	99.162388 
2044.000000	99.156497 
2043.000000	99.153549 
2042.000000	99.152322 
2041.000000	99.151242 
2040.000000	99.150739 
2039.000000	99.153098 
2038.000000	99.159859 
2037.000000	99.169330 
2036.000000	99.177071 
2035.000000	99.179130 
2034.000000	99.175027 
2033.000000	99.168261 
2032.000000	99.164066 
2031.000000	99.165217 
2030.000000	99.169111 
2029.000000	99.169782 
2028.000000	99.163492 
2027.000000	99.152198 
2026.000000	99.141809 
2025.000000	99.138665 
2024.000000	99.146242 
2023.000000	99.161308 
2022.000000	99.173118 
2021.000000	99.170968 
2020.000000	99.155881 
2019.000000	99.140899 
2018.000000	99.136414 
2017.000000	99.138143 
2016.000000	99.134166 
2015.000000	99.121573 
2014.000000	99.109578 
2013.000000	99.107444 
2012.000000	99.115118 
2011.000000	99.126509 
2010.000000	99.137804 
2009.000000	99.150516 
2008.000000	99.168115 
2007.000000	99.190558 
2006.000000	99.211479 
2005.000000	99.222618 
2004.000000	99.222455 
2003.000000	99.217451 
2002.000000	99.213233 
2001.000000	99.207213 
2000.000000	99.193675 
1999.000000	99.173350 
1998.000000	99.154023 
1997.000000	99.143498 
1996.000000	99.144497 
1995.000000	99.155261 
1994.000000	99.170924 
1993.000000	99.184015 
1992.000000	99.187907 
1991.000000	99.182220 
1990.000000	99.172783 
1989.000000	99.166360 
1988.000000	99.166934 
1987.000000	99.174358 
1986.000000	99.183329 
1985.000000	99.185864 
1984.000000	99.179099 
1983.000000	99.169537 
1982.000000	99.165646 
1981.000000	99.166552 
1980.000000	99.163131 
1979.000000	99.150245 
1978.000000	99.133229 
1977.000000	99.120788 
1976.000000	99.115084 
1975.000000	99.113071 
1974.000000	99.114795 
1973.000000	99.125987 
1972.000000	99.151565 
1971.000000	99.187134 
1970.000000	99.216881 
1969.000000	99.222557 
1968.000000	99.199067 
1967.000000	99.161620 
1966.000000	99.132974 
1965.000000	99.122870 
1964.000000	99.123659 
1963.000000	99.124458 
1962.000000	99.123240 
1961.000000	99.124633 
1960.000000	99.131421 
1959.000000	99.141767 
1958.000000	99.152543 
1957.000000	99.161567 
1956.000000	99.167141 
1955.000000	99.168213 
1954.000000	99.165403 
1953.000000	99.160897 
1952.000000	99.156184 
1951.000000	99.150874 
1950.000000	99.144311 
1949.000000	99.137608 
1948.000000	99.134190 
1947.000000	99.136309 
1946.000000	99.140178 
1945.000000	99.137189 
1944.000000	99.123319 
1943.000000	99.106977 
1942.000000	99.102777 
1941.000000	99.114867 
1940.000000	99.131664 
1939.000000	99.139662 
1938.000000	99.138030 
1937.000000	99.137599 
1936.000000	99.147003 
1935.000000	99.162738 
1934.000000	99.174715 
1933.000000	99.179195 
1932.000000	99.181727 
1931.000000	99.188011 
1930.000000	99.195489 
1929.000000	99.196137 
1928.000000	99.187723 
1927.000000	99.176668 
1926.000000	99.170669 
1925.000000	99.171107 
1924.000000	99.173958 
1923.000000	99.176722 
1922.000000	99.179702 
1921.000000	99.182033 
1920.000000	99.180054 
1919.000000	99.170970 
1918.000000	99.156852 
1917.000000	99.143820 
1916.000000	99.136931 
1915.000000	99.136428 
1914.000000	99.139248 
1913.000000	99.143232 
1912.000000	99.148534 
1911.000000	99.155580 
1910.000000	99.161739 
1909.000000	99.162722 
1908.000000	99.159427 
1907.000000	99.158024 
1906.000000	99.162706 
1905.000000	99.170228 
1904.000000	99.173701 
1903.000000	99.171581 
1902.000000	99.167600 
1901.000000	99.164653 
1900.000000	99.162757 
1899.000000	99.161142 
1898.000000	99.160117 
1897.000000	99.160280 
1896.000000	99.161219 
1895.000000	99.162298 
1894.000000	99.162872 
1893.000000	99.162728 
1892.000000	99.163026 
1891.000000	99.165317 
1890.000000	99.168356 
1889.000000	99.168215 
1888.000000	99.163886 
1887.000000	99.158875 
1886.000000	99.155838 
1885.000000	99.154209 
1884.000000	99.153535 
1883.000000	99.155649 
1882.000000	99.160328 
1881.000000	99.162815 
1880.000000	99.160628 
1879.000000	99.158493 
1878.000000	99.162871 
1877.000000	99.173954 
1876.000000	99.185573 
1875.000000	99.192296 
1874.000000	99.192697 
1873.000000	99.186961 
1872.000000	99.176762 
1871.000000	99.166983 
1870.000000	99.162554 
1869.000000	99.161919 
1868.000000	99.159528 
1867.000000	99.156260 
1866.000000	99.157174 
1865.000000	99.161116 
1864.000000	99.160481 
1863.000000	99.150634 
1862.000000	99.136190 
1861.000000	99.126564 
1860.000000	99.127437 
1859.000000	99.137655 
1858.000000	99.151553 
1857.000000	99.162731 
1856.000000	99.168320 
1855.000000	99.170907 
1854.000000	99.174360 
1853.000000	99.177508 
1852.000000	99.176821 
1851.000000	99.172373 
1850.000000	99.168588 
1849.000000	99.170310 
1848.000000	99.177405 
1847.000000	99.185419 
1846.000000	99.189750 
1845.000000	99.189490 
1844.000000	99.187716 
1843.000000	99.188864 
1842.000000	99.193537 
1841.000000	99.196910 
1840.000000	99.195409 
1839.000000	99.190120 
1838.000000	99.184970 
1837.000000	99.182200 
1836.000000	99.180755 
1835.000000	99.179695 
1834.000000	99.179303 
1833.000000	99.179585 
1832.000000	99.179665 
1831.000000	99.177726 
1830.000000	99.173399 
1829.000000	99.170673 
1828.000000	99.173423 
1827.000000	99.179678 
1826.000000	99.184455 
1825.000000	99.185292 
1824.000000	99.182952 
1823.000000	99.178847 
1822.000000	99.172372 
1821.000000	99.163580 
1820.000000	99.156858 
1819.000000	99.158005 
1818.000000	99.168046 
1817.000000	99.179747 
1816.000000	99.184280 
1815.000000	99.181934 
1814.000000	99.179971 
1813.000000	99.183618 
1812.000000	99.191098 
1811.000000	99.197948 
1810.000000	99.203426 
1809.000000	99.207192 
1808.000000	99.206556 
1807.000000	99.200224 
1806.000000	99.190571 
1805.000000	99.181233 
1804.000000	99.174780 
1803.000000	99.172933 
1802.000000	99.174327 
1801.000000	99.174420 
1800.000000	99.169936 
1799.000000	99.163736 
1798.000000	99.162265 
1797.000000	99.167005 
1796.000000	99.174631 
1795.000000	99.182575 
1794.000000	99.190237 
1793.000000	99.195875 
1792.000000	99.195675 
1791.000000	99.190436 
1790.000000	99.186304 
1789.000000	99.185152 
1788.000000	99.185123 
1787.000000	99.186059 
1786.000000	99.189563 
1785.000000	99.194260 
1784.000000	99.196093 
1783.000000	99.194302 
1782.000000	99.189955 
1781.000000	99.184239 
1780.000000	99.177773 
1779.000000	99.171158 
1778.000000	99.167206 
1777.000000	99.167773 
1776.000000	99.172942 
1775.000000	99.179539 
1774.000000	99.182984 
1773.000000	99.182044 
1772.000000	99.179651 
1771.000000	99.179301 
1770.000000	99.181676 
1769.000000	99.183751 
1768.000000	99.182844 
1767.000000	99.179663 
1766.000000	99.177225 
1765.000000	99.177487 
1764.000000	99.179274 
1763.000000	99.179897 
1762.000000	99.177195 
1761.000000	99.172917 
1760.000000	99.170712 
1759.000000	99.171854 
1758.000000	99.176141 
1757.000000	99.182250 
1756.000000	99.188239 
1755.000000	99.190597 
1754.000000	99.187341 
1753.000000	99.181070 
1752.000000	99.177252 
1751.000000	99.176082 
1750.000000	99.172788 
1749.000000	99.166218 
1748.000000	99.160861 
1747.000000	99.160663 
1746.000000	99.162713 
1745.000000	99.163239 
1744.000000	99.161738 
1743.000000	99.159803 
1742.000000	99.159116 
1741.000000	99.159383 
1740.000000	99.158848 
1739.000000	99.158046 
1738.000000	99.159840 
1737.000000	99.163061 
1736.000000	99.164258 
1735.000000	99.163775 
1734.000000	99.161904 
1733.000000	99.158924 
1732.000000	99.159199 
1731.000000	99.161165 
1730.000000	99.162545 
1729.000000	99.163144 
1728.000000	99.163639 
1727.000000	99.164180 
1726.000000	99.164301 
1725.000000	99.165153 
1724.000000	99.166366 
1723.000000	99.166325 
1722.000000	99.165334 
1721.000000	99.163466 
1720.000000	99.160874 
1719.000000	99.160324 
1718.000000	99.165865 
1717.000000	99.173911 
1716.000000	99.176871 
1715.000000	99.175201 
1714.000000	99.173451 
1713.000000	99.171697 
1712.000000	99.167047 
1711.000000	99.160899 
1710.000000	99.157793 
1709.000000	99.159446 
1708.000000	99.163477 
1707.000000	99.166363 
1706.000000	99.166564 
1705.000000	99.163391 
1704.000000	99.157758 
1703.000000	99.152093 
1702.000000	99.149491 
1701.000000	99.152984 
1700.000000	99.155653 
1699.000000	99.154027 
1698.000000	99.155861 
1697.000000	99.157783 
1696.000000	99.154081 
1695.000000	99.145449 
1694.000000	99.139621 
1693.000000	99.138226 
1692.000000	99.136914 
1691.000000	99.135599 
1690.000000	99.135703 
1689.000000	99.135842 
1688.000000	99.135410 
1687.000000	99.134094 
1686.000000	99.134424 
1685.000000	99.139464 
1684.000000	99.142887 
1683.000000	99.141810 
1682.000000	99.141046 
1681.000000	99.137478 
1680.000000	99.132478 
1679.000000	99.129194 
1678.000000	99.126793 
1677.000000	99.123025 
1676.000000	99.119319 
1675.000000	99.118456 
1674.000000	99.120294 
1673.000000	99.124497 
1672.000000	99.129586 
1671.000000	99.134644 
1670.000000	99.137821 
1669.000000	99.135352 
1668.000000	99.129936 
1667.000000	99.125627 
1666.000000	99.121993 
1665.000000	99.117895 
1664.000000	99.113737 
1663.000000	99.111484 
1662.000000	99.110854 
1661.000000	99.110354 
1660.000000	99.110881 
1659.000000	99.112835 
1658.000000	99.115247 
1657.000000	99.117174 
1656.000000	99.118129 
1655.000000	99.118239 
1654.000000	99.120356 
1653.000000	99.117823 
1652.000000	99.107280 
1651.000000	99.104970 
1650.000000	99.106198 
1649.000000	99.105666 
1648.000000	99.105104 
1647.000000	99.104961 
1646.000000	99.103044 
1645.000000	99.101837 
1644.000000	99.102542 
1643.000000	99.103887 
1642.000000	99.103777 
1641.000000	99.101025 
1640.000000	99.097077 
1639.000000	99.093186 
1638.000000	99.090443 
1637.000000	99.090939 
1636.000000	99.096631 
1635.000000	99.103786 
1634.000000	99.108535 
1633.000000	99.109461 
1632.000000	99.104882 
1631.000000	99.097813 
1630.000000	99.092346 
1629.000000	99.090291 
1628.000000	99.091147 
1627.000000	99.094124 
1626.000000	99.097198 
1625.000000	99.098379 
1624.000000	99.098057 
1623.000000	99.098045 
1622.000000	99.099028 
1621.000000	99.100397 
1620.000000	99.101507 
1619.000000	99.101797 
1618.000000	99.102462 
1617.000000	99.104478 
1616.000000	99.108584 
1615.000000	99.115638 
1614.000000	99.122389 
1613.000000	99.125148 
1612.000000	99.125687 
1611.000000	99.127764 
1610.000000	99.130526 
1609.000000	99.131027 
1608.000000	99.130479 
1607.000000	99.132142 
1606.000000	99.134819 
1605.000000	99.135683 
1604.000000	99.135922 
1603.000000	99.137568 
1602.000000	99.140700 
1601.000000	99.144490 
1600.000000	99.149131 
1599.000000	99.154382 
1598.000000	99.158342 
1597.000000	99.159692 
1596.000000	99.158923 
1595.000000	99.156949 
1594.000000	99.153937 
1593.000000	99.150780 
1592.000000	99.149991 
1591.000000	99.152843 
1590.000000	99.156959 
1589.000000	99.159384 
1588.000000	99.160826 
1587.000000	99.163989 
1586.000000	99.168694 
1585.000000	99.171564 
1584.000000	99.172266 
1583.000000	99.172776 
1582.000000	99.172421 
1581.000000	99.169840 
1580.000000	99.166019 
1579.000000	99.162042 
1578.000000	99.157717 
1577.000000	99.154468 
1576.000000	99.153781 
1575.000000	99.156134 
1574.000000	99.159863 
1573.000000	99.161435 
1572.000000	99.160398 
1571.000000	99.159868 
1570.000000	99.161465 
1569.000000	99.163161 
1568.000000	99.165387 
1567.000000	99.167013 
1566.000000	99.164864 
1565.000000	99.159773 
1564.000000	99.156425 
1563.000000	99.156573 
1562.000000	99.156448 
1561.000000	99.153769 
1560.000000	99.155645 
1559.000000	99.160296 
1558.000000	99.158991 
1557.000000	99.162091 
1556.000000	99.167143 
1555.000000	99.169320 
1554.000000	99.166676 
1553.000000	99.161613 
1552.000000	99.156975 
1551.000000	99.152734 
1550.000000	99.150203 
1549.000000	99.151092 
1548.000000	99.154881 
1547.000000	99.157987 
1546.000000	99.155875 
1545.000000	99.148463 
1544.000000	99.140972 
1543.000000	99.139003 
1542.000000	99.144355 
1541.000000	99.154026 
1540.000000	99.160142 
1539.000000	99.160629 
1538.000000	99.161908 
1537.000000	99.164755 
1536.000000	99.165968 
1535.000000	99.165942 
1534.000000	99.164829 
1533.000000	99.161448 
1532.000000	99.157794 
1531.000000	99.156662 
1530.000000	99.158279 
1529.000000	99.160319 
1528.000000	99.160417 
1527.000000	99.159569 
1526.000000	99.160284 
1525.000000	99.162999 
1524.000000	99.166006 
1523.000000	99.169049 
1522.000000	99.174386 
1521.000000	99.179997 
1520.000000	99.181125 
1519.000000	99.176111 
1518.000000	99.165973 
1517.000000	99.155743 
1516.000000	99.150065 
1515.000000	99.149284 
1514.000000	99.150632 
1513.000000	99.152966 
1512.000000	99.155698 
1511.000000	99.156573 
1510.000000	99.154422 
1509.000000	99.151008 
1508.000000	99.152566 
1507.000000	99.162400 
1506.000000	99.172355 
1505.000000	99.174994 
1504.000000	99.172625 
1503.000000	99.169447 
1502.000000	99.168186 
1501.000000	99.169504 
1500.000000	99.170599 
1499.000000	99.167708 
1498.000000	99.160764 
1497.000000	99.153529 
1496.000000	99.148309 
1495.000000	99.147811 
1494.000000	99.153933 
1493.000000	99.163899 
1492.000000	99.173171 
1491.000000	99.178878 
1490.000000	99.180451 
1489.000000	99.178059 
1488.000000	99.171411 
1487.000000	99.163008 
1486.000000	99.156981 
1485.000000	99.152519 
1484.000000	99.148400 
1483.000000	99.145344 
1482.000000	99.144812 
1481.000000	99.146523 
1480.000000	99.147363 
1479.000000	99.145727 
1478.000000	99.142533 
1477.000000	99.139107 
1476.000000	99.135199 
1475.000000	99.132685 
1474.000000	99.134490 
1473.000000	99.139707 
1472.000000	99.142348 
1471.000000	99.139124 
1470.000000	99.133219 
1469.000000	99.127125 
1468.000000	99.121257 
1467.000000	99.116577 
1466.000000	99.114808 
1465.000000	99.116533 
1464.000000	99.120430 
1463.000000	99.123461 
1462.000000	99.124403 
1461.000000	99.123838 
1460.000000	99.122632 
1459.000000	99.120403 
1458.000000	99.115268 
1457.000000	99.105230 
1456.000000	99.093087 
1455.000000	99.085323 
1454.000000	99.082283 
1453.000000	99.083510 
1452.000000	99.089310 
1451.000000	99.097092 
1450.000000	99.102900 
1449.000000	99.104467 
1448.000000	99.101799 
1447.000000	99.097799 
1446.000000	99.095097 
1445.000000	99.095099 
1444.000000	99.097947 
1443.000000	99.101074 
1442.000000	99.102866 
1441.000000	99.103739 
1440.000000	99.104786 
1439.000000	99.105726 
1438.000000	99.107844 
1437.000000	99.112677 
1436.000000	99.116906 
1435.000000	99.116414 
1434.000000	99.111571 
1433.000000	99.105034 
1432.000000	99.099208 
1431.000000	99.095056 
1430.000000	99.092422 
1429.000000	99.091202 
1428.000000	99.090119 
1427.000000	99.088513 
1426.000000	99.086233 
1425.000000	99.084817 
1424.000000	99.085627 
1423.000000	99.085723 
1422.000000	99.082078 
1421.000000	99.075168 
1420.000000	99.068177 
1419.000000	99.061931 
1418.000000	99.056145 
1417.000000	99.051579 
1416.000000	99.045908 
1415.000000	99.036608 
1414.000000	99.024706 
1413.000000	99.014091 
1412.000000	99.007264 
1411.000000	99.002273 
1410.000000	98.996421 
1409.000000	98.990228 
1408.000000	98.985806 
1407.000000	98.985228 
1406.000000	98.988548 
1405.000000	98.994272 
1404.000000	99.001276 
1403.000000	99.008818 
1402.000000	99.017590 
1401.000000	99.028426 
1400.000000	99.040068 
1399.000000	99.047998 
1398.000000	99.047868 
1397.000000	99.038230 
1396.000000	99.020121 
1395.000000	99.000210 
1394.000000	98.990195 
1393.000000	98.997646 
1392.000000	99.017969 
1391.000000	99.039463 
1390.000000	99.054048 
1389.000000	99.060400 
1388.000000	99.060059 
1387.000000	99.054316 
1386.000000	99.045993 
1385.000000	99.039805 
1384.000000	99.038340 
1383.000000	99.039286 
1382.000000	99.038737 
1381.000000	99.035723 
1380.000000	99.033173 
1379.000000	99.034558 
1378.000000	99.040044 
1377.000000	99.046803 
1376.000000	99.052135 
1375.000000	99.055707 
1374.000000	99.059266 
1373.000000	99.065239 
1372.000000	99.074014 
1371.000000	99.083355 
1370.000000	99.090256 
1369.000000	99.093753 
1368.000000	99.095790 
1367.000000	99.098217 
1366.000000	99.101355 
1365.000000	99.104946 
1364.000000	99.109235 
1363.000000	99.114192 
1362.000000	99.118691 
1361.000000	99.121326 
1360.000000	99.122072 
1359.000000	99.122827 
1358.000000	99.125992 
1357.000000	99.132236 
1356.000000	99.139449 
1355.000000	99.144366 
1354.000000	99.146129 
1353.000000	99.146890 
1352.000000	99.148247 
1351.000000	99.149699 
1350.000000	99.149893 
1349.000000	99.149118 
1348.000000	99.149092 
1347.000000	99.149976 
1346.000000	99.150702 
1345.000000	99.151055 
1344.000000	99.151884 
1343.000000	99.153124 
1342.000000	99.153941 
1341.000000	99.154651 
1340.000000	99.156586 
1339.000000	99.159409 
1338.000000	99.161062 
1337.000000	99.161106 
1336.000000	99.161386 
1335.000000	99.162940 
1334.000000	99.164546 
1333.000000	99.164861 
1332.000000	99.164158 
1331.000000	99.163086 
1330.000000	99.161417 
1329.000000	99.159337 
1328.000000	99.158290 
1327.000000	99.159035 
1326.000000	99.159842 
1325.000000	99.158720 
1324.000000	99.156356 
1323.000000	99.154953 
1322.000000	99.155461 
1321.000000	99.157270 
1320.000000	99.159926 
1319.000000	99.163329 
1318.000000	99.166468 
1317.000000	99.167388 
1316.000000	99.164943 
1315.000000	99.160001 
1314.000000	99.154768 
1313.000000	99.151108 
1312.000000	99.149360 
1311.000000	99.148711 
1310.000000	99.148519 
1309.000000	99.148800 
1308.000000	99.149155 
1307.000000	99.148264 
1306.000000	99.145292 
1305.000000	99.141703 
1304.000000	99.140358 
1303.000000	99.142345 
1302.000000	99.145902 
1301.000000	99.148497 
1300.000000	99.149147 
1299.000000	99.148529 
1298.000000	99.148094 
1297.000000	99.149238 
1296.000000	99.152191 
1295.000000	99.155104 
1294.000000	99.155195 
1293.000000	99.151434 
1292.000000	99.145345 
1291.000000	99.139112 
1290.000000	99.134021 
1289.000000	99.130895 
1288.000000	99.130337 
1287.000000	99.131395 
1286.000000	99.131299 
1285.000000	99.128061 
1284.000000	99.122599 
1283.000000	99.117147 
1282.000000	99.112334 
1281.000000	99.107189 
1280.000000	99.101600 
1279.000000	99.096920 
1278.000000	99.093942 
1277.000000	99.091845 
1276.000000	99.089658 
1275.000000	99.087562 
1274.000000	99.085906 
1273.000000	99.083910 
1272.000000	99.080321 
1271.000000	99.075110 
1270.000000	99.069742 
1269.000000	99.065587 
1268.000000	99.062380 
1267.000000	99.058263 
1266.000000	99.051514 
1265.000000	99.042482 
1264.000000	99.033584 
1263.000000	99.026989 
1262.000000	99.022388 
1261.000000	99.017582 
1260.000000	99.011310 
1259.000000	99.004561 
1258.000000	98.998874 
1257.000000	98.994481 
1256.000000	98.990760 
1255.000000	98.987543 
1254.000000	98.984767 
1253.000000	98.981461 
1252.000000	98.976714 
1251.000000	98.971841 
1250.000000	98.970061 
1249.000000	98.973192 
1248.000000	98.979475 
1247.000000	98.985071 
1246.000000	98.986683 
1245.000000	98.982171 
1244.000000	98.970484 
1243.000000	98.953573 
1242.000000	98.937709 
1241.000000	98.929725 
1240.000000	98.930683 
1239.000000	98.934809 
1238.000000	98.935686 
1237.000000	98.932163 
1236.000000	98.927147 
1235.000000	98.922454 
1234.000000	98.917077 
1233.000000	98.909689 
1232.000000	98.900383 
1231.000000	98.889753 
1230.000000	98.878332 
1229.000000	98.867674 
1228.000000	98.860351 
1227.000000	98.857540 
1226.000000	98.857173 
1225.000000	98.855481 
1224.000000	98.850157 
1223.000000	98.841513 
1222.000000	98.831106 
1221.000000	98.820164 
1220.000000	98.809360 
1219.000000	98.799227 
1218.000000	98.790061 
1217.000000	98.781347 
1216.000000	98.771620 
1215.000000	98.759279 
1214.000000	98.743678 
1213.000000	98.725335 
1212.000000	98.705195 
1211.000000	98.684278 
1210.000000	98.664136 
1209.000000	98.646635 
1208.000000	98.632260 
1207.000000	98.618943 
1206.000000	98.603725 
1205.000000	98.585801 
1204.000000	98.567024 
1203.000000	98.549232 
1202.000000	98.532146 
1201.000000	98.514430 
1200.000000	98.495860 
1199.000000	98.477419 
1198.000000	98.459766 
1197.000000	98.442454 
1196.000000	98.424306 
1195.000000	98.404006 
1194.000000	98.380897 
1193.000000	98.355998 
1192.000000	98.331632 
1191.000000	98.308970 
1190.000000	98.286422 
1189.000000	98.261673 
1188.000000	98.235034 
1187.000000	98.209442 
1186.000000	98.187177 
1185.000000	98.167902 
1184.000000	98.149869 
1183.000000	98.131420 
1182.000000	98.111018 
1181.000000	98.087614 
1180.000000	98.061895 
1179.000000	98.035913 
1178.000000	98.010596 
1177.000000	97.984673 
1176.000000	97.956727 
1175.000000	97.926926 
1174.000000	97.895675 
1173.000000	97.862071 
1172.000000	97.825532 
1171.000000	97.788238 
1170.000000	97.753946 
1169.000000	97.724209 
1168.000000	97.697150 
1167.000000	97.670433 
1166.000000	97.644780 
1165.000000	97.624387 
1164.000000	97.614234 
1163.000000	97.616726 
1162.000000	97.630079 
1161.000000	97.649454 
1160.000000	97.669456 
1159.000000	97.685498 
1158.000000	97.693499 
1157.000000	97.689676 
1156.000000	97.671992 
1155.000000	97.642620 
1154.000000	97.608516 
1153.000000	97.577794 
1152.000000	97.554008 
1151.000000	97.533861 
1150.000000	97.511385 
1149.000000	97.484410 
1148.000000	97.455857 
1147.000000	97.428755 
1146.000000	97.402077 
1145.000000	97.372682 
1144.000000	97.339658 
1143.000000	97.304889 
1142.000000	97.270635 
1141.000000	97.238767 
1140.000000	97.211312 
1139.000000	97.188612 
1138.000000	97.166767 
1137.000000	97.139854 
1136.000000	97.105797 
1135.000000	97.068255 
1134.000000	97.031871 
1133.000000	96.997308 
1132.000000	96.961967 
1131.000000	96.924190 
1130.000000	96.885499 
1129.000000	96.849124 
1128.000000	96.816589 
1127.000000	96.785286 
1126.000000	96.750104 
1125.000000	96.708771 
1124.000000	96.664824 
1123.000000	96.623572 
1122.000000	96.585954 
1121.000000	96.548777 
1120.000000	96.510174 
1119.000000	96.471458 
1118.000000	96.433661 
1117.000000	96.396080 
1116.000000	96.359249 
1115.000000	96.325778 
1114.000000	96.296442 
1113.000000	96.268293 
1112.000000	96.238406 
1111.000000	96.206953 
1110.000000	96.174912 
1109.000000	96.141579 
1108.000000	96.106651 
1107.000000	96.072576 
1106.000000	96.042035 
1105.000000	96.014096 
1104.000000	95.985179 
1103.000000	95.953312 
1102.000000	95.919983 
1101.000000	95.888389 
1100.000000	95.860748 
1099.000000	95.836911 
1098.000000	95.814814 
1097.000000	95.792533 
1096.000000	95.769895 
1095.000000	95.747164 
1094.000000	95.722891 
1093.000000	95.694645 
1092.000000	95.661543 
1091.000000	95.624544 
1090.000000	95.585038 
1089.000000	95.545166 
1088.000000	95.508544 
1087.000000	95.477608 
1086.000000	95.450285 
1085.000000	95.422274 
1084.000000	95.392642 
1083.000000	95.364101 
1082.000000	95.337600 
1081.000000	95.310090 
1080.000000	95.278576 
1079.000000	95.243561 
1078.000000	95.207786 
1077.000000	95.174160 
1076.000000	95.145305 
1075.000000	95.122004 
1074.000000	95.101122 
1073.000000	95.077452 
1072.000000	95.047647 
1071.000000	95.009669 
1070.000000	94.959531 
1069.000000	94.893867 
1068.000000	94.817238 
1067.000000	94.742390 
1066.000000	94.679977 
1065.000000	94.630031 
1064.000000	94.585079 
1063.000000	94.538085 
1062.000000	94.485010 
1061.000000	94.423337 
1060.000000	94.352694 
1059.000000	94.276803 
1058.000000	94.202385 
1057.000000	94.135282 
1056.000000	94.077254 
1055.000000	94.025035 
1054.000000	93.972344 
1053.000000	93.914844 
1052.000000	93.853773 
1051.000000	93.793114 
1050.000000	93.733399 
1049.000000	93.670843 
1048.000000	93.602401 
1047.000000	93.528842 
1046.000000	93.453253 
1045.000000	93.379012 
1044.000000	93.308371 
1043.000000	93.240536 
1042.000000	93.172369 
1041.000000	93.103493 
1040.000000	93.038767 
1039.000000	92.982712 
1038.000000	92.933971 
1037.000000	92.889237 
1036.000000	92.849899 
1035.000000	92.819622 
1034.000000	92.797547 
1033.000000	92.779253 
1032.000000	92.762304 
1031.000000	92.745438 
1030.000000	92.725412 
1029.000000	92.702025 
1028.000000	92.684235 
1027.000000	92.682727 
1026.000000	92.695947 
1025.000000	92.710724 
1024.000000	92.717049 
1023.000000	92.715578 
1022.000000	92.711008 
1021.000000	92.705788 
1020.000000	92.701489 
1019.000000	92.699202 
1018.000000	92.696347 
1017.000000	92.688775 
1016.000000	92.677619 
1015.000000	92.668843 
1014.000000	92.664881 
1013.000000	92.661932 
1012.000000	92.656394 
1011.000000	92.648680 
1010.000000	92.640124 
1009.000000	92.631999 
1008.000000	92.628615 
1007.000000	92.635398 
1006.000000	92.651905 
1005.000000	92.671587 
1004.000000	92.689882 
1003.000000	92.708066 
1002.000000	92.728501 
1001.000000	92.751072 
1000.000000	92.775119 
999.000000	 92.799966 
998.000000	 92.822923 
997.000000	 92.841917 
996.000000	 92.860929 
995.000000	 92.887605 
994.000000	 92.924064 
993.000000	 92.964627 
992.000000	 93.003552 
991.000000	 93.040275 
990.000000	 93.076206 
989.000000	 93.111466 
988.000000	 93.146614 
987.000000	 93.183688 
986.000000	 93.224149 
985.000000	 93.268846 
984.000000	 93.319907 
983.000000	 93.378582 
982.000000	 93.441357 
981.000000	 93.502926 
980.000000	 93.563472 
979.000000	 93.628596 
978.000000	 93.701668 
977.000000	 93.780412 
976.000000	 93.861155 
975.000000	 93.941946 
974.000000	 94.021308 
973.000000	 94.098660 
972.000000	 94.176603 
971.000000	 94.258512 
970.000000	 94.343100 
969.000000	 94.425325 
968.000000	 94.503161 
967.000000	 94.579426 
966.000000	 94.656319 
965.000000	 94.732177 
964.000000	 94.804641 
963.000000	 94.873510 
962.000000	 94.939499 
961.000000	 95.003211 
960.000000	 95.065835 
959.000000	 95.127708 
958.000000	 95.185942 
957.000000	 95.236976 
956.000000	 95.282003 
955.000000	 95.326356 
954.000000	 95.372772 
953.000000	 95.418795 
952.000000	 95.461786 
951.000000	 95.502611 
950.000000	 95.542424 
949.000000	 95.579065 
948.000000	 95.609274 
947.000000	 95.632616 
946.000000	 95.651109 
945.000000	 95.666449 
944.000000	 95.679668 
943.000000	 95.692782 
942.000000	 95.708854 
941.000000	 95.729759 
940.000000	 95.753785 
939.000000	 95.775563 
938.000000	 95.789903 
937.000000	 95.797304 
936.000000	 95.804765 
935.000000	 95.819299 
934.000000	 95.841178 
933.000000	 95.865251 
932.000000	 95.887697 
931.000000	 95.908713 
930.000000	 95.929151 
929.000000	 95.947600 
928.000000	 95.961329 
927.000000	 95.968332 
926.000000	 95.968692 
925.000000	 95.965977 
924.000000	 95.966749 
923.000000	 95.975881 
922.000000	 95.991669 
921.000000	 96.007404 
920.000000	 96.017841 
919.000000	 96.022431 
918.000000	 96.023029 
917.000000	 96.021265 
916.000000	 96.018489 
915.000000	 96.015963 
914.000000	 96.014454 
913.000000	 96.015144 
912.000000	 96.021009 
911.000000	 96.035703 
910.000000	 96.061254 
909.000000	 96.097997 
908.000000	 96.145385 
907.000000	 96.200563 
906.000000	 96.257596 
905.000000	 96.311289 
904.000000	 96.361410 
903.000000	 96.411218 
902.000000	 96.463210 
901.000000	 96.518350 
900.000000	 96.577175 
899.000000	 96.637832 
898.000000	 96.694174 
897.000000	 96.740009 
896.000000	 96.775510 
895.000000	 96.806839 
894.000000	 96.839629 
893.000000	 96.875120 
892.000000	 96.912000 
891.000000	 96.948948 
890.000000	 96.985173 
889.000000	 97.020724 
888.000000	 97.056348 
887.000000	 97.091521 
886.000000	 97.123631 
885.000000	 97.151177 
884.000000	 97.176418 
883.000000	 97.202116 
882.000000	 97.227007 
881.000000	 97.248250 
880.000000	 97.267877 
879.000000	 97.292510 
878.000000	 97.325406 
877.000000	 97.361856 
876.000000	 97.393851 
875.000000	 97.417181 
874.000000	 97.433508 
873.000000	 97.447943 
872.000000	 97.465528 
871.000000	 97.488228 
870.000000	 97.514293 
869.000000	 97.541506 
868.000000	 97.570573 
867.000000	 97.603348 
866.000000	 97.638097 
865.000000	 97.669480 
864.000000	 97.694259 
863.000000	 97.714815 
862.000000	 97.735275 
861.000000	 97.755560 
860.000000	 97.771656 
859.000000	 97.781783 
858.000000	 97.790143 
857.000000	 97.803141 
856.000000	 97.822921 
855.000000	 97.846207 
854.000000	 97.868792 
853.000000	 97.888645 
852.000000	 97.904154 
851.000000	 97.912732 
850.000000	 97.914223 
849.000000	 97.913744 
848.000000	 97.917487 
847.000000	 97.926128 
846.000000	 97.935146 
845.000000	 97.940818 
844.000000	 97.942449 
843.000000	 97.939583 
842.000000	 97.931938 
841.000000	 97.922412 
840.000000	 97.914848 
839.000000	 97.907174 
838.000000	 97.892118 
837.000000	 97.867800 
836.000000	 97.842759 
835.000000	 97.826329 
834.000000	 97.818296 
833.000000	 97.813483 
832.000000	 97.812859 
831.000000	 97.821964 
830.000000	 97.838357 
829.000000	 97.848650 
828.000000	 97.842042 
827.000000	 97.822899 
826.000000	 97.806269 
825.000000	 97.802890 
824.000000	 97.811359 
823.000000	 97.823098 
822.000000	 97.831509 
821.000000	 97.836002 
820.000000	 97.839283 
819.000000	 97.843057 
818.000000	 97.847303 
817.000000	 97.852175 
816.000000	 97.857399 
815.000000	 97.858691 
814.000000	 97.847803 
813.000000	 97.818977 
812.000000	 97.773866 
811.000000	 97.717443 
810.000000	 97.650113 
809.000000	 97.566740 
808.000000	 97.463160 
807.000000	 97.341033 
806.000000	 97.206186 
805.000000	 97.065177 
804.000000	 96.925149 
803.000000	 96.794975 
802.000000	 96.683892 
801.000000	 96.598431 
800.000000	 96.540215 
799.000000	 96.505845 
798.000000	 96.490053 
797.000000	 96.490416 
796.000000	 96.507077 
795.000000	 96.536568 
794.000000	 96.570043 
793.000000	 96.601348 
792.000000	 96.633019 
791.000000	 96.669299 
790.000000	 96.706085 
789.000000	 96.733011 
788.000000	 96.743064 
787.000000	 96.734658 
786.000000	 96.706589 
785.000000	 96.657945 
784.000000	 96.593733 
783.000000	 96.525518 
782.000000	 96.464974 
781.000000	 96.419222 
780.000000	 96.391022 
779.000000	 96.378592 
778.000000	 96.375960 
777.000000	 96.379180 
776.000000	 96.392413 
775.000000	 96.422874 
774.000000	 96.469769 
773.000000	 96.523362 
772.000000	 96.574963 
771.000000	 96.622603 
770.000000	 96.666790 
769.000000	 96.706102 
768.000000	 96.738333 
767.000000	 96.762252 
766.000000	 96.777547 
765.000000	 96.786236 
764.000000	 96.793863 
763.000000	 96.805186 
762.000000	 96.818122 
761.000000	 96.825582 
760.000000	 96.824130 
759.000000	 96.818347 
758.000000	 96.816798 
757.000000	 96.825665 
756.000000	 96.844381 
755.000000	 96.863997 
754.000000	 96.872274 
753.000000	 96.865679 
752.000000	 96.855503 
751.000000	 96.857728 
750.000000	 96.877417 
749.000000	 96.906622 
748.000000	 96.935326 
747.000000	 96.959039 
746.000000	 96.977658 
745.000000	 96.993851 
744.000000	 97.012963 
743.000000	 97.038976 
742.000000	 97.070027 
741.000000	 97.102224 
740.000000	 97.136617 
739.000000	 97.176577 
738.000000	 97.218823 
737.000000	 97.253292 
736.000000	 97.272695 
735.000000	 97.277998 
734.000000	 97.275500 
733.000000	 97.273630 
732.000000	 97.281138 
731.000000	 97.301006 
730.000000	 97.325211 
729.000000	 97.341795 
728.000000	 97.348039 
727.000000	 97.350990 
726.000000	 97.355069 
725.000000	 97.356560 
724.000000	 97.351826 
723.000000	 97.343852 
722.000000	 97.338375 
721.000000	 97.339687 
720.000000	 97.352172 
719.000000	 97.378741 
718.000000	 97.414030 
717.000000	 97.444676 
716.000000	 97.459654 
715.000000	 97.457817 
714.000000	 97.445941 
713.000000	 97.434388 
712.000000	 97.434425 
711.000000	 97.451634 
710.000000	 97.478220 
709.000000	 97.497406 
708.000000	 97.498374 
707.000000	 97.482582 
706.000000	 97.454841 
705.000000	 97.416511 
704.000000	 97.371655 
703.000000	 97.331184 
702.000000	 97.302647 
701.000000	 97.279327 
700.000000	 97.245013 
699.000000	 97.188499 
698.000000	 97.112217 
697.000000	 97.030898 
696.000000	 96.964313 
695.000000	 96.926269 
694.000000	 96.916804 
693.000000	 96.926956 
692.000000	 96.950043 
691.000000	 96.983672 
690.000000	 97.023036 
689.000000	 97.061320 
688.000000	 97.097344 
687.000000	 97.132654 
686.000000	 97.159731 
685.000000	 97.165526 
684.000000	 97.150800 
683.000000	 97.134799 
682.000000	 97.135606 
681.000000	 97.154321 
680.000000	 97.180994 
679.000000	 97.205950 
678.000000	 97.221033 
677.000000	 97.222608 
676.000000	 97.220256 
675.000000	 97.232842 
674.000000	 97.263646 
673.000000	 97.289665 
672.000000	 97.289377 
671.000000	 97.272764 
670.000000	 97.271173 
669.000000	 97.309581 
668.000000	 97.379479 
667.000000	 97.430532 
666.000000	 97.430486 
665.000000	 97.396287 
664.000000	 97.359970 
663.000000	 97.349047 
662.000000	 97.370682 
661.000000	 97.400772 
660.000000	 97.406873 
659.000000	 97.381180 
658.000000	 97.340758 
657.000000	 97.301336 
656.000000	 97.266468 
655.000000	 97.241539 
654.000000	 97.235287 
653.000000	 97.244507 
652.000000	 97.256331 
651.000000	 97.265370 
650.000000	 97.274534 

