4000.000000	99.287148 
3999.000000	99.284839 
3998.000000	99.283606 
3997.000000	99.285097 
3996.000000	99.288377 
3995.000000	99.290645 
3994.000000	99.290155 
3993.000000	99.287966 
3992.000000	99.286519 
3991.000000	99.286850 
3990.000000	99.287675 
3989.000000	99.286958 
3988.000000	99.283925 
3987.000000	99.279728 
3986.000000	99.276645 
3985.000000	99.276633 
3984.000000	99.280086 
3983.000000	99.285764 
3982.000000	99.291945 
3981.000000	99.297425 
3980.000000	99.301506 
3979.000000	99.303619 
3978.000000	99.303593 
3977.000000	99.302149 
3976.000000	99.300464 
3975.000000	99.298900 
3974.000000	99.296495 
3973.000000	99.292108 
3972.000000	99.286121 
3971.000000	99.280779 
3970.000000	99.278886 
3969.000000	99.281841 
3968.000000	99.288371 
3967.000000	99.295122 
3966.000000	99.298711 
3965.000000	99.297829 
3964.000000	99.293640 
3963.000000	99.288711 
3962.000000	99.285424 
3961.000000	99.284705 
3960.000000	99.285674 
3959.000000	99.286414 
3958.000000	99.285845 
3957.000000	99.284940 
3956.000000	99.285411 
3955.000000	99.287347 
3954.000000	99.288767 
3953.000000	99.287895 
3952.000000	99.284921 
3951.000000	99.281424 
3950.000000	99.278590 
3949.000000	99.276194 
3948.000000	99.273495 
3947.000000	99.271028 
3946.000000	99.270841 
3945.000000	99.273996 
3944.000000	99.278246 
3943.000000	99.279527 
3942.000000	99.276476 
3941.000000	99.272553 
3940.000000	99.272132 
3939.000000	99.275112 
3938.000000	99.277433 
3937.000000	99.276075 
3936.000000	99.271585 
3935.000000	99.266525 
3934.000000	99.263012 
3933.000000	99.262592 
3932.000000	99.266204 
3931.000000	99.272903 
3930.000000	99.279807 
3929.000000	99.283786 
3928.000000	99.283880 
3927.000000	99.281307 
3926.000000	99.277196 
3925.000000	99.271744 
3924.000000	99.265968 
3923.000000	99.262309 
3922.000000	99.261345 
3921.000000	99.260558 
3920.000000	99.258446 
3919.000000	99.256930 
3918.000000	99.257716 
3917.000000	99.259406 
3916.000000	99.260411 
3915.000000	99.262406 
3914.000000	99.267434 
3913.000000	99.273559 
3912.000000	99.276495 
3911.000000	99.274155 
3910.000000	99.267836 
3909.000000	99.260749 
3908.000000	99.255446 
3907.000000	99.253328 
3906.000000	99.253478 
3905.000000	99.252805 
3904.000000	99.248079 
3903.000000	99.240613 
3902.000000	99.236468 
3901.000000	99.238928 
3900.000000	99.244000 
3899.000000	99.246084 
3898.000000	99.245009 
3897.000000	99.243922 
3896.000000	99.243485 
3895.000000	99.242934 
3894.000000	99.245334 
3893.000000	99.254938 
3892.000000	99.267868 
3891.000000	99.273062 
3890.000000	99.267760 
3889.000000	99.263178 
3888.000000	99.267042 
3887.000000	99.274618 
3886.000000	99.275753 
3885.000000	99.265801 
3884.000000	99.253710 
3883.000000	99.251905 
3882.000000	99.259267 
3881.000000	99.265661 
3880.000000	99.263675 
3879.000000	99.254880 
3878.000000	99.249222 
3877.000000	99.252419 
3876.000000	99.259371 
3875.000000	99.261440 
3874.000000	99.254562 
3873.000000	99.244943 
3872.000000	99.242749 
3871.000000	99.247382 
3870.000000	99.247168 
3869.000000	99.237618 
3868.000000	99.232243 
3867.000000	99.242057 
3866.000000	99.257416 
3865.000000	99.265687 
3864.000000	99.267242 
3863.000000	99.268252 
3862.000000	99.269892 
3861.000000	99.267868 
3860.000000	99.259426 
3859.000000	99.245749 
3858.000000	99.228074 
3857.000000	99.209967 
3856.000000	99.199833 
3855.000000	99.207791 
3854.000000	99.227443 
3853.000000	99.233273 
3852.000000	99.225267 
3851.000000	99.233211 
3850.000000	99.257688 
3849.000000	99.275338 
3848.000000	99.278561 
3847.000000	99.274551 
3846.000000	99.269955 
3845.000000	99.266301 
3844.000000	99.262826 
3843.000000	99.258524 
3842.000000	99.254029 
3841.000000	99.252314 
3840.000000	99.255217 
3839.000000	99.261142 
3838.000000	99.265012 
3837.000000	99.263256 
3836.000000	99.257914 
3835.000000	99.254604 
3834.000000	99.256163 
3833.000000	99.261512 
3832.000000	99.266971 
3831.000000	99.269289 
3830.000000	99.269309 
3829.000000	99.270194 
3828.000000	99.272006 
3827.000000	99.270322 
3826.000000	99.261467 
3825.000000	99.249850 
3824.000000	99.245077 
3823.000000	99.251537 
3822.000000	99.262238 
3821.000000	99.262337 
3820.000000	99.249337 
3819.000000	99.243219 
3818.000000	99.254497 
3817.000000	99.270050 
3816.000000	99.274495 
3815.000000	99.266402 
3814.000000	99.260366 
3813.000000	99.264539 
3812.000000	99.267608 
3811.000000	99.260582 
3810.000000	99.251001 
3809.000000	99.250939 
3808.000000	99.261036 
3807.000000	99.267783 
3806.000000	99.261793 
3805.000000	99.253074 
3804.000000	99.254437 
3803.000000	99.263755 
3802.000000	99.269916 
3801.000000	99.262488 
3800.000000	99.247657 
3799.000000	99.244564 
3798.000000	99.253844 
3797.000000	99.261543 
3796.000000	99.261684 
3795.000000	99.259011 
3794.000000	99.260859 
3793.000000	99.267907 
3792.000000	99.275283 
3791.000000	99.279357 
3790.000000	99.279790 
3789.000000	99.277687 
3788.000000	99.275971 
3787.000000	99.278441 
3786.000000	99.285855 
3785.000000	99.293655 
3784.000000	99.296975 
3783.000000	99.296453 
3782.000000	99.296160 
3781.000000	99.296888 
3780.000000	99.294864 
3779.000000	99.286644 
3778.000000	99.274768 
3777.000000	99.266211 
3776.000000	99.263349 
3775.000000	99.262404 
3774.000000	99.260794 
3773.000000	99.261200 
3772.000000	99.266169 
3771.000000	99.272169 
3770.000000	99.272201 
3769.000000	99.265843 
3768.000000	99.261549 
3767.000000	99.264962 
3766.000000	99.270867 
3765.000000	99.271477 
3764.000000	99.267252 
3763.000000	99.265627 
3762.000000	99.269923 
3761.000000	99.276040 
3760.000000	99.279921 
3759.000000	99.280826 
3758.000000	99.278362 
3757.000000	99.272039 
3756.000000	99.263221 
3755.000000	99.255297 
3754.000000	99.249977 
3753.000000	99.247993 
3752.000000	99.250744 
3751.000000	99.255042 
3750.000000	99.251243 
3749.000000	99.236285 
3748.000000	99.220856 
3747.000000	99.216154 
3746.000000	99.223135 
3745.000000	99.233055 
3744.000000	99.230242 
3743.000000	99.218747 
3742.000000	99.224116 
3741.000000	99.241906 
3740.000000	99.247742 
3739.000000	99.240585 
3738.000000	99.234417 
3737.000000	99.235981 
3736.000000	99.240233 
3735.000000	99.243077 
3734.000000	99.247254 
3733.000000	99.253132 
3732.000000	99.255051 
3731.000000	99.251793 
3730.000000	99.250093 
3729.000000	99.253654 
3728.000000	99.258712 
3727.000000	99.261439 
3726.000000	99.262900 
3725.000000	99.266773 
3724.000000	99.273538 
3723.000000	99.278195 
3722.000000	99.277335 
3721.000000	99.273565 
3720.000000	99.271662 
3719.000000	99.272142 
3718.000000	99.270320 
3717.000000	99.262260 
3716.000000	99.249668 
3715.000000	99.237813 
3714.000000	99.229699 
3713.000000	99.225387 
3712.000000	99.223306 
3711.000000	99.221815 
3710.000000	99.222078 
3709.000000	99.225776 
3708.000000	99.230383 
3707.000000	99.231470 
3706.000000	99.227523 
3705.000000	99.221056 
3704.000000	99.215622 
3703.000000	99.212775 
3702.000000	99.210573 
3701.000000	99.205902 
3700.000000	99.199691 
3699.000000	99.195581 
3698.000000	99.192872 
3697.000000	99.186641 
3696.000000	99.175174 
3695.000000	99.162889 
3694.000000	99.154708 
3693.000000	99.151145 
3692.000000	99.151159 
3691.000000	99.154612 
3690.000000	99.158810 
3689.000000	99.157146 
3688.000000	99.147839 
3687.000000	99.141097 
3686.000000	99.146560 
3685.000000	99.158887 
3684.000000	99.165952 
3683.000000	99.164020 
3682.000000	99.157300 
3681.000000	99.148034 
3680.000000	99.132681 
3679.000000	99.110816 
3678.000000	99.091595 
3677.000000	99.085327 
3676.000000	99.089013 
3675.000000	99.086485 
3674.000000	99.078254 
3673.000000	99.082049 
3672.000000	99.096870 
3671.000000	99.109170 
3670.000000	99.112348 
3669.000000	99.106409 
3668.000000	99.100742 
3667.000000	99.102271 
3666.000000	99.106139 
3665.000000	99.107548 
3664.000000	99.107321 
3663.000000	99.107271 
3662.000000	99.106439 
3661.000000	99.102773 
3660.000000	99.096999 
3659.000000	99.093565 
3658.000000	99.095823 
3657.000000	99.100416 
3656.000000	99.099317 
3655.000000	99.091714 
3654.000000	99.086748 
3653.000000	99.088235 
3652.000000	99.091984 
3651.000000	99.095785 
3650.000000	99.098911 
3649.000000	99.097778 
3648.000000	99.092845 
3647.000000	99.090117 
3646.000000	99.094129 
3645.000000	99.104790 
3644.000000	99.118195 
3643.000000	99.129552 
3642.000000	99.136142 
3641.000000	99.138934 
3640.000000	99.141055 
3639.000000	99.144894 
3638.000000	99.150570 
3637.000000	99.157729 
3636.000000	99.164818 
3635.000000	99.166566 
3634.000000	99.157262 
3633.000000	99.138469 
3632.000000	99.120386 
3631.000000	99.113178 
3630.000000	99.119199 
3629.000000	99.127027 
3628.000000	99.123587 
3627.000000	99.119108 
3626.000000	99.127299 
3625.000000	99.139697 
3624.000000	99.144493 
3623.000000	99.141276 
3622.000000	99.135290 
3621.000000	99.130732 
3620.000000	99.129006 
3619.000000	99.129357 
3618.000000	99.131462 
3617.000000	99.137521 
3616.000000	99.147671 
3615.000000	99.156866 
3614.000000	99.158863 
3613.000000	99.151262 
3612.000000	99.138300 
3611.000000	99.128230 
3610.000000	99.126591 
3609.000000	99.132501 
3608.000000	99.140861 
3607.000000	99.147832 
3606.000000	99.153654 
3605.000000	99.159686 
3604.000000	99.165830 
3603.000000	99.171644 
3602.000000	99.176845 
3601.000000	99.181211 
3600.000000	99.185463 
3599.000000	99.191092 
3598.000000	99.197737 
3597.000000	99.202469 
3596.000000	99.202707 
3595.000000	99.198084 
3594.000000	99.190735 
3593.000000	99.184447 
3592.000000	99.182842 
3591.000000	99.186645 
3590.000000	99.193973 
3589.000000	99.201341 
3588.000000	99.204314 
3587.000000	99.200470 
3586.000000	99.194162 
3585.000000	99.192576 
3584.000000	99.196803 
3583.000000	99.202292 
3582.000000	99.204913 
3581.000000	99.203461 
3580.000000	99.198892 
3579.000000	99.193089 
3578.000000	99.187773 
3577.000000	99.183857 
3576.000000	99.182050 
3575.000000	99.182908 
3574.000000	99.186199 
3573.000000	99.190163 
3572.000000	99.192102 
3571.000000	99.190008 
3570.000000	99.183920 
3569.000000	99.176014 
3568.000000	99.169227 
3567.000000	99.165831 
3566.000000	99.167600 
3565.000000	99.175615 
3564.000000	99.187020 
3563.000000	99.195746 
3562.000000	99.198209 
3561.000000	99.195846 
3560.000000	99.192308 
3559.000000	99.189699 
3558.000000	99.187672 
3557.000000	99.185245 
3556.000000	99.182847 
3555.000000	99.182267 
3554.000000	99.184286 
3553.000000	99.187035 
3552.000000	99.187360 
3551.000000	99.184071 
3550.000000	99.178607 
3549.000000	99.172959 
3548.000000	99.168580 
3547.000000	99.166951 
3546.000000	99.169014 
3545.000000	99.173974 
3544.000000	99.179589 
3543.000000	99.183550 
3542.000000	99.184635 
3541.000000	99.183113 
3540.000000	99.180450 
3539.000000	99.178406 
3538.000000	99.177769 
3537.000000	99.177991 
3536.000000	99.177996 
3535.000000	99.177423 
3534.000000	99.176680 
3533.000000	99.176161 
3532.000000	99.176041 
3531.000000	99.176679 
3530.000000	99.178607 
3529.000000	99.181833 
3528.000000	99.185843 
3527.000000	99.190034 
3526.000000	99.193680 
3525.000000	99.195440 
3524.000000	99.194212 
3523.000000	99.190706 
3522.000000	99.187157 
3521.000000	99.184949 
3520.000000	99.183318 
3519.000000	99.181002 
3518.000000	99.178378 
3517.000000	99.177089 
3516.000000	99.177809 
3515.000000	99.179529 
3514.000000	99.181352 
3513.000000	99.183844 
3512.000000	99.187664 
3511.000000	99.191529 
3510.000000	99.192928 
3509.000000	99.190810 
3508.000000	99.186881 
3507.000000	99.183762 
3506.000000	99.182127 
3505.000000	99.180002 
3504.000000	99.175025 
3503.000000	99.167550 
3502.000000	99.161760 
3501.000000	99.162853 
3500.000000	99.172176 
3499.000000	99.184990 
3498.000000	99.193436 
3497.000000	99.192544 
3496.000000	99.184145 
3495.000000	99.174736 
3494.000000	99.169434 
3493.000000	99.168310 
3492.000000	99.168306 
3491.000000	99.167638 
3490.000000	99.167582 
3489.000000	99.170142 
3488.000000	99.174916 
3487.000000	99.179015 
3486.000000	99.179834 
3485.000000	99.177336 
3484.000000	99.173782 
3483.000000	99.171755 
3482.000000	99.172064 
3481.000000	99.173136 
3480.000000	99.172777 
3479.000000	99.170797 
3478.000000	99.169500 
3477.000000	99.170861 
3476.000000	99.173607 
3475.000000	99.174125 
3474.000000	99.170692 
3473.000000	99.165731 
3472.000000	99.163121 
3471.000000	99.164109 
3470.000000	99.166701 
3469.000000	99.168342 
3468.000000	99.167980 
3467.000000	99.165974 
3466.000000	99.163308 
3465.000000	99.161023 
3464.000000	99.159472 
3463.000000	99.157843 
3462.000000	99.154978 
3461.000000	99.150891 
3460.000000	99.147126 
3459.000000	99.145460 
3458.000000	99.146435 
3457.000000	99.149013 
3456.000000	99.151316 
3455.000000	99.152099 
3454.000000	99.151906 
3453.000000	99.152435 
3452.000000	99.154537 
3451.000000	99.157263 
3450.000000	99.159123 
3449.000000	99.159580 
3448.000000	99.158875 
3447.000000	99.156954 
3446.000000	99.153789 
3445.000000	99.150560 
3444.000000	99.149162 
3443.000000	99.150231 
3442.000000	99.152364 
3441.000000	99.153649 
3440.000000	99.153575 
3439.000000	99.152907 
3438.000000	99.152131 
3437.000000	99.150804 
3436.000000	99.148481 
3435.000000	99.145868 
3434.000000	99.144577 
3433.000000	99.145641 
3432.000000	99.148496 
3431.000000	99.151406 
3430.000000	99.152660 
3429.000000	99.151371 
3428.000000	99.147731 
3427.000000	99.142817 
3426.000000	99.138187 
3425.000000	99.135307 
3424.000000	99.135033 
3423.000000	99.137217 
3422.000000	99.140544 
3421.000000	99.142999 
3420.000000	99.143102 
3419.000000	99.141135 
3418.000000	99.138960 
3417.000000	99.138145 
3416.000000	99.138223 
3415.000000	99.137159 
3414.000000	99.133789 
3413.000000	99.129505 
3412.000000	99.127113 
3411.000000	99.128163 
3410.000000	99.131826 
3409.000000	99.136102 
3408.000000	99.139271 
3407.000000	99.140124 
3406.000000	99.137955 
3405.000000	99.133518 
3404.000000	99.129700 
3403.000000	99.129995 
3402.000000	99.135572 
3401.000000	99.143997 
3400.000000	99.151129 
3399.000000	99.154385 
3398.000000	99.154499 
3397.000000	99.154233 
3396.000000	99.155303 
3395.000000	99.156686 
3394.000000	99.156296 
3393.000000	99.153924 
3392.000000	99.151557 
3391.000000	99.150651 
3390.000000	99.150240 
3389.000000	99.148499 
3388.000000	99.145297 
3387.000000	99.142179 
3386.000000	99.140299 
3385.000000	99.139524 
3384.000000	99.139436 
3383.000000	99.140027 
3382.000000	99.141051 
3381.000000	99.141511 
3380.000000	99.140348 
3379.000000	99.137449 
3378.000000	99.133886 
3377.000000	99.131370 
3376.000000	99.131324 
3375.000000	99.134016 
3374.000000	99.138420 
3373.000000	99.142916 
3372.000000	99.146097 
3371.000000	99.147105 
3370.000000	99.145988 
3369.000000	99.144201 
3368.000000	99.143982 
3367.000000	99.146200 
3366.000000	99.148902 
3365.000000	99.148923 
3364.000000	99.145221 
3363.000000	99.140151 
3362.000000	99.137249 
3361.000000	99.138027 
3360.000000	99.140907 
3359.000000	99.142863 
3358.000000	99.142169 
3357.000000	99.139930 
3356.000000	99.138976 
3355.000000	99.140881 
3354.000000	99.144205 
3353.000000	99.146181 
3352.000000	99.145956 
3351.000000	99.145499 
3350.000000	99.147312 
3349.000000	99.151973 
3348.000000	99.158081 
3347.000000	99.163736 
3346.000000	99.167467 
3345.000000	99.168355 
3344.000000	99.166172 
3343.000000	99.161531 
3342.000000	99.155621 
3341.000000	99.149928 
3340.000000	99.146156 
3339.000000	99.145597 
3338.000000	99.147815 
3337.000000	99.150187 
3336.000000	99.149720 
3335.000000	99.145819 
3334.000000	99.141006 
3333.000000	99.138720 
3332.000000	99.140466 
3331.000000	99.144887 
3330.000000	99.149208 
3329.000000	99.151487 
3328.000000	99.151847 
3327.000000	99.151834 
3326.000000	99.152698 
3325.000000	99.154445 
3324.000000	99.156509 
3323.000000	99.158854 
3322.000000	99.161769 
3321.000000	99.164637 
3320.000000	99.165620 
3319.000000	99.163249 
3318.000000	99.158324 
3317.000000	99.153756 
3316.000000	99.152217 
3315.000000	99.153868 
3314.000000	99.156495 
3313.000000	99.157916 
3312.000000	99.158185 
3311.000000	99.159279 
3310.000000	99.162568 
3309.000000	99.166879 
3308.000000	99.169506 
3307.000000	99.169028 
3306.000000	99.166503 
3305.000000	99.163601 
3304.000000	99.160354 
3303.000000	99.155734 
3302.000000	99.150340 
3301.000000	99.147247 
3300.000000	99.149265 
3299.000000	99.155716 
3298.000000	99.162726 
3297.000000	99.166701 
3296.000000	99.167058 
3295.000000	99.165682 
3294.000000	99.164615 
3293.000000	99.164699 
3292.000000	99.165725 
3291.000000	99.166957 
3290.000000	99.167490 
3289.000000	99.166692 
3288.000000	99.164779 
3287.000000	99.162892 
3286.000000	99.162344 
3285.000000	99.163625 
3284.000000	99.166096 
3283.000000	99.168626 
3282.000000	99.170374 
3281.000000	99.170903 
3280.000000	99.169724 
3279.000000	99.166450 
3278.000000	99.161821 
3277.000000	99.158038 
3276.000000	99.157143 
3275.000000	99.158942 
3274.000000	99.161138 
3273.000000	99.161632 
3272.000000	99.160102 
3271.000000	99.157341 
3270.000000	99.154100 
3269.000000	99.151206 
3268.000000	99.150104 
3267.000000	99.152224 
3266.000000	99.157674 
3265.000000	99.164911 
3264.000000	99.171696 
3263.000000	99.176270 
3262.000000	99.178158 
3261.000000	99.178440 
3260.000000	99.178869 
3259.000000	99.180178 
3258.000000	99.181313 
3257.000000	99.180562 
3256.000000	99.177225 
3255.000000	99.172189 
3254.000000	99.167460 
3253.000000	99.165317 
3252.000000	99.166932 
3251.000000	99.170875 
3250.000000	99.173649 
3249.000000	99.172950 
3248.000000	99.170241 
3247.000000	99.168992 
3246.000000	99.170382 
3245.000000	99.171999 
3244.000000	99.171328 
3243.000000	99.169432 
3242.000000	99.170134 
3241.000000	99.175749 
3240.000000	99.184096 
3239.000000	99.189823 
3238.000000	99.188974 
3237.000000	99.182629 
3236.000000	99.176003 
3235.000000	99.173639 
3234.000000	99.175664 
3233.000000	99.179040 
3232.000000	99.181752 
3231.000000	99.184392 
3230.000000	99.187648 
3229.000000	99.189966 
3228.000000	99.188892 
3227.000000	99.184058 
3226.000000	99.177756 
3225.000000	99.172778 
3224.000000	99.170469 
3223.000000	99.170599 
3222.000000	99.172205 
3221.000000	99.174315 
3220.000000	99.176325 
3219.000000	99.177937 
3218.000000	99.178783 
3217.000000	99.178409 
3216.000000	99.176943 
3215.000000	99.175524 
3214.000000	99.175417 
3213.000000	99.176593 
3212.000000	99.177807 
3211.000000	99.178378 
3210.000000	99.179321 
3209.000000	99.182078 
3208.000000	99.186297 
3207.000000	99.189609 
3206.000000	99.189973 
3205.000000	99.187918 
3204.000000	99.186056 
3203.000000	99.186580 
3202.000000	99.189786 
3201.000000	99.194924 
3200.000000	99.201306 
3199.000000	99.207720 
3198.000000	99.211637 
3197.000000	99.210809 
3196.000000	99.206113 
3195.000000	99.201476 
3194.000000	99.199945 
3193.000000	99.200605 
3192.000000	99.200467 
3191.000000	99.198878 
3190.000000	99.198542 
3189.000000	99.201997 
3188.000000	99.208423 
3187.000000	99.214587 
3186.000000	99.217943 
3185.000000	99.217870 
3184.000000	99.214693 
3183.000000	99.209105 
3182.000000	99.202756 
3181.000000	99.198069 
3180.000000	99.196614 
3179.000000	99.197958 
3178.000000	99.200298 
3177.000000	99.201761 
3176.000000	99.201017 
3175.000000	99.197814 
3174.000000	99.193967 
3173.000000	99.193090 
3172.000000	99.197638 
3171.000000	99.205789 
3170.000000	99.212548 
3169.000000	99.214747 
3168.000000	99.214142 
3167.000000	99.214753 
3166.000000	99.217952 
3165.000000	99.221412 
3164.000000	99.222488 
3163.000000	99.221146 
3162.000000	99.219291 
3161.000000	99.218462 
3160.000000	99.218999 
3159.000000	99.220624 
3158.000000	99.222698 
3157.000000	99.224135 
3156.000000	99.223964 
3155.000000	99.222141 
3154.000000	99.219518 
3153.000000	99.217130 
3152.000000	99.215756 
3151.000000	99.215722 
3150.000000	99.216561 
3149.000000	99.217203 
3148.000000	99.217204 
3147.000000	99.217526 
3146.000000	99.219258 
3145.000000	99.221696 
3144.000000	99.222799 
3143.000000	99.221917 
3142.000000	99.221099 
3141.000000	99.222917 
3140.000000	99.227436 
3139.000000	99.232035 
3138.000000	99.234085 
3137.000000	99.233298 
3136.000000	99.231380 
3135.000000	99.229917 
3134.000000	99.228992 
3133.000000	99.227775 
3132.000000	99.226070 
3131.000000	99.224803 
3130.000000	99.224824 
3129.000000	99.225656 
3128.000000	99.226060 
3127.000000	99.225750 
3126.000000	99.225769 
3125.000000	99.226849 
3124.000000	99.228143 
3123.000000	99.228174 
3122.000000	99.226677 
3121.000000	99.225041 
3120.000000	99.225221 
3119.000000	99.228278 
3118.000000	99.233371 
3117.000000	99.237771 
3116.000000	99.238542 
3115.000000	99.234993 
3114.000000	99.229197 
3113.000000	99.223652 
3112.000000	99.219084 
3111.000000	99.215286 
3110.000000	99.213112 
3109.000000	99.213905 
3108.000000	99.217080 
3107.000000	99.220026 
3106.000000	99.221053 
3105.000000	99.221238 
3104.000000	99.222745 
3103.000000	99.226346 
3102.000000	99.231250 
3101.000000	99.236328 
3100.000000	99.240425 
3099.000000	99.242057 
3098.000000	99.240359 
3097.000000	99.236599 
3096.000000	99.233699 
3095.000000	99.233639 
3094.000000	99.235815 
3093.000000	99.238195 
3092.000000	99.239379 
3091.000000	99.239135 
3090.000000	99.237703 
3089.000000	99.235672 
3088.000000	99.234431 
3087.000000	99.235629 
3086.000000	99.239447 
3085.000000	99.243804 
3084.000000	99.245987 
3083.000000	99.245127 
3082.000000	99.242763 
3081.000000	99.241079 
3080.000000	99.240959 
3079.000000	99.241686 
3078.000000	99.241867 
3077.000000	99.240375 
3076.000000	99.237015 
3075.000000	99.232985 
3074.000000	99.230497 
3073.000000	99.231256 
3072.000000	99.235161 
3071.000000	99.240700 
3070.000000	99.246194 
3069.000000	99.250015 
3068.000000	99.250107 
3067.000000	99.244925 
3066.000000	99.235772 
3065.000000	99.227246 
3064.000000	99.223899 
3063.000000	99.226161 
3062.000000	99.230268 
3061.000000	99.232345 
3060.000000	99.232035 
3059.000000	99.231947 
3058.000000	99.234261 
3057.000000	99.238561 
3056.000000	99.242759 
3055.000000	99.245397 
3054.000000	99.246587 
3053.000000	99.247000 
3052.000000	99.246676 
3051.000000	99.245273 
3050.000000	99.243142 
3049.000000	99.241363 
3048.000000	99.240308 
3047.000000	99.238678 
3046.000000	99.234796 
3045.000000	99.228847 
3044.000000	99.223206 
3043.000000	99.220214 
3042.000000	99.220026 
3041.000000	99.220888 
3040.000000	99.221051 
3039.000000	99.219977 
3038.000000	99.218004 
3037.000000	99.215546 
3036.000000	99.212847 
3035.000000	99.210051 
3034.000000	99.207171 
3033.000000	99.204035 
3032.000000	99.200364 
3031.000000	99.195830 
3030.000000	99.189967 
3029.000000	99.182214 
3028.000000	99.172420 
3027.000000	99.161580 
3026.000000	99.151762 
3025.000000	99.144645 
3024.000000	99.139824 
3023.000000	99.134830 
3022.000000	99.127165 
3021.000000	99.116289 
3020.000000	99.103653 
3019.000000	99.091303 
3018.000000	99.080758 
3017.000000	99.072701 
3016.000000	99.066812 
3015.000000	99.061720 
3014.000000	99.055699 
3013.000000	99.047644 
3012.000000	99.037082 
3011.000000	99.023476 
3010.000000	99.006592 
3009.000000	98.987921 
3008.000000	98.970845 
3007.000000	98.958372 
3006.000000	98.950720 
3005.000000	98.945372 
3004.000000	98.939068 
3003.000000	98.929456 
3002.000000	98.915685 
3001.000000	98.898768 
3000.000000	98.881395 
2999.000000	98.866272 
2998.000000	98.854298 
2997.000000	98.844958 
2996.000000	98.838152 
2995.000000	98.833922 
2994.000000	98.829625 
2993.000000	98.819257 
2992.000000	98.798248 
2991.000000	98.769370 
2990.000000	98.742299 
2989.000000	98.726051 
2988.000000	98.722065 
2987.000000	98.725043 
2986.000000	98.729529 
2985.000000	98.734407 
2984.000000	98.741162 
2983.000000	98.749622 
2982.000000	98.756915 
2981.000000	98.760295 
2980.000000	98.759841 
2979.000000	98.757813 
2978.000000	98.756054 
2977.000000	98.754755 
2976.000000	98.753456 
2975.000000	98.752225 
2974.000000	98.751309 
2973.000000	98.750147 
2972.000000	98.747599 
2971.000000	98.743465 
2970.000000	98.739568 
2969.000000	98.739004 
2968.000000	98.744088 
2967.000000	98.754631 
2966.000000	98.767910 
2965.000000	98.780421 
2964.000000	98.790094 
2963.000000	98.797277 
2962.000000	98.803743 
2961.000000	98.810750 
2960.000000	98.818037 
2959.000000	98.824649 
2958.000000	98.830496 
2957.000000	98.836664 
2956.000000	98.843825 
2955.000000	98.850577 
2954.000000	98.854305 
2953.000000	98.854605 
2952.000000	98.855393 
2951.000000	98.862057 
2950.000000	98.875493 
2949.000000	98.889774 
2948.000000	98.897242 
2947.000000	98.896017 
2946.000000	98.891422 
2945.000000	98.889766 
2944.000000	98.892123 
2943.000000	98.895064 
2942.000000	98.896015 
2941.000000	98.895812 
2940.000000	98.896086 
2939.000000	98.896276 
2938.000000	98.894520 
2937.000000	98.890562 
2936.000000	98.886403 
2935.000000	98.884129 
2934.000000	98.883955 
2933.000000	98.884623 
2932.000000	98.885071 
2931.000000	98.885198 
2930.000000	98.885043 
2929.000000	98.883710 
2928.000000	98.879768 
2927.000000	98.873137 
2926.000000	98.866150 
2925.000000	98.861873 
2924.000000	98.861220 
2923.000000	98.862438 
2922.000000	98.863628 
2921.000000	98.864849 
2920.000000	98.867082 
2919.000000	98.869964 
2918.000000	98.871665 
2917.000000	98.870811 
2916.000000	98.867721 
2915.000000	98.863863 
2914.000000	98.860807 
2913.000000	98.859557 
2912.000000	98.859909 
2911.000000	98.860264 
2910.000000	98.858886 
2909.000000	98.855688 
2908.000000	98.852176 
2907.000000	98.849267 
2906.000000	98.845819 
2905.000000	98.839804 
2904.000000	98.830502 
2903.000000	98.819484 
2902.000000	98.810246 
2901.000000	98.807266 
2900.000000	98.813899 
2899.000000	98.829387 
2898.000000	98.847833 
2897.000000	98.861760 
2896.000000	98.867910 
2895.000000	98.869351 
2894.000000	98.871703 
2893.000000	98.877662 
2892.000000	98.885499 
2891.000000	98.891930 
2890.000000	98.895407 
2889.000000	98.896752 
2888.000000	98.897694 
2887.000000	98.899512 
2886.000000	98.902797 
2885.000000	98.907679 
2884.000000	98.913801 
2883.000000	98.920216 
2882.000000	98.925884 
2881.000000	98.930785 
2880.000000	98.936475 
2879.000000	98.945019 
2878.000000	98.956953 
2877.000000	98.970290 
2876.000000	98.981755 
2875.000000	98.989068 
2874.000000	98.992078 
2873.000000	98.992169 
2872.000000	98.991210 
2871.000000	98.991078 
2870.000000	98.993414 
2869.000000	98.998958 
2868.000000	99.007038 
2867.000000	99.016222 
2866.000000	99.025708 
2865.000000	99.035786 
2864.000000	99.046706 
2863.000000	99.057424 
2862.000000	99.066026 
2861.000000	99.071493 
2860.000000	99.074807 
2859.000000	99.078201 
2858.000000	99.083432 
2857.000000	99.090850 
2856.000000	99.099826 
2855.000000	99.109659 
2854.000000	99.119742 
2853.000000	99.128971 
2852.000000	99.135679 
2851.000000	99.139014 
2850.000000	99.140466 
2849.000000	99.143258 
2848.000000	99.149546 
2847.000000	99.158458 
2846.000000	99.167232 
2845.000000	99.173845 
2844.000000	99.177948 
2843.000000	99.179944 
2842.000000	99.180601 
2841.000000	99.181656 
2840.000000	99.185202 
2839.000000	99.191310 
2838.000000	99.197041 
2837.000000	99.199069 
2836.000000	99.197259 
2835.000000	99.194926 
2834.000000	99.195594 
2833.000000	99.200058 
2832.000000	99.206408 
2831.000000	99.212024 
2830.000000	99.215398 
2829.000000	99.216735 
2828.000000	99.217417 
2827.000000	99.218703 
2826.000000	99.220702 
2825.000000	99.222625 
2824.000000	99.223994 
2823.000000	99.225373 
2822.000000	99.227783 
2821.000000	99.231585 
2820.000000	99.236041 
2819.000000	99.239950 
2818.000000	99.242716 
2817.000000	99.244807 
2816.000000	99.247027 
2815.000000	99.249436 
2814.000000	99.251306 
2813.000000	99.252180 
2812.000000	99.252404 
2811.000000	99.252276 
2810.000000	99.251292 
2809.000000	99.248906 
2808.000000	99.245726 
2807.000000	99.243194 
2806.000000	99.242198 
2805.000000	99.242684 
2804.000000	99.244463 
2803.000000	99.247423 
2802.000000	99.250777 
2801.000000	99.253035 
2800.000000	99.253361 
2799.000000	99.252544 
2798.000000	99.252115 
2797.000000	99.252738 
2796.000000	99.253757 
2795.000000	99.254118 
2794.000000	99.253437 
2793.000000	99.252323 
2792.000000	99.251828 
2791.000000	99.252558 
2790.000000	99.254351 
2789.000000	99.256878 
2788.000000	99.260051 
2787.000000	99.263383 
2786.000000	99.265523 
2785.000000	99.265559 
2784.000000	99.264648 
2783.000000	99.264991 
2782.000000	99.266810 
2781.000000	99.267635 
2780.000000	99.265487 
2779.000000	99.261734 
2778.000000	99.259653 
2777.000000	99.260763 
2776.000000	99.263590 
2775.000000	99.265600 
2774.000000	99.265276 
2773.000000	99.262709 
2772.000000	99.259432 
2771.000000	99.257746 
2770.000000	99.259225 
2769.000000	99.263546 
2768.000000	99.269238 
2767.000000	99.275188 
2766.000000	99.280603 
2765.000000	99.284023 
2764.000000	99.283996 
2763.000000	99.281086 
2762.000000	99.277932 
2761.000000	99.276710 
2760.000000	99.277411 
2759.000000	99.278996 
2758.000000	99.281085 
2757.000000	99.283696 
2756.000000	99.286263 
2755.000000	99.287993 
2754.000000	99.288703 
2753.000000	99.288422 
2752.000000	99.286659 
2751.000000	99.283127 
2750.000000	99.278940 
2749.000000	99.276045 
2748.000000	99.275257 
2747.000000	99.275544 
2746.000000	99.275343 
2745.000000	99.274052 
2744.000000	99.272261 
2743.000000	99.271146 
2742.000000	99.271806 
2741.000000	99.274572 
2740.000000	99.278609 
2739.000000	99.282396 
2738.000000	99.284788 
2737.000000	99.285499 
2736.000000	99.284750 
2735.000000	99.282945 
2734.000000	99.280776 
2733.000000	99.279175 
2732.000000	99.278780 
2731.000000	99.279518 
2730.000000	99.280795 
2729.000000	99.282055 
2728.000000	99.283220 
2727.000000	99.284691 
2726.000000	99.286789 
2725.000000	99.289066 
2724.000000	99.290449 
2723.000000	99.290454 
2722.000000	99.289981 
2721.000000	99.290412 
2720.000000	99.291930 
2719.000000	99.293225 
2718.000000	99.292940 
2717.000000	99.291117 
2716.000000	99.289317 
2715.000000	99.289665 
2714.000000	99.293410 
2713.000000	99.299551 
2712.000000	99.304835 
2711.000000	99.306135 
2710.000000	99.303427 
2709.000000	99.299820 
2708.000000	99.298209 
2707.000000	99.298442 
2706.000000	99.298298 
2705.000000	99.296542 
2704.000000	99.294033 
2703.000000	99.292066 
2702.000000	99.290741 
2701.000000	99.289315 
2700.000000	99.287533 
2699.000000	99.286085 
2698.000000	99.285868 
2697.000000	99.287059 
2696.000000	99.288921 
2695.000000	99.290537 
2694.000000	99.291732 
2693.000000	99.292988 
2692.000000	99.294258 
2691.000000	99.294338 
2690.000000	99.292149 
2689.000000	99.288649 
2688.000000	99.286623 
2687.000000	99.288049 
2686.000000	99.291984 
2685.000000	99.295499 
2684.000000	99.296546 
2683.000000	99.295578 
2682.000000	99.294625 
2681.000000	99.295359 
2680.000000	99.298075 
2679.000000	99.301774 
2678.000000	99.304743 
2677.000000	99.305489 
2676.000000	99.303908 
2675.000000	99.301625 
2674.000000	99.300590 
2673.000000	99.301079 
2672.000000	99.301409 
2671.000000	99.299797 
2670.000000	99.296039 
2669.000000	99.291187 
2668.000000	99.286355 
2667.000000	99.282563 
2666.000000	99.281121 
2665.000000	99.282890 
2664.000000	99.287047 
2663.000000	99.291497 
2662.000000	99.294768 
2661.000000	99.296779 
2660.000000	99.297639 
2659.000000	99.296735 
2658.000000	99.293643 
2657.000000	99.289308 
2656.000000	99.285687 
2655.000000	99.284520 
2654.000000	99.286398 
2653.000000	99.290018 
2652.000000	99.292129 
2651.000000	99.289809 
2650.000000	99.284046 
2649.000000	99.279807 
2648.000000	99.280901 
2647.000000	99.285581 
2646.000000	99.289010 
2645.000000	99.289458 
2644.000000	99.289683 
2643.000000	99.292110 
2642.000000	99.295289 
2641.000000	99.296339 
2640.000000	99.295077 
2639.000000	99.294085 
2638.000000	99.295596 
2637.000000	99.299420 
2636.000000	99.303122 
2635.000000	99.303475 
2634.000000	99.298869 
2633.000000	99.291528 
2632.000000	99.286407 
2631.000000	99.286579 
2630.000000	99.290292 
2629.000000	99.293602 
2628.000000	99.294902 
2627.000000	99.295480 
2626.000000	99.296656 
2625.000000	99.298557 
2624.000000	99.301339 
2623.000000	99.305187 
2622.000000	99.308560 
2621.000000	99.308535 
2620.000000	99.304097 
2619.000000	99.297823 
2618.000000	99.293227 
2617.000000	99.291377 
2616.000000	99.291072 
2615.000000	99.291351 
2614.000000	99.292346 
2613.000000	99.293991 
2612.000000	99.295350 
2611.000000	99.295659 
2610.000000	99.295303 
2609.000000	99.295288 
2608.000000	99.296130 
2607.000000	99.297690 
2606.000000	99.299886 
2605.000000	99.302943 
2604.000000	99.306586 
2603.000000	99.309392 
2602.000000	99.309780 
2601.000000	99.307898 
2600.000000	99.305910 
2599.000000	99.305923 
2598.000000	99.308035 
2597.000000	99.310757 
2596.000000	99.312523 
2595.000000	99.312017 
2594.000000	99.308059 
2593.000000	99.301008 
2592.000000	99.294263 
2591.000000	99.292520 
2590.000000	99.297560 
2589.000000	99.306505 
2588.000000	99.314563 
2587.000000	99.318450 
2586.000000	99.316932 
2585.000000	99.310003 
2584.000000	99.299397 
2583.000000	99.289050 
2582.000000	99.282924 
2581.000000	99.281784 
2580.000000	99.282948 
2579.000000	99.283404 
2578.000000	99.282555 
2577.000000	99.281981 
2576.000000	99.283393 
2575.000000	99.287028 
2574.000000	99.291370 
2573.000000	99.294192 
2572.000000	99.294269 
2571.000000	99.292173 
2570.000000	99.289254 
2569.000000	99.286322 
2568.000000	99.283978 
2567.000000	99.283481 
2566.000000	99.285817 
2565.000000	99.289850 
2564.000000	99.292920 
2563.000000	99.293713 
2562.000000	99.293244 
2561.000000	99.292573 
2560.000000	99.291267 
2559.000000	99.289142 
2558.000000	99.287683 
2557.000000	99.287779 
2556.000000	99.287535 
2555.000000	99.285099 
2554.000000	99.283046 
2553.000000	99.286527 
2552.000000	99.296166 
2551.000000	99.305713 
2550.000000	99.308629 
2549.000000	99.304958 
2548.000000	99.299672 
2547.000000	99.296032 
2546.000000	99.293456 
2545.000000	99.291110 
2544.000000	99.290239 
2543.000000	99.292109 
2542.000000	99.295840 
2541.000000	99.299475 
2540.000000	99.301844 
2539.000000	99.302349 
2538.000000	99.299994 
2537.000000	99.293892 
2536.000000	99.284585 
2535.000000	99.274447 
2534.000000	99.266898 
2533.000000	99.264778 
2532.000000	99.268259 
2531.000000	99.274187 
2530.000000	99.278670 
2529.000000	99.280845 
2528.000000	99.283247 
2527.000000	99.288226 
2526.000000	99.295254 
2525.000000	99.302327 
2524.000000	99.308604 
2523.000000	99.314468 
2522.000000	99.319823 
2521.000000	99.323573 
2520.000000	99.324487 
2519.000000	99.321902 
2518.000000	99.316148 
2517.000000	99.308933 
2516.000000	99.302568 
2515.000000	99.298070 
2514.000000	99.294711 
2513.000000	99.291857 
2512.000000	99.289883 
2511.000000	99.288397 
2510.000000	99.285462 
2509.000000	99.280785 
2508.000000	99.278373 
2507.000000	99.282832 
2506.000000	99.292751 
2505.000000	99.300523 
2504.000000	99.300049 
2503.000000	99.292889 
2502.000000	99.285564 
2501.000000	99.282504 
2500.000000	99.283364 
2499.000000	99.286081 
2498.000000	99.290135 
2497.000000	99.296268 
2496.000000	99.304269 
2495.000000	99.311815 
2494.000000	99.315331 
2493.000000	99.312144 
2492.000000	99.302539 
2491.000000	99.290104 
2490.000000	99.279742 
2489.000000	99.274725 
2488.000000	99.275106 
2487.000000	99.278557 
2486.000000	99.282555 
2485.000000	99.286018 
2484.000000	99.289197 
2483.000000	99.292399 
2482.000000	99.295179 
2481.000000	99.296940 
2480.000000	99.297884 
2479.000000	99.298800 
2478.000000	99.299939 
2477.000000	99.300671 
2476.000000	99.300392 
2475.000000	99.299327 
2474.000000	99.298212 
2473.000000	99.297610 
2472.000000	99.297891 
2471.000000	99.299441 
2470.000000	99.302131 
2469.000000	99.304434 
2468.000000	99.303825 
2467.000000	99.299006 
2466.000000	99.291897 
2465.000000	99.286644 
2464.000000	99.285814 
2463.000000	99.287746 
2462.000000	99.288405 
2461.000000	99.285920 
2460.000000	99.282522 
2459.000000	99.281848 
2458.000000	99.285158 
2457.000000	99.290599 
2456.000000	99.295174 
2455.000000	99.296576 
2454.000000	99.293932 
2453.000000	99.288207 
2452.000000	99.282016 
2451.000000	99.278045 
2450.000000	99.277222 
2449.000000	99.278568 
2448.000000	99.280488 
2447.000000	99.281822 
2446.000000	99.282284 
2445.000000	99.282904 
2444.000000	99.285644 
2443.000000	99.291353 
2442.000000	99.298037 
2441.000000	99.302248 
2440.000000	99.302422 
2439.000000	99.300020 
2438.000000	99.297543 
2437.000000	99.296636 
2436.000000	99.297976 
2435.000000	99.300914 
2434.000000	99.302299 
2433.000000	99.297639 
2432.000000	99.285736 
2431.000000	99.271649 
2430.000000	99.263136 
2429.000000	99.263861 
2428.000000	99.271254 
2427.000000	99.280692 
2426.000000	99.289561 
2425.000000	99.296285 
2424.000000	99.297801 
2423.000000	99.291191 
2422.000000	99.278184 
2421.000000	99.265834 
2420.000000	99.261008 
2419.000000	99.264671 
2418.000000	99.272310 
2417.000000	99.279124 
2416.000000	99.283506 
2415.000000	99.286104 
2414.000000	99.287625 
2413.000000	99.288484 
2412.000000	99.289158 
2411.000000	99.289463 
2410.000000	99.288074 
2409.000000	99.284186 
2408.000000	99.279613 
2407.000000	99.278022 
2406.000000	99.281555 
2405.000000	99.288628 
2404.000000	99.295261 
2403.000000	99.298231 
2402.000000	99.296995 
2401.000000	99.293218 
2400.000000	99.288882 
2399.000000	99.284786 
2398.000000	99.280753 
2397.000000	99.277160 
2396.000000	99.275660 
2395.000000	99.277742 
2394.000000	99.282685 
2393.000000	99.287641 
2392.000000	99.290168 
2391.000000	99.290553 
2390.000000	99.291410 
2389.000000	99.294947 
2388.000000	99.300546 
2387.000000	99.305085 
2386.000000	99.305866 
2385.000000	99.303258 
2384.000000	99.300302 
2383.000000	99.299915 
2382.000000	99.302936 
2381.000000	99.308455 
2380.000000	99.314472 
2379.000000	99.317765 
2378.000000	99.315101 
2377.000000	99.306809 
2376.000000	99.298491 
2375.000000	99.296525 
2374.000000	99.301264 
2373.000000	99.306705 
2372.000000	99.308042 
2371.000000	99.307530 
2370.000000	99.310668 
2369.000000	99.317799 
2368.000000	99.322305 
2367.000000	99.317931 
2366.000000	99.306185 
2365.000000	99.295340 
2364.000000	99.292679 
2363.000000	99.298394 
2362.000000	99.306741 
2361.000000	99.311504 
2360.000000	99.310057 
2359.000000	99.304871 
2358.000000	99.301285 
2357.000000	99.303417 
2356.000000	99.310558 
2355.000000	99.317942 
2354.000000	99.321531 
2353.000000	99.320242 
2352.000000	99.316172 
2351.000000	99.311883 
2350.000000	99.308220 
2349.000000	99.305505 
2348.000000	99.304520 
2347.000000	99.306017 
2346.000000	99.307256 
2345.000000	99.304014 
2344.000000	99.296503 
2343.000000	99.290049 
2342.000000	99.290191 
2341.000000	99.296587 
2340.000000	99.304252 
2339.000000	99.308124 
2338.000000	99.307334 
2337.000000	99.304231 
2336.000000	99.301639 
2335.000000	99.301206 
2334.000000	99.303319 
2333.000000	99.305991 
2332.000000	99.305727 
2331.000000	99.300540 
2330.000000	99.292014 
2329.000000	99.284414 
2328.000000	99.280459 
2327.000000	99.281055 
2326.000000	99.284573 
2325.000000	99.288263 
2324.000000	99.289470 
2323.000000	99.287889 
2322.000000	99.286603 
2321.000000	99.288987 
2320.000000	99.295792 
2319.000000	99.304122 
2318.000000	99.310347 
2317.000000	99.312700 
2316.000000	99.311540 
2315.000000	99.307996 
2314.000000	99.302968 
2313.000000	99.298312 
2312.000000	99.296892 
2311.000000	99.301367 
2310.000000	99.311135 
2309.000000	99.322017 
2308.000000	99.328317 
2307.000000	99.326855 
2306.000000	99.318793 
2305.000000	99.308650 
2304.000000	99.300592 
2303.000000	99.295735 
2302.000000	99.292791 
2301.000000	99.291045 
2300.000000	99.290928 
2299.000000	99.291805 
2298.000000	99.291010 
2297.000000	99.287522 
2296.000000	99.284334 
2295.000000	99.285194 
2294.000000	99.288827 
2293.000000	99.290045 
2292.000000	99.286300 
2291.000000	99.280913 
2290.000000	99.278328 
2289.000000	99.279033 
2288.000000	99.280505 
2287.000000	99.281001 
2286.000000	99.280106 
2285.000000	99.277262 
2284.000000	99.272609 
2283.000000	99.268296 
2282.000000	99.266295 
2281.000000	99.265069 
2280.000000	99.261379 
2279.000000	99.255752 
2278.000000	99.253471 
2277.000000	99.258484 
2276.000000	99.268210 
2275.000000	99.276188 
2274.000000	99.278572 
2273.000000	99.276101 
2272.000000	99.270411 
2271.000000	99.261373 
2270.000000	99.249369 
2269.000000	99.238624 
2268.000000	99.235768 
2267.000000	99.244270 
2266.000000	99.260624 
2265.000000	99.276228 
2264.000000	99.283233 
2263.000000	99.279980 
2262.000000	99.272452 
2261.000000	99.270249 
2260.000000	99.278490 
2259.000000	99.292079 
2258.000000	99.299436 
2257.000000	99.293709 
2256.000000	99.279506 
2255.000000	99.266914 
2254.000000	99.260600 
2253.000000	99.257576 
2252.000000	99.254557 
2251.000000	99.253145 
2250.000000	99.256563 
2249.000000	99.264615 
2248.000000	99.273983 
2247.000000	99.281556 
2246.000000	99.285343 
2245.000000	99.283769 
2244.000000	99.276695 
2243.000000	99.266903 
2242.000000	99.258633 
2241.000000	99.253965 
2240.000000	99.251180 
2239.000000	99.246869 
2238.000000	99.239463 
2237.000000	99.230704 
2236.000000	99.223526 
2235.000000	99.218482 
2234.000000	99.213215 
2233.000000	99.206377 
2232.000000	99.201013 
2231.000000	99.202151 
2230.000000	99.211450 
2229.000000	99.226217 
2228.000000	99.243354 
2227.000000	99.261127 
2226.000000	99.275963 
2225.000000	99.281024 
2224.000000	99.271471 
2223.000000	99.250629 
2222.000000	99.228977 
2221.000000	99.216903 
2220.000000	99.218568 
2219.000000	99.231345 
2218.000000	99.249321 
2217.000000	99.267229 
2216.000000	99.282412 
2215.000000	99.293888 
2214.000000	99.300281 
2213.000000	99.299834 
2212.000000	99.292895 
2211.000000	99.283566 
2210.000000	99.278100 
2209.000000	99.280964 
2208.000000	99.291182 
2207.000000	99.301982 
2206.000000	99.305314 
2205.000000	99.298213 
2204.000000	99.284581 
2203.000000	99.270573 
2202.000000	99.260116 
2201.000000	99.255050 
2200.000000	99.255295 
2199.000000	99.255963 
2198.000000	99.248548 
2197.000000	99.231021 
2196.000000	99.215090 
2195.000000	99.216678 
2194.000000	99.238326 
2193.000000	99.265598 
2192.000000	99.281484 
2191.000000	99.279760 
2190.000000	99.264276 
2189.000000	99.242941 
2188.000000	99.225804 
2187.000000	99.222720 
2186.000000	99.236658 
2185.000000	99.260180 
2184.000000	99.281119 
2183.000000	99.290622 
2182.000000	99.286036 
2181.000000	99.271574 
2180.000000	99.258201 
2179.000000	99.256826 
2178.000000	99.267475 
2177.000000	99.278399 
2176.000000	99.278820 
2175.000000	99.269150 
2174.000000	99.256050 
2173.000000	99.243100 
2172.000000	99.231436 
2171.000000	99.225009 
2170.000000	99.228328 
2169.000000	99.240032 
2168.000000	99.253437 
2167.000000	99.262906 
2166.000000	99.266487 
2165.000000	99.264434 
2164.000000	99.259406 
2163.000000	99.256542 
2162.000000	99.259131 
2161.000000	99.265032 
2160.000000	99.270443 
2159.000000	99.275261 
2158.000000	99.280791 
2157.000000	99.284854 
2156.000000	99.284229 
2155.000000	99.279456 
2154.000000	99.273119 
2153.000000	99.266167 
2152.000000	99.259295 
2151.000000	99.255508 
2150.000000	99.257836 
2149.000000	99.265869 
2148.000000	99.276935 
2147.000000	99.288551 
2146.000000	99.297269 
2145.000000	99.298463 
2144.000000	99.291397 
2143.000000	99.282168 
2142.000000	99.277729 
2141.000000	99.278550 
2140.000000	99.280235 
2139.000000	99.280336 
2138.000000	99.279496 
2137.000000	99.277602 
2136.000000	99.273879 
2135.000000	99.270946 
2134.000000	99.274165 
2133.000000	99.284851 
2132.000000	99.296364 
2131.000000	99.298790 
2130.000000	99.287515 
2129.000000	99.267925 
2128.000000	99.251951 
2127.000000	99.248209 
2126.000000	99.254537 
2125.000000	99.261544 
2124.000000	99.263980 
2123.000000	99.265742 
2122.000000	99.271896 
2121.000000	99.279588 
2120.000000	99.281363 
2119.000000	99.275794 
2118.000000	99.269835 
2117.000000	99.270232 
2116.000000	99.276346 
2115.000000	99.282477 
2114.000000	99.284228 
2113.000000	99.281194 
2112.000000	99.275802 
2111.000000	99.271456 
2110.000000	99.270766 
2109.000000	99.274000 
2108.000000	99.278928 
2107.000000	99.281896 
2106.000000	99.278741 
2105.000000	99.266358 
2104.000000	99.245850 
2103.000000	99.224218 
2102.000000	99.210906 
2101.000000	99.211292 
2100.000000	99.223374 
2099.000000	99.240189 
2098.000000	99.254766 
2097.000000	99.263731 
2096.000000	99.267625 
2095.000000	99.267471 
2094.000000	99.261099 
2093.000000	99.245508 
2092.000000	99.224189 
2091.000000	99.208652 
2090.000000	99.208692 
2089.000000	99.221795 
2088.000000	99.235667 
2087.000000	99.241296 
2086.000000	99.240041 
2085.000000	99.238202 
2084.000000	99.239098 
2083.000000	99.242265 
2082.000000	99.247029 
2081.000000	99.253548 
2080.000000	99.261177 
2079.000000	99.267950 
2078.000000	99.272094 
2077.000000	99.273944 
2076.000000	99.276556 
2075.000000	99.283481 
2074.000000	99.294344 
2073.000000	99.303524 
2072.000000	99.305434 
2071.000000	99.300619 
2070.000000	99.294330 
2069.000000	99.289419 
2068.000000	99.283727 
2067.000000	99.275180 
2066.000000	99.266467 
2065.000000	99.262728 
2064.000000	99.266166 
2063.000000	99.274779 
2062.000000	99.285148 
2061.000000	99.294592 
2060.000000	99.301347 
2059.000000	99.304429 
2058.000000	99.303848 
2057.000000	99.300659 
2056.000000	99.296251 
2055.000000	99.290815 
2054.000000	99.282629 
2053.000000	99.270549 
2052.000000	99.257977 
2051.000000	99.252344 
2050.000000	99.258530 
2049.000000	99.272776 
2048.000000	99.285125 
2047.000000	99.288387 
2046.000000	99.282607 
2045.000000	99.271931 
2044.000000	99.261054 
2043.000000	99.254487 
2042.000000	99.255155 
2041.000000	99.261939 
2040.000000	99.270688 
2039.000000	99.278510 
2038.000000	99.285010 
2037.000000	99.289720 
2036.000000	99.291541 
2035.000000	99.291253 
2034.000000	99.291455 
2033.000000	99.292752 
2032.000000	99.292386 
2031.000000	99.287724 
2030.000000	99.279012 
2029.000000	99.268199 
2028.000000	99.257030 
2027.000000	99.247315 
2026.000000	99.241681 
2025.000000	99.242651 
2024.000000	99.250609 
2023.000000	99.261757 
2022.000000	99.268468 
2021.000000	99.264459 
2020.000000	99.252431 
2019.000000	99.244034 
2018.000000	99.248320 
2017.000000	99.260495 
2016.000000	99.266136 
2015.000000	99.257156 
2014.000000	99.239249 
2013.000000	99.224240 
2012.000000	99.219754 
2011.000000	99.226824 
2010.000000	99.243134 
2009.000000	99.265010 
2008.000000	99.287710 
2007.000000	99.306354 
2006.000000	99.316820 
2005.000000	99.316675 
2004.000000	99.307275 
2003.000000	99.294331 
2002.000000	99.284569 
2001.000000	99.280194 
2000.000000	99.277174 
1999.000000	99.269417 
1998.000000	99.254764 
1997.000000	99.238594 
1996.000000	99.230936 
1995.000000	99.238319 
1994.000000	99.257513 
1993.000000	99.277768 
1992.000000	99.289825 
1991.000000	99.292134 
1990.000000	99.287840 
1989.000000	99.280100 
1988.000000	99.272962 
1987.000000	99.271358 
1986.000000	99.275195 
1985.000000	99.277149 
1984.000000	99.272326 
1983.000000	99.267561 
1982.000000	99.273764 
1981.000000	99.288620 
1980.000000	99.294790 
1979.000000	99.279070 
1978.000000	99.248626 
1977.000000	99.223852 
1976.000000	99.216213 
1975.000000	99.219571 
1974.000000	99.223175 
1973.000000	99.226758 
1972.000000	99.239730 
1971.000000	99.266851 
1970.000000	99.297450 
1969.000000	99.311857 
1968.000000	99.300446 
1967.000000	99.274473 
1966.000000	99.254000 
1965.000000	99.247155 
1964.000000	99.247123 
1963.000000	99.247006 
1962.000000	99.248790 
1961.000000	99.256159 
1960.000000	99.265934 
1959.000000	99.272052 
1958.000000	99.274055 
1957.000000	99.275827 
1956.000000	99.278022 
1955.000000	99.277636 
1954.000000	99.274516 
1953.000000	99.272882 
1952.000000	99.274220 
1951.000000	99.273157 
1950.000000	99.264078 
1949.000000	99.248880 
1948.000000	99.235429 
1947.000000	99.228589 
1946.000000	99.225322 
1945.000000	99.219295 
1944.000000	99.208659 
1943.000000	99.198431 
1942.000000	99.195457 
1941.000000	99.201301 
1940.000000	99.210651 
1939.000000	99.216534 
1938.000000	99.217008 
1937.000000	99.216955 
1936.000000	99.222459 
1935.000000	99.233207 
1934.000000	99.242675 
1933.000000	99.246907 
1932.000000	99.249749 
1931.000000	99.256970 
1930.000000	99.267374 
1929.000000	99.272963 
1928.000000	99.269605 
1927.000000	99.262352 
1926.000000	99.259135 
1925.000000	99.262390 
1924.000000	99.268074 
1923.000000	99.272287 
1922.000000	99.274466 
1921.000000	99.274957 
1920.000000	99.272091 
1919.000000	99.263249 
1918.000000	99.248178 
1917.000000	99.231221 
1916.000000	99.219368 
1915.000000	99.216893 
1914.000000	99.222492 
1913.000000	99.231502 
1912.000000	99.239485 
1911.000000	99.244334 
1910.000000	99.245215 
1909.000000	99.242067 
1908.000000	99.238377 
1907.000000	99.239577 
1906.000000	99.246825 
1905.000000	99.254378 
1904.000000	99.254892 
1903.000000	99.248130 
1902.000000	99.239955 
1901.000000	99.235084 
1900.000000	99.234509 
1899.000000	99.237672 
1898.000000	99.243513 
1897.000000	99.249378 
1896.000000	99.251361 
1895.000000	99.248110 
1894.000000	99.241968 
1893.000000	99.236411 
1892.000000	99.233952 
1891.000000	99.235811 
1890.000000	99.240504 
1889.000000	99.243194 
1888.000000	99.240413 
1887.000000	99.234068 
1886.000000	99.228483 
1885.000000	99.226206 
1884.000000	99.227444 
1883.000000	99.232066 
1882.000000	99.239560 
1881.000000	99.247527 
1880.000000	99.253772 
1879.000000	99.258681 
1878.000000	99.264005 
1877.000000	99.270453 
1876.000000	99.276713 
1875.000000	99.280481 
1874.000000	99.279352 
1873.000000	99.271475 
1872.000000	99.257926 
1871.000000	99.243927 
1870.000000	99.235330 
1869.000000	99.232714 
1868.000000	99.232140 
1867.000000	99.232852 
1866.000000	99.236961 
1865.000000	99.243258 
1864.000000	99.247094 
1863.000000	99.245153 
1862.000000	99.238374 
1861.000000	99.230637 
1860.000000	99.226380 
1859.000000	99.228614 
1858.000000	99.236294 
1857.000000	99.243819 
1856.000000	99.246125 
1855.000000	99.244270 
1854.000000	99.243140 
1853.000000	99.243939 
1852.000000	99.243977 
1851.000000	99.242412 
1850.000000	99.242019 
1849.000000	99.246626 
1848.000000	99.256135 
1847.000000	99.266323 
1846.000000	99.271916 
1845.000000	99.270440 
1844.000000	99.264734 
1843.000000	99.262211 
1842.000000	99.267165 
1841.000000	99.274866 
1840.000000	99.278398 
1839.000000	99.275392 
1838.000000	99.268214 
1837.000000	99.260331 
1836.000000	99.253395 
1835.000000	99.248682 
1834.000000	99.247142 
1833.000000	99.247902 
1832.000000	99.248892 
1831.000000	99.248515 
1830.000000	99.246883 
1829.000000	99.246643 
1828.000000	99.249513 
1827.000000	99.252964 
1826.000000	99.253886 
1825.000000	99.252977 
1824.000000	99.252227 
1823.000000	99.250917 
1822.000000	99.245847 
1821.000000	99.236643 
1820.000000	99.229124 
1819.000000	99.230218 
1818.000000	99.240489 
1817.000000	99.252242 
1816.000000	99.257005 
1815.000000	99.255243 
1814.000000	99.253449 
1813.000000	99.255374 
1812.000000	99.258910 
1811.000000	99.260990 
1810.000000	99.263116 
1809.000000	99.266582 
1808.000000	99.268281 
1807.000000	99.265382 
1806.000000	99.259686 
1805.000000	99.255108 
1804.000000	99.252988 
1803.000000	99.251640 
1802.000000	99.247711 
1801.000000	99.239186 
1800.000000	99.228702 
1799.000000	99.222353 
1798.000000	99.224875 
1797.000000	99.234092 
1796.000000	99.243772 
1795.000000	99.250207 
1794.000000	99.254025 
1793.000000	99.256692 
1792.000000	99.257172 
1791.000000	99.255078 
1790.000000	99.253408 
1789.000000	99.252873 
1788.000000	99.252376 
1787.000000	99.252654 
1786.000000	99.255547 
1785.000000	99.259908 
1784.000000	99.261935 
1783.000000	99.260460 
1782.000000	99.256310 
1781.000000	99.250735 
1780.000000	99.245403 
1779.000000	99.240946 
1778.000000	99.238362 
1777.000000	99.237622 
1776.000000	99.238634 
1775.000000	99.240425 
1774.000000	99.241221 
1773.000000	99.241286 
1772.000000	99.242689 
1771.000000	99.246906 
1770.000000	99.252933 
1769.000000	99.256473 
1768.000000	99.254342 
1767.000000	99.248034 
1766.000000	99.241961 
1765.000000	99.239155 
1764.000000	99.239698 
1763.000000	99.242210 
1762.000000	99.244089 
1761.000000	99.243918 
1760.000000	99.243594 
1759.000000	99.244841 
1758.000000	99.248266 
1757.000000	99.252655 
1756.000000	99.256588 
1755.000000	99.258728 
1754.000000	99.258416 
1753.000000	99.257024 
1752.000000	99.257595 
1751.000000	99.258981 
1750.000000	99.256601 
1749.000000	99.250298 
1748.000000	99.244765 
1747.000000	99.244735 
1746.000000	99.248978 
1745.000000	99.253518 
1744.000000	99.255644 
1743.000000	99.254613 
1742.000000	99.252150 
1741.000000	99.250274 
1740.000000	99.249204 
1739.000000	99.248719 
1738.000000	99.249994 
1737.000000	99.251475 
1736.000000	99.250690 
1735.000000	99.250215 
1734.000000	99.250639 
1733.000000	99.248859 
1732.000000	99.247802 
1731.000000	99.246256 
1730.000000	99.242914 
1729.000000	99.240429 
1728.000000	99.241274 
1727.000000	99.244636 
1726.000000	99.247353 
1725.000000	99.248252 
1724.000000	99.247147 
1723.000000	99.243850 
1722.000000	99.240159 
1721.000000	99.237270 
1720.000000	99.235717 
1719.000000	99.237431 
1718.000000	99.243485 
1717.000000	99.248705 
1716.000000	99.249271 
1715.000000	99.248831 
1714.000000	99.250424 
1713.000000	99.251855 
1712.000000	99.249466 
1711.000000	99.244636 
1710.000000	99.242184 
1709.000000	99.244250 
1708.000000	99.249058 
1707.000000	99.253571 
1706.000000	99.255553 
1705.000000	99.253263 
1704.000000	99.247643 
1703.000000	99.241803 
1702.000000	99.238311 
1701.000000	99.238660 
1700.000000	99.234407 
1699.000000	99.225484 
1698.000000	99.224690 
1697.000000	99.228354 
1696.000000	99.227514 
1695.000000	99.219995 
1694.000000	99.214177 
1693.000000	99.213292 
1692.000000	99.212241 
1691.000000	99.210250 
1690.000000	99.209762 
1689.000000	99.210406 
1688.000000	99.211055 
1687.000000	99.211168 
1686.000000	99.213799 
1685.000000	99.223350 
1684.000000	99.229950 
1683.000000	99.226927 
1682.000000	99.223594 
1681.000000	99.219230 
1680.000000	99.213317 
1679.000000	99.208918 
1678.000000	99.206562 
1677.000000	99.205039 
1676.000000	99.204526 
1675.000000	99.204244 
1674.000000	99.202925 
1673.000000	99.202760 
1672.000000	99.204473 
1671.000000	99.207051 
1670.000000	99.208206 
1669.000000	99.203976 
1668.000000	99.197754 
1667.000000	99.194457 
1666.000000	99.193007 
1665.000000	99.191341 
1664.000000	99.189638 
1663.000000	99.188832 
1662.000000	99.187927 
1661.000000	99.186691 
1660.000000	99.187831 
1659.000000	99.191733 
1658.000000	99.195631 
1657.000000	99.196349 
1656.000000	99.193371 
1655.000000	99.189909 
1654.000000	99.193665 
1653.000000	99.194988 
1652.000000	99.184508 
1651.000000	99.183406 
1650.000000	99.187913 
1649.000000	99.188815 
1648.000000	99.188057 
1647.000000	99.187098 
1646.000000	99.183535 
1645.000000	99.180792 
1644.000000	99.181582 
1643.000000	99.184122 
1642.000000	99.185723 
1641.000000	99.184539 
1640.000000	99.181499 
1639.000000	99.178332 
1638.000000	99.177100 
1637.000000	99.180348 
1636.000000	99.187436 
1635.000000	99.191947 
1634.000000	99.193120 
1633.000000	99.193623 
1632.000000	99.190558 
1631.000000	99.184450 
1630.000000	99.178904 
1629.000000	99.176647 
1628.000000	99.177913 
1627.000000	99.181693 
1626.000000	99.185758 
1625.000000	99.188017 
1624.000000	99.188838 
1623.000000	99.189503 
1622.000000	99.190491 
1621.000000	99.191534 
1620.000000	99.191985 
1619.000000	99.191260 
1618.000000	99.190945 
1617.000000	99.191705 
1616.000000	99.193111 
1615.000000	99.197694 
1614.000000	99.204814 
1613.000000	99.210656 
1612.000000	99.215438 
1611.000000	99.221478 
1610.000000	99.226820 
1609.000000	99.227319 
1608.000000	99.223443 
1607.000000	99.219683 
1606.000000	99.218187 
1605.000000	99.218288 
1604.000000	99.220439 
1603.000000	99.224240 
1602.000000	99.227597 
1601.000000	99.229178 
1600.000000	99.230225 
1599.000000	99.232455 
1598.000000	99.235715 
1597.000000	99.239046 
1596.000000	99.241744 
1595.000000	99.242931 
1594.000000	99.241833 
1593.000000	99.239652 
1592.000000	99.239615 
1591.000000	99.243211 
1590.000000	99.247696 
1589.000000	99.249520 
1588.000000	99.249266 
1587.000000	99.250294 
1586.000000	99.253509 
1585.000000	99.256031 
1584.000000	99.256755 
1583.000000	99.257272 
1582.000000	99.257443 
1581.000000	99.256275 
1580.000000	99.254004 
1579.000000	99.250820 
1578.000000	99.246059 
1577.000000	99.240944 
1576.000000	99.236511 
1575.000000	99.234735 
1574.000000	99.237439 
1573.000000	99.241343 
1572.000000	99.244200 
1571.000000	99.248106 
1570.000000	99.253476 
1569.000000	99.256523 
1568.000000	99.257931 
1567.000000	99.258803 
1566.000000	99.256644 
1565.000000	99.251412 
1564.000000	99.246498 
1563.000000	99.242852 
1562.000000	99.237438 
1561.000000	99.230453 
1560.000000	99.235050 
1559.000000	99.248884 
1558.000000	99.250074 
1557.000000	99.250101 
1556.000000	99.253211 
1555.000000	99.254105 
1554.000000	99.251641 
1553.000000	99.247976 
1552.000000	99.245672 
1551.000000	99.244196 
1550.000000	99.243575 
1549.000000	99.244336 
1548.000000	99.245861 
1547.000000	99.246225 
1546.000000	99.242927 
1545.000000	99.236747 
1544.000000	99.231649 
1543.000000	99.231684 
1542.000000	99.238468 
1541.000000	99.249703 
1540.000000	99.254991 
1539.000000	99.250247 
1538.000000	99.246784 
1537.000000	99.248460 
1536.000000	99.250030 
1535.000000	99.250763 
1534.000000	99.250783 
1533.000000	99.247363 
1532.000000	99.242113 
1531.000000	99.239253 
1530.000000	99.239330 
1529.000000	99.239813 
1528.000000	99.238349 
1527.000000	99.236247 
1526.000000	99.236620 
1525.000000	99.240169 
1524.000000	99.245077 
1523.000000	99.250539 
1522.000000	99.257231 
1521.000000	99.260696 
1520.000000	99.257081 
1519.000000	99.248773 
1518.000000	99.238647 
1517.000000	99.231060 
1516.000000	99.228379 
1515.000000	99.228990 
1514.000000	99.229951 
1513.000000	99.230369 
1512.000000	99.230611 
1511.000000	99.229269 
1510.000000	99.225768 
1509.000000	99.222262 
1508.000000	99.225510 
1507.000000	99.235641 
1506.000000	99.240251 
1505.000000	99.237928 
1504.000000	99.236303 
1503.000000	99.236173 
1502.000000	99.236648 
1501.000000	99.237193 
1500.000000	99.235911 
1499.000000	99.231485 
1498.000000	99.225930 
1497.000000	99.222542 
1496.000000	99.220355 
1495.000000	99.219464 
1494.000000	99.222960 
1493.000000	99.230855 
1492.000000	99.240458 
1491.000000	99.248403 
1490.000000	99.251231 
1489.000000	99.247588 
1488.000000	99.239378 
1487.000000	99.230296 
1486.000000	99.223355 
1485.000000	99.217160 
1484.000000	99.211133 
1483.000000	99.207579 
1482.000000	99.208306 
1481.000000	99.211805 
1480.000000	99.213568 
1479.000000	99.212110 
1478.000000	99.209675 
1477.000000	99.208685 
1476.000000	99.208310 
1475.000000	99.208304 
1474.000000	99.210476 
1473.000000	99.214264 
1472.000000	99.214989 
1471.000000	99.210915 
1470.000000	99.205677 
1469.000000	99.201060 
1468.000000	99.197095 
1467.000000	99.194464 
1466.000000	99.193934 
1465.000000	99.194327 
1464.000000	99.194350 
1463.000000	99.193887 
1462.000000	99.193504 
1461.000000	99.193005 
1460.000000	99.191957 
1459.000000	99.189979 
1458.000000	99.185888 
1457.000000	99.176437 
1456.000000	99.163238 
1455.000000	99.154860 
1454.000000	99.151922 
1453.000000	99.152008 
1452.000000	99.155178 
1451.000000	99.160141 
1450.000000	99.164535 
1449.000000	99.167185 
1448.000000	99.168010 
1447.000000	99.168103 
1446.000000	99.168385 
1445.000000	99.169578 
1444.000000	99.172650 
1443.000000	99.176148 
1442.000000	99.178365 
1441.000000	99.178494 
1440.000000	99.176968 
1439.000000	99.174449 
1438.000000	99.173689 
1437.000000	99.176646 
1436.000000	99.178948 
1435.000000	99.176751 
1434.000000	99.171550 
1433.000000	99.166215 
1432.000000	99.163154 
1431.000000	99.163029 
1430.000000	99.163997 
1429.000000	99.164136 
1428.000000	99.162226 
1427.000000	99.159202 
1426.000000	99.156398 
1425.000000	99.154877 
1424.000000	99.154341 
1423.000000	99.150835 
1422.000000	99.141637 
1421.000000	99.128386 
1420.000000	99.116460 
1419.000000	99.108663 
1418.000000	99.103270 
1417.000000	99.097952 
1416.000000	99.089041 
1415.000000	99.074675 
1414.000000	99.057392 
1413.000000	99.042130 
1412.000000	99.032130 
1411.000000	99.026135 
1410.000000	99.020709 
1409.000000	99.014173 
1408.000000	99.007184 
1407.000000	99.002677 
1406.000000	99.003252 
1405.000000	99.008687 
1404.000000	99.016952 
1403.000000	99.026015 
1402.000000	99.036194 
1401.000000	99.048787 
1400.000000	99.063089 
1399.000000	99.074058 
1398.000000	99.074919 
1397.000000	99.061329 
1396.000000	99.033508 
1395.000000	99.001963 
1394.000000	98.985639 
1393.000000	98.995743 
1392.000000	99.024686 
1391.000000	99.055359 
1390.000000	99.076249 
1389.000000	99.085461 
1388.000000	99.085478 
1387.000000	99.078627 
1386.000000	99.068663 
1385.000000	99.060912 
1384.000000	99.058093 
1383.000000	99.058146 
1382.000000	99.057794 
1381.000000	99.056455 
1380.000000	99.056293 
1379.000000	99.059431 
1378.000000	99.065789 
1377.000000	99.073974 
1376.000000	99.082817 
1375.000000	99.091693 
1374.000000	99.100152 
1373.000000	99.108970 
1372.000000	99.119405 
1371.000000	99.131065 
1370.000000	99.141734 
1369.000000	99.149361 
1368.000000	99.153930 
1367.000000	99.156577 
1366.000000	99.158978 
1365.000000	99.162974 
1364.000000	99.169586 
1363.000000	99.177216 
1362.000000	99.182480 
1361.000000	99.184018 
1360.000000	99.183865 
1359.000000	99.185125 
1358.000000	99.189563 
1357.000000	99.196636 
1356.000000	99.203842 
1355.000000	99.208470 
1354.000000	99.210254 
1353.000000	99.211630 
1352.000000	99.214296 
1351.000000	99.217426 
1350.000000	99.218997 
1349.000000	99.218553 
1348.000000	99.217782 
1347.000000	99.217685 
1346.000000	99.218114 
1345.000000	99.219156 
1344.000000	99.221402 
1343.000000	99.224353 
1342.000000	99.226649 
1341.000000	99.228110 
1340.000000	99.230064 
1339.000000	99.232872 
1338.000000	99.235021 
1337.000000	99.235547 
1336.000000	99.235326 
1335.000000	99.235302 
1334.000000	99.235132 
1333.000000	99.234241 
1332.000000	99.232979 
1331.000000	99.231895 
1330.000000	99.230776 
1329.000000	99.229354 
1328.000000	99.228083 
1327.000000	99.227442 
1326.000000	99.227137 
1325.000000	99.227031 
1324.000000	99.227923 
1323.000000	99.230065 
1322.000000	99.232326 
1321.000000	99.233750 
1320.000000	99.235087 
1319.000000	99.237385 
1318.000000	99.239701 
1317.000000	99.239644 
1316.000000	99.236189 
1315.000000	99.230888 
1314.000000	99.226262 
1313.000000	99.223647 
1312.000000	99.222687 
1311.000000	99.222524 
1310.000000	99.222898 
1309.000000	99.223951 
1308.000000	99.225094 
1307.000000	99.224881 
1306.000000	99.222400 
1305.000000	99.218757 
1304.000000	99.216534 
1303.000000	99.217321 
1302.000000	99.220352 
1301.000000	99.223397 
1300.000000	99.224688 
1299.000000	99.223993 
1298.000000	99.222650 
1297.000000	99.222548 
1296.000000	99.224334 
1295.000000	99.226260 
1294.000000	99.225336 
1293.000000	99.220160 
1292.000000	99.212311 
1291.000000	99.204964 
1290.000000	99.200535 
1289.000000	99.199506 
1288.000000	99.200593 
1287.000000	99.201436 
1286.000000	99.199741 
1285.000000	99.194697 
1284.000000	99.187346 
1283.000000	99.179375 
1282.000000	99.171782 
1281.000000	99.164849 
1280.000000	99.158964 
1279.000000	99.154597 
1278.000000	99.151458 
1277.000000	99.148512 
1276.000000	99.145112 
1275.000000	99.141628 
1274.000000	99.138506 
1273.000000	99.135220 
1272.000000	99.130741 
1271.000000	99.124941 
1270.000000	99.118864 
1269.000000	99.113347 
1268.000000	99.107866 
1267.000000	99.101076 
1266.000000	99.092382 
1265.000000	99.082649 
1264.000000	99.073247 
1263.000000	99.064706 
1262.000000	99.056545 
1261.000000	99.048397 
1260.000000	99.040985 
1259.000000	99.035324 
1258.000000	99.030905 
1257.000000	99.025651 
1256.000000	99.018449 
1255.000000	99.011188 
1254.000000	99.006862 
1253.000000	99.005543 
1252.000000	99.003857 
1251.000000	98.999404 
1250.000000	98.994318 
1249.000000	98.992892 
1248.000000	98.996309 
1247.000000	99.001110 
1246.000000	99.002249 
1245.000000	98.996218 
1244.000000	98.982250 
1243.000000	98.963689 
1242.000000	98.948507 
1241.000000	98.944854 
1240.000000	98.953527 
1239.000000	98.966082 
1238.000000	98.972266 
1237.000000	98.968774 
1236.000000	98.959630 
1235.000000	98.949859 
1234.000000	98.941153 
1233.000000	98.932664 
1232.000000	98.923136 
1231.000000	98.911803 
1230.000000	98.899280 
1229.000000	98.888242 
1228.000000	98.881685 
1227.000000	98.879671 
1226.000000	98.878690 
1225.000000	98.874831 
1224.000000	98.866949 
1223.000000	98.856540 
1222.000000	98.845637 
1221.000000	98.835546 
1220.000000	98.826911 
1219.000000	98.819892 
1218.000000	98.813903 
1217.000000	98.807281 
1216.000000	98.797592 
1215.000000	98.782994 
1214.000000	98.763779 
1213.000000	98.742184 
1212.000000	98.720341 
1211.000000	98.699097 
1210.000000	98.679057 
1209.000000	98.661317 
1208.000000	98.645803 
1207.000000	98.629925 
1206.000000	98.610953 
1205.000000	98.589566 
1204.000000	98.569215 
1203.000000	98.551804 
1202.000000	98.535739 
1201.000000	98.518596 
1200.000000	98.499913 
1199.000000	98.480465 
1198.000000	98.460385 
1197.000000	98.439235 
1196.000000	98.416884 
1195.000000	98.393356 
1194.000000	98.368645 
1193.000000	98.343431 
1192.000000	98.319000 
1191.000000	98.295566 
1190.000000	98.271675 
1189.000000	98.246190 
1188.000000	98.219920 
1187.000000	98.194372 
1186.000000	98.169955 
1185.000000	98.146391 
1184.000000	98.123605 
1183.000000	98.100898 
1182.000000	98.076467 
1181.000000	98.049427 
1180.000000	98.021267 
1179.000000	97.993597 
1178.000000	97.965520 
1177.000000	97.935308 
1176.000000	97.903699 
1175.000000	97.872869 
1174.000000	97.842423 
1173.000000	97.809208 
1172.000000	97.771725 
1171.000000	97.732567 
1170.000000	97.695755 
1169.000000	97.663272 
1168.000000	97.634704 
1167.000000	97.608771 
1166.000000	97.584947 
1165.000000	97.565195 
1164.000000	97.554255 
1163.000000	97.556322 
1162.000000	97.570773 
1161.000000	97.592268 
1160.000000	97.614610 
1159.000000	97.632606 
1158.000000	97.640913 
1157.000000	97.634472 
1156.000000	97.611918 
1155.000000	97.577706 
1154.000000	97.539871 
1153.000000	97.505533 
1152.000000	97.477616 
1151.000000	97.453952 
1150.000000	97.429247 
1149.000000	97.399672 
1148.000000	97.366225 
1147.000000	97.332846 
1146.000000	97.301626 
1145.000000	97.271239 
1144.000000	97.239583 
1143.000000	97.205982 
1142.000000	97.171137 
1141.000000	97.137172 
1140.000000	97.107466 
1139.000000	97.083439 
1138.000000	97.060907 
1137.000000	97.032521 
1136.000000	96.995149 
1135.000000	96.952727 
1134.000000	96.910780 
1133.000000	96.870383 
1132.000000	96.829155 
1131.000000	96.786293 
1130.000000	96.744352 
1129.000000	96.706370 
1128.000000	96.672166 
1127.000000	96.637322 
1126.000000	96.596302 
1125.000000	96.547970 
1124.000000	96.497591 
1123.000000	96.451624 
1122.000000	96.410907 
1121.000000	96.371058 
1120.000000	96.328939 
1119.000000	96.285565 
1118.000000	96.242725 
1117.000000	96.200416 
1116.000000	96.158677 
1115.000000	96.118851 
1114.000000	96.081676 
1113.000000	96.046618 
1112.000000	96.013743 
1111.000000	95.983132 
1110.000000	95.951588 
1109.000000	95.913851 
1108.000000	95.869232 
1107.000000	95.824136 
1106.000000	95.785465 
1105.000000	95.753365 
1104.000000	95.722651 
1103.000000	95.689587 
1102.000000	95.655071 
1101.000000	95.622307 
1100.000000	95.593143 
1099.000000	95.566670 
1098.000000	95.540785 
1097.000000	95.515085 
1096.000000	95.491191 
1095.000000	95.468952 
1094.000000	95.443929 
1093.000000	95.411106 
1092.000000	95.370044 
1091.000000	95.323941 
1090.000000	95.275208 
1089.000000	95.225480 
1088.000000	95.178626 
1087.000000	95.138811 
1086.000000	95.105150 
1085.000000	95.072515 
1084.000000	95.038251 
1083.000000	95.004263 
1082.000000	94.972152 
1081.000000	94.940405 
1080.000000	94.907142 
1079.000000	94.871977 
1078.000000	94.834931 
1077.000000	94.797405 
1076.000000	94.764199 
1075.000000	94.739869 
1074.000000	94.722414 
1073.000000	94.704533 
1072.000000	94.680287 
1071.000000	94.645129 
1070.000000	94.590957 
1069.000000	94.510525 
1068.000000	94.410482 
1067.000000	94.313270 
1066.000000	94.239865 
1065.000000	94.192935 
1064.000000	94.159452 
1063.000000	94.124436 
1062.000000	94.078075 
1061.000000	94.015504 
1060.000000	93.937739 
1059.000000	93.853066 
1058.000000	93.772696 
1057.000000	93.703248 
1056.000000	93.644019 
1055.000000	93.589939 
1054.000000	93.535634 
1053.000000	93.478443 
1052.000000	93.419349 
1051.000000	93.360076 
1050.000000	93.298934 
1049.000000	93.231672 
1048.000000	93.156773 
1047.000000	93.077610 
1046.000000	92.999471 
1045.000000	92.926390 
1044.000000	92.859581 
1043.000000	92.796092 
1042.000000	92.730565 
1041.000000	92.661890 
1040.000000	92.596852 
1039.000000	92.543696 
1038.000000	92.503680 
1037.000000	92.472740 
1036.000000	92.448838 
1035.000000	92.432286 
1034.000000	92.420971 
1033.000000	92.411185 
1032.000000	92.401482 
1031.000000	92.390364 
1030.000000	92.373484 
1029.000000	92.350976 
1028.000000	92.335206 
1027.000000	92.341339 
1026.000000	92.368860 
1025.000000	92.400338 
1024.000000	92.419672 
1023.000000	92.424585 
1022.000000	92.421278 
1021.000000	92.415687 
1020.000000	92.412670 
1019.000000	92.416037 
1018.000000	92.424521 
1017.000000	92.431955 
1016.000000	92.434379 
1015.000000	92.433699 
1014.000000	92.433337 
1013.000000	92.434287 
1012.000000	92.436288 
1011.000000	92.438788 
1010.000000	92.440347 
1009.000000	92.441199 
1008.000000	92.446201 
1007.000000	92.460562 
1006.000000	92.482941 
1005.000000	92.507647 
1004.000000	92.532914 
1003.000000	92.561452 
1002.000000	92.593628 
1001.000000	92.626503 
1000.000000	92.659556 
999.000000	 92.694872 
998.000000	 92.731332 
997.000000	 92.765221 
996.000000	 92.797503 
995.000000	 92.833959 
994.000000	 92.876544 
993.000000	 92.920628 
992.000000	 92.962508 
991.000000	 93.003809 
990.000000	 93.046458 
989.000000	 93.088973 
988.000000	 93.130601 
987.000000	 93.174661 
986.000000	 93.224979 
985.000000	 93.282245 
984.000000	 93.345507 
983.000000	 93.413768 
982.000000	 93.484719 
981.000000	 93.555380 
980.000000	 93.625596 
979.000000	 93.698494 
978.000000	 93.776903 
977.000000	 93.861518 
976.000000	 93.951784 
975.000000	 94.045238 
974.000000	 94.136781 
973.000000	 94.222694 
972.000000	 94.305336 
971.000000	 94.390351 
970.000000	 94.479520 
969.000000	 94.569738 
968.000000	 94.658246 
967.000000	 94.744657 
966.000000	 94.828058 
965.000000	 94.906378 
964.000000	 94.979257 
963.000000	 95.048405 
962.000000	 95.115060 
961.000000	 95.179936 
960.000000	 95.244829 
959.000000	 95.310406 
958.000000	 95.372793 
957.000000	 95.426699 
956.000000	 95.472467 
955.000000	 95.516334 
954.000000	 95.563043 
953.000000	 95.611550 
952.000000	 95.658514 
951.000000	 95.702232 
950.000000	 95.741863 
949.000000	 95.776082 
948.000000	 95.804344 
947.000000	 95.827522 
946.000000	 95.846279 
945.000000	 95.860649 
944.000000	 95.871975 
943.000000	 95.883414 
942.000000	 95.897768 
941.000000	 95.915962 
940.000000	 95.937208 
939.000000	 95.958808 
938.000000	 95.976684 
937.000000	 95.989083 
936.000000	 95.999751 
935.000000	 96.014676 
934.000000	 96.035517 
933.000000	 96.058746 
932.000000	 96.081121 
931.000000	 96.102788 
930.000000	 96.124354 
929.000000	 96.143756 
928.000000	 96.157378 
927.000000	 96.163020 
926.000000	 96.161973 
925.000000	 96.159922 
924.000000	 96.164974 
923.000000	 96.181441 
922.000000	 96.204649 
921.000000	 96.224185 
920.000000	 96.233016 
919.000000	 96.232036 
918.000000	 96.226552 
917.000000	 96.221119 
916.000000	 96.217915 
915.000000	 96.217158 
914.000000	 96.218008 
913.000000	 96.220905 
912.000000	 96.229415 
911.000000	 96.247843 
910.000000	 96.276870 
909.000000	 96.313487 
908.000000	 96.355064 
907.000000	 96.401156 
906.000000	 96.451353 
905.000000	 96.503592 
904.000000	 96.554980 
903.000000	 96.603445 
902.000000	 96.649714 
901.000000	 96.698541 
900.000000	 96.755283 
899.000000	 96.818523 
898.000000	 96.878216 
897.000000	 96.924735 
896.000000	 96.958567 
895.000000	 96.988306 
894.000000	 97.020885 
893.000000	 97.056999 
892.000000	 97.094228 
891.000000	 97.129975 
890.000000	 97.161894 
889.000000	 97.189853 
888.000000	 97.217904 
887.000000	 97.250954 
886.000000	 97.289077 
885.000000	 97.327826 
884.000000	 97.363449 
883.000000	 97.394374 
882.000000	 97.418694 
881.000000	 97.435383 
880.000000	 97.448650 
879.000000	 97.466160 
878.000000	 97.490911 
877.000000	 97.518716 
876.000000	 97.545278 
875.000000	 97.571283 
874.000000	 97.598072 
873.000000	 97.622592 
872.000000	 97.640519 
871.000000	 97.652249 
870.000000	 97.662870 
869.000000	 97.677759 
868.000000	 97.700222 
867.000000	 97.730957 
866.000000	 97.766504 
865.000000	 97.799671 
864.000000	 97.825099 
863.000000	 97.844694 
862.000000	 97.865199 
861.000000	 97.890013 
860.000000	 97.915647 
859.000000	 97.936738 
858.000000	 97.952133 
857.000000	 97.964558 
856.000000	 97.976492 
855.000000	 97.989094 
854.000000	 98.003779 
853.000000	 98.021170 
852.000000	 98.038178 
851.000000	 98.049724 
850.000000	 98.055148 
849.000000	 98.059943 
848.000000	 98.068683 
847.000000	 98.078794 
846.000000	 98.084485 
845.000000	 98.084731 
844.000000	 98.083188 
843.000000	 98.081486 
842.000000	 98.077480 
841.000000	 98.069982 
840.000000	 98.060099 
839.000000	 98.047060 
838.000000	 98.028152 
837.000000	 98.005098 
836.000000	 97.985309 
835.000000	 97.972886 
834.000000	 97.962634 
833.000000	 97.948335 
832.000000	 97.934024 
831.000000	 97.930493 
830.000000	 97.940903 
829.000000	 97.956042 
828.000000	 97.965516 
827.000000	 97.968635 
826.000000	 97.971414 
825.000000	 97.976663 
824.000000	 97.981256 
823.000000	 97.981897 
822.000000	 97.979902 
821.000000	 97.979367 
820.000000	 97.982066 
819.000000	 97.985453 
818.000000	 97.986030 
817.000000	 97.983677 
816.000000	 97.980472 
815.000000	 97.974712 
814.000000	 97.959101 
813.000000	 97.927154 
812.000000	 97.879013 
811.000000	 97.817661 
810.000000	 97.741180 
809.000000	 97.643329 
808.000000	 97.522109 
807.000000	 97.383845 
806.000000	 97.237371 
805.000000	 97.087718 
804.000000	 96.938205 
803.000000	 96.795889 
802.000000	 96.671158 
801.000000	 96.572467 
800.000000	 96.503194 
799.000000	 96.462470 
798.000000	 96.447725 
797.000000	 96.456946 
796.000000	 96.487823 
795.000000	 96.533629 
794.000000	 96.582744 
793.000000	 96.626034 
792.000000	 96.663144 
791.000000	 96.697824 
790.000000	 96.728669 
789.000000	 96.748595 
788.000000	 96.752128 
787.000000	 96.738464 
786.000000	 96.707756 
785.000000	 96.659602 
784.000000	 96.596904 
783.000000	 96.527820 
782.000000	 96.461956 
781.000000	 96.406510 
780.000000	 96.366397 
779.000000	 96.344837 
778.000000	 96.342520 
777.000000	 96.358513 
776.000000	 96.392300 
775.000000	 96.442402 
774.000000	 96.503445 
773.000000	 96.567839 
772.000000	 96.630445 
771.000000	 96.689251 
770.000000	 96.742494 
769.000000	 96.787883 
768.000000	 96.823788 
767.000000	 96.848927 
766.000000	 96.862626 
765.000000	 96.868169 
764.000000	 96.873519 
763.000000	 96.884134 
762.000000	 96.896005 
761.000000	 96.900615 
760.000000	 96.897051 
759.000000	 96.894852 
758.000000	 96.903656 
757.000000	 96.922944 
756.000000	 96.942731 
755.000000	 96.952340 
754.000000	 96.949277 
753.000000	 96.942488 
752.000000	 96.946580 
751.000000	 96.969886 
750.000000	 97.007239 
749.000000	 97.045199 
748.000000	 97.073041 
747.000000	 97.087916 
746.000000	 97.093641 
745.000000	 97.098431 
744.000000	 97.111181 
743.000000	 97.135196 
742.000000	 97.166292 
741.000000	 97.199752 
740.000000	 97.236247 
739.000000	 97.277143 
738.000000	 97.317627 
737.000000	 97.349846 
736.000000	 97.370350 
735.000000	 97.379848 
734.000000	 97.379615 
733.000000	 97.374875 
732.000000	 97.378106 
731.000000	 97.399233 
730.000000	 97.432136 
729.000000	 97.459338 
728.000000	 97.471698 
727.000000	 97.475354 
726.000000	 97.477648 
725.000000	 97.475968 
724.000000	 97.465156 
723.000000	 97.448716 
722.000000	 97.436992 
721.000000	 97.438241 
720.000000	 97.454915 
719.000000	 97.483871 
718.000000	 97.516156 
717.000000	 97.540366 
716.000000	 97.550189 
715.000000	 97.548040 
714.000000	 97.541057 
713.000000	 97.536097 
712.000000	 97.538457 
711.000000	 97.549703 
710.000000	 97.564180 
709.000000	 97.571972 
708.000000	 97.568109 
707.000000	 97.555404 
706.000000	 97.536292 
705.000000	 97.507860 
704.000000	 97.468692 
703.000000	 97.424798 
702.000000	 97.383619 
701.000000	 97.344325 
700.000000	 97.297567 
699.000000	 97.234333 
698.000000	 97.154145 
697.000000	 97.068459 
696.000000	 96.997310 
695.000000	 96.957437 
694.000000	 96.951541 
693.000000	 96.970801 
692.000000	 97.006756 
691.000000	 97.056195 
690.000000	 97.114514 
689.000000	 97.172612 
688.000000	 97.223298 
687.000000	 97.264190 
686.000000	 97.292078 
685.000000	 97.301611 
684.000000	 97.294801 
683.000000	 97.286435 
682.000000	 97.293108 
681.000000	 97.317883 
680.000000	 97.347194 
679.000000	 97.362117 
678.000000	 97.353405 
677.000000	 97.330708 
676.000000	 97.320030 
675.000000	 97.341844 
674.000000	 97.386961 
673.000000	 97.422613 
672.000000	 97.428742 
671.000000	 97.421806 
670.000000	 97.436119 
669.000000	 97.488576 
668.000000	 97.539046 
667.000000	 97.537865 
666.000000	 97.496215 
665.000000	 97.447410 
664.000000	 97.418984 
663.000000	 97.431836 
662.000000	 97.478365 
661.000000	 97.519342 
660.000000	 97.519654 
659.000000	 97.482243 
658.000000	 97.436123 
657.000000	 97.401164 
656.000000	 97.378888 
655.000000	 97.367309 
654.000000	 97.364379 
653.000000	 97.363627 
652.000000	 97.361861 
651.000000	 97.365181 
650.000000	 97.376693 

