4000.000000	99.765090 
3999.000000	99.764961 
3998.000000	99.764605 
3997.000000	99.764187 
3996.000000	99.763877 
3995.000000	99.763685 
3994.000000	99.763480 
3993.000000	99.763160 
3992.000000	99.762778 
3991.000000	99.762443 
3990.000000	99.762157 
3989.000000	99.761809 
3988.000000	99.761327 
3987.000000	99.760781 
3986.000000	99.760342 
3985.000000	99.760109 
3984.000000	99.759991 
3983.000000	99.759767 
3982.000000	99.759299 
3981.000000	99.758662 
3980.000000	99.758064 
3979.000000	99.757666 
3978.000000	99.757547 
3977.000000	99.757757 
3976.000000	99.758289 
3975.000000	99.758932 
3974.000000	99.759287 
3973.000000	99.759034 
3972.000000	99.758171 
3971.000000	99.756991 
3970.000000	99.755874 
3969.000000	99.755110 
3968.000000	99.754824 
3967.000000	99.754962 
3966.000000	99.755328 
3965.000000	99.755716 
3964.000000	99.755995 
3963.000000	99.756055 
3962.000000	99.755702 
3961.000000	99.754755 
3960.000000	99.753295 
3959.000000	99.751775 
3958.000000	99.750740 
3957.000000	99.750420 
3956.000000	99.750643 
3955.000000	99.751118 
3954.000000	99.751810 
3953.000000	99.752884 
3952.000000	99.754275 
3951.000000	99.755466 
3950.000000	99.755909 
3949.000000	99.755618 
3948.000000	99.755185 
3947.000000	99.755135 
3946.000000	99.755401 
3945.000000	99.755491 
3944.000000	99.755048 
3943.000000	99.754184 
3942.000000	99.753329 
3941.000000	99.752850 
3940.000000	99.752859 
3939.000000	99.753244 
3938.000000	99.753801 
3937.000000	99.754383 
3936.000000	99.754961 
3935.000000	99.755509 
3934.000000	99.755878 
3933.000000	99.755903 
3932.000000	99.755660 
3931.000000	99.755499 
3930.000000	99.755747 
3929.000000	99.756344 
3928.000000	99.756818 
3927.000000	99.756639 
3926.000000	99.755643 
3925.000000	99.754218 
3924.000000	99.752965 
3923.000000	99.752202 
3922.000000	99.751845 
3921.000000	99.751706 
3920.000000	99.751704 
3919.000000	99.751855 
3918.000000	99.752249 
3917.000000	99.752991 
3916.000000	99.754049 
3915.000000	99.755153 
3914.000000	99.755883 
3913.000000	99.755975 
3912.000000	99.755530 
3911.000000	99.754931 
3910.000000	99.754529 
3909.000000	99.754370 
3908.000000	99.754209 
3907.000000	99.753790 
3906.000000	99.753118 
3905.000000	99.752544 
3904.000000	99.752487 
3903.000000	99.753026 
3902.000000	99.753892 
3901.000000	99.754766 
3900.000000	99.755475 
3899.000000	99.755934 
3898.000000	99.756077 
3897.000000	99.755936 
3896.000000	99.755650 
3895.000000	99.755333 
3894.000000	99.755013 
3893.000000	99.754752 
3892.000000	99.754758 
3891.000000	99.755131 
3890.000000	99.755600 
3889.000000	99.755749 
3888.000000	99.755415 
3887.000000	99.754866 
3886.000000	99.754582 
3885.000000	99.754613 
3884.000000	99.754449 
3883.000000	99.753713 
3882.000000	99.752803 
3881.000000	99.752665 
3880.000000	99.753727 
3879.000000	99.755233 
3878.000000	99.756049 
3877.000000	99.755919 
3876.000000	99.755536 
3875.000000	99.755763 
3874.000000	99.756702 
3873.000000	99.757586 
3872.000000	99.757663 
3871.000000	99.757110 
3870.000000	99.756785 
3869.000000	99.756941 
3868.000000	99.756920 
3867.000000	99.756187 
3866.000000	99.754975 
3865.000000	99.754087 
3864.000000	99.754160 
3863.000000	99.754977 
3862.000000	99.755831 
3861.000000	99.756491 
3860.000000	99.757494 
3859.000000	99.759585 
3858.000000	99.762899 
3857.000000	99.766463 
3856.000000	99.768683 
3855.000000	99.768645 
3854.000000	99.767307 
3853.000000	99.766104 
3852.000000	99.764625 
3851.000000	99.762287 
3850.000000	99.759709 
3849.000000	99.757743 
3848.000000	99.756744 
3847.000000	99.756555 
3846.000000	99.756923 
3845.000000	99.758016 
3844.000000	99.760320 
3843.000000	99.763734 
3842.000000	99.767027 
3841.000000	99.768554 
3840.000000	99.767652 
3839.000000	99.765465 
3838.000000	99.763850 
3837.000000	99.763238 
3836.000000	99.762467 
3835.000000	99.760500 
3834.000000	99.757528 
3833.000000	99.754732 
3832.000000	99.753265 
3831.000000	99.753228 
3830.000000	99.753748 
3829.000000	99.754153 
3828.000000	99.754897 
3827.000000	99.757007 
3826.000000	99.760638 
3825.000000	99.764476 
3824.000000	99.766715 
3823.000000	99.766575 
3822.000000	99.765154 
3821.000000	99.764406 
3820.000000	99.764498 
3819.000000	99.763879 
3818.000000	99.761735 
3817.000000	99.759221 
3816.000000	99.758126 
3815.000000	99.758382 
3814.000000	99.758576 
3813.000000	99.758394 
3812.000000	99.758785 
3811.000000	99.760329 
3810.000000	99.762299 
3809.000000	99.763515 
3808.000000	99.764007 
3807.000000	99.764994 
3806.000000	99.766864 
3805.000000	99.768386 
3804.000000	99.768056 
3803.000000	99.765598 
3802.000000	99.762425 
3801.000000	99.759565 
3800.000000	99.756146 
3799.000000	99.751659 
3798.000000	99.747499 
3797.000000	99.745657 
3796.000000	99.746582 
3795.000000	99.748608 
3794.000000	99.749639 
3793.000000	99.749062 
3792.000000	99.747752 
3791.000000	99.746856 
3790.000000	99.746775 
3789.000000	99.747062 
3788.000000	99.747098 
3787.000000	99.746759 
3786.000000	99.746576 
3785.000000	99.747171 
3784.000000	99.748454 
3783.000000	99.749675 
3782.000000	99.750335 
3781.000000	99.750767 
3780.000000	99.751667 
3779.000000	99.752905 
3778.000000	99.753335 
3777.000000	99.752321 
3776.000000	99.750762 
3775.000000	99.750144 
3774.000000	99.750989 
3773.000000	99.752573 
3772.000000	99.753934 
3771.000000	99.754892 
3770.000000	99.755911 
3769.000000	99.757080 
3768.000000	99.757891 
3767.000000	99.758019 
3766.000000	99.757727 
3765.000000	99.757459 
3764.000000	99.757329 
3763.000000	99.757146 
3762.000000	99.756718 
3761.000000	99.756014 
3760.000000	99.755306 
3759.000000	99.755148 
3758.000000	99.755935 
3757.000000	99.757571 
3756.000000	99.759574 
3755.000000	99.761403 
3754.000000	99.762731 
3753.000000	99.763560 
3752.000000	99.764243 
3751.000000	99.765083 
3750.000000	99.765609 
3749.000000	99.765062 
3748.000000	99.763340 
3747.000000	99.760928 
3746.000000	99.758809 
3745.000000	99.758084 
3744.000000	99.758535 
3743.000000	99.758729 
3742.000000	99.758086 
3741.000000	99.757231 
3740.000000	99.756815 
3739.000000	99.756877 
3738.000000	99.756916 
3737.000000	99.756360 
3736.000000	99.755090 
3735.000000	99.753553 
3734.000000	99.752398 
3733.000000	99.751958 
3732.000000	99.752081 
3731.000000	99.752251 
3730.000000	99.751978 
3729.000000	99.751154 
3728.000000	99.750062 
3727.000000	99.749100 
3726.000000	99.748398 
3725.000000	99.747748 
3724.000000	99.746964 
3723.000000	99.746155 
3722.000000	99.745546 
3721.000000	99.745159 
3720.000000	99.744827 
3719.000000	99.744449 
3718.000000	99.744063 
3717.000000	99.743706 
3716.000000	99.743301 
3715.000000	99.742739 
3714.000000	99.742017 
3713.000000	99.741236 
3712.000000	99.740462 
3711.000000	99.739614 
3710.000000	99.738593 
3709.000000	99.737466 
3708.000000	99.736433 
3707.000000	99.735646 
3706.000000	99.735118 
3705.000000	99.734734 
3704.000000	99.734364 
3703.000000	99.734017 
3702.000000	99.733821 
3701.000000	99.733761 
3700.000000	99.733575 
3699.000000	99.733022 
3698.000000	99.732163 
3697.000000	99.731364 
3696.000000	99.731006 
3695.000000	99.731220 
3694.000000	99.731883 
3693.000000	99.732665 
3692.000000	99.733122 
3691.000000	99.732860 
3690.000000	99.731834 
3689.000000	99.730555 
3688.000000	99.729625 
3687.000000	99.729210 
3686.000000	99.729172 
3685.000000	99.729309 
3684.000000	99.729450 
3683.000000	99.729488 
3682.000000	99.729430 
3681.000000	99.729442 
3680.000000	99.729713 
3679.000000	99.730191 
3678.000000	99.730499 
3677.000000	99.730274 
3676.000000	99.729701 
3675.000000	99.729203 
3674.000000	99.728665 
3673.000000	99.727784 
3672.000000	99.726634 
3671.000000	99.725712 
3670.000000	99.725494 
3669.000000	99.725707 
3668.000000	99.725653 
3667.000000	99.725191 
3666.000000	99.724692 
3665.000000	99.724375 
3664.000000	99.724055 
3663.000000	99.723401 
3662.000000	99.722325 
3661.000000	99.721125 
3660.000000	99.720299 
3659.000000	99.720277 
3658.000000	99.721287 
3657.000000	99.723207 
3656.000000	99.725297 
3655.000000	99.726520 
3654.000000	99.726442 
3653.000000	99.725464 
3652.000000	99.724387 
3651.000000	99.723775 
3650.000000	99.723629 
3649.000000	99.723380 
3648.000000	99.722480 
3647.000000	99.721226 
3646.000000	99.720376 
3645.000000	99.720163 
3644.000000	99.720173 
3643.000000	99.719774 
3642.000000	99.718538 
3641.000000	99.716563 
3640.000000	99.714497 
3639.000000	99.713050 
3638.000000	99.712318 
3637.000000	99.711767 
3636.000000	99.711069 
3635.000000	99.710662 
3634.000000	99.711133 
3633.000000	99.712258 
3632.000000	99.713176 
3631.000000	99.713518 
3630.000000	99.714091 
3629.000000	99.715670 
3628.000000	99.716889 
3627.000000	99.715886 
3626.000000	99.713098 
3625.000000	99.710464 
3624.000000	99.709226 
3623.000000	99.709148 
3622.000000	99.709220 
3621.000000	99.708833 
3620.000000	99.708424 
3619.000000	99.708786 
3618.000000	99.709809 
3617.000000	99.710602 
3616.000000	99.710597 
3615.000000	99.710011 
3614.000000	99.709626 
3613.000000	99.710219 
3612.000000	99.711992 
3611.000000	99.714551 
3610.000000	99.717254 
3609.000000	99.719386 
3608.000000	99.720369 
3607.000000	99.720138 
3606.000000	99.719238 
3605.000000	99.718408 
3604.000000	99.717911 
3603.000000	99.717386 
3602.000000	99.716422 
3601.000000	99.715257 
3600.000000	99.714746 
3599.000000	99.715496 
3598.000000	99.717122 
3597.000000	99.718568 
3596.000000	99.719160 
3595.000000	99.719190 
3594.000000	99.719308 
3593.000000	99.719549 
3592.000000	99.719334 
3591.000000	99.718257 
3590.000000	99.716527 
3589.000000	99.714734 
3588.000000	99.713530 
3587.000000	99.713312 
3586.000000	99.713961 
3585.000000	99.715071 
3584.000000	99.716302 
3583.000000	99.717488 
3582.000000	99.718629 
3581.000000	99.719710 
3580.000000	99.720478 
3579.000000	99.720522 
3578.000000	99.719653 
3577.000000	99.718117 
3576.000000	99.716397 
3575.000000	99.714878 
3574.000000	99.713814 
3573.000000	99.713473 
3572.000000	99.714084 
3571.000000	99.715622 
3570.000000	99.717670 
3569.000000	99.719502 
3568.000000	99.720526 
3567.000000	99.720736 
3566.000000	99.720567 
3565.000000	99.720476 
3564.000000	99.720785 
3563.000000	99.721594 
3562.000000	99.722665 
3561.000000	99.723479 
3560.000000	99.723520 
3559.000000	99.722592 
3558.000000	99.720977 
3557.000000	99.719352 
3556.000000	99.718500 
3555.000000	99.718907 
3554.000000	99.720454 
3553.000000	99.722376 
3552.000000	99.723640 
3551.000000	99.723616 
3550.000000	99.722431 
3549.000000	99.720781 
3548.000000	99.719387 
3547.000000	99.718550 
3546.000000	99.718168 
3545.000000	99.718062 
3544.000000	99.718247 
3543.000000	99.718865 
3542.000000	99.719947 
3541.000000	99.721276 
3540.000000	99.722456 
3539.000000	99.723111 
3538.000000	99.723047 
3537.000000	99.722340 
3536.000000	99.721278 
3535.000000	99.720169 
3534.000000	99.719153 
3533.000000	99.718100 
3532.000000	99.716673 
3531.000000	99.714586 
3530.000000	99.712013 
3529.000000	99.709765 
3528.000000	99.708819 
3527.000000	99.709560 
3526.000000	99.711569 
3525.000000	99.714044 
3524.000000	99.716333 
3523.000000	99.718087 
3522.000000	99.719175 
3521.000000	99.719722 
3520.000000	99.720119 
3519.000000	99.720672 
3518.000000	99.721210 
3517.000000	99.721238 
3516.000000	99.720588 
3515.000000	99.719782 
3514.000000	99.719548 
3513.000000	99.719995 
3512.000000	99.720486 
3511.000000	99.720400 
3510.000000	99.719861 
3509.000000	99.719500 
3508.000000	99.719538 
3507.000000	99.719441 
3506.000000	99.718591 
3505.000000	99.717092 
3504.000000	99.715784 
3503.000000	99.715437 
3502.000000	99.716087 
3501.000000	99.717188 
3500.000000	99.718145 
3499.000000	99.718636 
3498.000000	99.718605 
3497.000000	99.718189 
3496.000000	99.717633 
3495.000000	99.717123 
3494.000000	99.716685 
3493.000000	99.716272 
3492.000000	99.715899 
3491.000000	99.715631 
3490.000000	99.715477 
3489.000000	99.715373 
3488.000000	99.715261 
3487.000000	99.715139 
3486.000000	99.715026 
3485.000000	99.714918 
3484.000000	99.714790 
3483.000000	99.714610 
3482.000000	99.714361 
3481.000000	99.714054 
3480.000000	99.713726 
3479.000000	99.713420 
3478.000000	99.713162 
3477.000000	99.712965 
3476.000000	99.712826 
3475.000000	99.712723 
3474.000000	99.712610 
3473.000000	99.712443 
3472.000000	99.712218 
3471.000000	99.711965 
3470.000000	99.711729 
3469.000000	99.711529 
3468.000000	99.711362 
3467.000000	99.711227 
3466.000000	99.711128 
3465.000000	99.711057 
3464.000000	99.710992 
3463.000000	99.710912 
3462.000000	99.710817 
3461.000000	99.710731 
3460.000000	99.710688 
3459.000000	99.710711 
3458.000000	99.710805 
3457.000000	99.710946 
3456.000000	99.711080 
3455.000000	99.711160 
3454.000000	99.711192 
3453.000000	99.711230 
3452.000000	99.711319 
3451.000000	99.711430 
3450.000000	99.711506 
3449.000000	99.711556 
3448.000000	99.711669 
3447.000000	99.711875 
3446.000000	99.712029 
3445.000000	99.711946 
3444.000000	99.711658 
3443.000000	99.711467 
3442.000000	99.711637 
3441.000000	99.712123 
3440.000000	99.712635 
3439.000000	99.712957 
3438.000000	99.713114 
3437.000000	99.713242 
3436.000000	99.713439 
3435.000000	99.713735 
3434.000000	99.714099 
3433.000000	99.714453 
3432.000000	99.714688 
3431.000000	99.714699 
3430.000000	99.714423 
3429.000000	99.713960 
3428.000000	99.713650 
3427.000000	99.713931 
3426.000000	99.714962 
3425.000000	99.716383 
3424.000000	99.717534 
3423.000000	99.717976 
3422.000000	99.717780 
3421.000000	99.717373 
3420.000000	99.717147 
3419.000000	99.717186 
3418.000000	99.717311 
3417.000000	99.717338 
3416.000000	99.717226 
3415.000000	99.716932 
3414.000000	99.716263 
3413.000000	99.715094 
3412.000000	99.713733 
3411.000000	99.712813 
3410.000000	99.712634 
3409.000000	99.712850 
3408.000000	99.712917 
3407.000000	99.712731 
3406.000000	99.712601 
3405.000000	99.712685 
3404.000000	99.712812 
3403.000000	99.712874 
3402.000000	99.713146 
3401.000000	99.713975 
3400.000000	99.715256 
3399.000000	99.716332 
3398.000000	99.716510 
3397.000000	99.715604 
3396.000000	99.714029 
3395.000000	99.712498 
3394.000000	99.711537 
3393.000000	99.711279 
3392.000000	99.711581 
3391.000000	99.712168 
3390.000000	99.712743 
3389.000000	99.713108 
3388.000000	99.713268 
3387.000000	99.713367 
3386.000000	99.713524 
3385.000000	99.713796 
3384.000000	99.714265 
3383.000000	99.714969 
3382.000000	99.715698 
3381.000000	99.716055 
3380.000000	99.715863 
3379.000000	99.715403 
3378.000000	99.715110 
3377.000000	99.715114 
3376.000000	99.715244 
3375.000000	99.715400 
3374.000000	99.715674 
3373.000000	99.716062 
3372.000000	99.716328 
3371.000000	99.716328 
3370.000000	99.716325 
3369.000000	99.716770 
3368.000000	99.717762 
3367.000000	99.718857 
3366.000000	99.719461 
3365.000000	99.719334 
3364.000000	99.718684 
3363.000000	99.717941 
3362.000000	99.717406 
3361.000000	99.717096 
3360.000000	99.716865 
3359.000000	99.716678 
3358.000000	99.716734 
3357.000000	99.717236 
3356.000000	99.718048 
3355.000000	99.718659 
3354.000000	99.718651 
3353.000000	99.718168 
3352.000000	99.717797 
3351.000000	99.717915 
3350.000000	99.718279 
3349.000000	99.718368 
3348.000000	99.718024 
3347.000000	99.717540 
3346.000000	99.717162 
3345.000000	99.716738 
3344.000000	99.716033 
3343.000000	99.715236 
3342.000000	99.714933 
3341.000000	99.715529 
3340.000000	99.716836 
3339.000000	99.718212 
3338.000000	99.719051 
3337.000000	99.719206 
3336.000000	99.719035 
3335.000000	99.719059 
3334.000000	99.719540 
3333.000000	99.720386 
3332.000000	99.721377 
3331.000000	99.722345 
3330.000000	99.723145 
3329.000000	99.723625 
3328.000000	99.723681 
3327.000000	99.723188 
3326.000000	99.721897 
3325.000000	99.719710 
3324.000000	99.717166 
3323.000000	99.715370 
3322.000000	99.715129 
3321.000000	99.716409 
3320.000000	99.718803 
3319.000000	99.722083 
3318.000000	99.725922 
3317.000000	99.729368 
3316.000000	99.731325 
3315.000000	99.731670 
3314.000000	99.731363 
3313.000000	99.731207 
3312.000000	99.730900 
3311.000000	99.729735 
3310.000000	99.727885 
3309.000000	99.726451 
3308.000000	99.726258 
3307.000000	99.726991 
3306.000000	99.727657 
3305.000000	99.727672 
3304.000000	99.727322 
3303.000000	99.727214 
3302.000000	99.727468 
3301.000000	99.727478 
3300.000000	99.726425 
3299.000000	99.723981 
3298.000000	99.720676 
3297.000000	99.717705 
3296.000000	99.716213 
3295.000000	99.716557 
3294.000000	99.718106 
3293.000000	99.719759 
3292.000000	99.720887 
3291.000000	99.721736 
3290.000000	99.722883 
3289.000000	99.724430 
3288.000000	99.725806 
3287.000000	99.726324 
3286.000000	99.725931 
3285.000000	99.725390 
3284.000000	99.725652 
3283.000000	99.726887 
3282.000000	99.728175 
3281.000000	99.728324 
3280.000000	99.726991 
3279.000000	99.724904 
3278.000000	99.723150 
3277.000000	99.722316 
3276.000000	99.722327 
3275.000000	99.722721 
3274.000000	99.722906 
3273.000000	99.722457 
3272.000000	99.721466 
3271.000000	99.720518 
3270.000000	99.720113 
3269.000000	99.720179 
3268.000000	99.720291 
3267.000000	99.720265 
3266.000000	99.720290 
3265.000000	99.720480 
3264.000000	99.720639 
3263.000000	99.720586 
3262.000000	99.720453 
3261.000000	99.720490 
3260.000000	99.720745 
3259.000000	99.721106 
3258.000000	99.721545 
3257.000000	99.722106 
3256.000000	99.722661 
3255.000000	99.722883 
3254.000000	99.722589 
3253.000000	99.721989 
3252.000000	99.721510 
3251.000000	99.721365 
3250.000000	99.721404 
3249.000000	99.721390 
3248.000000	99.721329 
3247.000000	99.721395 
3246.000000	99.721566 
3245.000000	99.721515 
3244.000000	99.720981 
3243.000000	99.720082 
3242.000000	99.719179 
3241.000000	99.718524 
3240.000000	99.718145 
3239.000000	99.718028 
3238.000000	99.718260 
3237.000000	99.718868 
3236.000000	99.719633 
3235.000000	99.720154 
3234.000000	99.720138 
3233.000000	99.719645 
3232.000000	99.719066 
3231.000000	99.718816 
3230.000000	99.718969 
3229.000000	99.719263 
3228.000000	99.719443 
3227.000000	99.719531 
3226.000000	99.719674 
3225.000000	99.719891 
3224.000000	99.720084 
3223.000000	99.720205 
3222.000000	99.720290 
3221.000000	99.720361 
3220.000000	99.720433 
3219.000000	99.720583 
3218.000000	99.720896 
3217.000000	99.721284 
3216.000000	99.721504 
3215.000000	99.721426 
3214.000000	99.721200 
3213.000000	99.721105 
3212.000000	99.721256 
3211.000000	99.721520 
3210.000000	99.721671 
3209.000000	99.721590 
3208.000000	99.721329 
3207.000000	99.721069 
3206.000000	99.720979 
3205.000000	99.721090 
3204.000000	99.721273 
3203.000000	99.721361 
3202.000000	99.721302 
3201.000000	99.721171 
3200.000000	99.721071 
3199.000000	99.721055 
3198.000000	99.721141 
3197.000000	99.721310 
3196.000000	99.721432 
3195.000000	99.721297 
3194.000000	99.720790 
3193.000000	99.720041 
3192.000000	99.719369 
3191.000000	99.718985 
3190.000000	99.718839 
3189.000000	99.718778 
3188.000000	99.718773 
3187.000000	99.718890 
3186.000000	99.719129 
3185.000000	99.719425 
3184.000000	99.719719 
3183.000000	99.719934 
3182.000000	99.719883 
3181.000000	99.719384 
3180.000000	99.718500 
3179.000000	99.717561 
3178.000000	99.716862 
3177.000000	99.716446 
3176.000000	99.716228 
3175.000000	99.716149 
3174.000000	99.716137 
3173.000000	99.716039 
3172.000000	99.715731 
3171.000000	99.715288 
3170.000000	99.714918 
3169.000000	99.714707 
3168.000000	99.714515 
3167.000000	99.714168 
3166.000000	99.713649 
3165.000000	99.713072 
3164.000000	99.712549 
3163.000000	99.712125 
3162.000000	99.711766 
3161.000000	99.711397 
3160.000000	99.710978 
3159.000000	99.710571 
3158.000000	99.710283 
3157.000000	99.710152 
3156.000000	99.710102 
3155.000000	99.709980 
3154.000000	99.709592 
3153.000000	99.708768 
3152.000000	99.707527 
3151.000000	99.706252 
3150.000000	99.705478 
3149.000000	99.705435 
3148.000000	99.705865 
3147.000000	99.706285 
3146.000000	99.706449 
3145.000000	99.706463 
3144.000000	99.706535 
3143.000000	99.706678 
3142.000000	99.706662 
3141.000000	99.706234 
3140.000000	99.705414 
3139.000000	99.704572 
3138.000000	99.704134 
3137.000000	99.704174 
3136.000000	99.704338 
3135.000000	99.704203 
3134.000000	99.703632 
3133.000000	99.702779 
3132.000000	99.701870 
3131.000000	99.701115 
3130.000000	99.700757 
3129.000000	99.701010 
3128.000000	99.701888 
3127.000000	99.703102 
3126.000000	99.704221 
3125.000000	99.704969 
3124.000000	99.705340 
3123.000000	99.705425 
3122.000000	99.705194 
3121.000000	99.704571 
3120.000000	99.703670 
3119.000000	99.702831 
3118.000000	99.702350 
3117.000000	99.702268 
3116.000000	99.702493 
3115.000000	99.702955 
3114.000000	99.703559 
3113.000000	99.704099 
3112.000000	99.704411 
3111.000000	99.704588 
3110.000000	99.704909 
3109.000000	99.705492 
3108.000000	99.706093 
3107.000000	99.706317 
3106.000000	99.706053 
3105.000000	99.705720 
3104.000000	99.705954 
3103.000000	99.706981 
3102.000000	99.708322 
3101.000000	99.709227 
3100.000000	99.709466 
3099.000000	99.709421 
3098.000000	99.709437 
3097.000000	99.709386 
3096.000000	99.709098 
3095.000000	99.708882 
3094.000000	99.709202 
3093.000000	99.710003 
3092.000000	99.710657 
3091.000000	99.710652 
3090.000000	99.710044 
3089.000000	99.709248 
3088.000000	99.708610 
3087.000000	99.708188 
3086.000000	99.707847 
3085.000000	99.707465 
3084.000000	99.707146 
3083.000000	99.707197 
3082.000000	99.707751 
3081.000000	99.708510 
3080.000000	99.708986 
3079.000000	99.709023 
3078.000000	99.708911 
3077.000000	99.709016 
3076.000000	99.709416 
3075.000000	99.709894 
3074.000000	99.710164 
3073.000000	99.710055 
3072.000000	99.709608 
3071.000000	99.709080 
3070.000000	99.708761 
3069.000000	99.708706 
3068.000000	99.708721 
3067.000000	99.708621 
3066.000000	99.708418 
3065.000000	99.708241 
3064.000000	99.708142 
3063.000000	99.708037 
3062.000000	99.707802 
3061.000000	99.707365 
3060.000000	99.706781 
3059.000000	99.706237 
3058.000000	99.705937 
3057.000000	99.705928 
3056.000000	99.706058 
3055.000000	99.706113 
3054.000000	99.705999 
3053.000000	99.705779 
3052.000000	99.705580 
3051.000000	99.705476 
3050.000000	99.705408 
3049.000000	99.705241 
3048.000000	99.704902 
3047.000000	99.704483 
3046.000000	99.704161 
3045.000000	99.704004 
3044.000000	99.703911 
3043.000000	99.703771 
3042.000000	99.703626 
3041.000000	99.703622 
3040.000000	99.703811 
3039.000000	99.704029 
3038.000000	99.703982 
3037.000000	99.703513 
3036.000000	99.702732 
3035.000000	99.701959 
3034.000000	99.701433 
3033.000000	99.701141 
3032.000000	99.700907 
3031.000000	99.700601 
3030.000000	99.700261 
3029.000000	99.699977 
3028.000000	99.699745 
3027.000000	99.699473 
3026.000000	99.699096 
3025.000000	99.698649 
3024.000000	99.698242 
3023.000000	99.697956 
3022.000000	99.697683 
3021.000000	99.697106 
3020.000000	99.695974 
3019.000000	99.694454 
3018.000000	99.693073 
3017.000000	99.692149 
3016.000000	99.691491 
3015.000000	99.690825 
3014.000000	99.690328 
3013.000000	99.690443 
3012.000000	99.691181 
3011.000000	99.691836 
3010.000000	99.691588 
3009.000000	99.690326 
3008.000000	99.688772 
3007.000000	99.687759 
3006.000000	99.687361 
3005.000000	99.686937 
3004.000000	99.686072 
3003.000000	99.685242 
3002.000000	99.685247 
3001.000000	99.686157 
3000.000000	99.687184 
2999.000000	99.687529 
2998.000000	99.686883 
2997.000000	99.685162 
2996.000000	99.682421 
2995.000000	99.679352 
2994.000000	99.677260 
2993.000000	99.676951 
2992.000000	99.677935 
2991.000000	99.678979 
2990.000000	99.679279 
2989.000000	99.678831 
2988.000000	99.677986 
2987.000000	99.677193 
2986.000000	99.677000 
2985.000000	99.677707 
2984.000000	99.678889 
2983.000000	99.679580 
2982.000000	99.679191 
2981.000000	99.678185 
2980.000000	99.677804 
2979.000000	99.679039 
2978.000000	99.681713 
2977.000000	99.684445 
2976.000000	99.685705 
2975.000000	99.685104 
2974.000000	99.683660 
2973.000000	99.682915 
2972.000000	99.683875 
2971.000000	99.686653 
2970.000000	99.690641 
2969.000000	99.694832 
2968.000000	99.698293 
2967.000000	99.700615 
2966.000000	99.701987 
2965.000000	99.702925 
2964.000000	99.704048 
2963.000000	99.705852 
2962.000000	99.708296 
2961.000000	99.710655 
2960.000000	99.712266 
2959.000000	99.713391 
2958.000000	99.714827 
2957.000000	99.716684 
2956.000000	99.718193 
2955.000000	99.718838 
2954.000000	99.718972 
2953.000000	99.719022 
2952.000000	99.718812 
2951.000000	99.718070 
2950.000000	99.717045 
2949.000000	99.716184 
2948.000000	99.715741 
2947.000000	99.716044 
2946.000000	99.717503 
2945.000000	99.719813 
2944.000000	99.721700 
2943.000000	99.722173 
2942.000000	99.721763 
2941.000000	99.721959 
2940.000000	99.723700 
2939.000000	99.726806 
2938.000000	99.730473 
2937.000000	99.733720 
2936.000000	99.735720 
2935.000000	99.736532 
2934.000000	99.737416 
2933.000000	99.739738 
2932.000000	99.743441 
2931.000000	99.747030 
2930.000000	99.749054 
2929.000000	99.749217 
2928.000000	99.748174 
2927.000000	99.746807 
2926.000000	99.745843 
2925.000000	99.745654 
2924.000000	99.746029 
2923.000000	99.746173 
2922.000000	99.745161 
2921.000000	99.742554 
2920.000000	99.738750 
2919.000000	99.734744 
2918.000000	99.731330 
2917.000000	99.728448 
2916.000000	99.725435 
2915.000000	99.721940 
2914.000000	99.718336 
2913.000000	99.715165 
2912.000000	99.712572 
2911.000000	99.710612 
2910.000000	99.709866 
2909.000000	99.711153 
2908.000000	99.714446 
2907.000000	99.718269 
2906.000000	99.720457 
2905.000000	99.719757 
2904.000000	99.716668 
2903.000000	99.712940 
2902.000000	99.710245 
2901.000000	99.709208 
2900.000000	99.709525 
2899.000000	99.710469 
2898.000000	99.711205 
2897.000000	99.711014 
2896.000000	99.709768 
2895.000000	99.708251 
2894.000000	99.707645 
2893.000000	99.708462 
2892.000000	99.710052 
2891.000000	99.711218 
2890.000000	99.711292 
2889.000000	99.710604 
2888.000000	99.710001 
2887.000000	99.709969 
2886.000000	99.710241 
2885.000000	99.710281 
2884.000000	99.709988 
2883.000000	99.709693 
2882.000000	99.709482 
2881.000000	99.708997 
2880.000000	99.708152 
2879.000000	99.707682 
2878.000000	99.708439 
2877.000000	99.710272 
2876.000000	99.712035 
2875.000000	99.712776 
2874.000000	99.712524 
2873.000000	99.711866 
2872.000000	99.711295 
2871.000000	99.711155 
2870.000000	99.711718 
2869.000000	99.712889 
2868.000000	99.714054 
2867.000000	99.714586 
2866.000000	99.714439 
2865.000000	99.714091 
2864.000000	99.714080 
2863.000000	99.714734 
2862.000000	99.716106 
2861.000000	99.717946 
2860.000000	99.719916 
2859.000000	99.721934 
2858.000000	99.724149 
2857.000000	99.726530 
2856.000000	99.728692 
2855.000000	99.730123 
2854.000000	99.730355 
2853.000000	99.729085 
2852.000000	99.726584 
2851.000000	99.723993 
2850.000000	99.722480 
2849.000000	99.721919 
2848.000000	99.721170 
2847.000000	99.719801 
2846.000000	99.718767 
2845.000000	99.718967 
2844.000000	99.719877 
2843.000000	99.720256 
2842.000000	99.719756 
2841.000000	99.719080 
2840.000000	99.718795 
2839.000000	99.718738 
2838.000000	99.718560 
2837.000000	99.718240 
2836.000000	99.717940 
2835.000000	99.717743 
2834.000000	99.717655 
2833.000000	99.717615 
2832.000000	99.717424 
2831.000000	99.716914 
2830.000000	99.716256 
2829.000000	99.715888 
2828.000000	99.716056 
2827.000000	99.716571 
2826.000000	99.717037 
2825.000000	99.717209 
2824.000000	99.717093 
2823.000000	99.716812 
2822.000000	99.716472 
2821.000000	99.716138 
2820.000000	99.715828 
2819.000000	99.715517 
2818.000000	99.715166 
2817.000000	99.714763 
2816.000000	99.714338 
2815.000000	99.713942 
2814.000000	99.713601 
2813.000000	99.713300 
2812.000000	99.713016 
2811.000000	99.712751 
2810.000000	99.712504 
2809.000000	99.712268 
2808.000000	99.712039 
2807.000000	99.711818 
2806.000000	99.711610 
2805.000000	99.711416 
2804.000000	99.711238 
2803.000000	99.711069 
2802.000000	99.710901 
2801.000000	99.710729 
2800.000000	99.710551 
2799.000000	99.710372 
2798.000000	99.710196 
2797.000000	99.710029 
2796.000000	99.709872 
2795.000000	99.709724 
2794.000000	99.709580 
2793.000000	99.709438 
2792.000000	99.709294 
2791.000000	99.709149 
2790.000000	99.709005 
2789.000000	99.708863 
2788.000000	99.708722 
2787.000000	99.708581 
2786.000000	99.708440 
2785.000000	99.708302 
2784.000000	99.708172 
2783.000000	99.708051 
2782.000000	99.707941 
2781.000000	99.707839 
2780.000000	99.707743 
2779.000000	99.707650 
2778.000000	99.707563 
2777.000000	99.707483 
2776.000000	99.707413 
2775.000000	99.707351 
2774.000000	99.707296 
2773.000000	99.707248 
2772.000000	99.707205 
2771.000000	99.707165 
2770.000000	99.707123 
2769.000000	99.707073 
2768.000000	99.707010 
2767.000000	99.706939 
2766.000000	99.706871 
2765.000000	99.706815 
2764.000000	99.706769 
2763.000000	99.706723 
2762.000000	99.706665 
2761.000000	99.706585 
2760.000000	99.706488 
2759.000000	99.706394 
2758.000000	99.706325 
2757.000000	99.706277 
2756.000000	99.706215 
2755.000000	99.706126 
2754.000000	99.706053 
2753.000000	99.706056 
2752.000000	99.706141 
2751.000000	99.706233 
2750.000000	99.706238 
2749.000000	99.706119 
2748.000000	99.705912 
2747.000000	99.705695 
2746.000000	99.705539 
2745.000000	99.705470 
2744.000000	99.705442 
2743.000000	99.705386 
2742.000000	99.705285 
2741.000000	99.705208 
2740.000000	99.705232 
2739.000000	99.705355 
2738.000000	99.705487 
2737.000000	99.705519 
2736.000000	99.705402 
2735.000000	99.705180 
2734.000000	99.704962 
2733.000000	99.704853 
2732.000000	99.704895 
2731.000000	99.705058 
2730.000000	99.705271 
2729.000000	99.705472 
2728.000000	99.705657 
2727.000000	99.705899 
2726.000000	99.706265 
2725.000000	99.706685 
2724.000000	99.706976 
2723.000000	99.707002 
2722.000000	99.706825 
2721.000000	99.706641 
2720.000000	99.706559 
2719.000000	99.706499 
2718.000000	99.706310 
2717.000000	99.705948 
2716.000000	99.705543 
2715.000000	99.705320 
2714.000000	99.705414 
2713.000000	99.705775 
2712.000000	99.706201 
2711.000000	99.706482 
2710.000000	99.706561 
2709.000000	99.706564 
2708.000000	99.706671 
2707.000000	99.706946 
2706.000000	99.707267 
2705.000000	99.707435 
2704.000000	99.707355 
2703.000000	99.707126 
2702.000000	99.706987 
2701.000000	99.707138 
2700.000000	99.707581 
2699.000000	99.708093 
2698.000000	99.708401 
2697.000000	99.708422 
2696.000000	99.708285 
2695.000000	99.708136 
2694.000000	99.707976 
2693.000000	99.707771 
2692.000000	99.707603 
2691.000000	99.707589 
2690.000000	99.707692 
2689.000000	99.707763 
2688.000000	99.707761 
2687.000000	99.707789 
2686.000000	99.707918 
2685.000000	99.708080 
2684.000000	99.708140 
2683.000000	99.708033 
2682.000000	99.707817 
2681.000000	99.707623 
2680.000000	99.707576 
2679.000000	99.707698 
2678.000000	99.707920 
2677.000000	99.708156 
2676.000000	99.708381 
2675.000000	99.708616 
2674.000000	99.708854 
2673.000000	99.709055 
2672.000000	99.709213 
2671.000000	99.709365 
2670.000000	99.709541 
2669.000000	99.709723 
2668.000000	99.709867 
2667.000000	99.710009 
2666.000000	99.710272 
2665.000000	99.710711 
2664.000000	99.711230 
2663.000000	99.711677 
2662.000000	99.711986 
2661.000000	99.712206 
2660.000000	99.712446 
2659.000000	99.712786 
2658.000000	99.713169 
2657.000000	99.713393 
2656.000000	99.713300 
2655.000000	99.712988 
2654.000000	99.712762 
2653.000000	99.712877 
2652.000000	99.713426 
2651.000000	99.714364 
2650.000000	99.715418 
2649.000000	99.715994 
2648.000000	99.715518 
2647.000000	99.714024 
2646.000000	99.712358 
2645.000000	99.711511 
2644.000000	99.711840 
2643.000000	99.713016 
2642.000000	99.714368 
2641.000000	99.715299 
2640.000000	99.715627 
2639.000000	99.715804 
2638.000000	99.716541 
2637.000000	99.717945 
2636.000000	99.719223 
2635.000000	99.719545 
2634.000000	99.718978 
2633.000000	99.718382 
2632.000000	99.718577 
2631.000000	99.719814 
2630.000000	99.721747 
2629.000000	99.723524 
2628.000000	99.724146 
2627.000000	99.723129 
2626.000000	99.720869 
2625.000000	99.718269 
2624.000000	99.716095 
2623.000000	99.714682 
2622.000000	99.713949 
2621.000000	99.713416 
2620.000000	99.712470 
2619.000000	99.710889 
2618.000000	99.709048 
2617.000000	99.707510 
2616.000000	99.706554 
2615.000000	99.706034 
2614.000000	99.705434 
2613.000000	99.704184 
2612.000000	99.702415 
2611.000000	99.701313 
2610.000000	99.702076 
2609.000000	99.704504 
2608.000000	99.707127 
2607.000000	99.708794 
2606.000000	99.709601 
2605.000000	99.710134 
2604.000000	99.710567 
2603.000000	99.710790 
2602.000000	99.710740 
2601.000000	99.710271 
2600.000000	99.709197 
2599.000000	99.707807 
2598.000000	99.706906 
2597.000000	99.707003 
2596.000000	99.707842 
2595.000000	99.708837 
2594.000000	99.709581 
2593.000000	99.709799 
2592.000000	99.709291 
2591.000000	99.708216 
2590.000000	99.707118 
2589.000000	99.706406 
2588.000000	99.706078 
2587.000000	99.706017 
2586.000000	99.706232 
2585.000000	99.706692 
2584.000000	99.707180 
2583.000000	99.707476 
2582.000000	99.707545 
2581.000000	99.707451 
2580.000000	99.707260 
2579.000000	99.707094 
2578.000000	99.707110 
2577.000000	99.707315 
2576.000000	99.707506 
2575.000000	99.707524 
2574.000000	99.707479 
2573.000000	99.707613 
2572.000000	99.708006 
2571.000000	99.708538 
2570.000000	99.709038 
2569.000000	99.709408 
2568.000000	99.709633 
2567.000000	99.709753 
2566.000000	99.709862 
2565.000000	99.710063 
2564.000000	99.710372 
2563.000000	99.710706 
2562.000000	99.710984 
2561.000000	99.711196 
2560.000000	99.711354 
2559.000000	99.711453 
2558.000000	99.711521 
2557.000000	99.711672 
2556.000000	99.712019 
2555.000000	99.712520 
2554.000000	99.713011 
2553.000000	99.713428 
2552.000000	99.713899 
2551.000000	99.714528 
2550.000000	99.715153 
2549.000000	99.715462 
2548.000000	99.715333 
2547.000000	99.714957 
2546.000000	99.714670 
2545.000000	99.714683 
2544.000000	99.715055 
2543.000000	99.715713 
2542.000000	99.716409 
2541.000000	99.716824 
2540.000000	99.716862 
2539.000000	99.716766 
2538.000000	99.716836 
2537.000000	99.717118 
2536.000000	99.717561 
2535.000000	99.718277 
2534.000000	99.719354 
2533.000000	99.720475 
2532.000000	99.721104 
2531.000000	99.721121 
2530.000000	99.721003 
2529.000000	99.721294 
2528.000000	99.722126 
2527.000000	99.723355 
2526.000000	99.724758 
2525.000000	99.725867 
2524.000000	99.725982 
2523.000000	99.724768 
2522.000000	99.722799 
2521.000000	99.721202 
2520.000000	99.720585 
2519.000000	99.720678 
2518.000000	99.720917 
2517.000000	99.721122 
2516.000000	99.721514 
2515.000000	99.722308 
2514.000000	99.723566 
2513.000000	99.725324 
2512.000000	99.727560 
2511.000000	99.729920 
2510.000000	99.731674 
2509.000000	99.732229 
2508.000000	99.731674 
2507.000000	99.730671 
2506.000000	99.729760 
2505.000000	99.729043 
2504.000000	99.728593 
2503.000000	99.728717 
2502.000000	99.729461 
2501.000000	99.730130 
2500.000000	99.729835 
2499.000000	99.728471 
2498.000000	99.726841 
2497.000000	99.725856 
2496.000000	99.725842 
2495.000000	99.726573 
2494.000000	99.727555 
2493.000000	99.728257 
2492.000000	99.728408 
2491.000000	99.728180 
2490.000000	99.727846 
2489.000000	99.727267 
2488.000000	99.726040 
2487.000000	99.724180 
2486.000000	99.722418 
2485.000000	99.721636 
2484.000000	99.722111 
2483.000000	99.723407 
2482.000000	99.724749 
2481.000000	99.725565 
2480.000000	99.725804 
2479.000000	99.725797 
2478.000000	99.725853 
2477.000000	99.726053 
2476.000000	99.726408 
2475.000000	99.726940 
2474.000000	99.727487 
2473.000000	99.727668 
2472.000000	99.727258 
2471.000000	99.726474 
2470.000000	99.725741 
2469.000000	99.725292 
2468.000000	99.725161 
2467.000000	99.725376 
2466.000000	99.725870 
2465.000000	99.726327 
2464.000000	99.726428 
2463.000000	99.726236 
2462.000000	99.726111 
2461.000000	99.726227 
2460.000000	99.726421 
2459.000000	99.726546 
2458.000000	99.726684 
2457.000000	99.726931 
2456.000000	99.727229 
2455.000000	99.727472 
2454.000000	99.727541 
2453.000000	99.727241 
2452.000000	99.726494 
2451.000000	99.725680 
2450.000000	99.725428 
2449.000000	99.725928 
2448.000000	99.726693 
2447.000000	99.727109 
2446.000000	99.727063 
2445.000000	99.726774 
2444.000000	99.726384 
2443.000000	99.725989 
2442.000000	99.725838 
2441.000000	99.726084 
2440.000000	99.726481 
2439.000000	99.726684 
2438.000000	99.726788 
2437.000000	99.727253 
2436.000000	99.728341 
2435.000000	99.729835 
2434.000000	99.731182 
2433.000000	99.731846 
2432.000000	99.731658 
2431.000000	99.730948 
2430.000000	99.730281 
2429.000000	99.729908 
2428.000000	99.729665 
2427.000000	99.729452 
2426.000000	99.729488 
2425.000000	99.729896 
2424.000000	99.730310 
2423.000000	99.730206 
2422.000000	99.729513 
2421.000000	99.728689 
2420.000000	99.728287 
2419.000000	99.728562 
2418.000000	99.729421 
2417.000000	99.730482 
2416.000000	99.731233 
2415.000000	99.731361 
2414.000000	99.730935 
2413.000000	99.730275 
2412.000000	99.729698 
2411.000000	99.729297 
2410.000000	99.728902 
2409.000000	99.728282 
2408.000000	99.727483 
2407.000000	99.726963 
2406.000000	99.727106 
2405.000000	99.727722 
2404.000000	99.728282 
2403.000000	99.728501 
2402.000000	99.728537 
2401.000000	99.728616 
2400.000000	99.728749 
2399.000000	99.728815 
2398.000000	99.728763 
2397.000000	99.728643 
2396.000000	99.728548 
2395.000000	99.728564 
2394.000000	99.728704 
2393.000000	99.728895 
2392.000000	99.729043 
2391.000000	99.729128 
2390.000000	99.729189 
2389.000000	99.729267 
2388.000000	99.729375 
2387.000000	99.729511 
2386.000000	99.729665 
2385.000000	99.729825 
2384.000000	99.729987 
2383.000000	99.730156 
2382.000000	99.730337 
2381.000000	99.730538 
2380.000000	99.730760 
2379.000000	99.730995 
2378.000000	99.731230 
2377.000000	99.731450 
2376.000000	99.731651 
2375.000000	99.731837 
2374.000000	99.732013 
2373.000000	99.732185 
2372.000000	99.732355 
2371.000000	99.732518 
2370.000000	99.732673 
2369.000000	99.732823 
2368.000000	99.732976 
2367.000000	99.733137 
2366.000000	99.733305 
2365.000000	99.733470 
2364.000000	99.733624 
2363.000000	99.733766 
2362.000000	99.733902 
2361.000000	99.734049 
2360.000000	99.734222 
2359.000000	99.734424 
2358.000000	99.734635 
2357.000000	99.734838 
2356.000000	99.735026 
2355.000000	99.735208 
2354.000000	99.735387 
2353.000000	99.735556 
2352.000000	99.735712 
2351.000000	99.735865 
2350.000000	99.736019 
2349.000000	99.736162 
2348.000000	99.736265 
2347.000000	99.736298 
2346.000000	99.736306 
2345.000000	99.736455 
2344.000000	99.736819 
2343.000000	99.737279 
2342.000000	99.737727 
2341.000000	99.738255 
2340.000000	99.738948 
2339.000000	99.739648 
2338.000000	99.739972 
2337.000000	99.739677 
2336.000000	99.738977 
2335.000000	99.738290 
2334.000000	99.737760 
2333.000000	99.737178 
2332.000000	99.736557 
2331.000000	99.736256 
2330.000000	99.736627 
2329.000000	99.737402 
2328.000000	99.737953 
2327.000000	99.737877 
2326.000000	99.737514 
2325.000000	99.737485 
2324.000000	99.737959 
2323.000000	99.738344 
2322.000000	99.738070 
2321.000000	99.737348 
2320.000000	99.736914 
2319.000000	99.736933 
2318.000000	99.736967 
2317.000000	99.736662 
2316.000000	99.736342 
2315.000000	99.736365 
2314.000000	99.736693 
2313.000000	99.736805 
2312.000000	99.736410 
2311.000000	99.735664 
2310.000000	99.735273 
2309.000000	99.735877 
2308.000000	99.737421 
2307.000000	99.738726 
2306.000000	99.738400 
2305.000000	99.736091 
2304.000000	99.733065 
2303.000000	99.731167 
2302.000000	99.731272 
2301.000000	99.732629 
2300.000000	99.733835 
2299.000000	99.734143 
2298.000000	99.733891 
2297.000000	99.733421 
2296.000000	99.732385 
2295.000000	99.730073 
2294.000000	99.726551 
2293.000000	99.722903 
2292.000000	99.720478 
2291.000000	99.719774 
2290.000000	99.720166 
2289.000000	99.720495 
2288.000000	99.720014 
2287.000000	99.718781 
2286.000000	99.717111 
2285.000000	99.714941 
2284.000000	99.712058 
2283.000000	99.708970 
2282.000000	99.706886 
2281.000000	99.706475 
2280.000000	99.707096 
2279.000000	99.707791 
2278.000000	99.708637 
2277.000000	99.710405 
2276.000000	99.712991 
2275.000000	99.715021 
2274.000000	99.715284 
2273.000000	99.714177 
2272.000000	99.713394 
2271.000000	99.714194 
2270.000000	99.716221 
2269.000000	99.717951 
2268.000000	99.718210 
2267.000000	99.717007 
2266.000000	99.715098 
2265.000000	99.713185 
2264.000000	99.711643 
2263.000000	99.710661 
2262.000000	99.710165 
2261.000000	99.709729 
2260.000000	99.709053 
2259.000000	99.708600 
2258.000000	99.709235 
2257.000000	99.711140 
2256.000000	99.713385 
2255.000000	99.714746 
2254.000000	99.714839 
2253.000000	99.714179 
2252.000000	99.713424 
2251.000000	99.712855 
2250.000000	99.712570 
2249.000000	99.712781 
2248.000000	99.713641 
2247.000000	99.714849 
2246.000000	99.715725 
2245.000000	99.715827 
2244.000000	99.715405 
2243.000000	99.715080 
2242.000000	99.715099 
2241.000000	99.715115 
2240.000000	99.714760 
2239.000000	99.714171 
2238.000000	99.713746 
2237.000000	99.713637 
2236.000000	99.713834 
2235.000000	99.714554 
2234.000000	99.716020 
2233.000000	99.717836 
2232.000000	99.719050 
2231.000000	99.719006 
2230.000000	99.717822 
2229.000000	99.716167 
2228.000000	99.714976 
2227.000000	99.715137 
2226.000000	99.716803 
2225.000000	99.718927 
2224.000000	99.720350 
2223.000000	99.721573 
2222.000000	99.724196 
2221.000000	99.728065 
2220.000000	99.730462 
2219.000000	99.729360 
2218.000000	99.725877 
2217.000000	99.722756 
2216.000000	99.721143 
2215.000000	99.720449 
2214.000000	99.720210 
2213.000000	99.719988 
2212.000000	99.718285 
2211.000000	99.713852 
2210.000000	99.708159 
2209.000000	99.704616 
2208.000000	99.704821 
2207.000000	99.707180 
2206.000000	99.709514 
2205.000000	99.711667 
2204.000000	99.714535 
2203.000000	99.717889 
2202.000000	99.720373 
2201.000000	99.721253 
2200.000000	99.720931 
2199.000000	99.719819 
2198.000000	99.717848 
2197.000000	99.715200 
2196.000000	99.712861 
2195.000000	99.711812 
2194.000000	99.711656 
2193.000000	99.710903 
2192.000000	99.708979 
2191.000000	99.707128 
2190.000000	99.706547 
2189.000000	99.706312 
2188.000000	99.704321 
2187.000000	99.700109 
2186.000000	99.695565 
2185.000000	99.692792 
2184.000000	99.692306 
2183.000000	99.693535 
2182.000000	99.695722 
2181.000000	99.697939 
2180.000000	99.699409 
2179.000000	99.700410 
2178.000000	99.701964 
2177.000000	99.704324 
2176.000000	99.706541 
2175.000000	99.707736 
2174.000000	99.708028 
2173.000000	99.707976 
2172.000000	99.707885 
2171.000000	99.707939 
2170.000000	99.708312 
2169.000000	99.708710 
2168.000000	99.708437 
2167.000000	99.707424 
2166.000000	99.706672 
2165.000000	99.707109 
2164.000000	99.708326 
2163.000000	99.709022 
2162.000000	99.708593 
2161.000000	99.707787 
2160.000000	99.707881 
2159.000000	99.709419 
2158.000000	99.711746 
2157.000000	99.713373 
2156.000000	99.713277 
2155.000000	99.711606 
2154.000000	99.709564 
2153.000000	99.708410 
2152.000000	99.708422 
2151.000000	99.709020 
2150.000000	99.709486 
2149.000000	99.709520 
2148.000000	99.709151 
2147.000000	99.708437 
2146.000000	99.707409 
2145.000000	99.706286 
2144.000000	99.705573 
2143.000000	99.705792 
2142.000000	99.706980 
2141.000000	99.708510 
2140.000000	99.709682 
2139.000000	99.710545 
2138.000000	99.711794 
2137.000000	99.713814 
2136.000000	99.716110 
2135.000000	99.717809 
2134.000000	99.718361 
2133.000000	99.717573 
2132.000000	99.715528 
2131.000000	99.712851 
2130.000000	99.710459 
2129.000000	99.708679 
2128.000000	99.707095 
2127.000000	99.705618 
2126.000000	99.705180 
2125.000000	99.706611 
2124.000000	99.709181 
2123.000000	99.710967 
2122.000000	99.710764 
2121.000000	99.709054 
2120.000000	99.707242 
2119.000000	99.706464 
2118.000000	99.707095 
2117.000000	99.708905 
2116.000000	99.711300 
2115.000000	99.713657 
2114.000000	99.715567 
2113.000000	99.716696 
2112.000000	99.716834 
2111.000000	99.716216 
2110.000000	99.715632 
2109.000000	99.715809 
2108.000000	99.716649 
2107.000000	99.717457 
2106.000000	99.717783 
2105.000000	99.717808 
2104.000000	99.717937 
2103.000000	99.718273 
2102.000000	99.718569 
2101.000000	99.718583 
2100.000000	99.718344 
2099.000000	99.718073 
2098.000000	99.717954 
2097.000000	99.717998 
2096.000000	99.718111 
2095.000000	99.718202 
2094.000000	99.718228 
2093.000000	99.718207 
2092.000000	99.718176 
2091.000000	99.718157 
2090.000000	99.718165 
2089.000000	99.718214 
2088.000000	99.718308 
2087.000000	99.718439 
2086.000000	99.718596 
2085.000000	99.718766 
2084.000000	99.718933 
2083.000000	99.719080 
2082.000000	99.719198 
2081.000000	99.719292 
2080.000000	99.719377 
2079.000000	99.719461 
2078.000000	99.719534 
2077.000000	99.719571 
2076.000000	99.719548 
2075.000000	99.719466 
2074.000000	99.719350 
2073.000000	99.719238 
2072.000000	99.719158 
2071.000000	99.719124 
2070.000000	99.719138 
2069.000000	99.719184 
2068.000000	99.719214 
2067.000000	99.719173 
2066.000000	99.719073 
2065.000000	99.719015 
2064.000000	99.719102 
2063.000000	99.719321 
2062.000000	99.719556 
2061.000000	99.719751 
2060.000000	99.719953 
2059.000000	99.720215 
2058.000000	99.720513 
2057.000000	99.720768 
2056.000000	99.720929 
2055.000000	99.721011 
2054.000000	99.721102 
2053.000000	99.721307 
2052.000000	99.721660 
2051.000000	99.722117 
2050.000000	99.722642 
2049.000000	99.723261 
2048.000000	99.723999 
2047.000000	99.724801 
2046.000000	99.725532 
2045.000000	99.726081 
2044.000000	99.726439 
2043.000000	99.726676 
2042.000000	99.726873 
2041.000000	99.727073 
2040.000000	99.727291 
2039.000000	99.727530 
2038.000000	99.727781 
2037.000000	99.728004 
2036.000000	99.728165 
2035.000000	99.728300 
2034.000000	99.728503 
2033.000000	99.728833 
2032.000000	99.729267 
2031.000000	99.729728 
2030.000000	99.730128 
2029.000000	99.730369 
2028.000000	99.730388 
2027.000000	99.730238 
2026.000000	99.730091 
2025.000000	99.730093 
2024.000000	99.730251 
2023.000000	99.730460 
2022.000000	99.730561 
2021.000000	99.730474 
2020.000000	99.730234 
2019.000000	99.729983 
2018.000000	99.729863 
2017.000000	99.729900 
2016.000000	99.729955 
2015.000000	99.729864 
2014.000000	99.729659 
2013.000000	99.729559 
2012.000000	99.729651 
2011.000000	99.729729 
2010.000000	99.729577 
2009.000000	99.729289 
2008.000000	99.729191 
2007.000000	99.729489 
2006.000000	99.730051 
2005.000000	99.730417 
2004.000000	99.730021 
2003.000000	99.728585 
2002.000000	99.726472 
2001.000000	99.724543 
2000.000000	99.723315 
1999.000000	99.722554 
1998.000000	99.721943 
1997.000000	99.721807 
1996.000000	99.722659 
1995.000000	99.724324 
1994.000000	99.725991 
1993.000000	99.726995 
1992.000000	99.727363 
1991.000000	99.727629 
1990.000000	99.728267 
1989.000000	99.729261 
1988.000000	99.730079 
1987.000000	99.730085 
1986.000000	99.729095 
1985.000000	99.727588 
1984.000000	99.726369 
1983.000000	99.726019 
1982.000000	99.726661 
1981.000000	99.727991 
1980.000000	99.729476 
1979.000000	99.730606 
1978.000000	99.731186 
1977.000000	99.731522 
1976.000000	99.732142 
1975.000000	99.733131 
1974.000000	99.733767 
1973.000000	99.733044 
1972.000000	99.730725 
1971.000000	99.727809 
1970.000000	99.725810 
1969.000000	99.725492 
1968.000000	99.726424 
1967.000000	99.727478 
1966.000000	99.727635 
1965.000000	99.726497 
1964.000000	99.724346 
1963.000000	99.722139 
1962.000000	99.721073 
1961.000000	99.721675 
1960.000000	99.723360 
1959.000000	99.724996 
1958.000000	99.725918 
1957.000000	99.726145 
1956.000000	99.725980 
1955.000000	99.725797 
1954.000000	99.725985 
1953.000000	99.726709 
1952.000000	99.727632 
1951.000000	99.728093 
1950.000000	99.727738 
1949.000000	99.726798 
1948.000000	99.725794 
1947.000000	99.725032 
1946.000000	99.724480 
1945.000000	99.723967 
1944.000000	99.723364 
1943.000000	99.722681 
1942.000000	99.722092 
1941.000000	99.721796 
1940.000000	99.721795 
1939.000000	99.721869 
1938.000000	99.721756 
1937.000000	99.721384 
1936.000000	99.720913 
1935.000000	99.720562 
1934.000000	99.720396 
1933.000000	99.720290 
1932.000000	99.720099 
1931.000000	99.719814 
1930.000000	99.719540 
1929.000000	99.719376 
1928.000000	99.719307 
1927.000000	99.719235 
1926.000000	99.719106 
1925.000000	99.718976 
1924.000000	99.718903 
1923.000000	99.718863 
1922.000000	99.718773 
1921.000000	99.718602 
1920.000000	99.718379 
1919.000000	99.718130 
1918.000000	99.717867 
1917.000000	99.717591 
1916.000000	99.717312 
1915.000000	99.717045 
1914.000000	99.716803 
1913.000000	99.716583 
1912.000000	99.716371 
1911.000000	99.716156 
1910.000000	99.715940 
1909.000000	99.715740 
1908.000000	99.715575 
1907.000000	99.715464 
1906.000000	99.715424 
1905.000000	99.715466 
1904.000000	99.715574 
1903.000000	99.715694 
1902.000000	99.715783 
1901.000000	99.715827 
1900.000000	99.715856 
1899.000000	99.715898 
1898.000000	99.715947 
1897.000000	99.715968 
1896.000000	99.715934 
1895.000000	99.715851 
1894.000000	99.715770 
1893.000000	99.715781 
1892.000000	99.715962 
1891.000000	99.716315 
1890.000000	99.716724 
1889.000000	99.717009 
1888.000000	99.717060 
1887.000000	99.716899 
1886.000000	99.716600 
1885.000000	99.716258 
1884.000000	99.715979 
1883.000000	99.715814 
1882.000000	99.715707 
1881.000000	99.715584 
1880.000000	99.715495 
1879.000000	99.715571 
1878.000000	99.715775 
1877.000000	99.715832 
1876.000000	99.715540 
1875.000000	99.715049 
1874.000000	99.714718 
1873.000000	99.714675 
1872.000000	99.714745 
1871.000000	99.714834 
1870.000000	99.715177 
1869.000000	99.716022 
1868.000000	99.717086 
1867.000000	99.717703 
1866.000000	99.717588 
1865.000000	99.716947 
1864.000000	99.716167 
1863.000000	99.715570 
1862.000000	99.715287 
1861.000000	99.715202 
1860.000000	99.715035 
1859.000000	99.714592 
1858.000000	99.713940 
1857.000000	99.713334 
1856.000000	99.713010 
1855.000000	99.713010 
1854.000000	99.713157 
1853.000000	99.713168 
1852.000000	99.712918 
1851.000000	99.712555 
1850.000000	99.712336 
1849.000000	99.712355 
1848.000000	99.712464 
1847.000000	99.712470 
1846.000000	99.712324 
1845.000000	99.712118 
1844.000000	99.711925 
1843.000000	99.711649 
1842.000000	99.711182 
1841.000000	99.710631 
1840.000000	99.710269 
1839.000000	99.710290 
1838.000000	99.710645 
1837.000000	99.711079 
1836.000000	99.711370 
1835.000000	99.711514 
1834.000000	99.711596 
1833.000000	99.711622 
1832.000000	99.711526 
1831.000000	99.711291 
1830.000000	99.711031 
1829.000000	99.710901 
1828.000000	99.710930 
1827.000000	99.711051 
1826.000000	99.711145 
1825.000000	99.711114 
1824.000000	99.710955 
1823.000000	99.710741 
1822.000000	99.710562 
1821.000000	99.710447 
1820.000000	99.710375 
1819.000000	99.710312 
1818.000000	99.710245 
1817.000000	99.710187 
1816.000000	99.710150 
1815.000000	99.710123 
1814.000000	99.710093 
1813.000000	99.710064 
1812.000000	99.710051 
1811.000000	99.710052 
1810.000000	99.710056 
1809.000000	99.710052 
1808.000000	99.710044 
1807.000000	99.710038 
1806.000000	99.710035 
1805.000000	99.710031 
1804.000000	99.710027 
1803.000000	99.710024 
1802.000000	99.710020 
1801.000000	99.710019 
1800.000000	99.710016 
1799.000000	99.710009 
1798.000000	99.709995 
1797.000000	99.709970 
1796.000000	99.709937 
1795.000000	99.709897 
1794.000000	99.709858 
1793.000000	99.709824 
1792.000000	99.709802 
1791.000000	99.709795 
1790.000000	99.709803 
1789.000000	99.709825 
1788.000000	99.709854 
1787.000000	99.709885 
1786.000000	99.709916 
1785.000000	99.709949 
1784.000000	99.709988 
1783.000000	99.710036 
1782.000000	99.710095 
1781.000000	99.710166 
1780.000000	99.710252 
1779.000000	99.710352 
1778.000000	99.710467 
1777.000000	99.710595 
1776.000000	99.710737 
1775.000000	99.710886 
1774.000000	99.711036 
1773.000000	99.711178 
1772.000000	99.711312 
1771.000000	99.711440 
1770.000000	99.711569 
1769.000000	99.711701 
1768.000000	99.711839 
1767.000000	99.711986 
1766.000000	99.712147 
1765.000000	99.712319 
1764.000000	99.712496 
1763.000000	99.712669 
1762.000000	99.712836 
1761.000000	99.712998 
1760.000000	99.713162 
1759.000000	99.713333 
1758.000000	99.713513 
1757.000000	99.713702 
1756.000000	99.713894 
1755.000000	99.714085 
1754.000000	99.714275 
1753.000000	99.714461 
1752.000000	99.714642 
1751.000000	99.714817 
1750.000000	99.714982 
1749.000000	99.715135 
1748.000000	99.715279 
1747.000000	99.715420 
1746.000000	99.715568 
1745.000000	99.715731 
1744.000000	99.715912 
1743.000000	99.716109 
1742.000000	99.716319 
1741.000000	99.716540 
1740.000000	99.716767 
1739.000000	99.716994 
1738.000000	99.717215 
1737.000000	99.717427 
1736.000000	99.717628 
1735.000000	99.717820 
1734.000000	99.718004 
1733.000000	99.718182 
1732.000000	99.718340 
1731.000000	99.718471 
1730.000000	99.718585 
1729.000000	99.718703 
1728.000000	99.718853 
1727.000000	99.719064 
1726.000000	99.719349 
1725.000000	99.719680 
1724.000000	99.719969 
1723.000000	99.720135 
1722.000000	99.720164 
1721.000000	99.720122 
1720.000000	99.720111 
1719.000000	99.720237 
1718.000000	99.720638 
1717.000000	99.721298 
1716.000000	99.721849 
1715.000000	99.722078 
1714.000000	99.722144 
1713.000000	99.722303 
1712.000000	99.722629 
1711.000000	99.723028 
1710.000000	99.723397 
1709.000000	99.723716 
1708.000000	99.724050 
1707.000000	99.724512 
1706.000000	99.725250 
1705.000000	99.726309 
1704.000000	99.727539 
1703.000000	99.728854 
1702.000000	99.730103 
1701.000000	99.730936 
1700.000000	99.731199 
1699.000000	99.730787 
1698.000000	99.729934 
1697.000000	99.729101 
1696.000000	99.728765 
1695.000000	99.729256 
1694.000000	99.730207 
1693.000000	99.731122 
1692.000000	99.731928 
1691.000000	99.732761 
1690.000000	99.733711 
1689.000000	99.734624 
1688.000000	99.735330 
1687.000000	99.735976 
1686.000000	99.736821 
1685.000000	99.738187 
1684.000000	99.740310 
1683.000000	99.741989 
1682.000000	99.742307 
1681.000000	99.741916 
1680.000000	99.741576 
1679.000000	99.741698 
1678.000000	99.742532 
1677.000000	99.744170 
1676.000000	99.746488 
1675.000000	99.748926 
1674.000000	99.750446 
1673.000000	99.750816 
1672.000000	99.750782 
1671.000000	99.750953 
1670.000000	99.751413 
1669.000000	99.751818 
1668.000000	99.751993 
1667.000000	99.752421 
1666.000000	99.753551 
1665.000000	99.755120 
1664.000000	99.756429 
1663.000000	99.757268 
1662.000000	99.757755 
1661.000000	99.757663 
1660.000000	99.757098 
1659.000000	99.756922 
1658.000000	99.758174 
1657.000000	99.761214 
1656.000000	99.765411 
1655.000000	99.768719 
1654.000000	99.769371 
1653.000000	99.768873 
1652.000000	99.767133 
1651.000000	99.763625 
1650.000000	99.760481 
1649.000000	99.758615 
1648.000000	99.757454 
1647.000000	99.756862 
1646.000000	99.756917 
1645.000000	99.757033 
1644.000000	99.757034 
1643.000000	99.757360 
1642.000000	99.757933 
1641.000000	99.757976 
1640.000000	99.756894 
1639.000000	99.755065 
1638.000000	99.753480 
1637.000000	99.752670 
1636.000000	99.752821 
1635.000000	99.753679 
1634.000000	99.754619 
1633.000000	99.755568 
1632.000000	99.756370 
1631.000000	99.756486 
1630.000000	99.755767 
1629.000000	99.754745 
1628.000000	99.753991 
1627.000000	99.753446 
1626.000000	99.752699 
1625.000000	99.751587 
1624.000000	99.750341 
1623.000000	99.749458 
1622.000000	99.749141 
1621.000000	99.749181 
1620.000000	99.749347 
1619.000000	99.749304 
1618.000000	99.748659 
1617.000000	99.747499 
1616.000000	99.746374 
1615.000000	99.745561 
1614.000000	99.745052 
1613.000000	99.744806 
1612.000000	99.744766 
1611.000000	99.744872 
1610.000000	99.745044 
1609.000000	99.745168 
1608.000000	99.745115 
1607.000000	99.744812 
1606.000000	99.744280 
1605.000000	99.743665 
1604.000000	99.743174 
1603.000000	99.742899 
1602.000000	99.742751 
1601.000000	99.742600 
1600.000000	99.742489 
1599.000000	99.742590 
1598.000000	99.742949 
1597.000000	99.743368 
1596.000000	99.743552 
1595.000000	99.743369 
1594.000000	99.742983 
1593.000000	99.742749 
1592.000000	99.742905 
1591.000000	99.743413 
1590.000000	99.744046 
1589.000000	99.744593 
1588.000000	99.744981 
1587.000000	99.745257 
1586.000000	99.745498 
1585.000000	99.745720 
1584.000000	99.745939 
1583.000000	99.746203 
1582.000000	99.746559 
1581.000000	99.747012 
1580.000000	99.747541 
1579.000000	99.748088 
1578.000000	99.748551 
1577.000000	99.748954 
1576.000000	99.749502 
1575.000000	99.750128 
1574.000000	99.750536 
1573.000000	99.750716 
1572.000000	99.750805 
1571.000000	99.750989 
1570.000000	99.751675 
1569.000000	99.753074 
1568.000000	99.754813 
1567.000000	99.756336 
1566.000000	99.757351 
1565.000000	99.757793 
1564.000000	99.757875 
1563.000000	99.757959 
1562.000000	99.758251 
1561.000000	99.758515 
1560.000000	99.758528 
1559.000000	99.759311 
1558.000000	99.761027 
1557.000000	99.762266 
1556.000000	99.763029 
1555.000000	99.763812 
1554.000000	99.764464 
1553.000000	99.764651 
1552.000000	99.764306 
1551.000000	99.763740 
1550.000000	99.763420 
1549.000000	99.763624 
1548.000000	99.764195 
1547.000000	99.764778 
1546.000000	99.765134 
1545.000000	99.765305 
1544.000000	99.765482 
1543.000000	99.765555 
1542.000000	99.765163 
1541.000000	99.764344 
1540.000000	99.763962 
1539.000000	99.764371 
1538.000000	99.764795 
1537.000000	99.764901 
1536.000000	99.764948 
1535.000000	99.765049 
1534.000000	99.765207 
1533.000000	99.765427 
1532.000000	99.765474 
1531.000000	99.765187 
1530.000000	99.764756 
1529.000000	99.764325 
1528.000000	99.763852 
1527.000000	99.763338 
1526.000000	99.762915 
1525.000000	99.762652 
1524.000000	99.762459 
1523.000000	99.762169 
1522.000000	99.761916 
1521.000000	99.762056 
1520.000000	99.762302 
1519.000000	99.762300 
1518.000000	99.762344 
1517.000000	99.762671 
1516.000000	99.762914 
1515.000000	99.762536 
1514.000000	99.761629 
1513.000000	99.760720 
1512.000000	99.760212 
1511.000000	99.760424 
1510.000000	99.761576 
1509.000000	99.763337 
1508.000000	99.764644 
1507.000000	99.765140 
1506.000000	99.764450 
1505.000000	99.761483 
1504.000000	99.757294 
1503.000000	99.753851 
1502.000000	99.751926 
1501.000000	99.751332 
1500.000000	99.751380 
1499.000000	99.751525 
1498.000000	99.751858 
1497.000000	99.752617 
1496.000000	99.752867 
1495.000000	99.751633 
1494.000000	99.749815 
1493.000000	99.748883 
1492.000000	99.748627 
1491.000000	99.747515 
1490.000000	99.745216 
1489.000000	99.743273 
1488.000000	99.742518 
1487.000000	99.742455 
1486.000000	99.742814 
1485.000000	99.743749 
1484.000000	99.745290 
1483.000000	99.746834 
1482.000000	99.747524 
1481.000000	99.747236 
1480.000000	99.746699 
1479.000000	99.746627 
1478.000000	99.747038 
1477.000000	99.747592 
1476.000000	99.748136 
1475.000000	99.748704 
1474.000000	99.748984 
1473.000000	99.748572 
1472.000000	99.747626 
1471.000000	99.746715 
1470.000000	99.746509 
1469.000000	99.747362 
1468.000000	99.748964 
1467.000000	99.750603 
1466.000000	99.751624 
1465.000000	99.751840 
1464.000000	99.751599 
1463.000000	99.751293 
1462.000000	99.751197 
1461.000000	99.751319 
1460.000000	99.751470 
1459.000000	99.751475 
1458.000000	99.751538 
1457.000000	99.752069 
1456.000000	99.752398 
1455.000000	99.752022 
1454.000000	99.751972 
1453.000000	99.752879 
1452.000000	99.753894 
1451.000000	99.753799 
1450.000000	99.752401 
1449.000000	99.750647 
1448.000000	99.749519 
1447.000000	99.749153 
1446.000000	99.749071 
1445.000000	99.749039 
1444.000000	99.749071 
1443.000000	99.748903 
1442.000000	99.748255 
1441.000000	99.747378 
1440.000000	99.746948 
1439.000000	99.747252 
1438.000000	99.747810 
1437.000000	99.748112 
1436.000000	99.748264 
1435.000000	99.748374 
1434.000000	99.748611 
1433.000000	99.749184 
1432.000000	99.749730 
1431.000000	99.749661 
1430.000000	99.749041 
1429.000000	99.748627 
1428.000000	99.748805 
1427.000000	99.749170 
1426.000000	99.749028 
1425.000000	99.748288 
1424.000000	99.747946 
1423.000000	99.748986 
1422.000000	99.751246 
1421.000000	99.753527 
1420.000000	99.754393 
1419.000000	99.753405 
1418.000000	99.751210 
1417.000000	99.748293 
1416.000000	99.744919 
1415.000000	99.741738 
1414.000000	99.739633 
1413.000000	99.738927 
1412.000000	99.738783 
1411.000000	99.737935 
1410.000000	99.736400 
1409.000000	99.735716 
1408.000000	99.736971 
1407.000000	99.739491 
1406.000000	99.741535 
1405.000000	99.742230 
1404.000000	99.742301 
1403.000000	99.742719 
1402.000000	99.743636 
1401.000000	99.744516 
1400.000000	99.744779 
1399.000000	99.744479 
1398.000000	99.744188 
1397.000000	99.744244 
1396.000000	99.744479 
1395.000000	99.744652 
1394.000000	99.744723 
1393.000000	99.744847 
1392.000000	99.745299 
1391.000000	99.746213 
1390.000000	99.747457 
1389.000000	99.748726 
1388.000000	99.749712 
1387.000000	99.750283 
1386.000000	99.750394 
1385.000000	99.750048 
1384.000000	99.749419 
1383.000000	99.748859 
1382.000000	99.748856 
1381.000000	99.749649 
1380.000000	99.750890 
1379.000000	99.751957 
1378.000000	99.752557 
1377.000000	99.752812 
1376.000000	99.752910 
1375.000000	99.752964 
1374.000000	99.753091 
1373.000000	99.753352 
1372.000000	99.753671 
1371.000000	99.753984 
1370.000000	99.754301 
1369.000000	99.754682 
1368.000000	99.755172 
1367.000000	99.755721 
1366.000000	99.756242 
1365.000000	99.756691 
1364.000000	99.757072 
1363.000000	99.757429 
1362.000000	99.757794 
1361.000000	99.758152 
1360.000000	99.758492 
1359.000000	99.758836 
1358.000000	99.759198 
1357.000000	99.759528 
1356.000000	99.759765 
1355.000000	99.759915 
1354.000000	99.760056 
1353.000000	99.760261 
1352.000000	99.760534 
1351.000000	99.760838 
1350.000000	99.761119 
1349.000000	99.761348 
1348.000000	99.761525 
1347.000000	99.761689 
1346.000000	99.761894 
1345.000000	99.762155 
1344.000000	99.762427 
1343.000000	99.762642 
1342.000000	99.762785 
1341.000000	99.762895 
1340.000000	99.762992 
1339.000000	99.763051 
1338.000000	99.763053 
1337.000000	99.763048 
1336.000000	99.763104 
1335.000000	99.763233 
1334.000000	99.763391 
1333.000000	99.763503 
1332.000000	99.763538 
1331.000000	99.763525 
1330.000000	99.763531 
1329.000000	99.763592 
1328.000000	99.763689 
1327.000000	99.763794 
1326.000000	99.763927 
1325.000000	99.764114 
1324.000000	99.764332 
1323.000000	99.764510 
1322.000000	99.764598 
1321.000000	99.764611 
1320.000000	99.764610 
1319.000000	99.764627 
1318.000000	99.764636 
1317.000000	99.764609 
1316.000000	99.764573 
1315.000000	99.764600 
1314.000000	99.764717 
1313.000000	99.764870 
1312.000000	99.764975 
1311.000000	99.765016 
1310.000000	99.765035 
1309.000000	99.765049 
1308.000000	99.765028 
1307.000000	99.764965 
1306.000000	99.764921 
1305.000000	99.764962 
1304.000000	99.765069 
1303.000000	99.765144 
1302.000000	99.765102 
1301.000000	99.764937 
1300.000000	99.764696 
1299.000000	99.764477 
1298.000000	99.764428 
1297.000000	99.764651 
1296.000000	99.765041 
1295.000000	99.765331 
1294.000000	99.765359 
1293.000000	99.765186 
1292.000000	99.764960 
1291.000000	99.764805 
1290.000000	99.764848 
1289.000000	99.765152 
1288.000000	99.765535 
1287.000000	99.765691 
1286.000000	99.765559 
1285.000000	99.765357 
1284.000000	99.765191 
1283.000000	99.764886 
1282.000000	99.764307 
1281.000000	99.763620 
1280.000000	99.763127 
1279.000000	99.763036 
1278.000000	99.763406 
1277.000000	99.764061 
1276.000000	99.764448 
1275.000000	99.763940 
1274.000000	99.762523 
1273.000000	99.761059 
1272.000000	99.760538 
1271.000000	99.761164 
1270.000000	99.762383 
1269.000000	99.763634 
1268.000000	99.764723 
1267.000000	99.765559 
1266.000000	99.766084 
1265.000000	99.766499 
1264.000000	99.767044 
1263.000000	99.767380 
1262.000000	99.766680 
1261.000000	99.764604 
1260.000000	99.761880 
1259.000000	99.759614 
1258.000000	99.758151 
1257.000000	99.757010 
1256.000000	99.755817 
1255.000000	99.754825 
1254.000000	99.754415 
1253.000000	99.754524 
1252.000000	99.754954 
1251.000000	99.755925 
1250.000000	99.757701 
1249.000000	99.759696 
1248.000000	99.760614 
1247.000000	99.759737 
1246.000000	99.757604 
1245.000000	99.755126 
1244.000000	99.752555 
1243.000000	99.749921 
1242.000000	99.748075 
1241.000000	99.748443 
1240.000000	99.751570 
1239.000000	99.756222 
1238.000000	99.760023 
1237.000000	99.760984 
1236.000000	99.758738 
1235.000000	99.754890 
1234.000000	99.751938 
1233.000000	99.751019 
1232.000000	99.750828 
1231.000000	99.749322 
1230.000000	99.746299 
1229.000000	99.743501 
1228.000000	99.742166 
1227.000000	99.741374 
1226.000000	99.739282 
1225.000000	99.735259 
1224.000000	99.730296 
1223.000000	99.725802 
1222.000000	99.722498 
1221.000000	99.720204 
1220.000000	99.718157 
1219.000000	99.715530 
1218.000000	99.711983 
1217.000000	99.707819 
1216.000000	99.703619 
1215.000000	99.699816 
1214.000000	99.696492 
1213.000000	99.693207 
1212.000000	99.689024 
1211.000000	99.683249 
1210.000000	99.676463 
1209.000000	99.670396 
1208.000000	99.666269 
1207.000000	99.663456 
1206.000000	99.660205 
1205.000000	99.655495 
1204.000000	99.649663 
1203.000000	99.643340 
1202.000000	99.636527 
1201.000000	99.629104 
1200.000000	99.621739 
1199.000000	99.615672 
1198.000000	99.611651 
1197.000000	99.609407 
1196.000000	99.607946 
1195.000000	99.605865 
1194.000000	99.601766 
1193.000000	99.595249 
1192.000000	99.587583 
1191.000000	99.580643 
1190.000000	99.574831 
1189.000000	99.568715 
1188.000000	99.561060 
1187.000000	99.552340 
1186.000000	99.543686 
1185.000000	99.535249 
1184.000000	99.526669 
1183.000000	99.518525 
1182.000000	99.511935 
1181.000000	99.506763 
1180.000000	99.501380 
1179.000000	99.494440 
1178.000000	99.486058 
1177.000000	99.477122 
1176.000000	99.468258 
1175.000000	99.459694 
1174.000000	99.451330 
1173.000000	99.442611 
1172.000000	99.432860 
1171.000000	99.421997 
1170.000000	99.410607 
1169.000000	99.399470 
1168.000000	99.389589 
1167.000000	99.382335 
1166.000000	99.378704 
1165.000000	99.378456 
1164.000000	99.380494 
1163.000000	99.383928 
1162.000000	99.388170 
1161.000000	99.392288 
1160.000000	99.395153 
1159.000000	99.396069 
1158.000000	99.394538 
1157.000000	99.389910 
1156.000000	99.382469 
1155.000000	99.374463 
1154.000000	99.368342 
1153.000000	99.363746 
1152.000000	99.357923 
1151.000000	99.349411 
1150.000000	99.339660 
1149.000000	99.330642 
1148.000000	99.322652 
1147.000000	99.315402 
1146.000000	99.309418 
1145.000000	99.304798 
1144.000000	99.299894 
1143.000000	99.292989 
1142.000000	99.284694 
1141.000000	99.277171 
1140.000000	99.271309 
1139.000000	99.265933 
1138.000000	99.259575 
1137.000000	99.251748 
1136.000000	99.242529 
1135.000000	99.232159 
1134.000000	99.221396 
1133.000000	99.211364 
1132.000000	99.202554 
1131.000000	99.194436 
1130.000000	99.186436 
1129.000000	99.178973 
1128.000000	99.173006 
1127.000000	99.168423 
1126.000000	99.163211 
1125.000000	99.154871 
1124.000000	99.142866 
1123.000000	99.129431 
1122.000000	99.117607 
1121.000000	99.108570 
1120.000000	99.101481 
1119.000000	99.095406 
1118.000000	99.090293 
1117.000000	99.085862 
1116.000000	99.080751 
1115.000000	99.073747 
1114.000000	99.065204 
1113.000000	99.056246 
1112.000000	99.046967 
1111.000000	99.036495 
1110.000000	99.024735 
1109.000000	99.013025 
1108.000000	99.002888 
1107.000000	98.994749 
1106.000000	98.987977 
1105.000000	98.981442 
1104.000000	98.974065 
1103.000000	98.965570 
1102.000000	98.956880 
1101.000000	98.949394 
1100.000000	98.943611 
1099.000000	98.938786 
1098.000000	98.933986 
1097.000000	98.929000 
1096.000000	98.924112 
1095.000000	98.919226 
1094.000000	98.913687 
1093.000000	98.907042 
1092.000000	98.899741 
1091.000000	98.892719 
1090.000000	98.886214 
1089.000000	98.879324 
1088.000000	98.871032 
1087.000000	98.861431 
1086.000000	98.851578 
1085.000000	98.842398 
1084.000000	98.834259 
1083.000000	98.827511 
1082.000000	98.822731 
1081.000000	98.820039 
1080.000000	98.818301 
1079.000000	98.815247 
1078.000000	98.808755 
1077.000000	98.798401 
1076.000000	98.785791 
1075.000000	98.773077 
1074.000000	98.761071 
1073.000000	98.749317 
1072.000000	98.737698 
1071.000000	98.726512 
1070.000000	98.714537 
1069.000000	98.698981 
1068.000000	98.679086 
1067.000000	98.658807 
1066.000000	98.643627 
1065.000000	98.634430 
1064.000000	98.626205 
1063.000000	98.613053 
1062.000000	98.593240 
1061.000000	98.569612 
1060.000000	98.546845 
1059.000000	98.528608 
1058.000000	98.515792 
1057.000000	98.506282 
1056.000000	98.496857 
1055.000000	98.485605 
1054.000000	98.472194 
1053.000000	98.456403 
1052.000000	98.437976 
1051.000000	98.418266 
1050.000000	98.400295 
1049.000000	98.385970 
1048.000000	98.373921 
1047.000000	98.360526 
1046.000000	98.342527 
1045.000000	98.319142 
1044.000000	98.293168 
1043.000000	98.270079 
1042.000000	98.254214 
1041.000000	98.244996 
1040.000000	98.237611 
1039.000000	98.227742 
1038.000000	98.214925 
1037.000000	98.201345 
1036.000000	98.189058 
1035.000000	98.179301 
1034.000000	98.173060 
1033.000000	98.170722 
1032.000000	98.171174 
1031.000000	98.171942 
1030.000000	98.170526 
1029.000000	98.165936 
1028.000000	98.159524 
1027.000000	98.154251 
1026.000000	98.152182 
1025.000000	98.152413 
1024.000000	98.152376 
1023.000000	98.151432 
1022.000000	98.151834 
1021.000000	98.155185 
1020.000000	98.159059 
1019.000000	98.158885 
1018.000000	98.153337 
1017.000000	98.146354 
1016.000000	98.143083 
1015.000000	98.144734 
1014.000000	98.148232 
1013.000000	98.150285 
1012.000000	98.150512 
1011.000000	98.150383 
1010.000000	98.150496 
1009.000000	98.150009 
1008.000000	98.148183 
1007.000000	98.145250 
1006.000000	98.141977 
1005.000000	98.139711 
1004.000000	98.140941 
1003.000000	98.148035 
1002.000000	98.160306 
1001.000000	98.173403 
1000.000000	98.182961 
999.000000	 98.188459 
998.000000	 98.192572 
997.000000	 98.197453 
996.000000	 98.203066 
995.000000	 98.208762 
994.000000	 98.214676 
993.000000	 98.220971 
992.000000	 98.227010 
991.000000	 98.232414 
990.000000	 98.238501 
989.000000	 98.247521 
988.000000	 98.260099 
987.000000	 98.273858 
986.000000	 98.285323 
985.000000	 98.293651 
984.000000	 98.301952 
983.000000	 98.314084 
982.000000	 98.330382 
981.000000	 98.347400 
980.000000	 98.361982 
979.000000	 98.374523 
978.000000	 98.387779 
977.000000	 98.403834 
976.000000	 98.423078 
975.000000	 98.444707 
974.000000	 98.466806 
973.000000	 98.486936 
972.000000	 98.504271 
971.000000	 98.520662 
970.000000	 98.538248 
969.000000	 98.556754 
968.000000	 98.574782 
967.000000	 98.592831 
966.000000	 98.612510 
965.000000	 98.633045 
964.000000	 98.651502 
963.000000	 98.667122 
962.000000	 98.682678 
961.000000	 98.700246 
960.000000	 98.718156 
959.000000	 98.734102 
958.000000	 98.749157 
957.000000	 98.765991 
956.000000	 98.784192 
955.000000	 98.800170 
954.000000	 98.811835 
953.000000	 98.821219 
952.000000	 98.831785 
951.000000	 98.844318 
950.000000	 98.856404 
949.000000	 98.865659 
948.000000	 98.872711 
947.000000	 98.880298 
946.000000	 98.889222 
945.000000	 98.896585 
944.000000	 98.899808 
943.000000	 98.901442 
942.000000	 98.907160 
941.000000	 98.918417 
940.000000	 98.930198 
939.000000	 98.937456 
938.000000	 98.940866 
937.000000	 98.944265 
936.000000	 98.948800 
935.000000	 98.952529 
934.000000	 98.954545 
933.000000	 98.956428 
932.000000	 98.959957 
931.000000	 98.965451 
930.000000	 98.971995 
929.000000	 98.977877 
928.000000	 98.981705 
927.000000	 98.984586 
926.000000	 98.989929 
925.000000	 98.999336 
924.000000	 99.010065 
923.000000	 99.018490 
922.000000	 99.024543 
921.000000	 99.030181 
920.000000	 99.034979 
919.000000	 99.036718 
918.000000	 99.035901 
917.000000	 99.036157 
916.000000	 99.039579 
915.000000	 99.044543 
914.000000	 99.049069 
913.000000	 99.054065 
912.000000	 99.061938 
911.000000	 99.073380 
910.000000	 99.086572 
909.000000	 99.098950 
908.000000	 99.109429 
907.000000	 99.119306 
906.000000	 99.130831 
905.000000	 99.144574 
904.000000	 99.158877 
903.000000	 99.172299 
902.000000	 99.185182 
901.000000	 99.197974 
900.000000	 99.210006 
899.000000	 99.221762 
898.000000	 99.236148 
897.000000	 99.254571 
896.000000	 99.273165 
895.000000	 99.286284 
894.000000	 99.293384 
893.000000	 99.299552 
892.000000	 99.309418 
891.000000	 99.323184 
890.000000	 99.338460 
889.000000	 99.352668 
888.000000	 99.363294 
887.000000	 99.369171 
886.000000	 99.373041 
885.000000	 99.380266 
884.000000	 99.393196 
883.000000	 99.408624 
882.000000	 99.421955 
881.000000	 99.432141 
880.000000	 99.441194 
879.000000	 99.450549 
878.000000	 99.459584 
877.000000	 99.467090 
876.000000	 99.473262 
875.000000	 99.480451 
874.000000	 99.491448 
873.000000	 99.505965 
872.000000	 99.519754 
871.000000	 99.529172 
870.000000	 99.535574 
869.000000	 99.542763 
868.000000	 99.551096 
867.000000	 99.557665 
866.000000	 99.562009 
865.000000	 99.567470 
864.000000	 99.576004 
863.000000	 99.585449 
862.000000	 99.593664 
861.000000	 99.601829 
860.000000	 99.611081 
859.000000	 99.618904 
858.000000	 99.622381 
857.000000	 99.623258 
856.000000	 99.626774 
855.000000	 99.636312 
854.000000	 99.651190 
853.000000	 99.667850 
852.000000	 99.681065 
851.000000	 99.686425 
850.000000	 99.684531 
849.000000	 99.681055 
848.000000	 99.680138 
847.000000	 99.680001 
846.000000	 99.677776 
845.000000	 99.675496 
844.000000	 99.677465 
843.000000	 99.684003 
842.000000	 99.691978 
841.000000	 99.699899 
840.000000	 99.708046 
839.000000	 99.714397 
838.000000	 99.714822 
837.000000	 99.707833 
836.000000	 99.696404 
835.000000	 99.685048 
834.000000	 99.677074 
833.000000	 99.673878 
832.000000	 99.674392 
831.000000	 99.675608 
830.000000	 99.676033 
829.000000	 99.678040 
828.000000	 99.684430 
827.000000	 99.693779 
826.000000	 99.702524 
825.000000	 99.710668 
824.000000	 99.720851 
823.000000	 99.732191 
822.000000	 99.740551 
821.000000	 99.745615 
820.000000	 99.752174 
819.000000	 99.762202 
818.000000	 99.769587 
817.000000	 99.765933 
816.000000	 99.749997 
815.000000	 99.729221 
814.000000	 99.712013 
813.000000	 99.699847 
812.000000	 99.687902 
811.000000	 99.671495 
810.000000	 99.649356 
809.000000	 99.621565 
808.000000	 99.587801 
807.000000	 99.549152 
806.000000	 99.509271 
805.000000	 99.471633 
804.000000	 99.437330 
803.000000	 99.407158 
802.000000	 99.383233 
801.000000	 99.365898 
800.000000	 99.351707 
799.000000	 99.338438 
798.000000	 99.330417 
797.000000	 99.334096 
796.000000	 99.348966 
795.000000	 99.367033 
794.000000	 99.381207 
793.000000	 99.389746 
792.000000	 99.392414 
791.000000	 99.388728 
790.000000	 99.381995 
789.000000	 99.378737 
788.000000	 99.380230 
787.000000	 99.379212 
786.000000	 99.369013 
785.000000	 99.352078 
784.000000	 99.335452 
783.000000	 99.321890 
782.000000	 99.310392 
781.000000	 99.302221 
780.000000	 99.300271 
779.000000	 99.303568 
778.000000	 99.307558 
777.000000	 99.309653 
776.000000	 99.310595 
775.000000	 99.311390 
774.000000	 99.313467 
773.000000	 99.320982 
772.000000	 99.337524 
771.000000	 99.359582 
770.000000	 99.377668 
769.000000	 99.385961 
768.000000	 99.387437 
767.000000	 99.388492 
766.000000	 99.392214 
765.000000	 99.398295 
764.000000	 99.405865 
763.000000	 99.413529 
762.000000	 99.418756 
761.000000	 99.419858 
760.000000	 99.417834 
759.000000	 99.415359 
758.000000	 99.415264 
757.000000	 99.420412 
756.000000	 99.432562 
755.000000	 99.449563 
754.000000	 99.465313 
753.000000	 99.474761 
752.000000	 99.477885 
751.000000	 99.477706 
750.000000	 99.476484 
749.000000	 99.475734 
748.000000	 99.478186 
747.000000	 99.486048 
746.000000	 99.497209 
745.000000	 99.506491 
744.000000	 99.512060 
743.000000	 99.517954 
742.000000	 99.528510 
741.000000	 99.542502 
740.000000	 99.555220 
739.000000	 99.564844 
738.000000	 99.573813 
737.000000	 99.584177 
736.000000	 99.594274 
735.000000	 99.600902 
734.000000	 99.602932 
733.000000	 99.601631 
732.000000	 99.598701 
731.000000	 99.595390 
730.000000	 99.592970 
729.000000	 99.592548 
728.000000	 99.593931 
727.000000	 99.596080 
726.000000	 99.599608 
725.000000	 99.607296 
724.000000	 99.621018 
723.000000	 99.638641 
722.000000	 99.654841 
721.000000	 99.665322 
720.000000	 99.669770 
719.000000	 99.670844 
718.000000	 99.670816 
717.000000	 99.669575 
716.000000	 99.666144 
715.000000	 99.661417 
714.000000	 99.658495 
713.000000	 99.660314 
712.000000	 99.667313 
711.000000	 99.677135 
710.000000	 99.685744 
709.000000	 99.689539 
708.000000	 99.687431 
707.000000	 99.681494 
706.000000	 99.675584 
705.000000	 99.672351 
704.000000	 99.671919 
703.000000	 99.673604 
702.000000	 99.676566 
701.000000	 99.678174 
700.000000	 99.674132 
699.000000	 99.661737 
698.000000	 99.643133 
697.000000	 99.624123 
696.000000	 99.610327 
695.000000	 99.605296 
694.000000	 99.609663 
693.000000	 99.620508 
692.000000	 99.632634 
691.000000	 99.641638 
690.000000	 99.646226 
689.000000	 99.647325 
688.000000	 99.646867 
687.000000	 99.648184 
686.000000	 99.654077 
685.000000	 99.663009 
684.000000	 99.669430 
683.000000	 99.669592 
682.000000	 99.665976 
681.000000	 99.664277 
680.000000	 99.667097 
679.000000	 99.672386 
678.000000	 99.677340 
677.000000	 99.681902 
676.000000	 99.687301 
675.000000	 99.693254 
674.000000	 99.698789 
673.000000	 99.703589 
672.000000	 99.706890 
671.000000	 99.706775 
670.000000	 99.701615 
669.000000	 99.692662 
668.000000	 99.687322 
667.000000	 99.689608 
666.000000	 99.695382 
665.000000	 99.702919 
664.000000	 99.712419 
663.000000	 99.722996 
662.000000	 99.733206 
661.000000	 99.741544 
660.000000	 99.746065 
659.000000	 99.745455 
658.000000	 99.741718 
657.000000	 99.740135 
656.000000	 99.743664 
655.000000	 99.750238 
654.000000	 99.756313 
653.000000	 99.760621 
652.000000	 99.763421 
651.000000	 99.765017 
650.000000	 99.766471 

