4000.000000	99.086451 
3999.000000	99.085709 
3998.000000	99.084790 
3997.000000	99.084235 
3996.000000	99.084016 
3995.000000	99.083692 
3994.000000	99.083059 
3993.000000	99.082432 
3992.000000	99.082180 
3991.000000	99.082166 
3990.000000	99.081818 
3989.000000	99.080668 
3988.000000	99.078768 
3987.000000	99.076706 
3986.000000	99.075293 
3985.000000	99.075130 
3984.000000	99.076294 
3983.000000	99.078375 
3982.000000	99.080763 
3981.000000	99.082953 
3980.000000	99.084604 
3979.000000	99.085491 
3978.000000	99.085559 
3977.000000	99.085014 
3976.000000	99.084162 
3975.000000	99.083156 
3974.000000	99.081964 
3973.000000	99.080646 
3972.000000	99.079519 
3971.000000	99.079010 
3970.000000	99.079388 
3969.000000	99.080547 
3968.000000	99.081982 
3967.000000	99.083012 
3966.000000	99.083191 
3965.000000	99.082573 
3964.000000	99.081607 
3963.000000	99.080841 
3962.000000	99.080583 
3961.000000	99.080731 
3960.000000	99.080835 
3959.000000	99.080447 
3958.000000	99.079582 
3957.000000	99.078706 
3956.000000	99.078281 
3955.000000	99.078324 
3954.000000	99.078512 
3953.000000	99.078551 
3952.000000	99.078381 
3951.000000	99.078102 
3950.000000	99.077782 
3949.000000	99.077412 
3948.000000	99.077013 
3947.000000	99.076696 
3946.000000	99.076533 
3945.000000	99.076455 
3944.000000	99.076330 
3943.000000	99.076089 
3942.000000	99.075771 
3941.000000	99.075452 
3940.000000	99.075156 
3939.000000	99.074842 
3938.000000	99.074474 
3937.000000	99.074060 
3936.000000	99.073634 
3935.000000	99.073192 
3934.000000	99.072750 
3933.000000	99.072422 
3932.000000	99.072338 
3931.000000	99.072482 
3930.000000	99.072651 
3929.000000	99.072632 
3928.000000	99.072388 
3927.000000	99.071946 
3926.000000	99.071368 
3925.000000	99.070788 
3924.000000	99.070415 
3923.000000	99.070289 
3922.000000	99.070171 
3921.000000	99.069849 
3920.000000	99.069416 
3919.000000	99.069058 
3918.000000	99.068794 
3917.000000	99.068541 
3916.000000	99.068306 
3915.000000	99.068156 
3914.000000	99.068077 
3913.000000	99.068001 
3912.000000	99.067895 
3911.000000	99.067770 
3910.000000	99.067645 
3909.000000	99.067535 
3908.000000	99.067441 
3907.000000	99.067362 
3906.000000	99.067293 
3905.000000	99.067227 
3904.000000	99.067160 
3903.000000	99.067093 
3902.000000	99.067024 
3901.000000	99.066952 
3900.000000	99.066874 
3899.000000	99.066790 
3898.000000	99.066707 
3897.000000	99.066632 
3896.000000	99.066572 
3895.000000	99.066531 
3894.000000	99.066505 
3893.000000	99.066492 
3892.000000	99.066486 
3891.000000	99.066479 
3890.000000	99.066468 
3889.000000	99.066456 
3888.000000	99.066439 
3887.000000	99.066415 
3886.000000	99.066387 
3885.000000	99.066367 
3884.000000	99.066364 
3883.000000	99.066379 
3882.000000	99.066403 
3881.000000	99.066435 
3880.000000	99.066486 
3879.000000	99.066571 
3878.000000	99.066692 
3877.000000	99.066835 
3876.000000	99.066983 
3875.000000	99.067125 
3874.000000	99.067260 
3873.000000	99.067392 
3872.000000	99.067519 
3871.000000	99.067640 
3870.000000	99.067761 
3869.000000	99.067898 
3868.000000	99.068058 
3867.000000	99.068228 
3866.000000	99.068389 
3865.000000	99.068543 
3864.000000	99.068703 
3863.000000	99.068873 
3862.000000	99.069047 
3861.000000	99.069221 
3860.000000	99.069403 
3859.000000	99.069598 
3858.000000	99.069806 
3857.000000	99.070031 
3856.000000	99.070281 
3855.000000	99.070562 
3854.000000	99.070861 
3853.000000	99.071155 
3852.000000	99.071447 
3851.000000	99.071744 
3850.000000	99.072042 
3849.000000	99.072333 
3848.000000	99.072616 
3847.000000	99.072900 
3846.000000	99.073192 
3845.000000	99.073499 
3844.000000	99.073816 
3843.000000	99.074137 
3842.000000	99.074456 
3841.000000	99.074767 
3840.000000	99.075052 
3839.000000	99.075288 
3838.000000	99.075460 
3837.000000	99.075569 
3836.000000	99.075631 
3835.000000	99.075658 
3834.000000	99.075657 
3833.000000	99.075635 
3832.000000	99.075598 
3831.000000	99.075551 
3830.000000	99.075497 
3829.000000	99.075438 
3828.000000	99.075372 
3827.000000	99.075295 
3826.000000	99.075208 
3825.000000	99.075119 
3824.000000	99.075042 
3823.000000	99.074973 
3822.000000	99.074897 
3821.000000	99.074796 
3820.000000	99.074672 
3819.000000	99.074535 
3818.000000	99.074377 
3817.000000	99.074188 
3816.000000	99.073970 
3815.000000	99.073736 
3814.000000	99.073498 
3813.000000	99.073251 
3812.000000	99.072989 
3811.000000	99.072725 
3810.000000	99.072473 
3809.000000	99.072233 
3808.000000	99.071990 
3807.000000	99.071736 
3806.000000	99.071474 
3805.000000	99.071206 
3804.000000	99.070923 
3803.000000	99.070612 
3802.000000	99.070276 
3801.000000	99.069934 
3800.000000	99.069609 
3799.000000	99.069307 
3798.000000	99.069022 
3797.000000	99.068754 
3796.000000	99.068517 
3795.000000	99.068330 
3794.000000	99.068216 
3793.000000	99.068166 
3792.000000	99.068146 
3791.000000	99.068146 
3790.000000	99.068177 
3789.000000	99.068248 
3788.000000	99.068369 
3787.000000	99.068554 
3786.000000	99.068770 
3785.000000	99.068939 
3784.000000	99.069061 
3783.000000	99.069195 
3782.000000	99.069301 
3781.000000	99.069239 
3780.000000	99.068978 
3779.000000	99.068647 
3778.000000	99.068422 
3777.000000	99.068333 
3776.000000	99.068293 
3775.000000	99.068257 
3774.000000	99.068268 
3773.000000	99.068355 
3772.000000	99.068465 
3771.000000	99.068539 
3770.000000	99.068576 
3769.000000	99.068609 
3768.000000	99.068652 
3767.000000	99.068693 
3766.000000	99.068734 
3765.000000	99.068790 
3764.000000	99.068874 
3763.000000	99.068976 
3762.000000	99.069086 
3761.000000	99.069202 
3760.000000	99.069324 
3759.000000	99.069445 
3758.000000	99.069547 
3757.000000	99.069618 
3756.000000	99.069659 
3755.000000	99.069676 
3754.000000	99.069667 
3753.000000	99.069618 
3752.000000	99.069511 
3751.000000	99.069328 
3750.000000	99.069066 
3749.000000	99.068742 
3748.000000	99.068380 
3747.000000	99.067992 
3746.000000	99.067575 
3745.000000	99.067130 
3744.000000	99.066676 
3743.000000	99.066237 
3742.000000	99.065813 
3741.000000	99.065377 
3740.000000	99.064908 
3739.000000	99.064407 
3738.000000	99.063879 
3737.000000	99.063317 
3736.000000	99.062705 
3735.000000	99.062036 
3734.000000	99.061300 
3733.000000	99.060491 
3732.000000	99.059605 
3731.000000	99.058665 
3730.000000	99.057706 
3729.000000	99.056716 
3728.000000	99.055631 
3727.000000	99.054431 
3726.000000	99.053211 
3725.000000	99.052062 
3724.000000	99.050883 
3723.000000	99.049471 
3722.000000	99.047785 
3721.000000	99.046000 
3720.000000	99.044305 
3719.000000	99.042673 
3718.000000	99.040936 
3717.000000	99.038988 
3716.000000	99.036874 
3715.000000	99.034664 
3714.000000	99.032421 
3713.000000	99.030282 
3712.000000	99.028265 
3711.000000	99.026163 
3710.000000	99.023923 
3709.000000	99.021703 
3708.000000	99.019568 
3707.000000	99.017435 
3706.000000	99.015205 
3705.000000	99.012805 
3704.000000	99.010197 
3703.000000	99.007419 
3702.000000	99.004493 
3701.000000	99.001485 
3700.000000	98.998766 
3699.000000	98.996413 
3698.000000	98.993771 
3697.000000	98.990527 
3696.000000	98.987394 
3695.000000	98.985152 
3694.000000	98.983513 
3693.000000	98.981769 
3692.000000	98.979984 
3691.000000	98.978508 
3690.000000	98.976651 
3689.000000	98.972995 
3688.000000	98.968088 
3687.000000	98.964618 
3686.000000	98.963406 
3685.000000	98.962681 
3684.000000	98.961299 
3683.000000	98.959963 
3682.000000	98.959223 
3681.000000	98.958186 
3680.000000	98.955948 
3679.000000	98.953491 
3678.000000	98.952137 
3677.000000	98.951566 
3676.000000	98.949749 
3675.000000	98.946344 
3674.000000	98.945140 
3673.000000	98.947236 
3672.000000	98.948602 
3671.000000	98.947401 
3670.000000	98.945130 
3669.000000	98.943257 
3668.000000	98.942525 
3667.000000	98.942120 
3666.000000	98.941137 
3665.000000	98.940132 
3664.000000	98.939900 
3663.000000	98.940260 
3662.000000	98.940595 
3661.000000	98.940894 
3660.000000	98.941814 
3659.000000	98.943760 
3658.000000	98.945989 
3657.000000	98.947289 
3656.000000	98.947503 
3655.000000	98.948643 
3654.000000	98.951842 
3653.000000	98.955597 
3652.000000	98.958813 
3651.000000	98.962366 
3650.000000	98.966087 
3649.000000	98.967557 
3648.000000	98.965897 
3647.000000	98.963344 
3646.000000	98.962467 
3645.000000	98.963575 
3644.000000	98.965585 
3643.000000	98.967549 
3642.000000	98.969337 
3641.000000	98.971158 
3640.000000	98.973092 
3639.000000	98.975141 
3638.000000	98.977556 
3637.000000	98.980542 
3636.000000	98.983420 
3635.000000	98.985015 
3634.000000	98.985086 
3633.000000	98.984791 
3632.000000	98.985266 
3631.000000	98.986565 
3630.000000	98.988082 
3629.000000	98.988790 
3628.000000	98.988775 
3627.000000	98.989687 
3626.000000	98.991565 
3625.000000	98.993301 
3624.000000	98.994769 
3623.000000	98.996322 
3622.000000	98.997916 
3621.000000	98.999278 
3620.000000	99.000349 
3619.000000	99.001245 
3618.000000	99.002203 
3617.000000	99.003447 
3616.000000	99.004821 
3615.000000	99.005905 
3614.000000	99.006446 
3613.000000	99.006510 
3612.000000	99.006351 
3611.000000	99.006175 
3610.000000	99.006120 
3609.000000	99.006497 
3608.000000	99.007596 
3607.000000	99.009261 
3606.000000	99.010898 
3605.000000	99.011998 
3604.000000	99.012688 
3603.000000	99.013457 
3602.000000	99.014383 
3601.000000	99.015108 
3600.000000	99.015519 
3599.000000	99.015945 
3598.000000	99.016606 
3597.000000	99.017512 
3596.000000	99.018407 
3595.000000	99.018906 
3594.000000	99.018812 
3593.000000	99.018613 
3592.000000	99.019091 
3591.000000	99.020627 
3590.000000	99.022840 
3589.000000	99.024702 
3588.000000	99.025026 
3587.000000	99.023485 
3586.000000	99.021256 
3585.000000	99.019765 
3584.000000	99.019189 
3583.000000	99.019125 
3582.000000	99.019208 
3581.000000	99.019141 
3580.000000	99.018716 
3579.000000	99.018032 
3578.000000	99.017324 
3577.000000	99.016851 
3576.000000	99.016820 
3575.000000	99.017354 
3574.000000	99.018382 
3573.000000	99.019575 
3572.000000	99.020530 
3571.000000	99.020963 
3570.000000	99.020824 
3569.000000	99.020269 
3568.000000	99.019547 
3567.000000	99.018819 
3566.000000	99.018299 
3565.000000	99.018161 
3564.000000	99.018085 
3563.000000	99.017703 
3562.000000	99.017166 
3561.000000	99.016884 
3560.000000	99.017009 
3559.000000	99.017371 
3558.000000	99.017733 
3557.000000	99.018025 
3556.000000	99.018380 
3555.000000	99.018846 
3554.000000	99.019167 
3553.000000	99.018968 
3552.000000	99.018214 
3551.000000	99.017289 
3550.000000	99.016560 
3549.000000	99.016073 
3548.000000	99.015800 
3547.000000	99.015784 
3546.000000	99.015992 
3545.000000	99.016262 
3544.000000	99.016413 
3543.000000	99.016359 
3542.000000	99.016136 
3541.000000	99.015888 
3540.000000	99.015809 
3539.000000	99.015966 
3538.000000	99.016264 
3537.000000	99.016525 
3536.000000	99.016631 
3535.000000	99.016605 
3534.000000	99.016528 
3533.000000	99.016485 
3532.000000	99.016523 
3531.000000	99.016635 
3530.000000	99.016767 
3529.000000	99.016875 
3528.000000	99.016967 
3527.000000	99.017067 
3526.000000	99.017173 
3525.000000	99.017276 
3524.000000	99.017370 
3523.000000	99.017453 
3522.000000	99.017524 
3521.000000	99.017584 
3520.000000	99.017636 
3519.000000	99.017679 
3518.000000	99.017710 
3517.000000	99.017731 
3516.000000	99.017743 
3515.000000	99.017751 
3514.000000	99.017757 
3513.000000	99.017762 
3512.000000	99.017767 
3511.000000	99.017774 
3510.000000	99.017783 
3509.000000	99.017794 
3508.000000	99.017804 
3507.000000	99.017804 
3506.000000	99.017785 
3505.000000	99.017740 
3504.000000	99.017666 
3503.000000	99.017568 
3502.000000	99.017456 
3501.000000	99.017340 
3500.000000	99.017220 
3499.000000	99.017089 
3498.000000	99.016935 
3497.000000	99.016753 
3496.000000	99.016546 
3495.000000	99.016326 
3494.000000	99.016101 
3493.000000	99.015869 
3492.000000	99.015624 
3491.000000	99.015360 
3490.000000	99.015078 
3489.000000	99.014784 
3488.000000	99.014480 
3487.000000	99.014173 
3486.000000	99.013867 
3485.000000	99.013561 
3484.000000	99.013243 
3483.000000	99.012912 
3482.000000	99.012580 
3481.000000	99.012241 
3480.000000	99.011857 
3479.000000	99.011390 
3478.000000	99.010844 
3477.000000	99.010279 
3476.000000	99.009744 
3475.000000	99.009225 
3474.000000	99.008694 
3473.000000	99.008224 
3472.000000	99.007971 
3471.000000	99.008034 
3470.000000	99.008367 
3469.000000	99.008806 
3468.000000	99.009117 
3467.000000	99.009049 
3466.000000	99.008452 
3465.000000	99.007371 
3464.000000	99.006024 
3463.000000	99.004656 
3462.000000	99.003455 
3461.000000	99.002576 
3460.000000	99.002143 
3459.000000	99.002167 
3458.000000	99.002466 
3457.000000	99.002706 
3456.000000	99.002603 
3455.000000	99.002130 
3454.000000	99.001527 
3453.000000	99.001121 
3452.000000	99.001150 
3451.000000	99.001689 
3450.000000	99.002623 
3449.000000	99.003653 
3448.000000	99.004307 
3447.000000	99.004205 
3446.000000	99.003387 
3445.000000	99.002366 
3444.000000	99.001737 
3443.000000	99.001697 
3442.000000	99.001956 
3441.000000	99.002054 
3440.000000	99.001817 
3439.000000	99.001469 
3438.000000	99.001325 
3437.000000	99.001374 
3436.000000	99.001270 
3435.000000	99.000795 
3434.000000	99.000198 
3433.000000	98.999988 
3432.000000	99.000385 
3431.000000	99.001053 
3430.000000	99.001364 
3429.000000	99.000966 
3428.000000	99.000021 
3427.000000	98.998967 
3426.000000	98.998137 
3425.000000	98.997640 
3424.000000	98.997504 
3423.000000	98.997715 
3422.000000	98.998127 
3421.000000	98.998452 
3420.000000	98.998432 
3419.000000	98.998017 
3418.000000	98.997415 
3417.000000	98.996949 
3416.000000	98.996794 
3415.000000	98.996800 
3414.000000	98.996622 
3413.000000	98.996136 
3412.000000	98.995644 
3411.000000	98.995578 
3410.000000	98.996068 
3409.000000	98.996881 
3408.000000	98.997659 
3407.000000	98.998118 
3406.000000	98.998125 
3405.000000	98.997853 
3404.000000	98.997811 
3403.000000	98.998501 
3402.000000	98.999929 
3401.000000	99.001483 
3400.000000	99.002339 
3399.000000	99.002079 
3398.000000	99.001045 
3397.000000	99.000165 
3396.000000	99.000154 
3395.000000	99.000863 
3394.000000	99.001540 
3393.000000	99.001720 
3392.000000	99.001611 
3391.000000	99.001573 
3390.000000	99.001550 
3389.000000	99.001251 
3388.000000	99.000607 
3387.000000	98.999760 
3386.000000	98.998838 
3385.000000	98.997994 
3384.000000	98.997477 
3383.000000	98.997389 
3382.000000	98.997440 
3381.000000	98.997206 
3380.000000	98.996552 
3379.000000	98.995711 
3378.000000	98.995112 
3377.000000	98.995253 
3376.000000	98.996527 
3375.000000	98.998923 
3374.000000	99.001945 
3373.000000	99.004880 
3372.000000	99.007085 
3371.000000	99.008073 
3370.000000	99.007642 
3369.000000	99.006138 
3368.000000	99.004432 
3367.000000	99.003287 
3366.000000	99.002730 
3365.000000	99.002207 
3364.000000	99.001290 
3363.000000	99.000095 
3362.000000	98.999060 
3361.000000	98.998444 
3360.000000	98.998069 
3359.000000	98.997606 
3358.000000	98.997150 
3357.000000	98.997376 
3356.000000	98.998850 
3355.000000	99.001193 
3354.000000	99.003188 
3353.000000	99.003919 
3352.000000	99.003602 
3351.000000	99.003211 
3350.000000	99.003488 
3349.000000	99.004434 
3348.000000	99.005542 
3347.000000	99.006251 
3346.000000	99.006276 
3345.000000	99.005806 
3344.000000	99.005366 
3343.000000	99.005289 
3342.000000	99.005316 
3341.000000	99.004908 
3340.000000	99.003890 
3339.000000	99.002627 
3338.000000	99.001559 
3337.000000	99.000762 
3336.000000	99.000080 
3335.000000	98.999577 
3334.000000	98.999656 
3333.000000	99.000633 
3332.000000	99.002296 
3331.000000	99.003918 
3330.000000	99.004808 
3329.000000	99.004850 
3328.000000	99.004484 
3327.000000	99.004245 
3326.000000	99.004306 
3325.000000	99.004514 
3324.000000	99.004746 
3323.000000	99.005108 
3322.000000	99.005743 
3321.000000	99.006540 
3320.000000	99.007133 
3319.000000	99.007230 
3318.000000	99.006893 
3317.000000	99.006500 
3316.000000	99.006425 
3315.000000	99.006750 
3314.000000	99.007265 
3313.000000	99.007680 
3312.000000	99.007863 
3311.000000	99.007914 
3310.000000	99.008040 
3309.000000	99.008355 
3308.000000	99.008767 
3307.000000	99.009065 
3306.000000	99.009136 
3305.000000	99.009038 
3304.000000	99.008875 
3303.000000	99.008660 
3302.000000	99.008400 
3301.000000	99.008258 
3300.000000	99.008485 
3299.000000	99.009146 
3298.000000	99.009971 
3297.000000	99.010570 
3296.000000	99.010798 
3295.000000	99.010885 
3294.000000	99.011219 
3293.000000	99.011980 
3292.000000	99.012922 
3291.000000	99.013551 
3290.000000	99.013577 
3289.000000	99.013134 
3288.000000	99.012574 
3287.000000	99.012098 
3286.000000	99.011718 
3285.000000	99.011464 
3284.000000	99.011405 
3283.000000	99.011496 
3282.000000	99.011597 
3281.000000	99.011654 
3280.000000	99.011671 
3279.000000	99.011543 
3278.000000	99.011126 
3277.000000	99.010537 
3276.000000	99.010146 
3275.000000	99.010181 
3274.000000	99.010494 
3273.000000	99.010751 
3272.000000	99.010725 
3271.000000	99.010327 
3270.000000	99.009567 
3269.000000	99.008635 
3268.000000	99.007951 
3267.000000	99.007913 
3266.000000	99.008610 
3265.000000	99.009788 
3264.000000	99.011030 
3263.000000	99.011974 
3262.000000	99.012452 
3261.000000	99.012507 
3260.000000	99.012276 
3259.000000	99.011845 
3258.000000	99.011247 
3257.000000	99.010549 
3256.000000	99.009883 
3255.000000	99.009383 
3254.000000	99.009165 
3253.000000	99.009301 
3252.000000	99.009731 
3251.000000	99.010192 
3250.000000	99.010376 
3249.000000	99.010199 
3248.000000	99.009846 
3247.000000	99.009589 
3246.000000	99.009549 
3245.000000	99.009657 
3244.000000	99.009785 
3243.000000	99.009890 
3242.000000	99.010039 
3241.000000	99.010312 
3240.000000	99.010655 
3239.000000	99.010865 
3238.000000	99.010783 
3237.000000	99.010459 
3236.000000	99.010158 
3235.000000	99.010101 
3234.000000	99.010285 
3233.000000	99.010555 
3232.000000	99.010797 
3231.000000	99.011013 
3230.000000	99.011229 
3229.000000	99.011425 
3228.000000	99.011554 
3227.000000	99.011567 
3226.000000	99.011426 
3225.000000	99.011161 
3224.000000	99.010933 
3223.000000	99.010914 
3222.000000	99.011101 
3221.000000	99.011332 
3220.000000	99.011523 
3219.000000	99.011774 
3218.000000	99.012162 
3217.000000	99.012550 
3216.000000	99.012703 
3215.000000	99.012593 
3214.000000	99.012502 
3213.000000	99.012725 
3212.000000	99.013219 
3211.000000	99.013642 
3210.000000	99.013764 
3209.000000	99.013739 
3208.000000	99.013905 
3207.000000	99.014393 
3206.000000	99.015024 
3205.000000	99.015580 
3204.000000	99.016048 
3203.000000	99.016545 
3202.000000	99.017190 
3201.000000	99.018065 
3200.000000	99.019149 
3199.000000	99.020160 
3198.000000	99.020611 
3197.000000	99.020248 
3196.000000	99.019405 
3195.000000	99.018782 
3194.000000	99.018732 
3193.000000	99.018893 
3192.000000	99.018664 
3191.000000	99.017939 
3190.000000	99.017270 
3189.000000	99.017313 
3188.000000	99.018167 
3187.000000	99.019273 
3186.000000	99.019936 
3185.000000	99.019885 
3184.000000	99.019324 
3183.000000	99.018641 
3182.000000	99.018151 
3181.000000	99.018031 
3180.000000	99.018277 
3179.000000	99.018673 
3178.000000	99.018906 
3177.000000	99.018785 
3176.000000	99.018361 
3175.000000	99.017918 
3174.000000	99.017905 
3173.000000	99.018721 
3172.000000	99.020332 
3171.000000	99.022076 
3170.000000	99.023097 
3169.000000	99.023177 
3168.000000	99.022926 
3167.000000	99.023131 
3166.000000	99.023942 
3165.000000	99.024845 
3164.000000	99.025333 
3163.000000	99.025464 
3162.000000	99.025723 
3161.000000	99.026459 
3160.000000	99.027535 
3159.000000	99.028476 
3158.000000	99.028896 
3157.000000	99.028800 
3156.000000	99.028485 
3155.000000	99.028254 
3154.000000	99.028216 
3153.000000	99.028342 
3152.000000	99.028577 
3151.000000	99.028815 
3150.000000	99.028855 
3149.000000	99.028593 
3148.000000	99.028264 
3147.000000	99.028317 
3146.000000	99.028957 
3145.000000	99.029882 
3144.000000	99.030639 
3143.000000	99.031182 
3142.000000	99.031903 
3141.000000	99.033058 
3140.000000	99.034315 
3139.000000	99.035033 
3138.000000	99.034945 
3137.000000	99.034422 
3136.000000	99.034064 
3135.000000	99.034079 
3134.000000	99.034186 
3133.000000	99.034069 
3132.000000	99.033777 
3131.000000	99.033636 
3130.000000	99.033776 
3129.000000	99.033867 
3128.000000	99.033440 
3127.000000	99.032505 
3126.000000	99.031712 
3125.000000	99.031711 
3124.000000	99.032520 
3123.000000	99.033549 
3122.000000	99.034237 
3121.000000	99.034614 
3120.000000	99.035147 
3119.000000	99.036166 
3118.000000	99.037494 
3117.000000	99.038552 
3116.000000	99.038874 
3115.000000	99.038492 
3114.000000	99.037867 
3113.000000	99.037407 
3112.000000	99.037142 
3111.000000	99.036942 
3110.000000	99.036854 
3109.000000	99.036996 
3108.000000	99.037215 
3107.000000	99.037121 
3106.000000	99.036552 
3105.000000	99.035853 
3104.000000	99.035580 
3103.000000	99.036019 
3102.000000	99.037078 
3101.000000	99.038439 
3100.000000	99.039668 
3099.000000	99.040347 
3098.000000	99.040312 
3097.000000	99.039797 
3096.000000	99.039291 
3095.000000	99.039145 
3094.000000	99.039385 
3093.000000	99.039862 
3092.000000	99.040419 
3091.000000	99.040889 
3090.000000	99.041054 
3089.000000	99.040848 
3088.000000	99.040633 
3087.000000	99.041071 
3086.000000	99.042465 
3085.000000	99.044236 
3084.000000	99.045345 
3083.000000	99.045344 
3082.000000	99.044901 
3081.000000	99.045113 
3080.000000	99.046209 
3079.000000	99.047272 
3078.000000	99.047256 
3077.000000	99.045837 
3076.000000	99.043228 
3075.000000	99.039844 
3074.000000	99.036547 
3073.000000	99.034646 
3072.000000	99.034900 
3071.000000	99.036732 
3070.000000	99.038943 
3069.000000	99.040852 
3068.000000	99.042043 
3067.000000	99.041584 
3066.000000	99.038836 
3065.000000	99.035010 
3064.000000	99.032515 
3063.000000	99.032240 
3062.000000	99.032594 
3061.000000	99.031804 
3060.000000	99.030235 
3059.000000	99.029703 
3058.000000	99.031126 
3057.000000	99.033714 
3056.000000	99.036187 
3055.000000	99.038173 
3054.000000	99.040223 
3053.000000	99.042679 
3052.000000	99.044778 
3051.000000	99.045131 
3050.000000	99.043167 
3049.000000	99.039618 
3048.000000	99.035223 
3047.000000	99.029717 
3046.000000	99.023018 
3045.000000	99.016824 
3044.000000	99.013543 
3043.000000	99.013527 
3042.000000	99.014531 
3041.000000	99.014102 
3040.000000	99.011620 
3039.000000	99.007912 
3038.000000	99.004053 
3037.000000	99.000942 
3036.000000	98.998924 
3035.000000	98.997131 
3034.000000	98.994006 
3033.000000	98.988964 
3032.000000	98.982897 
3031.000000	98.976779 
3030.000000	98.970316 
3029.000000	98.962443 
3028.000000	98.952904 
3027.000000	98.942959 
3026.000000	98.934557 
3025.000000	98.928699 
3024.000000	98.924223 
3023.000000	98.918354 
3022.000000	98.909069 
3021.000000	98.896989 
3020.000000	98.884625 
3019.000000	98.873938 
3018.000000	98.865304 
3017.000000	98.858572 
3016.000000	98.853718 
3015.000000	98.849979 
3014.000000	98.845369 
3013.000000	98.837768 
3012.000000	98.826079 
3011.000000	98.810248 
3010.000000	98.791224 
3009.000000	98.771355 
3008.000000	98.753845 
3007.000000	98.740851 
3006.000000	98.732209 
3005.000000	98.726051 
3004.000000	98.719915 
3003.000000	98.711292 
3002.000000	98.698593 
3001.000000	98.682827 
3000.000000	98.667537 
2999.000000	98.655726 
2998.000000	98.647227 
2997.000000	98.640042 
2996.000000	98.633578 
2995.000000	98.628680 
2994.000000	98.624109 
2993.000000	98.614996 
2992.000000	98.596915 
2991.000000	98.571625 
2990.000000	98.547444 
2989.000000	98.532703 
2988.000000	98.529138 
2987.000000	98.531977 
2986.000000	98.535687 
2985.000000	98.538831 
2984.000000	98.542896 
2983.000000	98.548052 
2982.000000	98.551967 
2981.000000	98.552545 
2980.000000	98.550301 
2979.000000	98.547439 
2978.000000	98.545537 
2977.000000	98.544586 
2976.000000	98.543490 
2975.000000	98.541020 
2974.000000	98.536883 
2973.000000	98.532298 
2972.000000	98.529083 
2971.000000	98.527997 
2970.000000	98.528558 
2969.000000	98.530555 
2968.000000	98.534805 
2967.000000	98.541938 
2966.000000	98.551253 
2965.000000	98.561437 
2964.000000	98.571803 
2963.000000	98.582180 
2962.000000	98.592030 
2961.000000	98.600421 
2960.000000	98.606794 
2959.000000	98.611505 
2958.000000	98.615898 
2957.000000	98.621793 
2956.000000	98.630052 
2955.000000	98.639149 
2954.000000	98.646009 
2953.000000	98.649313 
2952.000000	98.651655 
2951.000000	98.657432 
2950.000000	98.668211 
2949.000000	98.680610 
2948.000000	98.689152 
2947.000000	98.690937 
2946.000000	98.687615 
2945.000000	98.683456 
2944.000000	98.681529 
2943.000000	98.681759 
2942.000000	98.682261 
2941.000000	98.681572 
2940.000000	98.679349 
2939.000000	98.675936 
2938.000000	98.672199 
2937.000000	98.669516 
2936.000000	98.669069 
2935.000000	98.670980 
2934.000000	98.674457 
2933.000000	98.678446 
2932.000000	98.681602 
2931.000000	98.682162 
2930.000000	98.679038 
2929.000000	98.673187 
2928.000000	98.667109 
2927.000000	98.662815 
2926.000000	98.660942 
2925.000000	98.661506 
2924.000000	98.664222 
2923.000000	98.667820 
2922.000000	98.670308 
2921.000000	98.670627 
2920.000000	98.669329 
2919.000000	98.667311 
2918.000000	98.664774 
2917.000000	98.661811 
2916.000000	98.659026 
2915.000000	98.656923 
2914.000000	98.655499 
2913.000000	98.654981 
2912.000000	98.656001 
2911.000000	98.658270 
2910.000000	98.659930 
2909.000000	98.659400 
2908.000000	98.657357 
2907.000000	98.655779 
2906.000000	98.655163 
2905.000000	98.653614 
2904.000000	98.648851 
2903.000000	98.640799 
2902.000000	98.632491 
2901.000000	98.628532 
2900.000000	98.632128 
2899.000000	98.642726 
2898.000000	98.655982 
2897.000000	98.666987 
2896.000000	98.673952 
2895.000000	98.678502 
2894.000000	98.682837 
2893.000000	98.687413 
2892.000000	98.691293 
2891.000000	98.693848 
2890.000000	98.695566 
2889.000000	98.697423 
2888.000000	98.699898 
2887.000000	98.702719 
2886.000000	98.705508 
2885.000000	98.708489 
2884.000000	98.712328 
2883.000000	98.717384 
2882.000000	98.723478 
2881.000000	98.730412 
2880.000000	98.738275 
2879.000000	98.747131 
2878.000000	98.756807 
2877.000000	98.767019 
2876.000000	98.777141 
2875.000000	98.785696 
2874.000000	98.790948 
2873.000000	98.792708 
2872.000000	98.793195 
2871.000000	98.795471 
2870.000000	98.801016 
2869.000000	98.809051 
2868.000000	98.817796 
2867.000000	98.825984 
2866.000000	98.833609 
2865.000000	98.841744 
2864.000000	98.851412 
2863.000000	98.862113 
2862.000000	98.871668 
2861.000000	98.878111 
2860.000000	98.881706 
2859.000000	98.884741 
2858.000000	98.889406 
2857.000000	98.896132 
2856.000000	98.903653 
2855.000000	98.910215 
2854.000000	98.914827 
2853.000000	98.917884 
2852.000000	98.920671 
2851.000000	98.924182 
2850.000000	98.928625 
2849.000000	98.933916 
2848.000000	98.940055 
2847.000000	98.946757 
2846.000000	98.953337 
2845.000000	98.959432 
2844.000000	98.965435 
2843.000000	98.971757 
2842.000000	98.978074 
2841.000000	98.983800 
2840.000000	98.988853 
2839.000000	98.993357 
2838.000000	98.996919 
2837.000000	98.998834 
2836.000000	98.998901 
2835.000000	98.997711 
2834.000000	98.996413 
2833.000000	98.996474 
2832.000000	98.999073 
2831.000000	99.003955 
2830.000000	99.009143 
2829.000000	99.012557 
2828.000000	99.013845 
2827.000000	99.014178 
2826.000000	99.014463 
2825.000000	99.014477 
2824.000000	99.013850 
2823.000000	99.013230 
2822.000000	99.014071 
2821.000000	99.017335 
2820.000000	99.022380 
2819.000000	99.027088 
2818.000000	99.029450 
2817.000000	99.029330 
2816.000000	99.028481 
2815.000000	99.028653 
2814.000000	99.029933 
2813.000000	99.031179 
2812.000000	99.031591 
2811.000000	99.031350 
2810.000000	99.031118 
2809.000000	99.031574 
2808.000000	99.033197 
2807.000000	99.035830 
2806.000000	99.038487 
2805.000000	99.040208 
2804.000000	99.041121 
2803.000000	99.042205 
2802.000000	99.043932 
2801.000000	99.045594 
2800.000000	99.046153 
2799.000000	99.045409 
2798.000000	99.044169 
2797.000000	99.043516 
2796.000000	99.043874 
2795.000000	99.044831 
2794.000000	99.045694 
2793.000000	99.046167 
2792.000000	99.046503 
2791.000000	99.047099 
2790.000000	99.048058 
2789.000000	99.049184 
2788.000000	99.050270 
2787.000000	99.051246 
2786.000000	99.052089 
2785.000000	99.052785 
2784.000000	99.053386 
2783.000000	99.054000 
2782.000000	99.054680 
2781.000000	99.055395 
2780.000000	99.056108 
2779.000000	99.056813 
2778.000000	99.057483 
2777.000000	99.058051 
2776.000000	99.058488 
2775.000000	99.058856 
2774.000000	99.059236 
2773.000000	99.059645 
2772.000000	99.060056 
2771.000000	99.060461 
2770.000000	99.060902 
2769.000000	99.061448 
2768.000000	99.062152 
2767.000000	99.062987 
2766.000000	99.063792 
2765.000000	99.064337 
2764.000000	99.064514 
2763.000000	99.064470 
2762.000000	99.064546 
2761.000000	99.064972 
2760.000000	99.065669 
2759.000000	99.066336 
2758.000000	99.066758 
2757.000000	99.067024 
2756.000000	99.067449 
2755.000000	99.068290 
2754.000000	99.069502 
2753.000000	99.070695 
2752.000000	99.071432 
2751.000000	99.071609 
2750.000000	99.071569 
2749.000000	99.071724 
2748.000000	99.072026 
2747.000000	99.072030 
2746.000000	99.071492 
2745.000000	99.070799 
2744.000000	99.070683 
2743.000000	99.071485 
2742.000000	99.072849 
2741.000000	99.074086 
2740.000000	99.074845 
2739.000000	99.075332 
2738.000000	99.075879 
2737.000000	99.076413 
2736.000000	99.076480 
2735.000000	99.075786 
2734.000000	99.074562 
2733.000000	99.073328 
2732.000000	99.072360 
2731.000000	99.071523 
2730.000000	99.070629 
2729.000000	99.069812 
2728.000000	99.069540 
2727.000000	99.070315 
2726.000000	99.072260 
2725.000000	99.074824 
2724.000000	99.076987 
2723.000000	99.078048 
2722.000000	99.078268 
2721.000000	99.078557 
2720.000000	99.079384 
2719.000000	99.080201 
2718.000000	99.080171 
2717.000000	99.079257 
2716.000000	99.078394 
2715.000000	99.078680 
2714.000000	99.080524 
2713.000000	99.083337 
2712.000000	99.085806 
2711.000000	99.086775 
2710.000000	99.086222 
2709.000000	99.085371 
2708.000000	99.085409 
2707.000000	99.085998 
2706.000000	99.085527 
2705.000000	99.082985 
2704.000000	99.079222 
2703.000000	99.076215 
2702.000000	99.075083 
2701.000000	99.075209 
2700.000000	99.075226 
2699.000000	99.074638 
2698.000000	99.074181 
2697.000000	99.074655 
2696.000000	99.075846 
2695.000000	99.076814 
2694.000000	99.077043 
2693.000000	99.076905 
2692.000000	99.076905 
2691.000000	99.076907 
2690.000000	99.076464 
2689.000000	99.075776 
2688.000000	99.075866 
2687.000000	99.077665 
2686.000000	99.081067 
2685.000000	99.084806 
2684.000000	99.087248 
2683.000000	99.087553 
2682.000000	99.086331 
2681.000000	99.085235 
2680.000000	99.085467 
2679.000000	99.086585 
2678.000000	99.087073 
2677.000000	99.086057 
2676.000000	99.084207 
2675.000000	99.083000 
2674.000000	99.083245 
2673.000000	99.084307 
2672.000000	99.084557 
2671.000000	99.082671 
2670.000000	99.078754 
2669.000000	99.074402 
2668.000000	99.071380 
2667.000000	99.070097 
2666.000000	99.069627 
2665.000000	99.069027 
2664.000000	99.068414 
2663.000000	99.068688 
2662.000000	99.070490 
2661.000000	99.073478 
2660.000000	99.076365 
2659.000000	99.077691 
2658.000000	99.077028 
2657.000000	99.075587 
2656.000000	99.075299 
2655.000000	99.077086 
2654.000000	99.080197 
2653.000000	99.083202 
2652.000000	99.085320 
2651.000000	99.086635 
2650.000000	99.087443 
2649.000000	99.087763 
2648.000000	99.087391 
2647.000000	99.086298 
2646.000000	99.084997 
2645.000000	99.084325 
2644.000000	99.084469 
2643.000000	99.084353 
2642.000000	99.082694 
2641.000000	99.079812 
2640.000000	99.077720 
2639.000000	99.077950 
2638.000000	99.079824 
2637.000000	99.081169 
2636.000000	99.080445 
2635.000000	99.077814 
2634.000000	99.074681 
2633.000000	99.072614 
2632.000000	99.072276 
2631.000000	99.072840 
2630.000000	99.072623 
2629.000000	99.070880 
2628.000000	99.068856 
2627.000000	99.068604 
2626.000000	99.070914 
2625.000000	99.074823 
2624.000000	99.078699 
2623.000000	99.081440 
2622.000000	99.082890 
2621.000000	99.083644 
2620.000000	99.084545 
2619.000000	99.085862 
2618.000000	99.086903 
2617.000000	99.086764 
2616.000000	99.085444 
2615.000000	99.083902 
2614.000000	99.083030 
2613.000000	99.082962 
2612.000000	99.083350 
2611.000000	99.083837 
2610.000000	99.084084 
2609.000000	99.083705 
2608.000000	99.082485 
2607.000000	99.080658 
2606.000000	99.078853 
2605.000000	99.077639 
2604.000000	99.076987 
2603.000000	99.076167 
2602.000000	99.074440 
2601.000000	99.072077 
2600.000000	99.070475 
2599.000000	99.070824 
2598.000000	99.072837 
2597.000000	99.074863 
2596.000000	99.075384 
2595.000000	99.074267 
2594.000000	99.072629 
2593.000000	99.071911 
2592.000000	99.072854 
2591.000000	99.075001 
2590.000000	99.077002 
2589.000000	99.077822 
2588.000000	99.077786 
2587.000000	99.078098 
2586.000000	99.079137 
2585.000000	99.079663 
2584.000000	99.078206 
2583.000000	99.074914 
2582.000000	99.071680 
2581.000000	99.070369 
2580.000000	99.071221 
2579.000000	99.072925 
2578.000000	99.073859 
2577.000000	99.073222 
2576.000000	99.071258 
2575.000000	99.068825 
2574.000000	99.066671 
2573.000000	99.064920 
2572.000000	99.063217 
2571.000000	99.061348 
2570.000000	99.059538 
2569.000000	99.058025 
2568.000000	99.056577 
2567.000000	99.054842 
2566.000000	99.053162 
2565.000000	99.052577 
2564.000000	99.053654 
2563.000000	99.055464 
2562.000000	99.056085 
2561.000000	99.054452 
2560.000000	99.051830 
2559.000000	99.051267 
2558.000000	99.055119 
2557.000000	99.062772 
2556.000000	99.070657 
2555.000000	99.075375 
2554.000000	99.076898 
2553.000000	99.078021 
2552.000000	99.080620 
2551.000000	99.083224 
2550.000000	99.083026 
2549.000000	99.079387 
2548.000000	99.074288 
2547.000000	99.069847 
2546.000000	99.066581 
2545.000000	99.064063 
2544.000000	99.061979 
2543.000000	99.060223 
2542.000000	99.058928 
2541.000000	99.058773 
2540.000000	99.060351 
2539.000000	99.062705 
2538.000000	99.063250 
2537.000000	99.060044 
2536.000000	99.053909 
2535.000000	99.047880 
2534.000000	99.044700 
2533.000000	99.045124 
2532.000000	99.048225 
2531.000000	99.052742 
2530.000000	99.058193 
2529.000000	99.064923 
2528.000000	99.073024 
2527.000000	99.081196 
2526.000000	99.087153 
2525.000000	99.089498 
2524.000000	99.089010 
2523.000000	99.087930 
2522.000000	99.087840 
2521.000000	99.088224 
2520.000000	99.087227 
2519.000000	99.083854 
2518.000000	99.079337 
2517.000000	99.075965 
2516.000000	99.074465 
2515.000000	99.073373 
2514.000000	99.071442 
2513.000000	99.069746 
2512.000000	99.070289 
2511.000000	99.072995 
2510.000000	99.075460 
2509.000000	99.075760 
2508.000000	99.074328 
2507.000000	99.072755 
2506.000000	99.071812 
2505.000000	99.071138 
2504.000000	99.070056 
2503.000000	99.068056 
2502.000000	99.065095 
2501.000000	99.062158 
2500.000000	99.061095 
2499.000000	99.063108 
2498.000000	99.067460 
2497.000000	99.071876 
2496.000000	99.074406 
2495.000000	99.074789 
2494.000000	99.074094 
2493.000000	99.073351 
2492.000000	99.072515 
2491.000000	99.070824 
2490.000000	99.068199 
2489.000000	99.065988 
2488.000000	99.065897 
2487.000000	99.068270 
2486.000000	99.071851 
2485.000000	99.075185 
2484.000000	99.077812 
2483.000000	99.079703 
2482.000000	99.080329 
2481.000000	99.079096 
2480.000000	99.076368 
2479.000000	99.073378 
2478.000000	99.071020 
2477.000000	99.069119 
2476.000000	99.067029 
2475.000000	99.064572 
2474.000000	99.062290 
2473.000000	99.061038 
2472.000000	99.061452 
2471.000000	99.063651 
2470.000000	99.067181 
2469.000000	99.070998 
2468.000000	99.073722 
2467.000000	99.074402 
2466.000000	99.073314 
2465.000000	99.071999 
2464.000000	99.071978 
2463.000000	99.073252 
2462.000000	99.074390 
2461.000000	99.074098 
2460.000000	99.072427 
2459.000000	99.070463 
2458.000000	99.069218 
2457.000000	99.068932 
2456.000000	99.069101 
2455.000000	99.068931 
2454.000000	99.067984 
2453.000000	99.066536 
2452.000000	99.065195 
2451.000000	99.064197 
2450.000000	99.063367 
2449.000000	99.062695 
2448.000000	99.062444 
2447.000000	99.062593 
2446.000000	99.062717 
2445.000000	99.062667 
2444.000000	99.062905 
2443.000000	99.063837 
2442.000000	99.065165 
2441.000000	99.066182 
2440.000000	99.066478 
2439.000000	99.066083 
2438.000000	99.065272 
2437.000000	99.064531 
2436.000000	99.064352 
2435.000000	99.064636 
2434.000000	99.064454 
2433.000000	99.062906 
2432.000000	99.060189 
2431.000000	99.057670 
2430.000000	99.056654 
2429.000000	99.057370 
2428.000000	99.059153 
2427.000000	99.061175 
2426.000000	99.063017 
2425.000000	99.064469 
2424.000000	99.065216 
2423.000000	99.065012 
2422.000000	99.064063 
2421.000000	99.063022 
2420.000000	99.062478 
2419.000000	99.062497 
2418.000000	99.062835 
2417.000000	99.063355 
2416.000000	99.064012 
2415.000000	99.064541 
2414.000000	99.064581 
2413.000000	99.064174 
2412.000000	99.063826 
2411.000000	99.063956 
2410.000000	99.064539 
2409.000000	99.065346 
2408.000000	99.066283 
2407.000000	99.067377 
2406.000000	99.068625 
2405.000000	99.069994 
2404.000000	99.071441 
2403.000000	99.072827 
2402.000000	99.073971 
2401.000000	99.074867 
2400.000000	99.075644 
2399.000000	99.076337 
2398.000000	99.076877 
2397.000000	99.077345 
2396.000000	99.078001 
2395.000000	99.079006 
2394.000000	99.080267 
2393.000000	99.081548 
2392.000000	99.082664 
2391.000000	99.083568 
2390.000000	99.084383 
2389.000000	99.085341 
2388.000000	99.086558 
2387.000000	99.087892 
2386.000000	99.089090 
2385.000000	99.090058 
2384.000000	99.090906 
2383.000000	99.091789 
2382.000000	99.092767 
2381.000000	99.093834 
2380.000000	99.094958 
2379.000000	99.096041 
2378.000000	99.096939 
2377.000000	99.097616 
2376.000000	99.098210 
2375.000000	99.098917 
2374.000000	99.099770 
2373.000000	99.100659 
2372.000000	99.101515 
2371.000000	99.102412 
2370.000000	99.103421 
2369.000000	99.104438 
2368.000000	99.105231 
2367.000000	99.105654 
2366.000000	99.105733 
2365.000000	99.105647 
2364.000000	99.105665 
2363.000000	99.105962 
2362.000000	99.106505 
2361.000000	99.107031 
2360.000000	99.107312 
2359.000000	99.107389 
2358.000000	99.107476 
2357.000000	99.107722 
2356.000000	99.108162 
2355.000000	99.108741 
2354.000000	99.109265 
2353.000000	99.109463 
2352.000000	99.109312 
2351.000000	99.109107 
2350.000000	99.109087 
2349.000000	99.109210 
2348.000000	99.109368 
2347.000000	99.109474 
2346.000000	99.109150 
2345.000000	99.107860 
2344.000000	99.105782 
2343.000000	99.104147 
2342.000000	99.104224 
2341.000000	99.106260 
2340.000000	99.109321 
2339.000000	99.111900 
2338.000000	99.113094 
2337.000000	99.113185 
2336.000000	99.113099 
2335.000000	99.113035 
2334.000000	99.112219 
2333.000000	99.110212 
2332.000000	99.107762 
2331.000000	99.105544 
2330.000000	99.102914 
2329.000000	99.099098 
2328.000000	99.094937 
2327.000000	99.092120 
2326.000000	99.090851 
2325.000000	99.089840 
2324.000000	99.088217 
2323.000000	99.086771 
2322.000000	99.086842 
2321.000000	99.088872 
2320.000000	99.092109 
2319.000000	99.095221 
2318.000000	99.097354 
2317.000000	99.098601 
2316.000000	99.099561 
2315.000000	99.100092 
2314.000000	99.099192 
2313.000000	99.096646 
2312.000000	99.094085 
2311.000000	99.093512 
2310.000000	99.094982 
2309.000000	99.096535 
2308.000000	99.096066 
2307.000000	99.092823 
2306.000000	99.087519 
2305.000000	99.081807 
2304.000000	99.077025 
2303.000000	99.073012 
2302.000000	99.068626 
2301.000000	99.063682 
2300.000000	99.059524 
2299.000000	99.057164 
2298.000000	99.055802 
2297.000000	99.054219 
2296.000000	99.052710 
2295.000000	99.052351 
2294.000000	99.052812 
2293.000000	99.052309 
2292.000000	99.049733 
2291.000000	99.045761 
2290.000000	99.041818 
2289.000000	99.038831 
2288.000000	99.037080 
2287.000000	99.036419 
2286.000000	99.036218 
2285.000000	99.035679 
2284.000000	99.034596 
2283.000000	99.033338 
2282.000000	99.031884 
2281.000000	99.029476 
2280.000000	99.025717 
2279.000000	99.021640 
2278.000000	99.019065 
2277.000000	99.018813 
2276.000000	99.019957 
2275.000000	99.020592 
2274.000000	99.019478 
2273.000000	99.016784 
2272.000000	99.013508 
2271.000000	99.010395 
2270.000000	99.007516 
2269.000000	99.004954 
2268.000000	99.003361 
2267.000000	99.003419 
2266.000000	99.005045 
2265.000000	99.007271 
2264.000000	99.008786 
2263.000000	99.008694 
2262.000000	99.006992 
2261.000000	99.004736 
2260.000000	99.003315 
2259.000000	99.002982 
2258.000000	99.002467 
2257.000000	99.000516 
2256.000000	98.997465 
2255.000000	98.994715 
2254.000000	98.992999 
2253.000000	98.991989 
2252.000000	98.991456 
2251.000000	98.991811 
2250.000000	98.993328 
2249.000000	98.995476 
2248.000000	98.997257 
2247.000000	98.997729 
2246.000000	98.996155 
2245.000000	98.992413 
2244.000000	98.987466 
2243.000000	98.982861 
2242.000000	98.979549 
2241.000000	98.977497 
2240.000000	98.976143 
2239.000000	98.974726 
2238.000000	98.972502 
2237.000000	98.969447 
2236.000000	98.966628 
2235.000000	98.965021 
2234.000000	98.964014 
2233.000000	98.962050 
2232.000000	98.959018 
2231.000000	98.957004 
2230.000000	98.958243 
2229.000000	98.962989 
2228.000000	98.969292 
2227.000000	98.974154 
2226.000000	98.975220 
2225.000000	98.972129 
2224.000000	98.966850 
2223.000000	98.962288 
2222.000000	98.959894 
2221.000000	98.959055 
2220.000000	98.958628 
2219.000000	98.958368 
2218.000000	98.958767 
2217.000000	98.960180 
2216.000000	98.962450 
2215.000000	98.964934 
2214.000000	98.966566 
2213.000000	98.966333 
2212.000000	98.964137 
2211.000000	98.961200 
2210.000000	98.959455 
2209.000000	98.960193 
2208.000000	98.962803 
2207.000000	98.964702 
2206.000000	98.963212 
2205.000000	98.957809 
2204.000000	98.950374 
2203.000000	98.943235 
2202.000000	98.937557 
2201.000000	98.933829 
2200.000000	98.932429 
2199.000000	98.932648 
2198.000000	98.932357 
2197.000000	98.930300 
2196.000000	98.928212 
2195.000000	98.929039 
2194.000000	98.933536 
2193.000000	98.939600 
2192.000000	98.944323 
2191.000000	98.945934 
2190.000000	98.944049 
2189.000000	98.939779 
2188.000000	98.935628 
2187.000000	98.933734 
2186.000000	98.934083 
2185.000000	98.935296 
2184.000000	98.936775 
2183.000000	98.938809 
2182.000000	98.940911 
2181.000000	98.941882 
2180.000000	98.941540 
2179.000000	98.940746 
2178.000000	98.939622 
2177.000000	98.937310 
2176.000000	98.933673 
2175.000000	98.929800 
2174.000000	98.926682 
2173.000000	98.924736 
2172.000000	98.924511 
2171.000000	98.926389 
2170.000000	98.929557 
2169.000000	98.932551 
2168.000000	98.934952 
2167.000000	98.937202 
2166.000000	98.938917 
2165.000000	98.939087 
2164.000000	98.938026 
2163.000000	98.937542 
2162.000000	98.938741 
2161.000000	98.940853 
2160.000000	98.942617 
2159.000000	98.943740 
2158.000000	98.944647 
2157.000000	98.945711 
2156.000000	98.947085 
2155.000000	98.948604 
2154.000000	98.949713 
2153.000000	98.950054 
2152.000000	98.950106 
2151.000000	98.950828 
2150.000000	98.952587 
2149.000000	98.954932 
2148.000000	98.957260 
2147.000000	98.959365 
2146.000000	98.961068 
2145.000000	98.961978 
2144.000000	98.962049 
2143.000000	98.961928 
2142.000000	98.962285 
2141.000000	98.963138 
2140.000000	98.964124 
2139.000000	98.965039 
2138.000000	98.965847 
2137.000000	98.966450 
2136.000000	98.966798 
2135.000000	98.967166 
2134.000000	98.967999 
2133.000000	98.969460 
2132.000000	98.971200 
2131.000000	98.972542 
2130.000000	98.972976 
2129.000000	98.972518 
2128.000000	98.971746 
2127.000000	98.971274 
2126.000000	98.971163 
2125.000000	98.971109 
2124.000000	98.971219 
2123.000000	98.972178 
2122.000000	98.974262 
2121.000000	98.976475 
2120.000000	98.977333 
2119.000000	98.976381 
2118.000000	98.974545 
2117.000000	98.973121 
2116.000000	98.972631 
2115.000000	98.972803 
2114.000000	98.973170 
2113.000000	98.973510 
2112.000000	98.973928 
2111.000000	98.974604 
2110.000000	98.975403 
2109.000000	98.975912 
2108.000000	98.975967 
2107.000000	98.975800 
2106.000000	98.975316 
2105.000000	98.973607 
2104.000000	98.969784 
2103.000000	98.964208 
2102.000000	98.958652 
2101.000000	98.955112 
2100.000000	98.954460 
2099.000000	98.956072 
2098.000000	98.958345 
2097.000000	98.959925 
2096.000000	98.960522 
2095.000000	98.960287 
2094.000000	98.958678 
2093.000000	98.954859 
2092.000000	98.949566 
2091.000000	98.945581 
2090.000000	98.945318 
2089.000000	98.948278 
2088.000000	98.951430 
2087.000000	98.952115 
2086.000000	98.950230 
2085.000000	98.947670 
2084.000000	98.946298 
2083.000000	98.946452 
2082.000000	98.947163 
2081.000000	98.947634 
2080.000000	98.948178 
2079.000000	98.949332 
2078.000000	98.950614 
2077.000000	98.951214 
2076.000000	98.951859 
2075.000000	98.954410 
2074.000000	98.958946 
2073.000000	98.962658 
2072.000000	98.962789 
2071.000000	98.959629 
2070.000000	98.955707 
2069.000000	98.952881 
2068.000000	98.951242 
2067.000000	98.950289 
2066.000000	98.949702 
2065.000000	98.948994 
2064.000000	98.947641 
2063.000000	98.945850 
2062.000000	98.944450 
2061.000000	98.943974 
2060.000000	98.944285 
2059.000000	98.944910 
2058.000000	98.945360 
2057.000000	98.945236 
2056.000000	98.944062 
2055.000000	98.940902 
2054.000000	98.934739 
2053.000000	98.926041 
2052.000000	98.917561 
2051.000000	98.912464 
2050.000000	98.911416 
2049.000000	98.912030 
2048.000000	98.911322 
2047.000000	98.908404 
2046.000000	98.904361 
2045.000000	98.900660 
2044.000000	98.898454 
2043.000000	98.898225 
2042.000000	98.899019 
2041.000000	98.898658 
2040.000000	98.895952 
2039.000000	98.892222 
2038.000000	98.889763 
2037.000000	98.889181 
2036.000000	98.889134 
2035.000000	98.888312 
2034.000000	98.886666 
2033.000000	98.884789 
2032.000000	98.883004 
2031.000000	98.881271 
2030.000000	98.879449 
2029.000000	98.877426 
2028.000000	98.875283 
2027.000000	98.873531 
2026.000000	98.872979 
2025.000000	98.874216 
2024.000000	98.876997 
2023.000000	98.879974 
2022.000000	98.881313 
2021.000000	98.880085 
2020.000000	98.877169 
2019.000000	98.874720 
2018.000000	98.874286 
2017.000000	98.875554 
2016.000000	98.876909 
2015.000000	98.877063 
2014.000000	98.876053 
2013.000000	98.874941 
2012.000000	98.874884 
2011.000000	98.876233 
2010.000000	98.878437 
2009.000000	98.880811 
2008.000000	98.883112 
2007.000000	98.885255 
2006.000000	98.886804 
2005.000000	98.887308 
2004.000000	98.887088 
2003.000000	98.887148 
2002.000000	98.888116 
2001.000000	98.889577 
2000.000000	98.890591 
1999.000000	98.890645 
1998.000000	98.890000 
1997.000000	98.889419 
1996.000000	98.889586 
1995.000000	98.890661 
1994.000000	98.892302 
1993.000000	98.893890 
1992.000000	98.894877 
1991.000000	98.895051 
1990.000000	98.894558 
1989.000000	98.893842 
1988.000000	98.893454 
1987.000000	98.893642 
1986.000000	98.894185 
1985.000000	98.894679 
1984.000000	98.894965 
1983.000000	98.895199 
1982.000000	98.895550 
1981.000000	98.895982 
1980.000000	98.896338 
1979.000000	98.896538 
1978.000000	98.896636 
1977.000000	98.896709 
1976.000000	98.896787 
1975.000000	98.896884 
1974.000000	98.897064 
1973.000000	98.897426 
1972.000000	98.897985 
1971.000000	98.898627 
1970.000000	98.899180 
1969.000000	98.899566 
1968.000000	98.899805 
1967.000000	98.899997 
1966.000000	98.900285 
1965.000000	98.900729 
1964.000000	98.901303 
1963.000000	98.901955 
1962.000000	98.902665 
1961.000000	98.903419 
1960.000000	98.904211 
1959.000000	98.905074 
1958.000000	98.906057 
1957.000000	98.907150 
1956.000000	98.908265 
1955.000000	98.909292 
1954.000000	98.910165 
1953.000000	98.910895 
1952.000000	98.911574 
1951.000000	98.912311 
1950.000000	98.913145 
1949.000000	98.914061 
1948.000000	98.915100 
1947.000000	98.916324 
1946.000000	98.917547 
1945.000000	98.918258 
1944.000000	98.918102 
1943.000000	98.917553 
1942.000000	98.917731 
1941.000000	98.919256 
1940.000000	98.921633 
1939.000000	98.923803 
1938.000000	98.925323 
1937.000000	98.926664 
1936.000000	98.928441 
1935.000000	98.930477 
1934.000000	98.931946 
1933.000000	98.932602 
1932.000000	98.933475 
1931.000000	98.935905 
1930.000000	98.939781 
1929.000000	98.943191 
1928.000000	98.944586 
1927.000000	98.944415 
1926.000000	98.944442 
1925.000000	98.945552 
1924.000000	98.947101 
1923.000000	98.948437 
1922.000000	98.949796 
1921.000000	98.951567 
1920.000000	98.953413 
1919.000000	98.954487 
1918.000000	98.954093 
1917.000000	98.952273 
1916.000000	98.949966 
1915.000000	98.948238 
1914.000000	98.947519 
1913.000000	98.947650 
1912.000000	98.948267 
1911.000000	98.949226 
1910.000000	98.950511 
1909.000000	98.952138 
1908.000000	98.954393 
1907.000000	98.957403 
1906.000000	98.960465 
1905.000000	98.962132 
1904.000000	98.961648 
1903.000000	98.960073 
1902.000000	98.959188 
1901.000000	98.959677 
1900.000000	98.960923 
1899.000000	98.962009 
1898.000000	98.962518 
1897.000000	98.962611 
1896.000000	98.962838 
1895.000000	98.963730 
1894.000000	98.965012 
1893.000000	98.965896 
1892.000000	98.966406 
1891.000000	98.967496 
1890.000000	98.969318 
1889.000000	98.970414 
1888.000000	98.969821 
1887.000000	98.968565 
1886.000000	98.968125 
1885.000000	98.968973 
1884.000000	98.970905 
1883.000000	98.973805 
1882.000000	98.976978 
1881.000000	98.979076 
1880.000000	98.979869 
1879.000000	98.980699 
1878.000000	98.982734 
1877.000000	98.985531 
1876.000000	98.987835 
1875.000000	98.989264 
1874.000000	98.990142 
1873.000000	98.990285 
1872.000000	98.989215 
1871.000000	98.987056 
1870.000000	98.984273 
1869.000000	98.981016 
1868.000000	98.978112 
1867.000000	98.977268 
1866.000000	98.978686 
1865.000000	98.980403 
1864.000000	98.980536 
1863.000000	98.979142 
1862.000000	98.977712 
1861.000000	98.977549 
1860.000000	98.979223 
1859.000000	98.982812 
1858.000000	98.987366 
1857.000000	98.990981 
1856.000000	98.992661 
1855.000000	98.993402 
1854.000000	98.994590 
1853.000000	98.996097 
1852.000000	98.997108 
1851.000000	98.997483 
1850.000000	98.997841 
1849.000000	98.998772 
1848.000000	99.000234 
1847.000000	99.001600 
1846.000000	99.001952 
1845.000000	99.000806 
1844.000000	98.999001 
1843.000000	98.998408 
1842.000000	98.999612 
1841.000000	99.001417 
1840.000000	99.002637 
1839.000000	99.003150 
1838.000000	99.003507 
1837.000000	99.004016 
1836.000000	99.004597 
1835.000000	99.005264 
1834.000000	99.006088 
1833.000000	99.006877 
1832.000000	99.007250 
1831.000000	99.006989 
1830.000000	99.006410 
1829.000000	99.006268 
1828.000000	99.006868 
1827.000000	99.007779 
1826.000000	99.008507 
1825.000000	99.009031 
1824.000000	99.009611 
1823.000000	99.010312 
1822.000000	99.010863 
1821.000000	99.011045 
1820.000000	99.011050 
1819.000000	99.011345 
1818.000000	99.012194 
1817.000000	99.013341 
1816.000000	99.014255 
1815.000000	99.014830 
1814.000000	99.015376 
1813.000000	99.016118 
1812.000000	99.016906 
1811.000000	99.017574 
1810.000000	99.018198 
1809.000000	99.018695 
1808.000000	99.018828 
1807.000000	99.018664 
1806.000000	99.018547 
1805.000000	99.018644 
1804.000000	99.018875 
1803.000000	99.019199 
1802.000000	99.019617 
1801.000000	99.020023 
1800.000000	99.020258 
1799.000000	99.020388 
1798.000000	99.020631 
1797.000000	99.021023 
1796.000000	99.021457 
1795.000000	99.021852 
1794.000000	99.022169 
1793.000000	99.022359 
1792.000000	99.022415 
1791.000000	99.022467 
1790.000000	99.022631 
1789.000000	99.022868 
1788.000000	99.023114 
1787.000000	99.023346 
1786.000000	99.023557 
1785.000000	99.023734 
1784.000000	99.023880 
1783.000000	99.024006 
1782.000000	99.024113 
1781.000000	99.024207 
1780.000000	99.024294 
1779.000000	99.024381 
1778.000000	99.024471 
1777.000000	99.024563 
1776.000000	99.024656 
1775.000000	99.024744 
1774.000000	99.024825 
1773.000000	99.024903 
1772.000000	99.024984 
1771.000000	99.025076 
1770.000000	99.025180 
1769.000000	99.025291 
1768.000000	99.025400 
1767.000000	99.025503 
1766.000000	99.025607 
1765.000000	99.025721 
1764.000000	99.025850 
1763.000000	99.025992 
1762.000000	99.026139 
1761.000000	99.026288 
1760.000000	99.026443 
1759.000000	99.026606 
1758.000000	99.026779 
1757.000000	99.026956 
1756.000000	99.027132 
1755.000000	99.027299 
1754.000000	99.027455 
1753.000000	99.027604 
1752.000000	99.027751 
1751.000000	99.027898 
1750.000000	99.028044 
1749.000000	99.028193 
1748.000000	99.028352 
1747.000000	99.028524 
1746.000000	99.028702 
1745.000000	99.028880 
1744.000000	99.029056 
1743.000000	99.029240 
1742.000000	99.029439 
1741.000000	99.029659 
1740.000000	99.029896 
1739.000000	99.030145 
1738.000000	99.030401 
1737.000000	99.030657 
1736.000000	99.030911 
1735.000000	99.031162 
1734.000000	99.031405 
1733.000000	99.031636 
1732.000000	99.031854 
1731.000000	99.032065 
1730.000000	99.032274 
1729.000000	99.032483 
1728.000000	99.032694 
1727.000000	99.032910 
1726.000000	99.033131 
1725.000000	99.033357 
1724.000000	99.033587 
1723.000000	99.033816 
1722.000000	99.034036 
1721.000000	99.034245 
1720.000000	99.034443 
1719.000000	99.034633 
1718.000000	99.034814 
1717.000000	99.034983 
1716.000000	99.035136 
1715.000000	99.035281 
1714.000000	99.035425 
1713.000000	99.035571 
1712.000000	99.035717 
1711.000000	99.035863 
1710.000000	99.036009 
1709.000000	99.036153 
1708.000000	99.036294 
1707.000000	99.036429 
1706.000000	99.036552 
1705.000000	99.036660 
1704.000000	99.036752 
1703.000000	99.036834 
1702.000000	99.036912 
1701.000000	99.036988 
1700.000000	99.037055 
1699.000000	99.037110 
1698.000000	99.037156 
1697.000000	99.037194 
1696.000000	99.037225 
1695.000000	99.037251 
1694.000000	99.037278 
1693.000000	99.037303 
1692.000000	99.037326 
1691.000000	99.037349 
1690.000000	99.037373 
1689.000000	99.037398 
1688.000000	99.037417 
1687.000000	99.037422 
1686.000000	99.037408 
1685.000000	99.037370 
1684.000000	99.037305 
1683.000000	99.037223 
1682.000000	99.037138 
1681.000000	99.037056 
1680.000000	99.036980 
1679.000000	99.036912 
1678.000000	99.036850 
1677.000000	99.036792 
1676.000000	99.036740 
1675.000000	99.036696 
1674.000000	99.036657 
1673.000000	99.036618 
1672.000000	99.036570 
1671.000000	99.036516 
1670.000000	99.036454 
1669.000000	99.036377 
1668.000000	99.036298 
1667.000000	99.036233 
1666.000000	99.036166 
1665.000000	99.036085 
1664.000000	99.036009 
1663.000000	99.035975 
1662.000000	99.035961 
1661.000000	99.035915 
1660.000000	99.035860 
1659.000000	99.035856 
1658.000000	99.035906 
1657.000000	99.035936 
1656.000000	99.035904 
1655.000000	99.035803 
1654.000000	99.035772 
1653.000000	99.035512 
1652.000000	99.035077 
1651.000000	99.035043 
1650.000000	99.035114 
1649.000000	99.034938 
1648.000000	99.034686 
1647.000000	99.034472 
1646.000000	99.034323 
1645.000000	99.034353 
1644.000000	99.034587 
1643.000000	99.034936 
1642.000000	99.035274 
1641.000000	99.035523 
1640.000000	99.035737 
1639.000000	99.035920 
1638.000000	99.036004 
1637.000000	99.036095 
1636.000000	99.036294 
1635.000000	99.036332 
1634.000000	99.036332 
1633.000000	99.036278 
1632.000000	99.035745 
1631.000000	99.034852 
1630.000000	99.033929 
1629.000000	99.033266 
1628.000000	99.033226 
1627.000000	99.033916 
1626.000000	99.034654 
1625.000000	99.034711 
1624.000000	99.034305 
1623.000000	99.034147 
1622.000000	99.034357 
1621.000000	99.034633 
1620.000000	99.034937 
1619.000000	99.035342 
1618.000000	99.035944 
1617.000000	99.036319 
1616.000000	99.036585 
1615.000000	99.037419 
1614.000000	99.038338 
1613.000000	99.038692 
1612.000000	99.039114 
1611.000000	99.040323 
1610.000000	99.041581 
1609.000000	99.041803 
1608.000000	99.041300 
1607.000000	99.041089 
1606.000000	99.041257 
1605.000000	99.041562 
1604.000000	99.042236 
1603.000000	99.043229 
1602.000000	99.043994 
1601.000000	99.044326 
1600.000000	99.044714 
1599.000000	99.045474 
1598.000000	99.046302 
1597.000000	99.046865 
1596.000000	99.047182 
1595.000000	99.047324 
1594.000000	99.047219 
1593.000000	99.046978 
1592.000000	99.046984 
1591.000000	99.047388 
1590.000000	99.047899 
1589.000000	99.048250 
1588.000000	99.048566 
1587.000000	99.049030 
1586.000000	99.049498 
1585.000000	99.049713 
1584.000000	99.049763 
1583.000000	99.049811 
1582.000000	99.049839 
1581.000000	99.049844 
1580.000000	99.049865 
1579.000000	99.049895 
1578.000000	99.049931 
1577.000000	99.049978 
1576.000000	99.050027 
1575.000000	99.050084 
1574.000000	99.050145 
1573.000000	99.050201 
1572.000000	99.050249 
1571.000000	99.050292 
1570.000000	99.050334 
1569.000000	99.050376 
1568.000000	99.050418 
1567.000000	99.050458 
1566.000000	99.050495 
1565.000000	99.050526 
1564.000000	99.050558 
1563.000000	99.050592 
1562.000000	99.050627 
1561.000000	99.050661 
1560.000000	99.050693 
1559.000000	99.050719 
1558.000000	99.050736 
1557.000000	99.050753 
1556.000000	99.050773 
1555.000000	99.050793 
1554.000000	99.050810 
1553.000000	99.050828 
1552.000000	99.050848 
1551.000000	99.050871 
1550.000000	99.050897 
1549.000000	99.050925 
1548.000000	99.050951 
1547.000000	99.050971 
1546.000000	99.050983 
1545.000000	99.050987 
1544.000000	99.050992 
1543.000000	99.051008 
1542.000000	99.051039 
1541.000000	99.051077 
1540.000000	99.051103 
1539.000000	99.051107 
1538.000000	99.051091 
1537.000000	99.051059 
1536.000000	99.051015 
1535.000000	99.050965 
1534.000000	99.050910 
1533.000000	99.050845 
1532.000000	99.050769 
1531.000000	99.050687 
1530.000000	99.050601 
1529.000000	99.050507 
1528.000000	99.050398 
1527.000000	99.050271 
1526.000000	99.050124 
1525.000000	99.049957 
1524.000000	99.049770 
1523.000000	99.049568 
1522.000000	99.049365 
1521.000000	99.049147 
1520.000000	99.048871 
1519.000000	99.048511 
1518.000000	99.048074 
1517.000000	99.047610 
1516.000000	99.047177 
1515.000000	99.046796 
1514.000000	99.046441 
1513.000000	99.046118 
1512.000000	99.045831 
1511.000000	99.045519 
1510.000000	99.045146 
1509.000000	99.044712 
1508.000000	99.044318 
1507.000000	99.043939 
1506.000000	99.043504 
1505.000000	99.043052 
1504.000000	99.042588 
1503.000000	99.042079 
1502.000000	99.041585 
1501.000000	99.041145 
1500.000000	99.040649 
1499.000000	99.039931 
1498.000000	99.039035 
1497.000000	99.038108 
1496.000000	99.037173 
1495.000000	99.036533 
1494.000000	99.036574 
1493.000000	99.037232 
1492.000000	99.037953 
1491.000000	99.038107 
1490.000000	99.037390 
1489.000000	99.035980 
1488.000000	99.034277 
1487.000000	99.032798 
1486.000000	99.031768 
1485.000000	99.030776 
1484.000000	99.029574 
1483.000000	99.028352 
1482.000000	99.027505 
1481.000000	99.027079 
1480.000000	99.026612 
1479.000000	99.025748 
1478.000000	99.024632 
1477.000000	99.023646 
1476.000000	99.023011 
1475.000000	99.023090 
1474.000000	99.023946 
1473.000000	99.024517 
1472.000000	99.023517 
1471.000000	99.021733 
1470.000000	99.020813 
1469.000000	99.020575 
1468.000000	99.019827 
1467.000000	99.018282 
1466.000000	99.016848 
1465.000000	99.016377 
1464.000000	99.016816 
1463.000000	99.017354 
1462.000000	99.017508 
1461.000000	99.016953 
1460.000000	99.015579 
1459.000000	99.013152 
1458.000000	99.009536 
1457.000000	99.003676 
1456.000000	98.996223 
1455.000000	98.990077 
1454.000000	98.986370 
1453.000000	98.986152 
1452.000000	98.990125 
1451.000000	98.995986 
1450.000000	99.000185 
1449.000000	99.001002 
1448.000000	98.998811 
1447.000000	98.995983 
1446.000000	98.994345 
1445.000000	98.994594 
1444.000000	98.996306 
1443.000000	98.998083 
1442.000000	98.999832 
1441.000000	99.002466 
1440.000000	99.005494 
1439.000000	99.006144 
1438.000000	99.004127 
1437.000000	99.001800 
1436.000000	99.000296 
1435.000000	98.998915 
1434.000000	98.997076 
1433.000000	98.994533 
1432.000000	98.991445 
1431.000000	98.987416 
1430.000000	98.982731 
1429.000000	98.979276 
1428.000000	98.977375 
1427.000000	98.975323 
1426.000000	98.971132 
1425.000000	98.966138 
1424.000000	98.963345 
1423.000000	98.962250 
1422.000000	98.959852 
1421.000000	98.954324 
1420.000000	98.946019 
1419.000000	98.935578 
1418.000000	98.925914 
1417.000000	98.919628 
1416.000000	98.914306 
1415.000000	98.906785 
1414.000000	98.897168 
1413.000000	98.888123 
1412.000000	98.881626 
1411.000000	98.876678 
1410.000000	98.871696 
1409.000000	98.866911 
1408.000000	98.863378 
1407.000000	98.862166 
1406.000000	98.863459 
1405.000000	98.866891 
1404.000000	98.871733 
1403.000000	98.876763 
1402.000000	98.881729 
1401.000000	98.887481 
1400.000000	98.894319 
1399.000000	98.899949 
1398.000000	98.900800 
1397.000000	98.894828 
1396.000000	98.882906 
1395.000000	98.870581 
1394.000000	98.866065 
1393.000000	98.873164 
1392.000000	98.887720 
1391.000000	98.901836 
1390.000000	98.910514 
1389.000000	98.913583 
1388.000000	98.913233 
1387.000000	98.911377 
1386.000000	98.909297 
1385.000000	98.908254 
1384.000000	98.909008 
1383.000000	98.910975 
1382.000000	98.912977 
1381.000000	98.914604 
1380.000000	98.916787 
1379.000000	98.920690 
1378.000000	98.926342 
1377.000000	98.932725 
1376.000000	98.938683 
1375.000000	98.943392 
1374.000000	98.946732 
1373.000000	98.950013 
1372.000000	98.954811 
1371.000000	98.961252 
1370.000000	98.967928 
1369.000000	98.973601 
1368.000000	98.978244 
1367.000000	98.982339 
1366.000000	98.986281 
1365.000000	98.990479 
1364.000000	98.995272 
1363.000000	99.000221 
1362.000000	99.004244 
1361.000000	99.007087 
1360.000000	99.009906 
1359.000000	99.014020 
1358.000000	99.019625 
1357.000000	99.025911 
1356.000000	99.031886 
1355.000000	99.036926 
1354.000000	99.041249 
1353.000000	99.045823 
1352.000000	99.050887 
1351.000000	99.055249 
1350.000000	99.057165 
1349.000000	99.057293 
1348.000000	99.058066 
1347.000000	99.060285 
1346.000000	99.062474 
1345.000000	99.063518 
1344.000000	99.064119 
1343.000000	99.065025 
1342.000000	99.065887 
1341.000000	99.066666 
1340.000000	99.068310 
1339.000000	99.070783 
1338.000000	99.072506 
1337.000000	99.072996 
1336.000000	99.073839 
1335.000000	99.076099 
1334.000000	99.078565 
1333.000000	99.079642 
1332.000000	99.079596 
1331.000000	99.079760 
1330.000000	99.080509 
1329.000000	99.081407 
1328.000000	99.082213 
1327.000000	99.082579 
1326.000000	99.081623 
1325.000000	99.079557 
1324.000000	99.078298 
1323.000000	99.079141 
1322.000000	99.081169 
1321.000000	99.082816 
1320.000000	99.084025 
1319.000000	99.085764 
1318.000000	99.088195 
1317.000000	99.090224 
1316.000000	99.090522 
1315.000000	99.088443 
1314.000000	99.084584 
1313.000000	99.080907 
1312.000000	99.079443 
1311.000000	99.080394 
1310.000000	99.082145 
1309.000000	99.083255 
1308.000000	99.083551 
1307.000000	99.083365 
1306.000000	99.082630 
1305.000000	99.081522 
1304.000000	99.080738 
1303.000000	99.080545 
1302.000000	99.080597 
1301.000000	99.081051 
1300.000000	99.082696 
1299.000000	99.085340 
1298.000000	99.087407 
1297.000000	99.087887 
1296.000000	99.087668 
1295.000000	99.087949 
1294.000000	99.088319 
1293.000000	99.087463 
1292.000000	99.084942 
1291.000000	99.081566 
1290.000000	99.078730 
1289.000000	99.077829 
1288.000000	99.079219 
1287.000000	99.080999 
1286.000000	99.080204 
1285.000000	99.076058 
1284.000000	99.070961 
1283.000000	99.067728 
1282.000000	99.066326 
1281.000000	99.064535 
1280.000000	99.061143 
1279.000000	99.056973 
1278.000000	99.053338 
1277.000000	99.050804 
1276.000000	99.049116 
1275.000000	99.047333 
1274.000000	99.044275 
1273.000000	99.039644 
1272.000000	99.034542 
1271.000000	99.030284 
1270.000000	99.026880 
1269.000000	99.023284 
1268.000000	99.018900 
1267.000000	99.014188 
1266.000000	99.009967 
1265.000000	99.006621 
1264.000000	99.003862 
1263.000000	99.000934 
1262.000000	98.997155 
1261.000000	98.992633 
1260.000000	98.988381 
1259.000000	98.985331 
1258.000000	98.983368 
1257.000000	98.981625 
1256.000000	98.979558 
1255.000000	98.977426 
1254.000000	98.975700 
1253.000000	98.974342 
1252.000000	98.972841 
1251.000000	98.970822 
1250.000000	98.968512 
1249.000000	98.966612 
1248.000000	98.965697 
1247.000000	98.965628 
1246.000000	98.965416 
1245.000000	98.963755 
1244.000000	98.959978 
1243.000000	98.954798 
1242.000000	98.950293 
1241.000000	98.948357 
1240.000000	98.949133 
1239.000000	98.950712 
1238.000000	98.950726 
1237.000000	98.948561 
1236.000000	98.945415 
1235.000000	98.942585 
1234.000000	98.940092 
1233.000000	98.937233 
1232.000000	98.933691 
1231.000000	98.929659 
1230.000000	98.925491 
1229.000000	98.921779 
1228.000000	98.919289 
1227.000000	98.918195 
1226.000000	98.917624 
1225.000000	98.916503 
1224.000000	98.914678 
1223.000000	98.912721 
1222.000000	98.910920 
1221.000000	98.909048 
1220.000000	98.907016 
1219.000000	98.905209 
1218.000000	98.904102 
1217.000000	98.903673 
1216.000000	98.903056 
1215.000000	98.900853 
1214.000000	98.896263 
1213.000000	98.890070 
1212.000000	98.884031 
1211.000000	98.879057 
1210.000000	98.874710 
1209.000000	98.870497 
1208.000000	98.866621 
1207.000000	98.863105 
1206.000000	98.859250 
1205.000000	98.854555 
1204.000000	98.849292 
1203.000000	98.843680 
1202.000000	98.837617 
1201.000000	98.831807 
1200.000000	98.827631 
1199.000000	98.824848 
1198.000000	98.821033 
1197.000000	98.814687 
1196.000000	98.807130 
1195.000000	98.800238 
1194.000000	98.793824 
1193.000000	98.786466 
1192.000000	98.777882 
1191.000000	98.768935 
1190.000000	98.760162 
1189.000000	98.751848 
1188.000000	98.744767 
1187.000000	98.739289 
1186.000000	98.734307 
1185.000000	98.728472 
1184.000000	98.722031 
1183.000000	98.716172 
1182.000000	98.711079 
1181.000000	98.706012 
1180.000000	98.700808 
1179.000000	98.695792 
1178.000000	98.690563 
1177.000000	98.684339 
1176.000000	98.677144 
1175.000000	98.669138 
1174.000000	98.659154 
1173.000000	98.645892 
1172.000000	98.630767 
1171.000000	98.617544 
1170.000000	98.608150 
1169.000000	98.600316 
1168.000000	98.590361 
1167.000000	98.577568 
1166.000000	98.564935 
1165.000000	98.556057 
1164.000000	98.552104 
1163.000000	98.551575 
1162.000000	98.552315 
1161.000000	98.553684 
1160.000000	98.556551 
1159.000000	98.561010 
1158.000000	98.564531 
1157.000000	98.563103 
1156.000000	98.554367 
1155.000000	98.539784 
1154.000000	98.524285 
1153.000000	98.513193 
1152.000000	98.508004 
1151.000000	98.504701 
1150.000000	98.497314 
1149.000000	98.484040 
1148.000000	98.468967 
1147.000000	98.457021 
1146.000000	98.448219 
1145.000000	98.438406 
1144.000000	98.424629 
1143.000000	98.407970 
1142.000000	98.391744 
1141.000000	98.378664 
1140.000000	98.369550 
1139.000000	98.362971 
1138.000000	98.355786 
1137.000000	98.345468 
1136.000000	98.332265 
1135.000000	98.318191 
1134.000000	98.303999 
1133.000000	98.288232 
1132.000000	98.269504 
1131.000000	98.248812 
1130.000000	98.229311 
1129.000000	98.213876 
1128.000000	98.202449 
1127.000000	98.191394 
1126.000000	98.176428 
1125.000000	98.157172 
1124.000000	98.137917 
1123.000000	98.122575 
1122.000000	98.109735 
1121.000000	98.094625 
1120.000000	98.075311 
1119.000000	98.054652 
1118.000000	98.036057 
1117.000000	98.019363 
1116.000000	98.001911 
1115.000000	97.982225 
1114.000000	97.961554 
1113.000000	97.942450 
1112.000000	97.926224 
1111.000000	97.911256 
1110.000000	97.893837 
1109.000000	97.871621 
1108.000000	97.846523 
1107.000000	97.823168 
1106.000000	97.804045 
1105.000000	97.787285 
1104.000000	97.769118 
1103.000000	97.747881 
1102.000000	97.725480 
1101.000000	97.705522 
1100.000000	97.689816 
1099.000000	97.676631 
1098.000000	97.662411 
1097.000000	97.645688 
1096.000000	97.628625 
1095.000000	97.613911 
1094.000000	97.600841 
1093.000000	97.585447 
1092.000000	97.564164 
1091.000000	97.536576 
1090.000000	97.505416 
1089.000000	97.474893 
1088.000000	97.448243 
1087.000000	97.425623 
1086.000000	97.404488 
1085.000000	97.382921 
1084.000000	97.361948 
1083.000000	97.343341 
1082.000000	97.326150 
1081.000000	97.307427 
1080.000000	97.286115 
1079.000000	97.264386 
1078.000000	97.245285 
1077.000000	97.230662 
1076.000000	97.220951 
1075.000000	97.214988 
1074.000000	97.210368 
1073.000000	97.205849 
1072.000000	97.202424 
1071.000000	97.199402 
1070.000000	97.190552 
1069.000000	97.168581 
1068.000000	97.134909 
1067.000000	97.102281 
1066.000000	97.084539 
1065.000000	97.084928 
1064.000000	97.095272 
1063.000000	97.103677 
1062.000000	97.102094 
1061.000000	97.088357 
1060.000000	97.065175 
1059.000000	97.038698 
1058.000000	97.015714 
1057.000000	96.999973 
1056.000000	96.990865 
1055.000000	96.985571 
1054.000000	96.982068 
1053.000000	96.979828 
1052.000000	96.978058 
1051.000000	96.974632 
1050.000000	96.967983 
1049.000000	96.959381 
1048.000000	96.951523 
1047.000000	96.945053 
1046.000000	96.938395 
1045.000000	96.930972 
1044.000000	96.924318 
1043.000000	96.919482 
1042.000000	96.915570 
1041.000000	96.911933 
1040.000000	96.909784 
1039.000000	96.910426 
1038.000000	96.914046 
1037.000000	96.921581 
1036.000000	96.935029 
1035.000000	96.953574 
1034.000000	96.971704 
1033.000000	96.984011 
1032.000000	96.989867 
1031.000000	96.990981 
1030.000000	96.987507 
1029.000000	96.980741 
1028.000000	96.977562 
1027.000000	96.986543 
1026.000000	97.008862 
1025.000000	97.036365 
1024.000000	97.059214 
1023.000000	97.072766 
1022.000000	97.077782 
1021.000000	97.078291 
1020.000000	97.080027 
1019.000000	97.087311 
1018.000000	97.099301 
1017.000000	97.111061 
1016.000000	97.119281 
1015.000000	97.125413 
1014.000000	97.133058 
1013.000000	97.144101 
1012.000000	97.157620 
1011.000000	97.170887 
1010.000000	97.181418 
1009.000000	97.189699 
1008.000000	97.199616 
1007.000000	97.214477 
1006.000000	97.233010 
1005.000000	97.251067 
1004.000000	97.266872 
1003.000000	97.282536 
1002.000000	97.300585 
1001.000000	97.320990 
1000.000000	97.341465 
999.000000	 97.358892 
998.000000	 97.371098 
997.000000	 97.379509 
996.000000	 97.389757 
995.000000	 97.406958 
994.000000	 97.429878 
993.000000	 97.451809 
992.000000	 97.468040 
991.000000	 97.480415 
990.000000	 97.493596 
989.000000	 97.509005 
988.000000	 97.524128 
987.000000	 97.536689 
986.000000	 97.548096 
985.000000	 97.562915 
984.000000	 97.585012 
983.000000	 97.613436 
982.000000	 97.642259 
981.000000	 97.665705 
980.000000	 97.683536 
979.000000	 97.700633 
978.000000	 97.721675 
977.000000	 97.747267 
976.000000	 97.774679 
975.000000	 97.800896 
974.000000	 97.825148 
973.000000	 97.849500 
972.000000	 97.876650 
971.000000	 97.906385 
970.000000	 97.935068 
969.000000	 97.959723 
968.000000	 97.981506 
967.000000	 98.003830 
966.000000	 98.028042 
965.000000	 98.052348 
964.000000	 98.074090 
963.000000	 98.091803 
962.000000	 98.106373 
961.000000	 98.121596 
960.000000	 98.141751 
959.000000	 98.166428 
958.000000	 98.189488 
957.000000	 98.205860 
956.000000	 98.217941 
955.000000	 98.232540 
954.000000	 98.252228 
953.000000	 98.272779 
952.000000	 98.289021 
951.000000	 98.300106 
950.000000	 98.308779 
949.000000	 98.318037 
948.000000	 98.328906 
947.000000	 98.339506 
946.000000	 98.346172 
945.000000	 98.347268 
944.000000	 98.345824 
943.000000	 98.346795 
942.000000	 98.351936 
941.000000	 98.359050 
940.000000	 98.365676 
939.000000	 98.371384 
938.000000	 98.376918 
937.000000	 98.383246 
936.000000	 98.391319 
935.000000	 98.401053 
934.000000	 98.410949 
933.000000	 98.420343 
932.000000	 98.430996 
931.000000	 98.444128 
930.000000	 98.456713 
929.000000	 98.463701 
928.000000	 98.463925 
927.000000	 98.461461 
926.000000	 98.461073 
925.000000	 98.464323 
924.000000	 98.470270 
923.000000	 98.477389 
922.000000	 98.483979 
921.000000	 98.488742 
920.000000	 98.491845 
919.000000	 98.494206 
918.000000	 98.495554 
917.000000	 98.494798 
916.000000	 98.492583 
915.000000	 98.491660 
914.000000	 98.493781 
913.000000	 98.497495 
912.000000	 98.500107 
911.000000	 98.501366 
910.000000	 98.504502 
909.000000	 98.513376 
908.000000	 98.528450 
907.000000	 98.545418 
906.000000	 98.558470 
905.000000	 98.565798 
904.000000	 98.571126 
903.000000	 98.579454 
902.000000	 98.592206 
901.000000	 98.606934 
900.000000	 98.620422 
899.000000	 98.631128 
898.000000	 98.639411 
897.000000	 98.646568 
896.000000	 98.653381 
895.000000	 98.659362 
894.000000	 98.664277 
893.000000	 98.670274 
892.000000	 98.680591 
891.000000	 98.695566 
890.000000	 98.711794 
889.000000	 98.726234 
888.000000	 98.739148 
887.000000	 98.751666 
886.000000	 98.763110 
885.000000	 98.772831 
884.000000	 98.782143 
883.000000	 98.791546 
882.000000	 98.798308 
881.000000	 98.800434 
880.000000	 98.801465 
879.000000	 98.807252 
878.000000	 98.818606 
877.000000	 98.831312 
876.000000	 98.842692 
875.000000	 98.853527 
874.000000	 98.863492 
873.000000	 98.869895 
872.000000	 98.872339 
871.000000	 98.874548 
870.000000	 98.879925 
869.000000	 98.888534 
868.000000	 98.899469 
867.000000	 98.912603 
866.000000	 98.926663 
865.000000	 98.939143 
864.000000	 98.949994 
863.000000	 98.962230 
862.000000	 98.976757 
861.000000	 98.989567 
860.000000	 98.996845 
859.000000	 99.000543 
858.000000	 99.005870 
857.000000	 99.014428 
856.000000	 99.023176 
855.000000	 99.029680 
854.000000	 99.035182 
853.000000	 99.041874 
852.000000	 99.049289 
851.000000	 99.054931 
850.000000	 99.057911 
849.000000	 99.060571 
848.000000	 99.066113 
847.000000	 99.075070 
846.000000	 99.084653 
845.000000	 99.091375 
844.000000	 99.093455 
843.000000	 99.091178 
842.000000	 99.086792 
841.000000	 99.084091 
840.000000	 99.085515 
839.000000	 99.088480 
838.000000	 99.087030 
837.000000	 99.078987 
836.000000	 99.069179 
835.000000	 99.063286 
834.000000	 99.060894 
833.000000	 99.058135 
832.000000	 99.054913 
831.000000	 99.054596 
830.000000	 99.057249 
829.000000	 99.058741 
828.000000	 99.058012 
827.000000	 99.060274 
826.000000	 99.069733 
825.000000	 99.082615 
824.000000	 99.091190 
823.000000	 99.092585 
822.000000	 99.090270 
821.000000	 99.088175 
820.000000	 99.086525 
819.000000	 99.083918 
818.000000	 99.081412 
817.000000	 99.082478 
816.000000	 99.087689 
815.000000	 99.090617 
814.000000	 99.082557 
813.000000	 99.062552 
812.000000	 99.039606 
811.000000	 99.021994 
810.000000	 99.006462 
809.000000	 98.982233 
808.000000	 98.944297 
807.000000	 98.898384 
806.000000	 98.852979 
805.000000	 98.810612 
804.000000	 98.769089 
803.000000	 98.728152 
802.000000	 98.692125 
801.000000	 98.666750 
800.000000	 98.654510 
799.000000	 98.652671 
798.000000	 98.655867 
797.000000	 98.661212 
796.000000	 98.669934 
795.000000	 98.683229 
794.000000	 98.698624 
793.000000	 98.712285 
792.000000	 98.723002 
791.000000	 98.731773 
790.000000	 98.739460 
789.000000	 98.746689 
788.000000	 98.753075 
787.000000	 98.753901 
786.000000	 98.741216 
785.000000	 98.713089 
784.000000	 98.680031 
783.000000	 98.657223 
782.000000	 98.650486 
781.000000	 98.653347 
780.000000	 98.656171 
779.000000	 98.654206 
778.000000	 98.648411 
777.000000	 98.644055 
776.000000	 98.648749 
775.000000	 98.666649 
774.000000	 98.693070 
773.000000	 98.718305 
772.000000	 98.737977 
771.000000	 98.756040 
770.000000	 98.776893 
769.000000	 98.798439 
768.000000	 98.814523 
767.000000	 98.821893 
766.000000	 98.823654 
765.000000	 98.827232 
764.000000	 98.838270 
763.000000	 98.854522 
762.000000	 98.866595 
761.000000	 98.867500 
760.000000	 98.860883 
759.000000	 98.857347 
758.000000	 98.863119 
757.000000	 98.874958 
756.000000	 98.885523 
755.000000	 98.890421 
754.000000	 98.890189 
753.000000	 98.888703 
752.000000	 98.890407 
751.000000	 98.897274 
750.000000	 98.907589 
749.000000	 98.918378 
748.000000	 98.928553 
747.000000	 98.938556 
746.000000	 98.948169 
745.000000	 98.956505 
744.000000	 98.963393 
743.000000	 98.969124 
742.000000	 98.973618 
741.000000	 98.977323 
740.000000	 98.981866 
739.000000	 98.988196 
738.000000	 98.995014 
737.000000	 99.000394 
736.000000	 99.003902 
735.000000	 99.006164 
734.000000	 99.007589 
733.000000	 99.008565 
732.000000	 99.010444 
731.000000	 99.014848 
730.000000	 99.021937 
729.000000	 99.030044 
728.000000	 99.036950 
727.000000	 99.041501 
726.000000	 99.043727 
725.000000	 99.044527 
724.000000	 99.045449 
723.000000	 99.047426 
722.000000	 99.049945 
721.000000	 99.052032 
720.000000	 99.053827 
719.000000	 99.056463 
718.000000	 99.060400 
717.000000	 99.064647 
716.000000	 99.067761 
715.000000	 99.069126 
714.000000	 99.069251 
713.000000	 99.069258 
712.000000	 99.070204 
711.000000	 99.072391 
710.000000	 99.075096 
709.000000	 99.077123 
708.000000	 99.077901 
707.000000	 99.077807 
706.000000	 99.077504 
705.000000	 99.077253 
704.000000	 99.077021 
703.000000	 99.076877 
702.000000	 99.077009 
701.000000	 99.077501 
700.000000	 99.078193 
699.000000	 99.078770 
698.000000	 99.079055 
697.000000	 99.079206 
696.000000	 99.079545 
695.000000	 99.080145 
694.000000	 99.080828 
693.000000	 99.081409 
692.000000	 99.081906 
691.000000	 99.082396 
690.000000	 99.082891 
689.000000	 99.083386 
688.000000	 99.083883 
687.000000	 99.084354 
686.000000	 99.084754 
685.000000	 99.085059 
684.000000	 99.085283 
683.000000	 99.085466 
682.000000	 99.085634 
681.000000	 99.085780 
680.000000	 99.085884 
679.000000	 99.085934 
678.000000	 99.085936 
677.000000	 99.085906 
676.000000	 99.085865 
675.000000	 99.085828 
674.000000	 99.085792 
673.000000	 99.085741 
672.000000	 99.085668 
671.000000	 99.085580 
670.000000	 99.085490 
669.000000	 99.085412 
668.000000	 99.085366 
667.000000	 99.085377 
666.000000	 99.085455 
665.000000	 99.085582 
664.000000	 99.085729 
663.000000	 99.085879 
662.000000	 99.086015 
661.000000	 99.086119 
660.000000	 99.086163 
659.000000	 99.086121 
658.000000	 99.085976 
657.000000	 99.085730 
656.000000	 99.085426 
655.000000	 99.085130 
654.000000	 99.084888 
653.000000	 99.084692 
652.000000	 99.084496 
651.000000	 99.084262 
650.000000	 99.083992 

