4000.000000	99.895072  
3999.000000	99.893013  
3998.000000	99.891426  
3997.000000	99.892257  
3996.000000	99.895203  
3995.000000	99.898280  
3994.000000	99.899961  
3993.000000	99.900280  
3992.000000	99.900033  
3991.000000	99.899424  
3990.000000	99.897740  
3989.000000	99.894222  
3988.000000	99.889311  
3987.000000	99.884958  
3986.000000	99.883358  
3985.000000	99.885163  
3984.000000	99.889026  
3983.000000	99.893074  
3982.000000	99.896571  
3981.000000	99.900022  
3980.000000	99.904069  
3979.000000	99.908573  
3978.000000	99.912600  
3977.000000	99.915003  
3976.000000	99.915063  
3975.000000	99.912727  
3974.000000	99.908317  
3973.000000	99.902368  
3972.000000	99.896120  
3971.000000	99.891852  
3970.000000	99.891951  
3969.000000	99.897000  
3968.000000	99.904927  
3967.000000	99.912281  
3966.000000	99.916223  
3965.000000	99.915718  
3964.000000	99.911845  
3963.000000	99.907412  
3962.000000	99.905302  
3961.000000	99.906117  
3960.000000	99.907461  
3959.000000	99.906093  
3958.000000	99.901185  
3957.000000	99.895149  
3956.000000	99.891300  
3955.000000	99.891039  
3954.000000	99.893229  
3953.000000	99.896060  
3952.000000	99.898900  
3951.000000	99.902196  
3950.000000	99.905751  
3949.000000	99.907689  
3948.000000	99.906236  
3947.000000	99.902416  
3946.000000	99.899627  
3945.000000	99.900098  
3944.000000	99.902394  
3943.000000	99.903165  
3942.000000	99.900821  
3941.000000	99.897000  
3940.000000	99.894364  
3939.000000	99.893733  
3938.000000	99.893838  
3937.000000	99.893355  
3936.000000	99.892575  
3935.000000	99.893038  
3934.000000	99.895559  
3933.000000	99.899103  
3932.000000	99.901748  
3931.000000	99.902852  
3930.000000	99.903384  
3929.000000	99.903996  
3928.000000	99.904103  
3927.000000	99.902941  
3926.000000	99.900814  
3925.000000	99.899121  
3924.000000	99.898946  
3923.000000	99.900006  
3922.000000	99.901181  
3921.000000	99.901480  
3920.000000	99.900783  
3919.000000	99.899731  
3918.000000	99.898758  
3917.000000	99.897481  
3916.000000	99.895411  
3915.000000	99.893231  
3914.000000	99.892228  
3913.000000	99.892531  
3912.000000	99.892386  
3911.000000	99.889591  
3910.000000	99.884211  
3909.000000	99.879215  
3908.000000	99.878315  
3907.000000	99.883584  
3906.000000	99.894066  
3905.000000	99.906479  
3904.000000	99.917177  
3903.000000	99.924044  
3902.000000	99.927052  
3901.000000	99.926784  
3900.000000	99.923125  
3899.000000	99.916125  
3898.000000	99.906614  
3897.000000	99.896263  
3896.000000	99.887357  
3895.000000	99.882354  
3894.000000	99.883221  
3893.000000	99.889912  
3892.000000	99.899163  
3891.000000	99.906637  
3890.000000	99.911113  
3889.000000	99.914984  
3888.000000	99.919795  
3887.000000	99.922950  
3886.000000	99.919930  
3885.000000	99.910816  
3884.000000	99.902012  
3883.000000	99.899718  
3882.000000	99.903610  
3881.000000	99.907743  
3880.000000	99.906977  
3879.000000	99.902822  
3878.000000	99.900544  
3877.000000	99.902037  
3876.000000	99.903779  
3875.000000	99.901936  
3874.000000	99.897759  
3873.000000	99.896197  
3872.000000	99.899198  
3871.000000	99.902921  
3870.000000	99.902732  
3869.000000	99.899518  
3868.000000	99.898892  
3867.000000	99.903825  
3866.000000	99.910586  
3865.000000	99.913139  
3864.000000	99.909986  
3863.000000	99.905354  
3862.000000	99.903511  
3861.000000	99.902819  
3860.000000	99.897552  
3859.000000	99.884153  
3858.000000	99.864924  
3857.000000	99.847145  
3856.000000	99.839773  
3855.000000	99.847751  
3854.000000	99.867517  
3853.000000	99.887952  
3852.000000	99.902030  
3851.000000	99.911465  
3850.000000	99.918496  
3849.000000	99.921536  
3848.000000	99.919050  
3847.000000	99.911981  
3846.000000	99.903812  
3845.000000	99.898425  
3844.000000	99.896864  
3843.000000	99.897335  
3842.000000	99.898395  
3841.000000	99.900125  
3840.000000	99.903383  
3839.000000	99.908383  
3838.000000	99.913675  
3837.000000	99.917175  
3836.000000	99.917624  
3835.000000	99.915199  
3834.000000	99.911326  
3833.000000	99.907195  
3832.000000	99.903099  
3831.000000	99.899305  
3830.000000	99.896778  
3829.000000	99.896604  
3828.000000	99.897951  
3827.000000	99.897929  
3826.000000	99.895318  
3825.000000	99.893041  
3824.000000	99.895572  
3823.000000	99.903293  
3822.000000	99.910635  
3821.000000	99.911954  
3820.000000	99.908642  
3819.000000	99.906965  
3818.000000	99.909766  
3817.000000	99.912691  
3816.000000	99.909497  
3815.000000	99.901025  
3814.000000	99.894140  
3813.000000	99.891737  
3812.000000	99.890133  
3811.000000	99.885423  
3810.000000	99.879357  
3809.000000	99.877766  
3808.000000	99.882941  
3807.000000	99.889707  
3806.000000	99.892253  
3805.000000	99.891432  
3804.000000	99.892033  
3803.000000	99.894855  
3802.000000	99.895136  
3801.000000	99.889796  
3800.000000	99.883098  
3799.000000	99.881364  
3798.000000	99.885010  
3797.000000	99.888701  
3796.000000	99.887974  
3795.000000	99.884280  
3794.000000	99.882819  
3793.000000	99.886220  
3792.000000	99.892242  
3791.000000	99.896635  
3790.000000	99.897285  
3789.000000	99.895683  
3788.000000	99.895073  
3787.000000	99.898034  
3786.000000	99.904913  
3785.000000	99.913536  
3784.000000	99.920767  
3783.000000	99.924738  
3782.000000	99.925345  
3781.000000	99.922959  
3780.000000	99.917760  
3779.000000	99.910516  
3778.000000	99.903406  
3777.000000	99.898687  
3776.000000	99.896568  
3775.000000	99.895418  
3774.000000	99.894497  
3773.000000	99.895138  
3772.000000	99.898142  
3771.000000	99.901218  
3770.000000	99.901241  
3769.000000	99.898708  
3768.000000	99.897712  
3767.000000	99.901158  
3766.000000	99.907140  
3765.000000	99.911600  
3764.000000	99.913380  
3763.000000	99.914874  
3762.000000	99.917819  
3761.000000	99.920623  
3760.000000	99.921031  
3759.000000	99.919284  
3758.000000	99.917678  
3757.000000	99.917424  
3756.000000	99.917359  
3755.000000	99.915949  
3754.000000	99.913288  
3753.000000	99.911074  
3752.000000	99.910802  
3751.000000	99.911853  
3750.000000	99.911970  
3749.000000	99.910479  
3748.000000	99.909153  
3747.000000	99.910183  
3746.000000	99.913418  
3745.000000	99.915642  
3744.000000	99.913928  
3743.000000	99.911459  
3742.000000	99.912810  
3741.000000	99.916428  
3740.000000	99.917779  
3739.000000	99.915557  
3738.000000	99.912542  
3737.000000	99.912165  
3736.000000	99.914732  
3735.000000	99.918107  
3734.000000	99.920699  
3733.000000	99.922231  
3732.000000	99.922530  
3731.000000	99.921484  
3730.000000	99.920133  
3729.000000	99.919922  
3728.000000	99.920613  
3727.000000	99.921044  
3726.000000	99.921864  
3725.000000	99.925316  
3724.000000	99.931086  
3723.000000	99.935047  
3722.000000	99.933727  
3721.000000	99.928202  
3720.000000	99.923138  
3719.000000	99.921225  
3718.000000	99.920166  
3717.000000	99.916088  
3716.000000	99.907740  
3715.000000	99.897358  
3714.000000	99.888157  
3713.000000	99.881788  
3712.000000	99.878649  
3711.000000	99.878705  
3710.000000	99.881432  
3709.000000	99.884933  
3708.000000	99.885887  
3707.000000	99.881812  
3706.000000	99.872917  
3705.000000	99.861828  
3704.000000	99.851792  
3703.000000	99.844980  
3702.000000	99.842140  
3701.000000	99.842470  
3700.000000	99.844139  
3699.000000	99.844918  
3698.000000	99.842215  
3697.000000	99.834698  
3696.000000	99.824221  
3695.000000	99.814850  
3694.000000	99.809206  
3693.000000	99.806457  
3692.000000	99.804203  
3691.000000	99.801522  
3690.000000	99.799674  
3689.000000	99.798988  
3688.000000	99.797963  
3687.000000	99.796603  
3686.000000	99.796239  
3685.000000	99.796398  
3684.000000	99.794948  
3683.000000	99.790421  
3682.000000	99.783460  
3681.000000	99.775822  
3680.000000	99.768145  
3679.000000	99.760146  
3678.000000	99.751836  
3677.000000	99.743610  
3676.000000	99.737523  
3675.000000	99.736791  
3674.000000	99.743115  
3673.000000	99.755303  
3672.000000	99.769194  
3671.000000	99.777799  
3670.000000	99.777242  
3669.000000	99.771024  
3668.000000	99.764795  
3667.000000	99.760022  
3666.000000	99.754446  
3665.000000	99.746580  
3664.000000	99.738132  
3663.000000	99.731797  
3662.000000	99.728477  
3661.000000	99.727509  
3660.000000	99.728636  
3659.000000	99.732841  
3658.000000	99.740051  
3657.000000	99.747286  
3656.000000	99.750918  
3655.000000	99.751237  
3654.000000	99.752853  
3653.000000	99.759631  
3652.000000	99.771041  
3651.000000	99.782170  
3650.000000	99.787602  
3649.000000	99.785899  
3648.000000	99.779651  
3647.000000	99.772252  
3646.000000	99.765712  
3645.000000	99.761053  
3644.000000	99.758639  
3643.000000	99.757755  
3642.000000	99.757231  
3641.000000	99.757141  
3640.000000	99.758879  
3639.000000	99.763625  
3638.000000	99.770906  
3637.000000	99.778646  
3636.000000	99.783868  
3635.000000	99.783842  
3634.000000	99.778553  
3633.000000	99.772426  
3632.000000	99.772129  
3631.000000	99.780926  
3630.000000	99.793184  
3629.000000	99.797782  
3628.000000	99.791037  
3627.000000	99.780772  
3626.000000	99.774888  
3625.000000	99.773316  
3624.000000	99.772011  
3623.000000	99.769188  
3622.000000	99.766763  
3621.000000	99.767506  
3620.000000	99.772400  
3619.000000	99.780338  
3618.000000	99.789654  
3617.000000	99.799475  
3616.000000	99.808834  
3615.000000	99.815402  
3614.000000	99.816821  
3613.000000	99.813176  
3612.000000	99.807412  
3611.000000	99.803242  
3610.000000	99.802242  
3609.000000	99.803134  
3608.000000	99.804208  
3607.000000	99.805237  
3606.000000	99.806921  
3605.000000	99.809133  
3604.000000	99.810397  
3603.000000	99.809394  
3602.000000	99.806812  
3601.000000	99.805513  
3600.000000	99.808762  
3599.000000	99.817477  
3598.000000	99.829037  
3597.000000	99.839167  
3596.000000	99.844339  
3595.000000	99.843666  
3594.000000	99.839508  
3593.000000	99.836202  
3592.000000	99.837837  
3591.000000	99.846165  
3590.000000	99.858694  
3589.000000	99.869008  
3588.000000	99.871131  
3587.000000	99.864698  
3586.000000	99.854459  
3585.000000	99.845242  
3584.000000	99.838680  
3583.000000	99.834134  
3582.000000	99.830460  
3581.000000	99.826971  
3580.000000	99.823319  
3579.000000	99.819247  
3578.000000	99.814558  
3577.000000	99.809525  
3576.000000	99.805297  
3575.000000	99.803373  
3574.000000	99.804741  
3573.000000	99.809364  
3572.000000	99.816529  
3571.000000	99.825213  
3570.000000	99.833432  
3569.000000	99.837679  
3568.000000	99.835274  
3567.000000	99.828214  
3566.000000	99.822224  
3565.000000	99.820937  
3564.000000	99.822967  
3563.000000	99.824079  
3562.000000	99.821218  
3561.000000	99.814574  
3560.000000	99.806696  
3559.000000	99.800238  
3558.000000	99.796544  
3557.000000	99.795775  
3556.000000	99.797727  
3555.000000	99.802092  
3554.000000	99.807995  
3553.000000	99.813624  
3552.000000	99.816548  
3551.000000	99.815263  
3550.000000	99.810497  
3549.000000	99.804771  
3548.000000	99.800662  
3547.000000	99.799443  
3546.000000	99.800722  
3545.000000	99.803184  
3544.000000	99.805477  
3543.000000	99.806487  
3542.000000	99.805418  
3541.000000	99.802191  
3540.000000	99.797995  
3539.000000	99.795025  
3538.000000	99.794912  
3537.000000	99.797239  
3536.000000	99.799691  
3535.000000	99.800118  
3534.000000	99.798342  
3533.000000	99.795988  
3532.000000	99.794929  
3531.000000	99.795953  
3530.000000	99.798499  
3529.000000	99.801317  
3528.000000	99.803517  
3527.000000	99.805149  
3526.000000	99.806509  
3525.000000	99.806990  
3524.000000	99.805337  
3523.000000	99.801429  
3522.000000	99.797180  
3521.000000	99.794987  
3520.000000	99.795399  
3519.000000	99.796851  
3518.000000	99.797314  
3517.000000	99.795949  
3516.000000	99.793412  
3515.000000	99.791349  
3514.000000	99.791671  
3513.000000	99.795297  
3512.000000	99.800931  
3511.000000	99.805469  
3510.000000	99.806462  
3509.000000	99.804268  
3508.000000	99.801504  
3507.000000	99.800368  
3506.000000	99.800602  
3505.000000	99.799992  
3504.000000	99.796788  
3503.000000	99.792098  
3502.000000	99.789704  
3501.000000	99.792921  
3500.000000	99.801092  
3499.000000	99.809239  
3498.000000	99.811482  
3497.000000	99.805498  
3496.000000	99.794266  
3495.000000	99.783499  
3494.000000	99.777431  
3493.000000	99.776708  
3492.000000	99.779405  
3491.000000	99.783198  
3490.000000	99.786568  
3489.000000	99.788791  
3488.000000	99.789748  
3487.000000	99.790024  
3486.000000	99.790646  
3485.000000	99.792226  
3484.000000	99.794377  
3483.000000	99.796009  
3482.000000	99.796056  
3481.000000	99.793876  
3480.000000	99.789651  
3479.000000	99.784965  
3478.000000	99.782384  
3477.000000	99.783300  
3476.000000	99.786028  
3475.000000	99.786961  
3474.000000	99.784331  
3473.000000	99.780215  
3472.000000	99.778174  
3471.000000	99.779378  
3470.000000	99.781809  
3469.000000	99.782889  
3468.000000	99.781930  
3467.000000	99.780011  
3466.000000	99.778273  
3465.000000	99.776906  
3464.000000	99.775371  
3463.000000	99.773036  
3462.000000	99.769634  
3461.000000	99.765506  
3460.000000	99.761641  
3459.000000	99.759381  
3458.000000	99.759730  
3457.000000	99.762562  
3456.000000	99.766193  
3455.000000	99.768265  
3454.000000	99.767675  
3453.000000	99.765641  
3452.000000	99.764514  
3451.000000	99.765462  
3450.000000	99.767682  
3449.000000	99.769674  
3448.000000	99.770600  
3447.000000	99.770303  
3446.000000	99.768882  
3445.000000	99.766906  
3444.000000	99.765493  
3443.000000	99.765380  
3442.000000	99.766051  
3441.000000	99.766419  
3440.000000	99.766256  
3439.000000	99.766282  
3438.000000	99.766772  
3437.000000	99.766751  
3436.000000	99.765007  
3435.000000	99.761763  
3434.000000	99.758845  
3433.000000	99.758021  
3432.000000	99.759277  
3431.000000	99.760793  
3430.000000	99.760633  
3429.000000	99.758332  
3428.000000	99.754970  
3427.000000	99.751945  
3426.000000	99.749927  
3425.000000	99.748928  
3424.000000	99.748945  
3423.000000	99.750186  
3422.000000	99.752460  
3421.000000	99.754432  
3420.000000	99.754028  
3419.000000	99.750322  
3418.000000	99.745114  
3417.000000	99.741903  
3416.000000	99.742688  
3415.000000	99.745964  
3414.000000	99.748276  
3413.000000	99.747652  
3412.000000	99.745058  
3411.000000	99.742743  
3410.000000	99.742146  
3409.000000	99.743493  
3408.000000	99.746297  
3407.000000	99.749336  
3406.000000	99.750683  
3405.000000	99.748999  
3404.000000	99.745216  
3403.000000	99.742357  
3402.000000	99.743037  
3401.000000	99.746964  
3400.000000	99.751163  
3399.000000	99.752736  
3398.000000	99.751452  
3397.000000	99.749587  
3396.000000	99.749368  
3395.000000	99.750866  
3394.000000	99.752514  
3393.000000	99.753206  
3392.000000	99.753292  
3391.000000	99.753562  
3390.000000	99.753930  
3389.000000	99.753649  
3388.000000	99.752487  
3387.000000	99.751084  
3386.000000	99.750127  
3385.000000	99.749607  
3384.000000	99.749123  
3383.000000	99.748605  
3382.000000	99.748319  
3381.000000	99.748079  
3380.000000	99.746883  
3379.000000	99.743837  
3378.000000	99.739719  
3377.000000	99.737257  
3376.000000	99.739231  
3375.000000	99.745885  
3374.000000	99.754351  
3373.000000	99.760753  
3372.000000	99.763000  
3371.000000	99.761735  
3370.000000	99.759182  
3369.000000	99.757409  
3368.000000	99.757226  
3367.000000	99.757947  
3366.000000	99.758027  
3365.000000	99.756448  
3364.000000	99.753801  
3363.000000	99.751835  
3362.000000	99.751749  
3361.000000	99.753037  
3360.000000	99.754092  
3359.000000	99.753791  
3358.000000	99.752474  
3357.000000	99.751586  
3356.000000	99.752494  
3355.000000	99.755383  
3354.000000	99.759025  
3353.000000	99.761674  
3352.000000	99.762446  
3351.000000	99.762004  
3350.000000	99.762005  
3349.000000	99.763858  
3348.000000	99.767818  
3347.000000	99.772916  
3346.000000	99.777550  
3345.000000	99.780295  
3344.000000	99.780472  
3343.000000	99.778191  
3342.000000	99.774149  
3341.000000	99.769554  
3340.000000	99.765956  
3339.000000	99.764399  
3338.000000	99.764368  
3337.000000	99.763994  
3336.000000	99.761888  
3335.000000	99.758756  
3334.000000	99.756823  
3333.000000	99.757688  
3332.000000	99.760976  
3331.000000	99.764926  
3330.000000	99.767853  
3329.000000	99.769127  
3328.000000	99.769290  
3327.000000	99.769493  
3326.000000	99.770461  
3325.000000	99.771874  
3324.000000	99.773029  
3323.000000	99.774123  
3322.000000	99.776189  
3321.000000	99.779318  
3320.000000	99.781536  
3319.000000	99.780374  
3318.000000	99.775724  
3317.000000	99.770587  
3316.000000	99.768678  
3315.000000	99.771357  
3314.000000	99.776719  
3313.000000	99.781355  
3312.000000	99.783019  
3311.000000	99.782048  
3310.000000	99.780543  
3309.000000	99.780244  
3308.000000	99.781285  
3307.000000	99.782818  
3306.000000	99.784139  
3305.000000	99.784630  
3304.000000	99.783261  
3303.000000	99.779446  
3302.000000	99.774628  
3301.000000	99.771907  
3300.000000	99.773216  
3299.000000	99.777262  
3298.000000	99.780875  
3297.000000	99.782163  
3296.000000	99.781892  
3295.000000	99.782026  
3294.000000	99.783609  
3293.000000	99.786107  
3292.000000	99.788200  
3291.000000	99.788874  
3290.000000	99.787987  
3289.000000	99.786177  
3288.000000	99.784489  
3287.000000	99.784105  
3286.000000	99.785965  
3285.000000	99.790007  
3284.000000	99.794702  
3283.000000	99.797883  
3282.000000	99.798398  
3281.000000	99.796702  
3280.000000	99.793799  
3279.000000	99.790325  
3278.000000	99.787012  
3277.000000	99.785238  
3276.000000	99.786164  
3275.000000	99.789397  
3274.000000	99.793065  
3273.000000	99.795085  
3272.000000	99.793994  
3271.000000	99.789263  
3270.000000	99.781918  
3269.000000	99.774873  
3268.000000	99.771600  
3267.000000	99.773825  
3266.000000	99.780541  
3265.000000	99.789017  
3264.000000	99.796377  
3263.000000	99.800712  
3262.000000	99.801939  
3261.000000	99.801921  
3260.000000	99.802801  
3259.000000	99.804672  
3258.000000	99.805299  
3257.000000	99.802504  
3256.000000	99.796364  
3255.000000	99.788998  
3254.000000	99.782985  
3253.000000	99.780359  
3252.000000	99.782061  
3251.000000	99.787186  
3250.000000	99.793036  
3249.000000	99.796920  
3248.000000	99.798145  
3247.000000	99.797869  
3246.000000	99.797195  
3245.000000	99.796163  
3244.000000	99.794791  
3243.000000	99.794355  
3242.000000	99.796856  
3241.000000	99.802945  
3240.000000	99.810442  
3239.000000	99.815330  
3238.000000	99.814890  
3237.000000	99.810185  
3236.000000	99.805091  
3235.000000	99.802700  
3234.000000	99.803126  
3233.000000	99.805014  
3232.000000	99.808122  
3231.000000	99.813078  
3230.000000	99.818912  
3229.000000	99.822352  
3228.000000	99.820418  
3227.000000	99.813231  
3226.000000	99.803935  
3225.000000	99.796347  
3224.000000	99.792895  
3223.000000	99.793942  
3222.000000	99.798092  
3221.000000	99.803186  
3220.000000	99.807642  
3219.000000	99.811008  
3218.000000	99.813217  
3217.000000	99.813818  
3216.000000	99.812535  
3215.000000	99.810350  
3214.000000	99.809196  
3213.000000	99.810244  
3212.000000	99.812899  
3211.000000	99.815743  
3210.000000	99.818076  
3209.000000	99.820144  
3208.000000	99.822132  
3207.000000	99.823598  
3206.000000	99.824170  
3205.000000	99.824370  
3204.000000	99.825283  
3203.000000	99.827440  
3202.000000	99.830400  
3201.000000	99.833419  
3200.000000	99.835988  
3199.000000	99.837520  
3198.000000	99.837204  
3197.000000	99.835053  
3196.000000	99.832895  
3195.000000	99.833210  
3194.000000	99.836459  
3193.000000	99.840193  
3192.000000	99.841475  
3191.000000	99.839898  
3190.000000	99.837700  
3189.000000	99.837155  
3188.000000	99.838632  
3187.000000	99.841004  
3186.000000	99.842911  
3185.000000	99.843207  
3184.000000	99.841034  
3183.000000	99.836518  
3182.000000	99.831306  
3181.000000	99.827733  
3180.000000	99.827119  
3179.000000	99.828943  
3178.000000	99.831435  
3177.000000	99.832633  
3176.000000	99.831202  
3175.000000	99.827363  
3174.000000	99.823571  
3173.000000	99.823519  
3172.000000	99.829149  
3171.000000	99.838312  
3170.000000	99.846067  
3169.000000	99.848919  
3168.000000	99.847748  
3167.000000	99.846416  
3166.000000	99.847818  
3165.000000	99.851572  
3164.000000	99.855148  
3163.000000	99.856592  
3162.000000	99.856060  
3161.000000	99.855340  
3160.000000	99.856293  
3159.000000	99.859467  
3158.000000	99.863679  
3157.000000	99.866815  
3156.000000	99.867367  
3155.000000	99.865576  
3154.000000	99.863212  
3153.000000	99.862074  
3152.000000	99.862403  
3151.000000	99.862566  
3150.000000	99.860582  
3149.000000	99.856363  
3148.000000	99.852478  
3147.000000	99.852103  
3146.000000	99.855776  
3145.000000	99.860568  
3144.000000	99.863183  
3143.000000	99.863787  
3142.000000	99.865791  
3141.000000	99.871452  
3140.000000	99.878604  
3139.000000	99.882690  
3138.000000	99.881667  
3137.000000	99.877843  
3136.000000	99.874878  
3135.000000	99.874120  
3134.000000	99.874412  
3133.000000	99.874439  
3132.000000	99.874057  
3131.000000	99.873455  
3130.000000	99.872205  
3129.000000	99.869810  
3128.000000	99.866809  
3127.000000	99.864769  
3126.000000	99.865102  
3125.000000	99.867952  
3124.000000	99.872053  
3123.000000	99.875590  
3122.000000	99.877526  
3121.000000	99.878462  
3120.000000	99.880095  
3119.000000	99.883337  
3118.000000	99.886787  
3117.000000	99.887534  
3116.000000	99.884049  
3115.000000	99.878162  
3114.000000	99.873500  
3113.000000	99.871804  
3112.000000	99.871439  
3111.000000	99.870023  
3110.000000	99.867778  
3109.000000	99.867066  
3108.000000	99.868702  
3107.000000	99.870127  
3106.000000	99.868186  
3105.000000	99.863017  
3104.000000	99.858323  
3103.000000	99.858120  
3102.000000	99.863776  
3101.000000	99.873492  
3100.000000	99.883504  
3099.000000	99.890079  
3098.000000	99.891769  
3097.000000	99.890418  
3096.000000	99.889367  
3095.000000	99.890204  
3094.000000	99.891685  
3093.000000	99.891906  
3092.000000	99.890574  
3091.000000	99.888675  
3090.000000	99.886875  
3089.000000	99.885376  
3088.000000	99.885025  
3087.000000	99.887196  
3086.000000	99.892055  
3085.000000	99.897601  
3084.000000	99.901109  
3083.000000	99.901423  
3082.000000	99.899556  
3081.000000	99.897343  
3080.000000	99.895869  
3079.000000	99.895047  
3078.000000	99.894086  
3077.000000	99.892218  
3076.000000	99.889431  
3075.000000	99.886762  
3074.000000	99.885527  
3073.000000	99.885988  
3072.000000	99.887195  
3071.000000	99.888505  
3070.000000	99.890599  
3069.000000	99.894062  
3068.000000	99.897270  
3067.000000	99.897186  
3066.000000	99.892845  
3065.000000	99.887005  
3064.000000	99.883432  
3063.000000	99.883154  
3062.000000	99.884277  
3061.000000	99.884981  
3060.000000	99.885599  
3059.000000	99.887676  
3058.000000	99.891743  
3057.000000	99.896383  
3056.000000	99.899392  
3055.000000	99.899929  
3054.000000	99.899548  
3053.000000	99.900676  
3052.000000	99.903842  
3051.000000	99.906890  
3050.000000	99.907337  
3049.000000	99.904875  
3048.000000	99.900894  
3047.000000	99.896264  
3046.000000	99.890904  
3045.000000	99.885335  
3044.000000	99.881146  
3043.000000	99.879293  
3042.000000	99.878767  
3041.000000	99.877610  
3040.000000	99.874885  
3039.000000	99.871280  
3038.000000	99.868141  
3037.000000	99.866274  
3036.000000	99.865439  
3035.000000	99.864685  
3034.000000	99.863213  
3033.000000	99.860936  
3032.000000	99.858003  
3031.000000	99.853876  
3030.000000	99.847338  
3029.000000	99.837636  
3028.000000	99.825491  
3027.000000	99.813113  
3026.000000	99.803264  
3025.000000	99.797649  
3024.000000	99.795281  
3023.000000	99.792455  
3022.000000	99.785379  
3021.000000	99.773373  
3020.000000	99.759287  
3019.000000	99.746797  
3018.000000	99.737780  
3017.000000	99.731976  
3016.000000	99.727902  
3015.000000	99.723453  
3014.000000	99.716478  
3013.000000	99.705718  
3012.000000	99.691114  
3011.000000	99.673093  
3010.000000	99.652306  
3009.000000	99.630579  
3008.000000	99.611275  
3007.000000	99.597482  
3006.000000	99.589583  
3005.000000	99.584890  
3004.000000	99.579461  
3003.000000	99.570191  
3002.000000	99.556092  
3001.000000	99.538847  
3000.000000	99.522018  
2999.000000	99.508494  
2998.000000	99.498314  
2997.000000	99.489678  
2996.000000	99.481940  
2995.000000	99.475879  
2994.000000	99.470037  
2993.000000	99.458651  
2992.000000	99.436238  
2991.000000	99.404881  
2990.000000	99.375013  
2989.000000	99.357256  
2988.000000	99.353902  
2987.000000	99.359230  
2986.000000	99.366930  
2985.000000	99.375257  
2984.000000	99.385033  
2983.000000	99.395258  
2982.000000	99.402608  
2981.000000	99.404674  
2980.000000	99.402327  
2979.000000	99.398679  
2978.000000	99.396409  
2977.000000	99.396125  
2976.000000	99.396623  
2975.000000	99.396361  
2974.000000	99.394836  
2973.000000	99.392692  
2972.000000	99.390675  
2971.000000	99.388963  
2970.000000	99.387821  
2969.000000	99.388488  
2968.000000	99.392800  
2967.000000	99.401793  
2966.000000	99.414761  
2965.000000	99.429456  
2964.000000	99.443153  
2963.000000	99.454123  
2962.000000	99.462637  
2961.000000	99.470261  
2960.000000	99.477843  
2959.000000	99.484696  
2958.000000	99.490331  
2957.000000	99.496061  
2956.000000	99.503402  
2955.000000	99.511115  
2954.000000	99.515770  
2953.000000	99.516360  
2952.000000	99.517087  
2951.000000	99.523824  
2950.000000	99.537687  
2949.000000	99.553197  
2948.000000	99.563260  
2947.000000	99.565424  
2946.000000	99.563077  
2945.000000	99.561348  
2944.000000	99.562894  
2943.000000	99.567317  
2942.000000	99.572942  
2941.000000	99.577854  
2940.000000	99.579816  
2939.000000	99.577066  
2938.000000	99.570113  
2937.000000	99.562197  
2936.000000	99.557264  
2935.000000	99.557452  
2934.000000	99.562271  
2933.000000	99.569185  
2932.000000	99.574627  
2931.000000	99.575580  
2930.000000	99.571478  
2929.000000	99.564507  
2928.000000	99.557554  
2927.000000	99.552138  
2926.000000	99.548546  
2925.000000	99.546798  
2924.000000	99.546385  
2923.000000	99.545893  
2922.000000	99.544324  
2921.000000	99.542501  
2920.000000	99.541897  
2919.000000	99.542426  
2918.000000	99.542696  
2917.000000	99.542179  
2916.000000	99.541554  
2915.000000	99.540813  
2914.000000	99.538714  
2913.000000	99.534753  
2912.000000	99.530317  
2911.000000	99.527026  
2910.000000	99.524876  
2909.000000	99.522899  
2908.000000	99.520763  
2907.000000	99.518581  
2906.000000	99.515522  
2905.000000	99.509766  
2904.000000	99.500190  
2903.000000	99.488236  
2902.000000	99.478106  
2901.000000	99.475262  
2900.000000	99.483017  
2899.000000	99.499340  
2898.000000	99.517350  
2897.000000	99.529997  
2896.000000	99.535126  
2895.000000	99.536213  
2894.000000	99.538482  
2893.000000	99.544390  
2892.000000	99.552346  
2891.000000	99.558941  
2890.000000	99.562136  
2889.000000	99.562579  
2888.000000	99.562270  
2887.000000	99.562482  
2886.000000	99.563398  
2885.000000	99.565374  
2884.000000	99.569469  
2883.000000	99.576266  
2882.000000	99.584873  
2881.000000	99.593937  
2880.000000	99.603414  
2879.000000	99.614662  
2878.000000	99.628634  
2877.000000	99.644224  
2876.000000	99.658333  
2875.000000	99.667507  
2874.000000	99.670088  
2873.000000	99.667738  
2872.000000	99.665000  
2871.000000	99.666594  
2870.000000	99.674245  
2869.000000	99.685763  
2868.000000	99.697329  
2867.000000	99.706879  
2866.000000	99.715473  
2865.000000	99.725481  
2864.000000	99.737580  
2863.000000	99.749578  
2862.000000	99.758152  
2861.000000	99.761683  
2860.000000	99.761736  
2859.000000	99.762175  
2858.000000	99.766556  
2857.000000	99.775492  
2856.000000	99.786094  
2855.000000	99.794660  
2854.000000	99.800327  
2853.000000	99.805549  
2852.000000	99.812680  
2851.000000	99.821133  
2850.000000	99.828893  
2849.000000	99.835764  
2848.000000	99.843310  
2847.000000	99.851770  
2846.000000	99.858920  
2845.000000	99.862693  
2844.000000	99.863679  
2843.000000	99.864310  
2842.000000	99.866504  
2841.000000	99.870683  
2840.000000	99.876031  
2839.000000	99.880756  
2838.000000	99.882871  
2837.000000	99.881919  
2836.000000	99.879807  
2835.000000	99.879276  
2834.000000	99.881612  
2833.000000	99.886102  
2832.000000	99.891181  
2831.000000	99.895524  
2830.000000	99.898591  
2829.000000	99.900923  
2828.000000	99.903799  
2827.000000	99.907885  
2826.000000	99.912206  
2825.000000	99.914906  
2824.000000	99.915119  
2823.000000	99.913951  
2822.000000	99.913691  
2821.000000	99.916045  
2820.000000	99.920762  
2819.000000	99.925807  
2818.000000	99.929280  
2817.000000	99.931222  
2816.000000	99.933046  
2815.000000	99.935274  
2814.000000	99.936817  
2813.000000	99.936845  
2812.000000	99.936195  
2811.000000	99.936010  
2810.000000	99.935866  
2809.000000	99.934535  
2808.000000	99.932190  
2807.000000	99.930538  
2806.000000	99.930753  
2805.000000	99.932365  
2804.000000	99.934454  
2803.000000	99.936963  
2802.000000	99.940277  
2801.000000	99.943910  
2800.000000	99.946201  
2799.000000	99.945468  
2798.000000	99.941660  
2797.000000	99.936984  
2796.000000	99.934477  
2795.000000	99.935440  
2794.000000	99.938385  
2793.000000	99.940788  
2792.000000	99.941557  
2791.000000	99.941403  
2790.000000	99.941438  
2789.000000	99.942312  
2788.000000	99.944411  
2787.000000	99.947790  
2786.000000	99.951674  
2785.000000	99.954820  
2784.000000	99.956586  
2783.000000	99.957062  
2782.000000	99.956215  
2781.000000	99.953832  
2780.000000	99.950590  
2779.000000	99.948207  
2778.000000	99.947832  
2777.000000	99.948789  
2776.000000	99.949424  
2775.000000	99.948833  
2774.000000	99.947362  
2773.000000	99.945884  
2772.000000	99.945121  
2771.000000	99.945411  
2770.000000	99.946706  
2769.000000	99.948895  
2768.000000	99.952205  
2767.000000	99.956770  
2766.000000	99.961545  
2765.000000	99.964442  
2764.000000	99.964323  
2763.000000	99.962504  
2762.000000	99.961542  
2761.000000	99.962742  
2760.000000	99.965419  
2759.000000	99.968157  
2758.000000	99.969871  
2757.000000	99.969932  
2756.000000	99.968548  
2755.000000	99.967191  
2754.000000	99.967464  
2753.000000	99.969051  
2752.000000	99.969840  
2751.000000	99.968722  
2750.000000	99.967222  
2749.000000	99.967302  
2748.000000	99.968325  
2747.000000	99.967606  
2746.000000	99.963767  
2745.000000	99.958338  
2744.000000	99.953973  
2743.000000	99.952170  
2742.000000	99.952999  
2741.000000	99.955886  
2740.000000	99.959901  
2739.000000	99.963888  
2738.000000	99.967069  
2737.000000	99.969418  
2736.000000	99.971112  
2735.000000	99.971903  
2734.000000	99.971369  
2733.000000	99.969556  
2732.000000	99.967110  
2731.000000	99.964943  
2730.000000	99.963879  
2729.000000	99.964326  
2728.000000	99.966166  
2727.000000	99.969091  
2726.000000	99.972872  
2725.000000	99.976841  
2724.000000	99.979460  
2723.000000	99.979411  
2722.000000	99.977308  
2721.000000	99.975405  
2720.000000	99.975150  
2719.000000	99.975867  
2718.000000	99.976293  
2717.000000	99.976440  
2716.000000	99.977273  
2715.000000	99.979393  
2714.000000	99.982847  
2713.000000	99.987280  
2712.000000	99.991205  
2711.000000	99.992134  
2710.000000	99.989155  
2709.000000	99.984967  
2708.000000	99.983507  
2707.000000	99.985302  
2706.000000	99.986768  
2705.000000	99.984765  
2704.000000	99.980465  
2703.000000	99.977706  
2702.000000	99.978415  
2701.000000	99.980855  
2700.000000	99.982152  
2699.000000	99.981448  
2698.000000	99.980126  
2697.000000	99.979495  
2696.000000	99.979161  
2695.000000	99.978160  
2694.000000	99.977156  
2693.000000	99.978149  
2692.000000	99.981448  
2691.000000	99.984214  
2690.000000	99.983477  
2689.000000	99.980135  
2688.000000	99.978276  
2687.000000	99.980353  
2686.000000	99.984472  
2685.000000	99.987022  
2684.000000	99.986754  
2683.000000	99.985410  
2682.000000	99.985195  
2681.000000	99.986702  
2680.000000	99.988947  
2679.000000	99.990539  
2678.000000	99.990822  
2677.000000	99.990414  
2676.000000	99.990683  
2675.000000	99.992392  
2674.000000	99.994858  
2673.000000	99.996491  
2672.000000	99.996039  
2671.000000	99.993284  
2670.000000	99.988835  
2669.000000	99.983492  
2668.000000	99.977895  
2667.000000	99.972889  
2666.000000	99.970072  
2665.000000	99.971138  
2664.000000	99.976030  
2663.000000	99.982221  
2662.000000	99.986731  
2661.000000	99.988664  
2660.000000	99.988975  
2659.000000	99.988173  
2658.000000	99.985792  
2657.000000	99.982339  
2656.000000	99.980198  
2655.000000	99.981424  
2654.000000	99.985236  
2653.000000	99.988543  
2652.000000	99.988788  
2651.000000	99.985961  
2650.000000	99.982301  
2649.000000	99.980320  
2648.000000	99.980659  
2647.000000	99.981712  
2646.000000	99.981758  
2645.000000	99.981294  
2644.000000	99.982206  
2643.000000	99.984643  
2642.000000	99.986218  
2641.000000	99.985098  
2640.000000	99.982754  
2639.000000	99.982593  
2638.000000	99.986517  
2637.000000	99.993378  
2636.000000	99.999872  
2635.000000	100.002245 
2634.000000	99.998447  
2633.000000	99.990125  
2632.000000	99.981934  
2631.000000	99.977602  
2630.000000	99.976967  
2629.000000	99.977542  
2628.000000	99.978020  
2627.000000	99.978885  
2626.000000	99.980437  
2625.000000	99.982152  
2624.000000	99.983982  
2623.000000	99.986590  
2622.000000	99.989828  
2621.000000	99.992179  
2620.000000	99.992236  
2619.000000	99.989969  
2618.000000	99.986314  
2617.000000	99.982333  
2616.000000	99.979032  
2615.000000	99.977259  
2614.000000	99.977251  
2613.000000	99.978535  
2612.000000	99.980508  
2611.000000	99.983036  
2610.000000	99.986508  
2609.000000	99.991291  
2608.000000	99.996792  
2607.000000	100.001208 
2606.000000	100.003126 
2605.000000	100.003565 
2604.000000	100.005102 
2603.000000	100.008175 
2602.000000	100.009695 
2601.000000	100.006786 
2600.000000	100.000868 
2599.000000	99.996289  
2598.000000	99.995641  
2597.000000	99.998204  
2596.000000	100.002103 
2595.000000	100.005381 
2594.000000	100.005177 
2593.000000	99.999170  
2592.000000	99.989338  
2591.000000	99.982069  
2590.000000	99.982576  
2589.000000	99.990169  
2588.000000	99.999973  
2587.000000	100.007688 
2586.000000	100.011148 
2585.000000	100.009142 
2584.000000	100.001861 
2583.000000	99.992673  
2582.000000	99.986913  
2581.000000	99.987411  
2580.000000	99.991797  
2579.000000	99.994809  
2578.000000	99.992973  
2577.000000	99.987257  
2576.000000	99.982122  
2575.000000	99.982182  
2574.000000	99.988685  
2573.000000	99.998290  
2572.000000	100.005425 
2571.000000	100.006347 
2570.000000	100.001363 
2569.000000	99.993939  
2568.000000	99.988492  
2567.000000	99.988410  
2566.000000	99.994256  
2565.000000	100.002771 
2564.000000	100.008504 
2563.000000	100.007724 
2562.000000	100.001039 
2561.000000	99.992426  
2560.000000	99.986591  
2559.000000	99.987150  
2558.000000	99.995050  
2557.000000	100.006740 
2556.000000	100.015312 
2555.000000	100.016339 
2554.000000	100.012667 
2553.000000	100.011061 
2552.000000	100.013874 
2551.000000	100.016718 
2550.000000	100.015211 
2549.000000	100.010896 
2548.000000	100.008171 
2547.000000	100.007727 
2546.000000	100.006342 
2545.000000	100.002238 
2544.000000	99.997442  
2543.000000	99.994846  
2542.000000	99.995631  
2541.000000	99.999896  
2540.000000	100.007093 
2539.000000	100.014683 
2538.000000	100.018325 
2537.000000	100.015052 
2536.000000	100.005794 
2535.000000	99.994539  
2534.000000	99.986043  
2533.000000	99.984076  
2532.000000	99.989665  
2531.000000	99.999882  
2530.000000	100.009670 
2529.000000	100.015882 
2528.000000	100.018751 
2527.000000	100.019372 
2526.000000	100.017801 
2525.000000	100.014819 
2524.000000	100.013605 
2523.000000	100.017314 
2522.000000	100.025270 
2521.000000	100.032927 
2520.000000	100.035664 
2519.000000	100.032154 
2518.000000	100.024792 
2517.000000	100.017766 
2516.000000	100.014235 
2515.000000	100.014510 
2514.000000	100.016940 
2513.000000	100.020143 
2512.000000	100.023055 
2511.000000	100.023045 
2510.000000	100.016838 
2509.000000	100.005305 
2508.000000	99.995439  
2507.000000	99.994466  
2506.000000	100.001983 
2505.000000	100.009906 
2504.000000	100.010557 
2503.000000	100.003403 
2502.000000	99.993965  
2501.000000	99.988185  
2500.000000	99.988656  
2499.000000	99.994626  
2498.000000	100.003746 
2497.000000	100.013642 
2496.000000	100.022615 
2495.000000	100.029457 
2494.000000	100.033011 
2493.000000	100.032220 
2492.000000	100.026577 
2491.000000	100.016617 
2490.000000	100.004432 
2489.000000	99.993735  
2488.000000	99.988165  
2487.000000	99.988562  
2486.000000	99.992500  
2485.000000	99.997386  
2484.000000	100.003185 
2483.000000	100.010655 
2482.000000	100.017668 
2481.000000	100.019863 
2480.000000	100.015858 
2479.000000	100.009877 
2478.000000	100.007443 
2477.000000	100.009180 
2476.000000	100.010509 
2475.000000	100.007337 
2474.000000	100.000634 
2473.000000	99.995194  
2472.000000	99.995218  
2471.000000	100.001791 
2470.000000	100.013192 
2469.000000	100.025632 
2468.000000	100.033822 
2467.000000	100.033234 
2466.000000	100.023904 
2465.000000	100.011804 
2464.000000	100.004799 
2463.000000	100.006302 
2462.000000	100.012939 
2461.000000	100.018296 
2460.000000	100.018540 
2459.000000	100.014700 
2458.000000	100.010655 
2457.000000	100.009515 
2456.000000	100.011404 
2455.000000	100.013917 
2454.000000	100.014542 
2453.000000	100.012777 
2452.000000	100.010090 
2451.000000	100.008199 
2450.000000	100.007705 
2449.000000	100.007911 
2448.000000	100.007330 
2447.000000	100.004818 
2446.000000	100.001297 
2445.000000	100.000253 
2444.000000	100.005056 
2443.000000	100.015157 
2442.000000	100.025755 
2441.000000	100.031825 
2440.000000	100.031947 
2439.000000	100.028141 
2438.000000	100.023399 
2437.000000	100.020187 
2436.000000	100.019890 
2435.000000	100.021707 
2434.000000	100.022302 
2433.000000	100.018266 
2432.000000	100.009593 
2431.000000	100.000018 
2430.000000	99.993675  
2429.000000	99.992204  
2428.000000	99.995296  
2427.000000	100.002654 
2426.000000	100.013661 
2425.000000	100.025049 
2424.000000	100.030816 
2423.000000	100.026536 
2422.000000	100.014167 
2421.000000	100.001470 
2420.000000	99.995789  
2419.000000	99.998600  
2418.000000	100.006102 
2417.000000	100.013729 
2416.000000	100.018875 
2415.000000	100.020400 
2414.000000	100.018032 
2413.000000	100.013065 
2412.000000	100.008142 
2411.000000	100.005190 
2410.000000	100.004088 
2409.000000	100.003850 
2408.000000	100.004369 
2407.000000	100.006377 
2406.000000	100.010279 
2405.000000	100.015554 
2404.000000	100.020777 
2403.000000	100.023864 
2402.000000	100.023099 
2401.000000	100.018675 
2400.000000	100.012788 
2399.000000	100.007632 
2398.000000	100.003740 
2397.000000	100.000808 
2396.000000	99.999409  
2395.000000	100.000865 
2394.000000	100.005470 
2393.000000	100.011531 
2392.000000	100.016444 
2391.000000	100.018691 
2390.000000	100.019031 
2389.000000	100.019821 
2388.000000	100.022702 
2387.000000	100.026727 
2386.000000	100.029249 
2385.000000	100.028898 
2384.000000	100.027151 
2383.000000	100.026641 
2382.000000	100.028627 
2381.000000	100.032486 
2380.000000	100.036647 
2379.000000	100.038976 
2378.000000	100.037108 
2377.000000	100.030572 
2376.000000	100.023014 
2375.000000	100.020331 
2374.000000	100.025053 
2373.000000	100.033489 
2372.000000	100.039891 
2371.000000	100.042834 
2370.000000	100.045821 
2369.000000	100.051717 
2368.000000	100.057975 
2367.000000	100.058133 
2366.000000	100.048392 
2365.000000	100.033167 
2364.000000	100.022941 
2363.000000	100.024934 
2362.000000	100.036156 
2361.000000	100.046822 
2360.000000	100.051093 
2359.000000	100.051835 
2358.000000	100.054694 
2357.000000	100.060937 
2356.000000	100.067542 
2355.000000	100.071100 
2354.000000	100.069979 
2353.000000	100.065169 
2352.000000	100.059559 
2351.000000	100.056082 
2350.000000	100.055881 
2349.000000	100.057571 
2348.000000	100.058635 
2347.000000	100.057630 
2346.000000	100.055239 
2345.000000	100.052837 
2344.000000	100.051398 
2343.000000	100.051793 
2342.000000	100.054324 
2341.000000	100.058091 
2340.000000	100.061577 
2339.000000	100.063891 
2338.000000	100.064664 
2337.000000	100.064177 
2336.000000	100.062874 
2335.000000	100.060940 
2334.000000	100.058541 
2333.000000	100.056959 
2332.000000	100.057042 
2331.000000	100.056775 
2330.000000	100.052809 
2329.000000	100.045115 
2328.000000	100.037813 
2327.000000	100.034439 
2326.000000	100.034475 
2325.000000	100.034859 
2324.000000	100.033847 
2323.000000	100.033075 
2322.000000	100.036361 
2321.000000	100.045933 
2320.000000	100.058895 
2319.000000	100.068751 
2318.000000	100.071051 
2317.000000	100.067230 
2316.000000	100.061982 
2315.000000	100.058335 
2314.000000	100.056315 
2313.000000	100.055135 
2312.000000	100.054790 
2311.000000	100.055679 
2310.000000	100.058328 
2309.000000	100.062884 
2308.000000	100.067647 
2307.000000	100.068910 
2306.000000	100.064234 
2305.000000	100.055347 
2304.000000	100.046057 
2303.000000	100.038135 
2302.000000	100.031334 
2301.000000	100.026412 
2300.000000	100.024765 
2299.000000	100.025126 
2298.000000	100.023962 
2297.000000	100.020305 
2296.000000	100.017342 
2295.000000	100.017435 
2294.000000	100.018164 
2293.000000	100.015568 
2292.000000	100.009881 
2291.000000	100.005370 
2290.000000	100.005290 
2289.000000	100.008816 
2288.000000	100.012783 
2287.000000	100.014644 
2286.000000	100.013800 
2285.000000	100.011503 
2284.000000	100.010011 
2283.000000	100.010957 
2282.000000	100.013710 
2281.000000	100.015453 
2280.000000	100.013642 
2279.000000	100.009338 
2278.000000	100.007751 
2277.000000	100.013770 
2276.000000	100.025932 
2275.000000	100.036545 
2274.000000	100.039404 
2273.000000	100.035739 
2272.000000	100.030307 
2271.000000	100.023844 
2270.000000	100.013982 
2269.000000	100.002922 
2268.000000	99.998441  
2267.000000	100.005089 
2266.000000	100.018236 
2265.000000	100.029228 
2264.000000	100.033826 
2263.000000	100.033916 
2262.000000	100.034269 
2261.000000	100.039756 
2260.000000	100.052069 
2259.000000	100.065954 
2258.000000	100.071604 
2257.000000	100.064751 
2256.000000	100.052540 
2255.000000	100.045708 
2254.000000	100.046428 
2253.000000	100.047895 
2252.000000	100.044901 
2251.000000	100.040303 
2250.000000	100.040277 
2249.000000	100.046888 
2248.000000	100.056768 
2247.000000	100.065158 
2246.000000	100.069414 
2245.000000	100.069014 
2244.000000	100.063988 
2243.000000	100.054679 
2242.000000	100.043565 
2241.000000	100.035704 
2240.000000	100.034664 
2239.000000	100.037798 
2238.000000	100.038097 
2237.000000	100.031618 
2236.000000	100.020923 
2235.000000	100.010416 
2234.000000	100.001354 
2233.000000	99.993567  
2232.000000	99.989439  
2231.000000	99.992963  
2230.000000	100.005473 
2229.000000	100.024135 
2228.000000	100.043990 
2227.000000	100.060054 
2226.000000	100.068525 
2225.000000	100.068258 
2224.000000	100.061405 
2223.000000	100.051868 
2222.000000	100.043497 
2221.000000	100.039600 
2220.000000	100.042344 
2219.000000	100.051691 
2218.000000	100.065803 
2217.000000	100.082659 
2216.000000	100.100220 
2215.000000	100.115446 
2214.000000	100.125089 
2213.000000	100.127679 
2212.000000	100.123620 
2211.000000	100.114804 
2210.000000	100.106486 
2209.000000	100.106672 
2208.000000	100.117808 
2207.000000	100.129689 
2206.000000	100.126883 
2205.000000	100.104662 
2204.000000	100.073069 
2203.000000	100.045400 
2202.000000	100.029242 
2201.000000	100.028278 
2200.000000	100.042362 
2199.000000	100.061586 
2198.000000	100.069413 
2197.000000	100.059597 
2196.000000	100.045064 
2195.000000	100.043389 
2194.000000	100.057987 
2193.000000	100.079071 
2192.000000	100.097288 
2191.000000	100.108628 
2190.000000	100.110364 
2189.000000	100.102264 
2188.000000	100.091190 
2187.000000	100.086747 
2186.000000	100.092147 
2185.000000	100.104016 
2184.000000	100.118693 
2183.000000	100.132625 
2182.000000	100.139406 
2181.000000	100.134953 
2180.000000	100.124948 
2179.000000	100.119397 
2178.000000	100.120185 
2177.000000	100.120362 
2176.000000	100.114722 
2175.000000	100.104689 
2174.000000	100.093656 
2173.000000	100.084565 
2172.000000	100.081703 
2171.000000	100.087637 
2170.000000	100.097703 
2169.000000	100.103904 
2168.000000	100.105253 
2167.000000	100.108119 
2166.000000	100.115528 
2165.000000	100.123012 
2164.000000	100.127162 
2163.000000	100.131613 
2162.000000	100.141173 
2161.000000	100.155013 
2160.000000	100.168282 
2159.000000	100.176302 
2158.000000	100.176367 
2157.000000	100.170897 
2156.000000	100.168578 
2155.000000	100.175728 
2154.000000	100.186358 
2153.000000	100.186643 
2152.000000	100.170355 
2151.000000	100.145389 
2150.000000	100.124992 
2149.000000	100.117713 
2148.000000	100.125079 
2147.000000	100.141626 
2146.000000	100.155070 
2145.000000	100.153732 
2144.000000	100.138640 
2143.000000	100.123609 
2142.000000	100.119853 
2141.000000	100.124745 
2140.000000	100.128910 
2139.000000	100.129364 
2138.000000	100.129606 
2137.000000	100.129662 
2136.000000	100.123688 
2135.000000	100.109099 
2134.000000	100.093091 
2133.000000	100.086117 
2132.000000	100.089723 
2131.000000	100.093688 
2130.000000	100.086434 
2129.000000	100.067856 
2128.000000	100.050354 
2127.000000	100.045709 
2126.000000	100.052416 
2125.000000	100.058869 
2124.000000	100.058671 
2123.000000	100.058359 
2122.000000	100.067567 
2121.000000	100.085194 
2120.000000	100.099691 
2119.000000	100.101861 
2118.000000	100.093174 
2117.000000	100.081501 
2116.000000	100.072822 
2115.000000	100.068771 
2114.000000	100.069012 
2113.000000	100.072319 
2112.000000	100.075851 
2111.000000	100.076247 
2110.000000	100.072563 
2109.000000	100.067261 
2108.000000	100.063595 
2107.000000	100.062114 
2106.000000	100.059670 
2105.000000	100.051765 
2104.000000	100.036808 
2103.000000	100.019162 
2102.000000	100.007515 
2101.000000	100.008195 
2100.000000	100.019072 
2099.000000	100.031293 
2098.000000	100.038062 
2097.000000	100.040800 
2096.000000	100.045343 
2095.000000	100.052761 
2094.000000	100.056480 
2093.000000	100.049689 
2092.000000	100.034169 
2091.000000	100.020003 
2090.000000	100.016437 
2089.000000	100.023425 
2088.000000	100.032502 
2087.000000	100.036110 
2086.000000	100.035168 
2085.000000	100.036573 
2084.000000	100.043892 
2083.000000	100.052712 
2082.000000	100.056273 
2081.000000	100.053651 
2080.000000	100.049925 
2079.000000	100.049317 
2078.000000	100.051628 
2077.000000	100.056016 
2076.000000	100.064619 
2075.000000	100.079579 
2074.000000	100.097861 
2073.000000	100.111878 
2072.000000	100.115881 
2071.000000	100.110691 
2070.000000	100.102135 
2069.000000	100.095933 
2068.000000	100.094078 
2067.000000	100.095165 
2066.000000	100.097079 
2065.000000	100.098489 
2064.000000	100.098268 
2063.000000	100.095537 
2062.000000	100.091852 
2061.000000	100.091813 
2060.000000	100.098657 
2059.000000	100.109531 
2058.000000	100.117826 
2057.000000	100.120254 
2056.000000	100.118872 
2055.000000	100.116014 
2054.000000	100.111309 
2053.000000	100.105644 
2052.000000	100.104110 
2051.000000	100.111135 
2050.000000	100.123804 
2049.000000	100.133054 
2048.000000	100.132586 
2047.000000	100.124860 
2046.000000	100.117508 
2045.000000	100.115754 
2044.000000	100.118775 
2043.000000	100.121896 
2042.000000	100.121924 
2041.000000	100.120925 
2040.000000	100.124475 
2039.000000	100.135729 
2038.000000	100.152134 
2037.000000	100.167912 
2036.000000	100.178483 
2035.000000	100.182561 
2034.000000	100.181916 
2033.000000	100.179724 
2032.000000	100.176884 
2031.000000	100.169864 
2030.000000	100.155440 
2029.000000	100.137780 
2028.000000	100.126275 
2027.000000	100.125104 
2026.000000	100.130042 
2025.000000	100.137280 
2024.000000	100.149119 
2023.000000	100.166419 
2022.000000	100.180554 
2021.000000	100.180555 
2020.000000	100.167192 
2019.000000	100.153242 
2018.000000	100.149187 
2017.000000	100.153135 
2016.000000	100.155763 
2015.000000	100.151345 
2014.000000	100.141573 
2013.000000	100.131574 
2012.000000	100.124989 
2011.000000	100.122589 
2010.000000	100.125052 
2009.000000	100.135572 
2008.000000	100.156496 
2007.000000	100.182095 
2006.000000	100.198765 
2005.000000	100.197090 
2004.000000	100.182176 
2003.000000	100.167648 
2002.000000	100.160617 
2001.000000	100.156262 
2000.000000	100.146219 
1999.000000	100.128833 
1998.000000	100.110678 
1997.000000	100.100387 
1996.000000	100.102026 
1995.000000	100.113238 
1994.000000	100.127912 
1993.000000	100.139816 
1992.000000	100.145286 
1991.000000	100.144268 
1990.000000	100.139716 
1989.000000	100.136193 
1988.000000	100.137497 
1987.000000	100.143737 
1986.000000	100.150735 
1985.000000	100.153802 
1984.000000	100.152715 
1983.000000	100.152156 
1982.000000	100.156528 
1981.000000	100.164354 
1980.000000	100.168449 
1979.000000	100.163000 
1978.000000	100.150972 
1977.000000	100.142210 
1976.000000	100.142347 
1975.000000	100.147048 
1974.000000	100.150542 
1973.000000	100.155955 
1972.000000	100.171379 
1971.000000	100.195912 
1970.000000	100.215106 
1969.000000	100.213643 
1968.000000	100.191367 
1967.000000	100.164096 
1966.000000	100.147783 
1965.000000	100.144703 
1964.000000	100.146415 
1963.000000	100.146127 
1962.000000	100.144280 
1961.000000	100.143124 
1960.000000	100.140574 
1959.000000	100.133163 
1958.000000	100.123200 
1957.000000	100.117994 
1956.000000	100.121274 
1955.000000	100.129218 
1954.000000	100.135885 
1953.000000	100.138548 
1952.000000	100.135996 
1951.000000	100.125962 
1950.000000	100.108860 
1949.000000	100.092152 
1948.000000	100.085066 
1947.000000	100.087869 
1946.000000	100.090452 
1945.000000	100.083147 
1944.000000	100.066833 
1943.000000	100.051729 
1942.000000	100.047303 
1941.000000	100.053831 
1940.000000	100.063662 
1939.000000	100.069451 
1938.000000	100.070602 
1937.000000	100.072201 
1936.000000	100.077505 
1935.000000	100.083155 
1934.000000	100.083972 
1933.000000	100.080808 
1932.000000	100.080243 
1931.000000	100.086030 
1930.000000	100.094164 
1929.000000	100.098286 
1928.000000	100.096952 
1927.000000	100.093499 
1926.000000	100.090887 
1925.000000	100.089171 
1924.000000	100.087339 
1923.000000	100.085319 
1922.000000	100.083993 
1921.000000	100.084017 
1920.000000	100.084115 
1919.000000	100.080843 
1918.000000	100.071851 
1917.000000	100.059969 
1916.000000	100.051076 
1915.000000	100.047461 
1914.000000	100.047378 
1913.000000	100.049614 
1912.000000	100.054390 
1911.000000	100.060024 
1910.000000	100.062356 
1909.000000	100.060055 
1908.000000	100.057451 
1907.000000	100.059359 
1906.000000	100.065323 
1905.000000	100.070855 
1904.000000	100.072455 
1903.000000	100.069535 
1902.000000	100.063808 
1901.000000	100.058859 
1900.000000	100.057620 
1899.000000	100.059167 
1898.000000	100.060086 
1897.000000	100.059291 
1896.000000	100.059159 
1895.000000	100.060677 
1894.000000	100.060969 
1893.000000	100.058292 
1892.000000	100.055318 
1891.000000	100.054715 
1890.000000	100.054490 
1889.000000	100.050961 
1888.000000	100.045089 
1887.000000	100.041254 
1886.000000	100.041543 
1885.000000	100.044918 
1884.000000	100.049772 
1883.000000	100.054686 
1882.000000	100.057944 
1881.000000	100.058775 
1880.000000	100.058423 
1879.000000	100.058940 
1878.000000	100.061755 
1877.000000	100.067316 
1876.000000	100.074615 
1875.000000	100.080293 
1874.000000	100.079938 
1873.000000	100.072368 
1872.000000	100.061073 
1871.000000	100.050086 
1870.000000	100.040322 
1869.000000	100.031475 
1868.000000	100.025873 
1867.000000	100.026176 
1866.000000	100.030587 
1865.000000	100.034513 
1864.000000	100.034770 
1863.000000	100.030649 
1862.000000	100.023562 
1861.000000	100.017406 
1860.000000	100.017464 
1859.000000	100.025968 
1858.000000	100.039170 
1857.000000	100.050560 
1856.000000	100.056468 
1855.000000	100.057522 
1854.000000	100.056256 
1853.000000	100.054947 
1852.000000	100.054030 
1851.000000	100.052056 
1850.000000	100.048775 
1849.000000	100.047348 
1848.000000	100.051227 
1847.000000	100.058899 
1846.000000	100.064681 
1845.000000	100.065283 
1844.000000	100.064051 
1843.000000	100.065919 
1842.000000	100.070441 
1841.000000	100.073659 
1840.000000	100.073105 
1839.000000	100.069478 
1838.000000	100.065238 
1837.000000	100.062457 
1836.000000	100.061525 
1835.000000	100.061005 
1834.000000	100.059451 
1833.000000	100.056824 
1832.000000	100.053347 
1831.000000	100.049276 
1830.000000	100.046528 
1829.000000	100.047825 
1828.000000	100.053121 
1827.000000	100.058299 
1826.000000	100.058852 
1825.000000	100.055147 
1824.000000	100.051780 
1823.000000	100.050269 
1822.000000	100.046117 
1821.000000	100.036213 
1820.000000	100.025614 
1819.000000	100.023187 
1818.000000	100.030819 
1817.000000	100.041271 
1816.000000	100.047752 
1815.000000	100.050219 
1814.000000	100.051580 
1813.000000	100.052799 
1812.000000	100.053977 
1811.000000	100.056860 
1810.000000	100.062078 
1809.000000	100.067142 
1808.000000	100.069798 
1807.000000	100.069654 
1806.000000	100.066668 
1805.000000	100.061496 
1804.000000	100.056524 
1803.000000	100.053442 
1802.000000	100.050409 
1801.000000	100.044101 
1800.000000	100.035667 
1799.000000	100.030902 
1798.000000	100.032963 
1797.000000	100.040031 
1796.000000	100.048960 
1795.000000	100.056832 
1794.000000	100.060685 
1793.000000	100.058637 
1792.000000	100.053324 
1791.000000	100.050620 
1790.000000	100.052156 
1789.000000	100.054936 
1788.000000	100.056940 
1787.000000	100.058467 
1786.000000	100.059557 
1785.000000	100.059273 
1784.000000	100.057546 
1783.000000	100.054979 
1782.000000	100.051824 
1781.000000	100.048364 
1780.000000	100.045265 
1779.000000	100.043211 
1778.000000	100.042467 
1777.000000	100.043849 
1776.000000	100.048134 
1775.000000	100.053652 
1774.000000	100.057263 
1773.000000	100.057776 
1772.000000	100.057173 
1771.000000	100.058278 
1770.000000	100.060655 
1769.000000	100.060277 
1768.000000	100.055128 
1767.000000	100.048598 
1766.000000	100.044906 
1765.000000	100.044089 
1764.000000	100.043825 
1763.000000	100.043973 
1762.000000	100.046348 
1761.000000	100.050333 
1760.000000	100.053294 
1759.000000	100.054772 
1758.000000	100.057040 
1757.000000	100.062738 
1756.000000	100.070382 
1755.000000	100.075814 
1754.000000	100.077274 
1753.000000	100.075826 
1752.000000	100.073200 
1751.000000	100.069825 
1750.000000	100.065193 
1749.000000	100.060134 
1748.000000	100.056838 
1747.000000	100.056511 
1746.000000	100.058396 
1745.000000	100.059796 
1744.000000	100.058406 
1743.000000	100.055492 
1742.000000	100.054211 
1741.000000	100.055080 
1740.000000	100.056323 
1739.000000	100.057869 
1738.000000	100.061978 
1737.000000	100.068127 
1736.000000	100.072639 
1735.000000	100.072898 
1734.000000	100.069283 
1733.000000	100.064915 
1732.000000	100.062503 
1731.000000	100.060463 
1730.000000	100.056780 
1729.000000	100.053876 
1728.000000	100.053466 
1727.000000	100.054335 
1726.000000	100.054494 
1725.000000	100.053740 
1724.000000	100.052437 
1723.000000	100.050579 
1722.000000	100.048169 
1721.000000	100.046829 
1720.000000	100.049285 
1719.000000	100.058199 
1718.000000	100.071079 
1717.000000	100.077752 
1716.000000	100.076055 
1715.000000	100.073432 
1714.000000	100.071196 
1713.000000	100.067299 
1712.000000	100.063098 
1711.000000	100.060587 
1710.000000	100.059649 
1709.000000	100.059401 
1708.000000	100.059763 
1707.000000	100.060883 
1706.000000	100.061717 
1705.000000	100.060721 
1704.000000	100.060039 
1703.000000	100.060833 
1702.000000	100.059677 
1701.000000	100.052054 
1700.000000	100.041763 
1699.000000	100.040392 
1698.000000	100.047580 
1697.000000	100.052306 
1696.000000	100.050138 
1695.000000	100.046491 
1694.000000	100.045856 
1693.000000	100.046434 
1692.000000	100.045068 
1691.000000	100.042018 
1690.000000	100.039299 
1689.000000	100.038355 
1688.000000	100.039560 
1687.000000	100.042572 
1686.000000	100.047089 
1685.000000	100.052638 
1684.000000	100.056104 
1683.000000	100.053858 
1682.000000	100.048681 
1681.000000	100.044431 
1680.000000	100.041161 
1679.000000	100.040287 
1678.000000	100.041032 
1677.000000	100.041149 
1676.000000	100.038231 
1675.000000	100.033467 
1674.000000	100.031519 
1673.000000	100.034549 
1672.000000	100.039515 
1671.000000	100.043011 
1670.000000	100.043746 
1669.000000	100.042288 
1668.000000	100.039723 
1667.000000	100.036576 
1666.000000	100.033143 
1665.000000	100.029489 
1664.000000	100.026589 
1663.000000	100.026040 
1662.000000	100.027938 
1661.000000	100.031587 
1660.000000	100.035245 
1659.000000	100.037151 
1658.000000	100.036664 
1657.000000	100.035509 
1656.000000	100.033520 
1655.000000	100.030010 
1654.000000	100.028101 
1653.000000	100.029682 
1652.000000	100.031938 
1651.000000	100.035994 
1650.000000	100.040675 
1649.000000	100.039616 
1648.000000	100.035374 
1647.000000	100.031414 
1646.000000	100.029176 
1645.000000	100.027678 
1644.000000	100.029164 
1643.000000	100.032563 
1642.000000	100.034367 
1641.000000	100.031964 
1640.000000	100.026744 
1639.000000	100.022655 
1638.000000	100.022178 
1637.000000	100.026364 
1636.000000	100.034368 
1635.000000	100.040093 
1634.000000	100.040222 
1633.000000	100.037236 
1632.000000	100.032067 
1631.000000	100.024637 
1630.000000	100.016051 
1629.000000	100.009538 
1628.000000	100.007730 
1627.000000	100.009057 
1626.000000	100.009870 
1625.000000	100.008899 
1624.000000	100.007899 
1623.000000	100.008189 
1622.000000	100.009066 
1621.000000	100.010452 
1620.000000	100.011808 
1619.000000	100.011516 
1618.000000	100.010151 
1617.000000	100.012217 
1616.000000	100.019960 
1615.000000	100.028372 
1614.000000	100.033108 
1613.000000	100.035137 
1612.000000	100.037739 
1611.000000	100.041456 
1610.000000	100.043289 
1609.000000	100.041835 
1608.000000	100.039257 
1607.000000	100.037469 
1606.000000	100.036558 
1605.000000	100.036439 
1604.000000	100.037007 
1603.000000	100.038035 
1602.000000	100.039963 
1601.000000	100.043795 
1600.000000	100.049201 
1599.000000	100.053915 
1598.000000	100.056273 
1597.000000	100.056805 
1596.000000	100.056699 
1595.000000	100.055889 
1594.000000	100.054177 
1593.000000	100.053457 
1592.000000	100.055958 
1591.000000	100.060753 
1590.000000	100.064741 
1589.000000	100.066982 
1588.000000	100.069288 
1587.000000	100.072581 
1586.000000	100.075754 
1585.000000	100.078241 
1584.000000	100.080193 
1583.000000	100.080605 
1582.000000	100.078612 
1581.000000	100.075651 
1580.000000	100.073702 
1579.000000	100.072365 
1578.000000	100.070240 
1577.000000	100.068306 
1576.000000	100.068246 
1575.000000	100.068440 
1574.000000	100.068147 
1573.000000	100.067984 
1572.000000	100.066932 
1571.000000	100.065550 
1570.000000	100.066264 
1569.000000	100.070895 
1568.000000	100.076868 
1567.000000	100.080514 
1566.000000	100.080809 
1565.000000	100.079898 
1564.000000	100.078770 
1563.000000	100.076444 
1562.000000	100.071865 
1561.000000	100.066737 
1560.000000	100.067200 
1559.000000	100.074060 
1558.000000	100.076141 
1557.000000	100.076849 
1556.000000	100.082705 
1555.000000	100.084555 
1554.000000	100.082972 
1553.000000	100.080245 
1552.000000	100.079269 
1551.000000	100.078785 
1550.000000	100.079740 
1549.000000	100.083697 
1548.000000	100.089293 
1547.000000	100.091242 
1546.000000	100.085327 
1545.000000	100.073651 
1544.000000	100.064772 
1543.000000	100.066671 
1542.000000	100.079986 
1541.000000	100.097544 
1540.000000	100.107600 
1539.000000	100.103228 
1538.000000	100.093284 
1537.000000	100.088504 
1536.000000	100.088175 
1535.000000	100.088579 
1534.000000	100.086005 
1533.000000	100.079704 
1532.000000	100.073526 
1531.000000	100.071998 
1530.000000	100.072957 
1529.000000	100.071902 
1528.000000	100.068449 
1527.000000	100.066059 
1526.000000	100.067690 
1525.000000	100.072920 
1524.000000	100.080054 
1523.000000	100.088479 
1522.000000	100.096402 
1521.000000	100.098468 
1520.000000	100.092879 
1519.000000	100.083782 
1518.000000	100.074087 
1517.000000	100.066020 
1516.000000	100.062596 
1515.000000	100.063516 
1514.000000	100.065282 
1513.000000	100.064470 
1512.000000	100.061426 
1511.000000	100.059140 
1510.000000	100.058803 
1509.000000	100.059253 
1508.000000	100.062593 
1507.000000	100.073078 
1506.000000	100.079958 
1505.000000	100.074985 
1504.000000	100.068415 
1503.000000	100.065855 
1502.000000	100.066794 
1501.000000	100.067757 
1500.000000	100.066105 
1499.000000	100.062643 
1498.000000	100.060207 
1497.000000	100.057124 
1496.000000	100.050469 
1495.000000	100.044448 
1494.000000	100.044060 
1493.000000	100.047716 
1492.000000	100.050959 
1491.000000	100.051463 
1490.000000	100.049553 
1489.000000	100.045597 
1488.000000	100.041232 
1487.000000	100.038465 
1486.000000	100.035327 
1485.000000	100.030541 
1484.000000	100.025924 
1483.000000	100.023415 
1482.000000	100.023398 
1481.000000	100.024376 
1480.000000	100.024929 
1479.000000	100.024622 
1478.000000	100.023265 
1477.000000	100.021055 
1476.000000	100.020158 
1475.000000	100.022817 
1474.000000	100.027936 
1473.000000	100.031502 
1472.000000	100.030904 
1471.000000	100.028674 
1470.000000	100.027162 
1469.000000	100.025009 
1468.000000	100.021243 
1467.000000	100.017300 
1466.000000	100.014767 
1465.000000	100.013799 
1464.000000	100.013807 
1463.000000	100.015058 
1462.000000	100.016854 
1461.000000	100.017246 
1460.000000	100.015761 
1459.000000	100.013497 
1458.000000	100.010712 
1457.000000	100.002375 
1456.000000	99.987006  
1455.000000	99.974840  
1454.000000	99.971625  
1453.000000	99.972599  
1452.000000	99.974291  
1451.000000	99.976442  
1450.000000	99.979283  
1449.000000	99.979914  
1448.000000	99.976685  
1447.000000	99.972847  
1446.000000	99.972490  
1445.000000	99.975092  
1444.000000	99.977431  
1443.000000	99.978617  
1442.000000	99.979779  
1441.000000	99.981177  
1440.000000	99.981710  
1439.000000	99.981199  
1438.000000	99.981464  
1437.000000	99.983497  
1436.000000	99.985378  
1435.000000	99.986367  
1434.000000	99.987127  
1433.000000	99.985760  
1432.000000	99.981331  
1431.000000	99.976419  
1430.000000	99.974133  
1429.000000	99.973441  
1428.000000	99.971150  
1427.000000	99.966821  
1426.000000	99.962503  
1425.000000	99.960103  
1424.000000	99.958837  
1423.000000	99.956608  
1422.000000	99.951785  
1421.000000	99.942579  
1420.000000	99.928420  
1419.000000	99.914468  
1418.000000	99.907459  
1417.000000	99.904594  
1416.000000	99.897977  
1415.000000	99.885221  
1414.000000	99.870073  
1413.000000	99.856149  
1412.000000	99.843865  
1411.000000	99.832871  
1410.000000	99.823772  
1409.000000	99.815919  
1408.000000	99.808470  
1407.000000	99.803261  
1406.000000	99.803398  
1405.000000	99.809360  
1404.000000	99.818200  
1403.000000	99.828697  
1402.000000	99.842459  
1401.000000	99.859322  
1400.000000	99.875789  
1399.000000	99.886950  
1398.000000	99.888557  
1397.000000	99.876411  
1396.000000	99.848707  
1395.000000	99.815150  
1394.000000	99.797831  
1393.000000	99.810271  
1392.000000	99.843097  
1391.000000	99.877567  
1390.000000	99.901545  
1389.000000	99.912407  
1388.000000	99.912594  
1387.000000	99.905700  
1386.000000	99.895995  
1385.000000	99.887566  
1384.000000	99.881965  
1383.000000	99.878503  
1382.000000	99.876445  
1381.000000	99.876221  
1380.000000	99.879340  
1379.000000	99.886473  
1378.000000	99.896132  
1377.000000	99.905766  
1376.000000	99.913928  
1375.000000	99.921193  
1374.000000	99.929598  
1373.000000	99.940663  
1372.000000	99.953681  
1371.000000	99.966007  
1370.000000	99.975194  
1369.000000	99.981449  
1368.000000	99.986608  
1367.000000	99.992065  
1366.000000	99.998127  
1365.000000	100.004531 
1364.000000	100.011072 
1363.000000	100.017310 
1362.000000	100.022104 
1361.000000	100.025143 
1360.000000	100.028114 
1359.000000	100.033055 
1358.000000	100.040521 
1357.000000	100.049211 
1356.000000	100.056764 
1355.000000	100.061752 
1354.000000	100.065100 
1353.000000	100.068661 
1352.000000	100.072847 
1351.000000	100.075800 
1350.000000	100.075576 
1349.000000	100.073471 
1348.000000	100.072568 
1347.000000	100.074196 
1346.000000	100.077307 
1345.000000	100.080716 
1344.000000	100.083835 
1343.000000	100.085667 
1342.000000	100.085174 
1341.000000	100.083250 
1340.000000	100.082433 
1339.000000	100.083747 
1338.000000	100.085985 
1337.000000	100.088619 
1336.000000	100.092628 
1335.000000	100.097813 
1334.000000	100.101542 
1333.000000	100.101595 
1332.000000	100.099147 
1331.000000	100.097355 
1330.000000	100.097743 
1329.000000	100.099339 
1328.000000	100.100679 
1327.000000	100.101005 
1326.000000	100.100087 
1325.000000	100.098424 
1324.000000	100.096955 
1323.000000	100.096303 
1322.000000	100.096427 
1321.000000	100.097401 
1320.000000	100.100001 
1319.000000	100.104583 
1318.000000	100.109364 
1317.000000	100.111107 
1316.000000	100.108305 
1315.000000	100.103040 
1314.000000	100.099026 
1313.000000	100.097843 
1312.000000	100.097778 
1311.000000	100.096488 
1310.000000	100.093930 
1309.000000	100.092073 
1308.000000	100.092512 
1307.000000	100.094857 
1306.000000	100.097266 
1305.000000	100.098246 
1304.000000	100.097467 
1303.000000	100.095650 
1302.000000	100.093905 
1301.000000	100.092995 
1300.000000	100.093027 
1299.000000	100.093938 
1298.000000	100.095966 
1297.000000	100.099157 
1296.000000	100.102455 
1295.000000	100.103823 
1294.000000	100.101808 
1293.000000	100.096709 
1292.000000	100.090103 
1291.000000	100.083753 
1290.000000	100.079173 
1289.000000	100.077548 
1288.000000	100.079006 
1287.000000	100.081779 
1286.000000	100.083003 
1285.000000	100.080972 
1284.000000	100.076282 
1283.000000	100.070619 
1282.000000	100.064920 
1281.000000	100.059251 
1280.000000	100.053912 
1279.000000	100.049497 
1278.000000	100.045972 
1277.000000	100.042640 
1276.000000	100.039272 
1275.000000	100.036254 
1274.000000	100.033375 
1273.000000	100.029462 
1272.000000	100.023898 
1271.000000	100.017693 
1270.000000	100.012186 
1269.000000	100.007280 
1268.000000	100.001804 
1267.000000	99.995181  
1266.000000	99.987840  
1265.000000	99.980179  
1264.000000	99.972172  
1263.000000	99.963944  
1262.000000	99.955756  
1261.000000	99.947583  
1260.000000	99.939550  
1259.000000	99.932425  
1258.000000	99.926744  
1257.000000	99.921727  
1256.000000	99.916440  
1255.000000	99.911684  
1254.000000	99.909055  
1253.000000	99.908150  
1252.000000	99.906763  
1251.000000	99.904392  
1250.000000	99.903519  
1249.000000	99.906273  
1248.000000	99.911511  
1247.000000	99.916328  
1246.000000	99.918561  
1245.000000	99.916114  
1244.000000	99.906502  
1243.000000	99.890803  
1242.000000	99.876910  
1241.000000	99.874276  
1240.000000	99.884148  
1239.000000	99.897603  
1238.000000	99.904378  
1237.000000	99.901616  
1236.000000	99.893125  
1235.000000	99.883169  
1234.000000	99.873558  
1233.000000	99.864722  
1232.000000	99.856284  
1231.000000	99.846833  
1230.000000	99.835692  
1229.000000	99.825239  
1228.000000	99.819488  
1227.000000	99.819571  
1226.000000	99.822008  
1225.000000	99.822324  
1224.000000	99.819343  
1223.000000	99.815012  
1222.000000	99.810994  
1221.000000	99.806847  
1220.000000	99.801465  
1219.000000	99.795081  
1218.000000	99.789132  
1217.000000	99.784344  
1216.000000	99.779428  
1215.000000	99.771866  
1214.000000	99.759891  
1213.000000	99.743590  
1212.000000	99.724485  
1211.000000	99.704876  
1210.000000	99.687549  
1209.000000	99.674863  
1208.000000	99.666857  
1207.000000	99.660324  
1206.000000	99.650926  
1205.000000	99.636890  
1204.000000	99.620267  
1203.000000	99.604418  
1202.000000	99.590866  
1201.000000	99.578701  
1200.000000	99.566173  
1199.000000	99.552210  
1198.000000	99.536937  
1197.000000	99.521246  
1196.000000	99.505561  
1195.000000	99.488869  
1194.000000	99.469758  
1193.000000	99.448758  
1192.000000	99.428462  
1191.000000	99.410423  
1190.000000	99.392987  
1189.000000	99.373548  
1188.000000	99.352158  
1187.000000	99.331272  
1186.000000	99.312340  
1185.000000	99.294372  
1184.000000	99.275794  
1183.000000	99.255970  
1182.000000	99.234667  
1181.000000	99.211666  
1180.000000	99.187362  
1179.000000	99.162536  
1178.000000	99.137350  
1177.000000	99.111747  
1176.000000	99.086557  
1175.000000	99.062226  
1174.000000	99.036423  
1173.000000	99.005523  
1172.000000	98.969562  
1171.000000	98.933713  
1170.000000	98.903285  
1169.000000	98.878548  
1168.000000	98.855733  
1167.000000	98.831964  
1166.000000	98.808124  
1165.000000	98.788134  
1164.000000	98.776647  
1163.000000	98.776433  
1162.000000	98.786481  
1161.000000	98.802796  
1160.000000	98.821117  
1159.000000	98.837874  
1158.000000	98.848746  
1157.000000	98.848606  
1156.000000	98.834689  
1155.000000	98.809573  
1154.000000	98.780200  
1153.000000	98.753533  
1152.000000	98.732468  
1151.000000	98.714586  
1150.000000	98.694708  
1149.000000	98.670070  
1148.000000	98.643439  
1147.000000	98.620086  
1146.000000	98.601613  
1145.000000	98.584235  
1144.000000	98.563340  
1143.000000	98.538032  
1142.000000	98.510937  
1141.000000	98.485551  
1140.000000	98.464496  
1139.000000	98.448216  
1138.000000	98.433826  
1137.000000	98.416717  
1136.000000	98.394629  
1135.000000	98.369201  
1134.000000	98.342835  
1133.000000	98.315609  
1132.000000	98.286551  
1131.000000	98.256602  
1130.000000	98.228552  
1129.000000	98.204294  
1128.000000	98.182883  
1127.000000	98.160937  
1126.000000	98.135000  
1125.000000	98.104785  
1124.000000	98.074264  
1123.000000	98.048096  
1122.000000	98.026567  
1121.000000	98.005400  
1120.000000	97.980765  
1119.000000	97.952756  
1118.000000	97.923729  
1117.000000	97.895410  
1116.000000	97.868461  
1115.000000	97.842999  
1114.000000	97.818425  
1113.000000	97.794094  
1112.000000	97.770518  
1111.000000	97.748064  
1110.000000	97.724253  
1109.000000	97.695007  
1108.000000	97.659723  
1107.000000	97.623143  
1106.000000	97.590565  
1105.000000	97.562742  
1104.000000	97.536858  
1103.000000	97.510734  
1102.000000	97.484734  
1101.000000	97.460365  
1100.000000	97.438361  
1099.000000	97.418005  
1098.000000	97.397307  
1097.000000	97.375517  
1096.000000	97.354435  
1095.000000	97.335684  
1094.000000	97.316849  
1093.000000	97.292487  
1092.000000	97.259123  
1091.000000	97.217767  
1090.000000	97.172278  
1089.000000	97.127555  
1088.000000	97.088386  
1087.000000	97.056405  
1086.000000	97.027782  
1085.000000	96.997146  
1084.000000	96.964121  
1083.000000	96.932789  
1082.000000	96.904619  
1081.000000	96.875999  
1080.000000	96.843744  
1079.000000	96.809223  
1078.000000	96.775782  
1077.000000	96.745802  
1076.000000	96.721845  
1075.000000	96.706908  
1074.000000	96.700896  
1073.000000	96.698823  
1072.000000	96.693182  
1071.000000	96.675643  
1070.000000	96.637714  
1069.000000	96.576102  
1068.000000	96.500410  
1067.000000	96.431139  
1066.000000	96.385060  
1065.000000	96.362973  
1064.000000	96.352850  
1063.000000	96.340998  
1062.000000	96.317705  
1061.000000	96.277230  
1060.000000	96.219418  
1059.000000	96.152403  
1058.000000	96.089763  
1057.000000	96.042036  
1056.000000	96.010187  
1055.000000	95.986203  
1054.000000	95.959487  
1053.000000	95.924400  
1052.000000	95.883297  
1051.000000	95.842313  
1050.000000	95.804444  
1049.000000	95.767857  
1048.000000	95.730082  
1047.000000	95.691450  
1046.000000	95.654451  
1045.000000	95.621290  
1044.000000	95.591523  
1043.000000	95.561106  
1042.000000	95.525684  
1041.000000	95.486514  
1040.000000	95.450834  
1039.000000	95.424269  
1038.000000	95.405605  
1037.000000	95.391636  
1036.000000	95.383222  
1035.000000	95.381865  
1034.000000	95.383464  
1033.000000	95.381002  
1032.000000	95.371413  
1031.000000	95.355071  
1030.000000	95.331966  
1029.000000	95.305226  
1028.000000	95.285958  
1027.000000	95.285628  
1026.000000	95.302361  
1025.000000	95.321497  
1024.000000	95.330758  
1023.000000	95.329165  
1022.000000	95.321308  
1021.000000	95.310253  
1020.000000	95.298170  
1019.000000	95.287681  
1018.000000	95.279209  
1017.000000	95.270857  
1016.000000	95.262774  
1015.000000	95.257731  
1014.000000	95.256077  
1013.000000	95.254204  
1012.000000	95.249386  
1011.000000	95.242438  
1010.000000	95.234784  
1009.000000	95.226915  
1008.000000	95.220723  
1007.000000	95.219353  
1006.000000	95.223338  
1005.000000	95.230025  
1004.000000	95.237389  
1003.000000	95.245221  
1002.000000	95.252678  
1001.000000	95.258358  
1000.000000	95.262737  
999.000000	 95.266806  
998.000000	 95.268882  
997.000000	 95.267238  
996.000000	 95.265489  
995.000000	 95.270231  
994.000000	 95.282737  
993.000000	 95.297643  
992.000000	 95.310327  
991.000000	 95.320700  
990.000000	 95.329103  
989.000000	 95.333904  
988.000000	 95.335320  
987.000000	 95.337656  
986.000000	 95.345532  
985.000000	 95.360321  
984.000000	 95.380785  
983.000000	 95.404097  
982.000000	 95.426123  
981.000000	 95.444400  
980.000000	 95.461492  
979.000000	 95.482643  
978.000000	 95.510259  
977.000000	 95.543266  
976.000000	 95.580227  
975.000000	 95.619007  
974.000000	 95.655143  
973.000000	 95.686043  
972.000000	 95.716284  
971.000000	 95.753302  
970.000000	 95.797670  
969.000000	 95.842690  
968.000000	 95.883700  
967.000000	 95.922549  
966.000000	 95.962394  
965.000000	 96.003394  
964.000000	 96.044764  
963.000000	 96.086451  
962.000000	 96.127379  
961.000000	 96.165927  
960.000000	 96.202977  
959.000000	 96.240703  
958.000000	 96.277958  
957.000000	 96.311111  
956.000000	 96.340100  
955.000000	 96.369418  
954.000000	 96.402082  
953.000000	 96.436374  
952.000000	 96.469272  
951.000000	 96.499237  
950.000000	 96.524984  
949.000000	 96.545559  
948.000000	 96.562634  
947.000000	 96.579086  
946.000000	 96.594520  
945.000000	 96.605893  
944.000000	 96.613460  
943.000000	 96.622443  
942.000000	 96.637547  
941.000000	 96.658543  
940.000000	 96.681500  
939.000000	 96.701337  
938.000000	 96.713724  
937.000000	 96.718679  
936.000000	 96.722573  
935.000000	 96.732619  
934.000000	 96.749025  
933.000000	 96.766366  
932.000000	 96.782308  
931.000000	 96.799824  
930.000000	 96.820120  
929.000000	 96.838757  
928.000000	 96.850934  
927.000000	 96.856839  
926.000000	 96.860277  
925.000000	 96.865413  
924.000000	 96.875847  
923.000000	 96.892881  
922.000000	 96.912874  
921.000000	 96.929425  
920.000000	 96.939497  
919.000000	 96.944911  
918.000000	 96.947862  
917.000000	 96.948639  
916.000000	 96.948144  
915.000000	 96.948585  
914.000000	 96.950398  
913.000000	 96.951873  
912.000000	 96.952947  
911.000000	 96.956536  
910.000000	 96.965730  
909.000000	 96.982374  
908.000000	 97.007569  
907.000000	 97.039442  
906.000000	 97.071174  
905.000000	 97.096436  
904.000000	 97.117144  
903.000000	 97.141425  
902.000000	 97.173896  
901.000000	 97.212219  
900.000000	 97.252537  
899.000000	 97.292610  
898.000000	 97.329500  
897.000000	 97.360480  
896.000000	 97.387427  
895.000000	 97.415341  
894.000000	 97.445583  
893.000000	 97.475589  
892.000000	 97.505664  
891.000000	 97.539956  
890.000000	 97.579199  
889.000000	 97.618330  
888.000000	 97.653491  
887.000000	 97.686193  
886.000000	 97.718437  
885.000000	 97.748745  
884.000000	 97.775487  
883.000000	 97.799361  
882.000000	 97.820155  
881.000000	 97.835946  
880.000000	 97.848585  
879.000000	 97.865420  
878.000000	 97.891828  
877.000000	 97.925300  
876.000000	 97.959362  
875.000000	 97.989396  
874.000000	 98.012814  
873.000000	 98.028830  
872.000000	 98.041534  
871.000000	 98.059093  
870.000000	 98.086425  
869.000000	 98.121722  
868.000000	 98.161823  
867.000000	 98.206020  
866.000000	 98.251860  
865.000000	 98.292867  
864.000000	 98.325482  
863.000000	 98.354674  
862.000000	 98.387189  
861.000000	 98.421280  
860.000000	 98.448716  
859.000000	 98.466385  
858.000000	 98.480624  
857.000000	 98.499092  
856.000000	 98.522896  
855.000000	 98.548805  
854.000000	 98.575379  
853.000000	 98.603179  
852.000000	 98.630455  
851.000000	 98.652958  
850.000000	 98.669432  
849.000000	 98.684608  
848.000000	 98.704159  
847.000000	 98.727629  
846.000000	 98.748755  
845.000000	 98.762554  
844.000000	 98.769687  
843.000000	 98.773921  
842.000000	 98.778252  
841.000000	 98.783961  
840.000000	 98.789974  
839.000000	 98.791560  
838.000000	 98.783190  
837.000000	 98.765424  
836.000000	 98.746282  
835.000000	 98.733056  
834.000000	 98.725278  
833.000000	 98.718735  
832.000000	 98.713035  
831.000000	 98.710146  
830.000000	 98.707942  
829.000000	 98.702237  
828.000000	 98.695619  
827.000000	 98.697535  
826.000000	 98.712637  
825.000000	 98.733670  
824.000000	 98.749208  
823.000000	 98.755336  
822.000000	 98.757437  
821.000000	 98.762963  
820.000000	 98.774412  
819.000000	 98.787989  
818.000000	 98.798141  
817.000000	 98.803448  
816.000000	 98.806354  
815.000000	 98.806458  
814.000000	 98.797968  
813.000000	 98.776776  
812.000000	 98.745926  
811.000000	 98.708891  
810.000000	 98.660536  
809.000000	 98.591538  
808.000000	 98.500682  
807.000000	 98.396144  
806.000000	 98.284739  
805.000000	 98.167283  
804.000000	 98.046547  
803.000000	 97.932469  
802.000000	 97.834863  
801.000000	 97.755272  
800.000000	 97.689759  
799.000000	 97.636404  
798.000000	 97.597405  
797.000000	 97.576439  
796.000000	 97.575189  
795.000000	 97.589643  
794.000000	 97.609866  
793.000000	 97.627135  
792.000000	 97.641062  
791.000000	 97.656352  
790.000000	 97.674051  
789.000000	 97.690066  
788.000000	 97.700033  
787.000000	 97.700085  
786.000000	 97.684848  
785.000000	 97.651643  
784.000000	 97.606475  
783.000000	 97.559906  
782.000000	 97.517069  
781.000000	 97.477089  
780.000000	 97.441031  
779.000000	 97.413027  
778.000000	 97.393642  
777.000000	 97.380026  
776.000000	 97.373814  
775.000000	 97.381389  
774.000000	 97.404276  
773.000000	 97.435731  
772.000000	 97.468766  
771.000000	 97.501946  
770.000000	 97.536104  
769.000000	 97.570633  
768.000000	 97.603881  
767.000000	 97.632638  
766.000000	 97.651958  
765.000000	 97.661034  
764.000000	 97.667943  
763.000000	 97.681487  
762.000000	 97.698617  
761.000000	 97.707382  
760.000000	 97.702813  
759.000000	 97.692858  
758.000000	 97.688115  
757.000000	 97.692433  
756.000000	 97.703572  
755.000000	 97.715587  
754.000000	 97.720638  
753.000000	 97.717060  
752.000000	 97.716400  
751.000000	 97.733719  
750.000000	 97.768790  
749.000000	 97.804664  
748.000000	 97.826939  
747.000000	 97.837049  
746.000000	 97.844971  
745.000000	 97.857096  
744.000000	 97.874533  
743.000000	 97.896038  
742.000000	 97.918687  
741.000000	 97.941000  
740.000000	 97.967326  
739.000000	 98.003447  
738.000000	 98.046551  
737.000000	 98.085423  
736.000000	 98.111467  
735.000000	 98.124462  
734.000000	 98.128933  
733.000000	 98.132333  
732.000000	 98.145471  
731.000000	 98.174472  
730.000000	 98.210597  
729.000000	 98.237234  
728.000000	 98.248404  
727.000000	 98.252179  
726.000000	 98.255918  
725.000000	 98.258067  
724.000000	 98.256443  
723.000000	 98.254332  
722.000000	 98.254887  
721.000000	 98.258578  
720.000000	 98.269380  
719.000000	 98.293828  
718.000000	 98.329751  
717.000000	 98.364760  
716.000000	 98.389344  
715.000000	 98.403647  
714.000000	 98.410350  
713.000000	 98.411396  
712.000000	 98.414594  
711.000000	 98.431422  
710.000000	 98.461490  
709.000000	 98.488716  
708.000000	 98.499244  
707.000000	 98.494833  
706.000000	 98.483559  
705.000000	 98.466400  
704.000000	 98.441118  
703.000000	 98.412058  
702.000000	 98.385914  
701.000000	 98.361439  
700.000000	 98.330188  
699.000000	 98.284264  
698.000000	 98.221907  
697.000000	 98.151016  
696.000000	 98.089197  
695.000000	 98.053437  
694.000000	 98.045408  
693.000000	 98.053559  
692.000000	 98.069971  
691.000000	 98.095194  
690.000000	 98.127936  
689.000000	 98.162831  
688.000000	 98.200365  
687.000000	 98.244139  
686.000000	 98.284179  
685.000000	 98.301729  
684.000000	 98.296346  
683.000000	 98.289826  
682.000000	 98.297562  
681.000000	 98.312716  
680.000000	 98.324261  
679.000000	 98.331728  
678.000000	 98.334638  
677.000000	 98.329364  
676.000000	 98.325194  
675.000000	 98.340539  
674.000000	 98.373492  
673.000000	 98.394770  
672.000000	 98.383284  
671.000000	 98.353027  
670.000000	 98.333946  
669.000000	 98.347732  
668.000000	 98.393787  
667.000000	 98.442670  
666.000000	 98.475994  
665.000000	 98.499764  
664.000000	 98.516513  
663.000000	 98.535770  
662.000000	 98.563375  
661.000000	 98.584153  
660.000000	 98.576122  
659.000000	 98.542267  
658.000000	 98.509013  
657.000000	 98.494198  
656.000000	 98.493465  
655.000000	 98.496897  
654.000000	 98.501466  
653.000000	 98.503976  
652.000000	 98.499731  
651.000000	 98.493739  
650.000000	 98.496740  

