4000.000000	100.521566 
3999.000000	100.520365 
3998.000000	100.520363 
3997.000000	100.522994 
3996.000000	100.527242 
3995.000000	100.530976 
3994.000000	100.533118 
3993.000000	100.534367 
3992.000000	100.535996 
3991.000000	100.537912 
3990.000000	100.537932 
3989.000000	100.533747 
3988.000000	100.526045 
3987.000000	100.518817 
3986.000000	100.515894 
3985.000000	100.517729 
3984.000000	100.522068 
3983.000000	100.527069 
3982.000000	100.532578 
3981.000000	100.538793 
3980.000000	100.545053 
3979.000000	100.550366 
3978.000000	100.553987 
3977.000000	100.555102 
3976.000000	100.553031 
3975.000000	100.548322 
3974.000000	100.542574 
3973.000000	100.536956 
3972.000000	100.532228 
3971.000000	100.529806 
3970.000000	100.531232 
3969.000000	100.535868 
3968.000000	100.540966 
3967.000000	100.543995 
3966.000000	100.544142 
3965.000000	100.541864 
3964.000000	100.538449 
3963.000000	100.536241 
3962.000000	100.537293 
3961.000000	100.540629 
3960.000000	100.542913 
3959.000000	100.542077 
3958.000000	100.539320 
3957.000000	100.536950 
3956.000000	100.536445 
3955.000000	100.537919 
3954.000000	100.539951 
3953.000000	100.540484 
3952.000000	100.538390 
3951.000000	100.534800 
3950.000000	100.531638 
3949.000000	100.529772 
3948.000000	100.528733 
3947.000000	100.527514 
3946.000000	100.526078 
3945.000000	100.526263 
3944.000000	100.529951 
3943.000000	100.535571 
3942.000000	100.538467 
3941.000000	100.536136 
3940.000000	100.531759 
3939.000000	100.530654 
3938.000000	100.534336 
3937.000000	100.538459 
3936.000000	100.538773 
3935.000000	100.536928 
3934.000000	100.537085 
3933.000000	100.539086 
3932.000000	100.538423 
3931.000000	100.534562 
3930.000000	100.532580 
3929.000000	100.534749 
3928.000000	100.536431 
3927.000000	100.533493 
3926.000000	100.530192 
3925.000000	100.532094 
3924.000000	100.536416 
3923.000000	100.537932 
3922.000000	100.538454 
3921.000000	100.542142 
3920.000000	100.546421 
3919.000000	100.544950 
3918.000000	100.538974 
3917.000000	100.535335 
3916.000000	100.535581 
3915.000000	100.535329 
3914.000000	100.534360 
3913.000000	100.536007 
3912.000000	100.540547 
3911.000000	100.543052 
3910.000000	100.542070 
3909.000000	100.540673 
3908.000000	100.542217 
3907.000000	100.547005 
3906.000000	100.554896 
3905.000000	100.566626 
3904.000000	100.577502 
3903.000000	100.579022 
3902.000000	100.569193 
3901.000000	100.556914 
3900.000000	100.551849 
3899.000000	100.551961 
3898.000000	100.548705 
3897.000000	100.540725 
3896.000000	100.534560 
3895.000000	100.532928 
3894.000000	100.533265 
3893.000000	100.534147 
3892.000000	100.542731 
3891.000000	100.561336 
3890.000000	100.578550 
3889.000000	100.580972 
3888.000000	100.571153 
3887.000000	100.566507 
3886.000000	100.573274 
3885.000000	100.574746 
3884.000000	100.559804 
3883.000000	100.541170 
3882.000000	100.537091 
3881.000000	100.547721 
3880.000000	100.556386 
3879.000000	100.553542 
3878.000000	100.545469 
3877.000000	100.540651 
3876.000000	100.543559 
3875.000000	100.554134 
3874.000000	100.562760 
3873.000000	100.556151 
3872.000000	100.537968 
3871.000000	100.532034 
3870.000000	100.547916 
3869.000000	100.560496 
3868.000000	100.550465 
3867.000000	100.534317 
3866.000000	100.539517 
3865.000000	100.560562 
3864.000000	100.566719 
3863.000000	100.552213 
3862.000000	100.542362 
3861.000000	100.547179 
3860.000000	100.554444 
3859.000000	100.552517 
3858.000000	100.544063 
3857.000000	100.535156 
3856.000000	100.530742 
3855.000000	100.543578 
3854.000000	100.575129 
3853.000000	100.595258 
3852.000000	100.589541 
3851.000000	100.576578 
3850.000000	100.574188 
3849.000000	100.580761 
3848.000000	100.582053 
3847.000000	100.571131 
3846.000000	100.557967 
3845.000000	100.554078 
3844.000000	100.560803 
3843.000000	100.569036 
3842.000000	100.569402 
3841.000000	100.561993 
3840.000000	100.558801 
3839.000000	100.566053 
3838.000000	100.577980 
3837.000000	100.586199 
3836.000000	100.587486 
3835.000000	100.582297 
3834.000000	100.573423 
3833.000000	100.566870 
3832.000000	100.566191 
3831.000000	100.567059 
3830.000000	100.564120 
3829.000000	100.557245 
3828.000000	100.552753 
3827.000000	100.556804 
3826.000000	100.565964 
3825.000000	100.567550 
3824.000000	100.557731 
3823.000000	100.550345 
3822.000000	100.562775 
3821.000000	100.586207 
3820.000000	100.594501 
3819.000000	100.582202 
3818.000000	100.567932 
3817.000000	100.573520 
3816.000000	100.590685 
3815.000000	100.589604 
3814.000000	100.567738 
3813.000000	100.552008 
3812.000000	100.556891 
3811.000000	100.567088 
3810.000000	100.561130 
3809.000000	100.543141 
3808.000000	100.540493 
3807.000000	100.561989 
3806.000000	100.582081 
3805.000000	100.578101 
3804.000000	100.558166 
3803.000000	100.549201 
3802.000000	100.563376 
3801.000000	100.575247 
3800.000000	100.563205 
3799.000000	100.542072 
3798.000000	100.534441 
3797.000000	100.542642 
3796.000000	100.548653 
3795.000000	100.541356 
3794.000000	100.531294 
3793.000000	100.533589 
3792.000000	100.545931 
3791.000000	100.554186 
3790.000000	100.552487 
3789.000000	100.547546 
3788.000000	100.545487 
3787.000000	100.545923 
3786.000000	100.548689 
3785.000000	100.556689 
3784.000000	100.568393 
3783.000000	100.576047 
3782.000000	100.576307 
3781.000000	100.573995 
3780.000000	100.574083 
3779.000000	100.573213 
3778.000000	100.566961 
3777.000000	100.558141 
3776.000000	100.554971 
3775.000000	100.559976 
3774.000000	100.565260 
3773.000000	100.562414 
3772.000000	100.556204 
3771.000000	100.558166 
3770.000000	100.566985 
3769.000000	100.569629 
3768.000000	100.562793 
3767.000000	100.557237 
3766.000000	100.562682 
3765.000000	100.574470 
3764.000000	100.579292 
3763.000000	100.574426 
3762.000000	100.572564 
3761.000000	100.581165 
3760.000000	100.588531 
3759.000000	100.582368 
3758.000000	100.574131 
3757.000000	100.577927 
3756.000000	100.587136 
3755.000000	100.589451 
3754.000000	100.587900 
3753.000000	100.593825 
3752.000000	100.602202 
3751.000000	100.600649 
3750.000000	100.599110 
3749.000000	100.610519 
3748.000000	100.619966 
3747.000000	100.608380 
3746.000000	100.591757 
3745.000000	100.601039 
3744.000000	100.617112 
3743.000000	100.606211 
3742.000000	100.583156 
3741.000000	100.577620 
3740.000000	100.590233 
3739.000000	100.594027 
3738.000000	100.577750 
3737.000000	100.563610 
3736.000000	100.567546 
3735.000000	100.574565 
3734.000000	100.570775 
3733.000000	100.569583 
3732.000000	100.582369 
3731.000000	100.597440 
3730.000000	100.599997 
3729.000000	100.592504 
3728.000000	100.588879 
3727.000000	100.593914 
3726.000000	100.596198 
3725.000000	100.589706 
3724.000000	100.583964 
3723.000000	100.585490 
3722.000000	100.587834 
3721.000000	100.584687 
3720.000000	100.580309 
3719.000000	100.581192 
3718.000000	100.588976 
3717.000000	100.596708 
3716.000000	100.594904 
3715.000000	100.582859 
3714.000000	100.567981 
3713.000000	100.555141 
3712.000000	100.542537 
3711.000000	100.531140 
3710.000000	100.527884 
3709.000000	100.534062 
3708.000000	100.543545 
3707.000000	100.549363 
3706.000000	100.547092 
3705.000000	100.537228 
3704.000000	100.525147 
3703.000000	100.517359 
3702.000000	100.517061 
3701.000000	100.522432 
3700.000000	100.527895 
3699.000000	100.528513 
3698.000000	100.525488 
3697.000000	100.522200 
3696.000000	100.516407 
3695.000000	100.506709 
3694.000000	100.500164 
3693.000000	100.502942 
3692.000000	100.510540 
3691.000000	100.514502 
3690.000000	100.516503 
3689.000000	100.522834 
3688.000000	100.530191 
3687.000000	100.529340 
3686.000000	100.519542 
3685.000000	100.510499 
3684.000000	100.507488 
3683.000000	100.503084 
3682.000000	100.491028 
3681.000000	100.481529 
3680.000000	100.484354 
3679.000000	100.487442 
3678.000000	100.472095 
3677.000000	100.450612 
3676.000000	100.451475 
3675.000000	100.469519 
3674.000000	100.480977 
3673.000000	100.480503 
3672.000000	100.481427 
3671.000000	100.492685 
3670.000000	100.498613 
3669.000000	100.484308 
3668.000000	100.464030 
3667.000000	100.454363 
3666.000000	100.452098 
3665.000000	100.446980 
3664.000000	100.436405 
3663.000000	100.426184 
3662.000000	100.422857 
3661.000000	100.426531 
3660.000000	100.430199 
3659.000000	100.428869 
3658.000000	100.425219 
3657.000000	100.427656 
3656.000000	100.436209 
3655.000000	100.442538 
3654.000000	100.443601 
3653.000000	100.445260 
3652.000000	100.453915 
3651.000000	100.462529 
3650.000000	100.452586 
3649.000000	100.424564 
3648.000000	100.403067 
3647.000000	100.399446 
3646.000000	100.403124 
3645.000000	100.404190 
3644.000000	100.403433 
3643.000000	100.403866 
3642.000000	100.403754 
3641.000000	100.399601 
3640.000000	100.394809 
3639.000000	100.397948 
3638.000000	100.409725 
3637.000000	100.420730 
3636.000000	100.423884 
3635.000000	100.423735 
3634.000000	100.425809 
3633.000000	100.426093 
3632.000000	100.418775 
3631.000000	100.409948 
3630.000000	100.412157 
3629.000000	100.418218 
3628.000000	100.410486 
3627.000000	100.394768 
3626.000000	100.389217 
3625.000000	100.397904 
3624.000000	100.409436 
3623.000000	100.410622 
3622.000000	100.401315 
3621.000000	100.393208 
3620.000000	100.393184 
3619.000000	100.397291 
3618.000000	100.402782 
3617.000000	100.411348 
3616.000000	100.421960 
3615.000000	100.431912 
3614.000000	100.438626 
3613.000000	100.439190 
3612.000000	100.432990 
3611.000000	100.424197 
3610.000000	100.418534 
3609.000000	100.417316 
3608.000000	100.416831 
3607.000000	100.415545 
3606.000000	100.417562 
3605.000000	100.425552 
3604.000000	100.435678 
3603.000000	100.441765 
3602.000000	100.442562 
3601.000000	100.443022 
3600.000000	100.446158 
3599.000000	100.451478 
3598.000000	100.458130 
3597.000000	100.464805 
3596.000000	100.468547 
3595.000000	100.469062 
3594.000000	100.469092 
3593.000000	100.472480 
3592.000000	100.480935 
3591.000000	100.492032 
3590.000000	100.501483 
3589.000000	100.505134 
3588.000000	100.499523 
3587.000000	100.485625 
3586.000000	100.471380 
3585.000000	100.464883 
3584.000000	100.466686 
3583.000000	100.471060 
3582.000000	100.471870 
3581.000000	100.467744 
3580.000000	100.461310 
3579.000000	100.455480 
3578.000000	100.451291 
3577.000000	100.448566 
3576.000000	100.447501 
3575.000000	100.449123 
3574.000000	100.454553 
3573.000000	100.463350 
3572.000000	100.473495 
3571.000000	100.480997 
3570.000000	100.481687 
3569.000000	100.474175 
3568.000000	100.460185 
3567.000000	100.444548 
3566.000000	100.435426 
3565.000000	100.438408 
3564.000000	100.450430 
3563.000000	100.462449 
3562.000000	100.466989 
3561.000000	100.463398 
3560.000000	100.457113 
3559.000000	100.453439 
3558.000000	100.453669 
3557.000000	100.455887 
3556.000000	100.457681 
3555.000000	100.457791 
3554.000000	100.456787 
3553.000000	100.455715 
3552.000000	100.454326 
3551.000000	100.451663 
3550.000000	100.448035 
3549.000000	100.445119 
3548.000000	100.443350 
3547.000000	100.441112 
3546.000000	100.437899 
3545.000000	100.435794 
3544.000000	100.436394 
3543.000000	100.438611 
3542.000000	100.440710 
3541.000000	100.442330 
3540.000000	100.443875 
3539.000000	100.445396 
3538.000000	100.446809 
3537.000000	100.448043 
3536.000000	100.448173 
3535.000000	100.446070 
3534.000000	100.441636 
3533.000000	100.436474 
3532.000000	100.432339 
3531.000000	100.430181 
3530.000000	100.430775 
3529.000000	100.434973 
3528.000000	100.442321 
3527.000000	100.450226 
3526.000000	100.455852 
3525.000000	100.457900 
3524.000000	100.456354 
3523.000000	100.452013 
3522.000000	100.446859 
3521.000000	100.443203 
3520.000000	100.441763 
3519.000000	100.441455 
3518.000000	100.440843 
3517.000000	100.439702 
3516.000000	100.439168 
3515.000000	100.441008 
3514.000000	100.445901 
3513.000000	100.452557 
3512.000000	100.458249 
3511.000000	100.460337 
3510.000000	100.458241 
3509.000000	100.454234 
3508.000000	100.451392 
3507.000000	100.450557 
3506.000000	100.449672 
3505.000000	100.445775 
3504.000000	100.437951 
3503.000000	100.429427 
3502.000000	100.426025 
3501.000000	100.430931 
3500.000000	100.441044 
3499.000000	100.449511 
3498.000000	100.451640 
3497.000000	100.448063 
3496.000000	100.443077 
3495.000000	100.440744 
3494.000000	100.442138 
3493.000000	100.445210 
3492.000000	100.446902 
3491.000000	100.445593 
3490.000000	100.442071 
3489.000000	100.438735 
3488.000000	100.437710 
3487.000000	100.439559 
3486.000000	100.443408 
3485.000000	100.447771 
3484.000000	100.451404 
3483.000000	100.453844 
3482.000000	100.454962 
3481.000000	100.454044 
3480.000000	100.450145 
3479.000000	100.443953 
3478.000000	100.438446 
3477.000000	100.436415 
3476.000000	100.437488 
3475.000000	100.438710 
3474.000000	100.438270 
3473.000000	100.437266 
3472.000000	100.437722 
3471.000000	100.440054 
3470.000000	100.442913 
3469.000000	100.444749 
3468.000000	100.444775 
3467.000000	100.442713 
3466.000000	100.438728 
3465.000000	100.433830 
3464.000000	100.429503 
3463.000000	100.426443 
3462.000000	100.424032 
3461.000000	100.421540 
3460.000000	100.419499 
3459.000000	100.419322 
3458.000000	100.421392 
3457.000000	100.424181 
3456.000000	100.425484 
3455.000000	100.424539 
3454.000000	100.422823 
3453.000000	100.422830 
3452.000000	100.425481 
3451.000000	100.429330 
3450.000000	100.432565 
3449.000000	100.434810 
3448.000000	100.436274 
3447.000000	100.436107 
3446.000000	100.433538 
3445.000000	100.429870 
3444.000000	100.427489 
3443.000000	100.426957 
3442.000000	100.426559 
3441.000000	100.425028 
3440.000000	100.423306 
3439.000000	100.422947 
3438.000000	100.423755 
3437.000000	100.424101 
3436.000000	100.422867 
3435.000000	100.420392 
3434.000000	100.418004 
3433.000000	100.417172 
3432.000000	100.418196 
3431.000000	100.419681 
3430.000000	100.419740 
3429.000000	100.417528 
3428.000000	100.413538 
3427.000000	100.408790 
3426.000000	100.404412 
3425.000000	100.401448 
3424.000000	100.400455 
3423.000000	100.401272 
3422.000000	100.403123 
3421.000000	100.404780 
3420.000000	100.404932 
3419.000000	100.403346 
3418.000000	100.401589 
3417.000000	100.401625 
3416.000000	100.403387 
3415.000000	100.404660 
3414.000000	100.403811 
3413.000000	100.401668 
3412.000000	100.400165 
3411.000000	100.400214 
3410.000000	100.401720 
3409.000000	100.404445 
3408.000000	100.407639 
3407.000000	100.409624 
3406.000000	100.409059 
3405.000000	100.406450 
3404.000000	100.403837 
3403.000000	100.403180 
3402.000000	100.405094 
3401.000000	100.408664 
3400.000000	100.412097 
3399.000000	100.414030 
3398.000000	100.414637 
3397.000000	100.415296 
3396.000000	100.417012 
3395.000000	100.419222 
3394.000000	100.420437 
3393.000000	100.419847 
3392.000000	100.418064 
3391.000000	100.416272 
3390.000000	100.414876 
3389.000000	100.413267 
3388.000000	100.411007 
3387.000000	100.408969 
3386.000000	100.408685 
3385.000000	100.410461 
3384.000000	100.412798 
3383.000000	100.414263 
3382.000000	100.415106 
3381.000000	100.416284 
3380.000000	100.417414 
3379.000000	100.416887 
3378.000000	100.414149 
3377.000000	100.411141 
3376.000000	100.411114 
3375.000000	100.416052 
3374.000000	100.425040 
3373.000000	100.434627 
3372.000000	100.440887 
3371.000000	100.441799 
3370.000000	100.438285 
3369.000000	100.433257 
3368.000000	100.429568 
3367.000000	100.428361 
3366.000000	100.428709 
3365.000000	100.428658 
3364.000000	100.427037 
3363.000000	100.424807 
3362.000000	100.424409 
3361.000000	100.427155 
3360.000000	100.431288 
3359.000000	100.433326 
3358.000000	100.431661 
3357.000000	100.428339 
3356.000000	100.426868 
3355.000000	100.428581 
3354.000000	100.431619 
3353.000000	100.433270 
3352.000000	100.432763 
3351.000000	100.431681 
3350.000000	100.432164 
3349.000000	100.435176 
3348.000000	100.440248 
3347.000000	100.446093 
3346.000000	100.451107 
3345.000000	100.453730 
3344.000000	100.453156 
3343.000000	100.450093 
3342.000000	100.446449 
3341.000000	100.444071 
3340.000000	100.443809 
3339.000000	100.445354 
3338.000000	100.447377 
3337.000000	100.447968 
3336.000000	100.446004 
3335.000000	100.442684 
3334.000000	100.441067 
3333.000000	100.443335 
3332.000000	100.448545 
3331.000000	100.453466 
3330.000000	100.455576 
3329.000000	100.454981 
3328.000000	100.453737 
3327.000000	100.453764 
3326.000000	100.455292 
3325.000000	100.456913 
3324.000000	100.457272 
3323.000000	100.456936 
3322.000000	100.457974 
3321.000000	100.461251 
3320.000000	100.464729 
3319.000000	100.465297 
3318.000000	100.462184 
3317.000000	100.457868 
3316.000000	100.455641 
3315.000000	100.456869 
3314.000000	100.460536 
3313.000000	100.464725 
3312.000000	100.468257 
3311.000000	100.471228 
3310.000000	100.474303 
3309.000000	100.477607 
3308.000000	100.480548 
3307.000000	100.482627 
3306.000000	100.483718 
3305.000000	100.483173 
3304.000000	100.479666 
3303.000000	100.472990 
3302.000000	100.465604 
3301.000000	100.461321 
3300.000000	100.462213 
3299.000000	100.467283 
3298.000000	100.473807 
3297.000000	100.479215 
3296.000000	100.482128 
3295.000000	100.482908 
3294.000000	100.483468 
3293.000000	100.485660 
3292.000000	100.489504 
3291.000000	100.493289 
3290.000000	100.495272 
3289.000000	100.494697 
3288.000000	100.491592 
3287.000000	100.486905 
3286.000000	100.482866 
3285.000000	100.481664 
3284.000000	100.483160 
3283.000000	100.484975 
3282.000000	100.485261 
3281.000000	100.484479 
3280.000000	100.484136 
3279.000000	100.484754 
3278.000000	100.485753 
3277.000000	100.486559 
3276.000000	100.487034 
3275.000000	100.487353 
3274.000000	100.488015 
3273.000000	100.489322 
3272.000000	100.490289 
3271.000000	100.488815 
3270.000000	100.483898 
3269.000000	100.477441 
3268.000000	100.473045 
3267.000000	100.473181 
3266.000000	100.477854 
3265.000000	100.485261 
3264.000000	100.493042 
3263.000000	100.499327 
3262.000000	100.503486 
3261.000000	100.506152 
3260.000000	100.508334 
3259.000000	100.510212 
3258.000000	100.510972 
3257.000000	100.509744 
3256.000000	100.506290 
3255.000000	100.501109 
3254.000000	100.495687 
3253.000000	100.492511 
3252.000000	100.493667 
3251.000000	100.498664 
3250.000000	100.503940 
3249.000000	100.505501 
3248.000000	100.502402 
3247.000000	100.497377 
3246.000000	100.494056 
3245.000000	100.493869 
3244.000000	100.495934 
3243.000000	100.499386 
3242.000000	100.504674 
3241.000000	100.512193 
3240.000000	100.520307 
3239.000000	100.525573 
3238.000000	100.525534 
3237.000000	100.521333 
3236.000000	100.517020 
3235.000000	100.515871 
3234.000000	100.517648 
3233.000000	100.519798 
3232.000000	100.520956 
3231.000000	100.522404 
3230.000000	100.525717 
3229.000000	100.529930 
3228.000000	100.531970 
3227.000000	100.529657 
3226.000000	100.523782 
3225.000000	100.517404 
3224.000000	100.513656 
3223.000000	100.514034 
3222.000000	100.517686 
3221.000000	100.521974 
3220.000000	100.524431 
3219.000000	100.524557 
3218.000000	100.523539 
3217.000000	100.522464 
3216.000000	100.521431 
3215.000000	100.520176 
3214.000000	100.518820 
3213.000000	100.517866 
3212.000000	100.517975 
3211.000000	100.519971 
3210.000000	100.524483 
3209.000000	100.531026 
3208.000000	100.537703 
3207.000000	100.542329 
3206.000000	100.544027 
3205.000000	100.543678 
3204.000000	100.542974 
3203.000000	100.543058 
3202.000000	100.543899 
3201.000000	100.544875 
3200.000000	100.545896 
3199.000000	100.547480 
3198.000000	100.549576 
3197.000000	100.551064 
3196.000000	100.551205 
3195.000000	100.551028 
3194.000000	100.552045 
3193.000000	100.553701 
3192.000000	100.553459 
3191.000000	100.550081 
3190.000000	100.545706 
3189.000000	100.543782 
3188.000000	100.545585 
3187.000000	100.549431 
3186.000000	100.552649 
3185.000000	100.553634 
3184.000000	100.552572 
3183.000000	100.550931 
3182.000000	100.550137 
3181.000000	100.550218 
3180.000000	100.549821 
3179.000000	100.548066 
3178.000000	100.545890 
3177.000000	100.544845 
3176.000000	100.545032 
3175.000000	100.545533 
3174.000000	100.546715 
3173.000000	100.550461 
3172.000000	100.557303 
3171.000000	100.564490 
3170.000000	100.568155 
3169.000000	100.567286 
3168.000000	100.564670 
3167.000000	100.563880 
3166.000000	100.566066 
3165.000000	100.569805 
3164.000000	100.573125 
3163.000000	100.574785 
3162.000000	100.574282 
3161.000000	100.571935 
3160.000000	100.569304 
3159.000000	100.568652 
3158.000000	100.571040 
3157.000000	100.574925 
3156.000000	100.577273 
3155.000000	100.576449 
3154.000000	100.573904 
3153.000000	100.572841 
3152.000000	100.575195 
3151.000000	100.579782 
3150.000000	100.583236 
3149.000000	100.582923 
3148.000000	100.579351 
3147.000000	100.575821 
3146.000000	100.575335 
3145.000000	100.577732 
3144.000000	100.580323 
3143.000000	100.581411 
3142.000000	100.582285 
3141.000000	100.585045 
3140.000000	100.589298 
3139.000000	100.592242 
3138.000000	100.591844 
3137.000000	100.588992 
3136.000000	100.586248 
3135.000000	100.585108 
3134.000000	100.585066 
3133.000000	100.585206 
3132.000000	100.586005 
3131.000000	100.588812 
3130.000000	100.593476 
3129.000000	100.597459 
3128.000000	100.598131 
3127.000000	100.595739 
3126.000000	100.593307 
3125.000000	100.593326 
3124.000000	100.595086 
3123.000000	100.595864 
3122.000000	100.594385 
3121.000000	100.592246 
3120.000000	100.592112 
3119.000000	100.595153 
3118.000000	100.599886 
3117.000000	100.603052 
3116.000000	100.602094 
3115.000000	100.597453 
3114.000000	100.592336 
3113.000000	100.589735 
3112.000000	100.589870 
3111.000000	100.591029 
3110.000000	100.592255 
3109.000000	100.593973 
3108.000000	100.596057 
3107.000000	100.596925 
3106.000000	100.595467 
3105.000000	100.592810 
3104.000000	100.591135 
3103.000000	100.591658 
3102.000000	100.594574 
3101.000000	100.599655 
3100.000000	100.605724 
3099.000000	100.610458 
3098.000000	100.612092 
3097.000000	100.611300 
3096.000000	100.610573 
3095.000000	100.611824 
3094.000000	100.615038 
3093.000000	100.618820 
3092.000000	100.621407 
3091.000000	100.621425 
3090.000000	100.618757 
3089.000000	100.615047 
3088.000000	100.612816 
3087.000000	100.613697 
3086.000000	100.617407 
3085.000000	100.622160 
3084.000000	100.625857 
3083.000000	100.627275 
3082.000000	100.626724 
3081.000000	100.625612 
3080.000000	100.625164 
3079.000000	100.625388 
3078.000000	100.625086 
3077.000000	100.622889 
3076.000000	100.618624 
3075.000000	100.614028 
3074.000000	100.611918 
3073.000000	100.614107 
3072.000000	100.619863 
3071.000000	100.626722 
3070.000000	100.632445 
3069.000000	100.635420 
3068.000000	100.633927 
3067.000000	100.627013 
3066.000000	100.616837 
3065.000000	100.608556 
3064.000000	100.606332 
3063.000000	100.609769 
3062.000000	100.614963 
3061.000000	100.618425 
3060.000000	100.619529 
3059.000000	100.619922 
3058.000000	100.621576 
3057.000000	100.625211 
3056.000000	100.629890 
3055.000000	100.633943 
3054.000000	100.636319 
3053.000000	100.636969 
3052.000000	100.636173 
3051.000000	100.634337 
3050.000000	100.632399 
3049.000000	100.631199 
3048.000000	100.630062 
3047.000000	100.627061 
3046.000000	100.621514 
3045.000000	100.615544 
3044.000000	100.612305 
3043.000000	100.612905 
3042.000000	100.615570 
3041.000000	100.617518 
3040.000000	100.617273 
3039.000000	100.615451 
3038.000000	100.613908 
3037.000000	100.613954 
3036.000000	100.615072 
3035.000000	100.615640 
3034.000000	100.614887 
3033.000000	100.613627 
3032.000000	100.612827 
3031.000000	100.611955 
3030.000000	100.609282 
3029.000000	100.603606 
3028.000000	100.595329 
3027.000000	100.586191 
3026.000000	100.578263 
3025.000000	100.572825 
3024.000000	100.569627 
3023.000000	100.567233 
3022.000000	100.564249 
3021.000000	100.560015 
3020.000000	100.554372 
3019.000000	100.547760 
3018.000000	100.541716 
3017.000000	100.538060 
3016.000000	100.536755 
3015.000000	100.535372 
3014.000000	100.531380 
3013.000000	100.524250 
3012.000000	100.514730 
3011.000000	100.503138 
3010.000000	100.489694 
3009.000000	100.475993 
3008.000000	100.464697 
3007.000000	100.457551 
3006.000000	100.454366 
3005.000000	100.453628 
3004.000000	100.452999 
3003.000000	100.449427 
3002.000000	100.440529 
3001.000000	100.426969 
3000.000000	100.412880 
2999.000000	100.402808 
2998.000000	100.398010 
2997.000000	100.396172 
2996.000000	100.394703 
2995.000000	100.393181 
2994.000000	100.391794 
2993.000000	100.388271 
2992.000000	100.378589 
2991.000000	100.361844 
2990.000000	100.343188 
2989.000000	100.330035 
2988.000000	100.325350 
2987.000000	100.326111 
2986.000000	100.328261 
2985.000000	100.331323 
2984.000000	100.337186 
2983.000000	100.345838 
2982.000000	100.354109 
2981.000000	100.358557 
2980.000000	100.358619 
2979.000000	100.356784 
2978.000000	100.356200 
2977.000000	100.358046 
2976.000000	100.360713 
2975.000000	100.361469 
2974.000000	100.359057 
2973.000000	100.354529 
2972.000000	100.349672 
2971.000000	100.345297 
2970.000000	100.341407 
2969.000000	100.338420 
2968.000000	100.337529 
2967.000000	100.339980 
2966.000000	100.346126 
2965.000000	100.354900 
2964.000000	100.364146 
2963.000000	100.372049 
2962.000000	100.378501 
2961.000000	100.384517 
2960.000000	100.390201 
2959.000000	100.394338 
2958.000000	100.396576 
2957.000000	100.398838 
2956.000000	100.403177 
2955.000000	100.408756 
2954.000000	100.412494 
2953.000000	100.413169 
2952.000000	100.413747 
2951.000000	100.418811 
2950.000000	100.429744 
2949.000000	100.442789 
2948.000000	100.451934 
2947.000000	100.453805 
2946.000000	100.450096 
2945.000000	100.445510 
2944.000000	100.443656 
2943.000000	100.444878 
2942.000000	100.447179 
2941.000000	100.448150 
2940.000000	100.446066 
2939.000000	100.440500 
2938.000000	100.432742 
2937.000000	100.425136 
2936.000000	100.419460 
2935.000000	100.416230 
2934.000000	100.415512 
2933.000000	100.417258 
2932.000000	100.420220 
2931.000000	100.421591 
2930.000000	100.418961 
2929.000000	100.412400 
2928.000000	100.404128 
2927.000000	100.396673 
2926.000000	100.391875 
2925.000000	100.390538 
2924.000000	100.391806 
2923.000000	100.393406 
2922.000000	100.393772 
2921.000000	100.393795 
2920.000000	100.395486 
2919.000000	100.399242 
2918.000000	100.403384 
2917.000000	100.406254 
2916.000000	100.407796 
2915.000000	100.409184 
2914.000000	100.411795 
2913.000000	100.416483 
2912.000000	100.422777 
2911.000000	100.428571 
2910.000000	100.431431 
2909.000000	100.430546 
2908.000000	100.427094 
2907.000000	100.422715 
2906.000000	100.418058 
2905.000000	100.412786 
2904.000000	100.406398 
2903.000000	100.398925 
2902.000000	100.391653 
2901.000000	100.387419 
2900.000000	100.389273 
2899.000000	100.398033 
2898.000000	100.410990 
2897.000000	100.423523 
2896.000000	100.432426 
2895.000000	100.438030 
2894.000000	100.443067 
2893.000000	100.449300 
2892.000000	100.455356 
2891.000000	100.458280 
2890.000000	100.457155 
2889.000000	100.454546 
2888.000000	100.454011 
2887.000000	100.456756 
2886.000000	100.461250 
2885.000000	100.465481 
2884.000000	100.468766 
2883.000000	100.471676 
2882.000000	100.475118 
2881.000000	100.479752 
2880.000000	100.485836 
2879.000000	100.493358 
2878.000000	100.502246 
2877.000000	100.512016 
2876.000000	100.521030 
2875.000000	100.526850 
2874.000000	100.528258 
2873.000000	100.526903 
2872.000000	100.526320 
2871.000000	100.529168 
2870.000000	100.535654 
2869.000000	100.544132 
2868.000000	100.552515 
2867.000000	100.559304 
2866.000000	100.564202 
2865.000000	100.568088 
2864.000000	100.571881 
2863.000000	100.575155 
2862.000000	100.576252 
2861.000000	100.574116 
2860.000000	100.569965 
2859.000000	100.566916 
2858.000000	100.567667 
2857.000000	100.572275 
2856.000000	100.578243 
2855.000000	100.583175 
2854.000000	100.587161 
2853.000000	100.591926 
2852.000000	100.597867 
2851.000000	100.603259 
2850.000000	100.606923 
2849.000000	100.610386 
2848.000000	100.616128 
2847.000000	100.624332 
2846.000000	100.632570 
2845.000000	100.638403 
2844.000000	100.641329 
2843.000000	100.642558 
2842.000000	100.644119 
2841.000000	100.647966 
2840.000000	100.654530 
2839.000000	100.661661 
2838.000000	100.665943 
2837.000000	100.665669 
2836.000000	100.662212 
2835.000000	100.658688 
2834.000000	100.657892 
2833.000000	100.661213 
2832.000000	100.668047 
2831.000000	100.675724 
2830.000000	100.681065 
2829.000000	100.682998 
2828.000000	100.683418 
2827.000000	100.684930 
2826.000000	100.687954 
2825.000000	100.690412 
2824.000000	100.690099 
2823.000000	100.687152 
2822.000000	100.684244 
2821.000000	100.684359 
2820.000000	100.688145 
2819.000000	100.693458 
2818.000000	100.697600 
2817.000000	100.699684 
2816.000000	100.700582 
2815.000000	100.701256 
2814.000000	100.702091 
2813.000000	100.703435 
2812.000000	100.705422 
2811.000000	100.706982 
2810.000000	100.706250 
2809.000000	100.702727 
2808.000000	100.698353 
2807.000000	100.695738 
2806.000000	100.695768 
2805.000000	100.697476 
2804.000000	100.699727 
2803.000000	100.702234 
2802.000000	100.705093 
2801.000000	100.708039 
2800.000000	100.710409 
2799.000000	100.711625 
2798.000000	100.711658 
2797.000000	100.711087 
2796.000000	100.710597 
2795.000000	100.710416 
2794.000000	100.710413 
2793.000000	100.710646 
2792.000000	100.711323 
2791.000000	100.712153 
2790.000000	100.712355 
2789.000000	100.711710 
2788.000000	100.711186 
2787.000000	100.712044 
2786.000000	100.714511 
2785.000000	100.717682 
2784.000000	100.720467 
2783.000000	100.722231 
2782.000000	100.722791 
2781.000000	100.722431 
2780.000000	100.721928 
2779.000000	100.722063 
2778.000000	100.722904 
2777.000000	100.723849 
2776.000000	100.724390 
2775.000000	100.724487 
2774.000000	100.724190 
2773.000000	100.723389 
2772.000000	100.722225 
2771.000000	100.721366 
2770.000000	100.721536 
2769.000000	100.722951 
2768.000000	100.725469 
2767.000000	100.728945 
2766.000000	100.732959 
2765.000000	100.736358 
2764.000000	100.737779 
2763.000000	100.736927 
2762.000000	100.735125 
2761.000000	100.734442 
2760.000000	100.736312 
2759.000000	100.740607 
2758.000000	100.745464 
2757.000000	100.748234 
2756.000000	100.747591 
2755.000000	100.745054 
2754.000000	100.743624 
2753.000000	100.744427 
2752.000000	100.745509 
2751.000000	100.744598 
2750.000000	100.742079 
2749.000000	100.740053 
2748.000000	100.739126 
2747.000000	100.737791 
2746.000000	100.735038 
2745.000000	100.732038 
2744.000000	100.730622 
2743.000000	100.731189 
2742.000000	100.732845 
2741.000000	100.734773 
2740.000000	100.736694 
2739.000000	100.738466 
2738.000000	100.740007 
2737.000000	100.741430 
2736.000000	100.742780 
2735.000000	100.743776 
2734.000000	100.744054 
2733.000000	100.743480 
2732.000000	100.742119 
2731.000000	100.740278 
2730.000000	100.738732 
2729.000000	100.738456 
2728.000000	100.739863 
2727.000000	100.742488 
2726.000000	100.745382 
2725.000000	100.747513 
2724.000000	100.748066 
2723.000000	100.747136 
2722.000000	100.746034 
2721.000000	100.746059 
2720.000000	100.746860 
2719.000000	100.746892 
2718.000000	100.745589 
2717.000000	100.744127 
2716.000000	100.743859 
2715.000000	100.745081 
2714.000000	100.747587 
2713.000000	100.751036 
2712.000000	100.754164 
2711.000000	100.755104 
2710.000000	100.753682 
2709.000000	100.752295 
2708.000000	100.753164 
2707.000000	100.755395 
2706.000000	100.756108 
2705.000000	100.754012 
2704.000000	100.750580 
2703.000000	100.747958 
2702.000000	100.746998 
2701.000000	100.747349 
2700.000000	100.748309 
2699.000000	100.749204 
2698.000000	100.749556 
2697.000000	100.749236 
2696.000000	100.748444 
2695.000000	100.747790 
2694.000000	100.748375 
2693.000000	100.750851 
2692.000000	100.753882 
2691.000000	100.754619 
2690.000000	100.751966 
2689.000000	100.748776 
2688.000000	100.749327 
2687.000000	100.754597 
2686.000000	100.761115 
2685.000000	100.764619 
2684.000000	100.764043 
2683.000000	100.761850 
2682.000000	100.761220 
2681.000000	100.763161 
2680.000000	100.765830 
2679.000000	100.766533 
2678.000000	100.764620 
2677.000000	100.762239 
2676.000000	100.762002 
2675.000000	100.764386 
2674.000000	100.767862 
2673.000000	100.770768 
2672.000000	100.772139 
2671.000000	100.771229 
2670.000000	100.767566 
2669.000000	100.761696 
2668.000000	100.755203 
2667.000000	100.749944 
2666.000000	100.747630 
2665.000000	100.749545 
2664.000000	100.755612 
2663.000000	100.763811 
2662.000000	100.771367 
2661.000000	100.776586 
2660.000000	100.779097 
2659.000000	100.778835 
2658.000000	100.775977 
2657.000000	100.771849 
2656.000000	100.768741 
2655.000000	100.768231 
2654.000000	100.769909 
2653.000000	100.771663 
2652.000000	100.771018 
2651.000000	100.766919 
2650.000000	100.761114 
2649.000000	100.757301 
2648.000000	100.757826 
2647.000000	100.761428 
2646.000000	100.765016 
2645.000000	100.767099 
2644.000000	100.768279 
2643.000000	100.769082 
2642.000000	100.769216 
2641.000000	100.769013 
2640.000000	100.769781 
2639.000000	100.772204 
2638.000000	100.775616 
2637.000000	100.779064 
2636.000000	100.781780 
2635.000000	100.782550 
2634.000000	100.780474 
2633.000000	100.776929 
2632.000000	100.775061 
2631.000000	100.776299 
2630.000000	100.778752 
2629.000000	100.780022 
2628.000000	100.780336 
2627.000000	100.781697 
2626.000000	100.784925 
2625.000000	100.788811 
2624.000000	100.791550 
2623.000000	100.791990 
2622.000000	100.790071 
2621.000000	100.787115 
2620.000000	100.785256 
2619.000000	100.785593 
2618.000000	100.787063 
2617.000000	100.787763 
2616.000000	100.787146 
2615.000000	100.786348 
2614.000000	100.786630 
2613.000000	100.788026 
2612.000000	100.789433 
2611.000000	100.789817 
2610.000000	100.789516 
2609.000000	100.790272 
2608.000000	100.793526 
2607.000000	100.798821 
2606.000000	100.804498 
2605.000000	100.809550 
2604.000000	100.813580 
2603.000000	100.815263 
2602.000000	100.812894 
2601.000000	100.807264 
2600.000000	100.802360 
2599.000000	100.801821 
2598.000000	100.805544 
2597.000000	100.810645 
2596.000000	100.814563 
2595.000000	100.815995 
2594.000000	100.814144 
2593.000000	100.809323 
2592.000000	100.804190 
2591.000000	100.802360 
2590.000000	100.805012 
2589.000000	100.809895 
2588.000000	100.814059 
2587.000000	100.816427 
2586.000000	100.817006 
2585.000000	100.814871 
2584.000000	100.808783 
2583.000000	100.799997 
2582.000000	100.792860 
2581.000000	100.791272 
2580.000000	100.794795 
2579.000000	100.799353 
2578.000000	100.801814 
2577.000000	100.802753 
2576.000000	100.804413 
2575.000000	100.807344 
2574.000000	100.810248 
2573.000000	100.812049 
2572.000000	100.812361 
2571.000000	100.810249 
2570.000000	100.804650 
2569.000000	100.796778 
2568.000000	100.790645 
2567.000000	100.789839 
2566.000000	100.794168 
2565.000000	100.800142 
2564.000000	100.804347 
2563.000000	100.805701 
2562.000000	100.804938 
2561.000000	100.803274 
2560.000000	100.802173 
2559.000000	100.803394 
2558.000000	100.807533 
2557.000000	100.811978 
2556.000000	100.812021 
2555.000000	100.806001 
2554.000000	100.798873 
2553.000000	100.798150 
2552.000000	100.805531 
2551.000000	100.814664 
2550.000000	100.818404 
2549.000000	100.816048 
2548.000000	100.811499 
2547.000000	100.806761 
2546.000000	100.801103 
2545.000000	100.795864 
2544.000000	100.795601 
2543.000000	100.802659 
2542.000000	100.813246 
2541.000000	100.820907 
2540.000000	100.822610 
2539.000000	100.820001 
2538.000000	100.815904 
2537.000000	100.811337 
2536.000000	100.805670 
2535.000000	100.798607 
2534.000000	100.791842 
2533.000000	100.788675 
2532.000000	100.791231 
2531.000000	100.797921 
2530.000000	100.804655 
2529.000000	100.808928 
2528.000000	100.811754 
2527.000000	100.815281 
2526.000000	100.819890 
2525.000000	100.824567 
2524.000000	100.828940 
2523.000000	100.833419 
2522.000000	100.837616 
2521.000000	100.839917 
2520.000000	100.839105 
2519.000000	100.835993 
2518.000000	100.833063 
2517.000000	100.832171 
2516.000000	100.832512 
2515.000000	100.831457 
2514.000000	100.827936 
2513.000000	100.824162 
2512.000000	100.822628 
2511.000000	100.822111 
2510.000000	100.819186 
2509.000000	100.814325 
2508.000000	100.813653 
2507.000000	100.821912 
2506.000000	100.834769 
2505.000000	100.841172 
2504.000000	100.834317 
2503.000000	100.818623 
2502.000000	100.805021 
2501.000000	100.800917 
2500.000000	100.805939 
2499.000000	100.815817 
2498.000000	100.827368 
2497.000000	100.839005 
2496.000000	100.848863 
2495.000000	100.854748 
2494.000000	100.855476 
2493.000000	100.850813 
2492.000000	100.840670 
2491.000000	100.826229 
2490.000000	100.811761 
2489.000000	100.802899 
2488.000000	100.801827 
2487.000000	100.805621 
2486.000000	100.810415 
2485.000000	100.815757 
2484.000000	100.823323 
2483.000000	100.832524 
2482.000000	100.839565 
2481.000000	100.840906 
2480.000000	100.836445 
2479.000000	100.829267 
2478.000000	100.823179 
2477.000000	100.820278 
2476.000000	100.819962 
2475.000000	100.820380 
2474.000000	100.821187 
2473.000000	100.824126 
2472.000000	100.830164 
2471.000000	100.837147 
2470.000000	100.841485 
2469.000000	100.841290 
2468.000000	100.836588 
2467.000000	100.827784 
2466.000000	100.816323 
2465.000000	100.806400 
2464.000000	100.803054 
2463.000000	100.807375 
2462.000000	100.815012 
2461.000000	100.820286 
2460.000000	100.820989 
2459.000000	100.819032 
2458.000000	100.817854 
2457.000000	100.819792 
2456.000000	100.824634 
2455.000000	100.829576 
2454.000000	100.831102 
2453.000000	100.827773 
2452.000000	100.821362 
2451.000000	100.815378 
2450.000000	100.812731 
2449.000000	100.814149 
2448.000000	100.817770 
2447.000000	100.820445 
2446.000000	100.820627 
2445.000000	100.820158 
2444.000000	100.822383 
2443.000000	100.828450 
2442.000000	100.836196 
2441.000000	100.842410 
2440.000000	100.845178 
2439.000000	100.844357 
2438.000000	100.841234 
2437.000000	100.837924 
2436.000000	100.835690 
2435.000000	100.833330 
2434.000000	100.828344 
2433.000000	100.820220 
2432.000000	100.811739 
2431.000000	100.806525 
2430.000000	100.805993 
2429.000000	100.809071 
2428.000000	100.814208 
2427.000000	100.820877 
2426.000000	100.828812 
2425.000000	100.835810 
2424.000000	100.837214 
2423.000000	100.829581 
2422.000000	100.815777 
2421.000000	100.804610 
2420.000000	100.803110 
2419.000000	100.809784 
2418.000000	100.817262 
2417.000000	100.820706 
2416.000000	100.821129 
2415.000000	100.821104 
2414.000000	100.820829 
2413.000000	100.819616 
2412.000000	100.818256 
2411.000000	100.817728 
2410.000000	100.817299 
2409.000000	100.816050 
2408.000000	100.815218 
2407.000000	100.817033 
2406.000000	100.821609 
2405.000000	100.826479 
2404.000000	100.829046 
2403.000000	100.828513 
2402.000000	100.825748 
2401.000000	100.822335 
2400.000000	100.819550 
2399.000000	100.817381 
2398.000000	100.814610 
2397.000000	100.810474 
2396.000000	100.806137 
2395.000000	100.804119 
2394.000000	100.806336 
2393.000000	100.812650 
2392.000000	100.820677 
2391.000000	100.826897 
2390.000000	100.828933 
2389.000000	100.827417 
2388.000000	100.825066 
2387.000000	100.823499 
2386.000000	100.821817 
2385.000000	100.818877 
2384.000000	100.815811 
2383.000000	100.814988 
2382.000000	100.817115 
2381.000000	100.820671 
2380.000000	100.823866 
2379.000000	100.825824 
2378.000000	100.826003 
2377.000000	100.824300 
2376.000000	100.822114 
2375.000000	100.821636 
2374.000000	100.823106 
2373.000000	100.823849 
2372.000000	100.822094 
2371.000000	100.820499 
2370.000000	100.823752 
2369.000000	100.832138 
2368.000000	100.839112 
2367.000000	100.836543 
2366.000000	100.823421 
2365.000000	100.808871 
2364.000000	100.804382 
2363.000000	100.811943 
2362.000000	100.823535 
2361.000000	100.829885 
2360.000000	100.828180 
2359.000000	100.824077 
2358.000000	100.822846 
2357.000000	100.824774 
2356.000000	100.827577 
2355.000000	100.826706 
2354.000000	100.820633 
2353.000000	100.811670 
2352.000000	100.805745 
2351.000000	100.805773 
2350.000000	100.810009 
2349.000000	100.818131 
2348.000000	100.826368 
2347.000000	100.829725 
2346.000000	100.827928 
2345.000000	100.825764 
2344.000000	100.826982 
2343.000000	100.827574 
2342.000000	100.829065 
2341.000000	100.832912 
2340.000000	100.837246 
2339.000000	100.839469 
2338.000000	100.839253 
2337.000000	100.840278 
2336.000000	100.842296 
2335.000000	100.842224 
2334.000000	100.837310 
2333.000000	100.831933 
2332.000000	100.829622 
2331.000000	100.830524 
2330.000000	100.828500 
2329.000000	100.825373 
2328.000000	100.823276 
2327.000000	100.826456 
2326.000000	100.832814 
2325.000000	100.837917 
2324.000000	100.838621 
2323.000000	100.834945 
2322.000000	100.833759 
2321.000000	100.840153 
2320.000000	100.852327 
2319.000000	100.862775 
2318.000000	100.865344 
2317.000000	100.861978 
2316.000000	100.855594 
2315.000000	100.850189 
2314.000000	100.846634 
2313.000000	100.848560 
2312.000000	100.855446 
2311.000000	100.866373 
2310.000000	100.878080 
2309.000000	100.890530 
2308.000000	100.900407 
2307.000000	100.903649 
2306.000000	100.897388 
2305.000000	100.886225 
2304.000000	100.876143 
2303.000000	100.870490 
2302.000000	100.868176 
2301.000000	100.869194 
2300.000000	100.872172 
2299.000000	100.874081 
2298.000000	100.871120 
2297.000000	100.866043 
2296.000000	100.865077 
2295.000000	100.871144 
2294.000000	100.878760 
2293.000000	100.881121 
2292.000000	100.877362 
2291.000000	100.872832 
2290.000000	100.872459 
2289.000000	100.876212 
2288.000000	100.880566 
2287.000000	100.882493 
2286.000000	100.881976 
2285.000000	100.880401 
2284.000000	100.878386 
2283.000000	100.875477 
2282.000000	100.872110 
2281.000000	100.869254 
2280.000000	100.866651 
2279.000000	100.863516 
2278.000000	100.862015 
2277.000000	100.866647 
2276.000000	100.878365 
2275.000000	100.892355 
2274.000000	100.903312 
2273.000000	100.910022 
2272.000000	100.911790 
2271.000000	100.905496 
2270.000000	100.891425 
2269.000000	100.879291 
2268.000000	100.881301 
2267.000000	100.899132 
2266.000000	100.922343 
2265.000000	100.939301 
2264.000000	100.945330 
2263.000000	100.941993 
2262.000000	100.934941 
2261.000000	100.932792 
2260.000000	100.941204 
2259.000000	100.955132 
2258.000000	100.962386 
2257.000000	100.957219 
2256.000000	100.946672 
2255.000000	100.940843 
2254.000000	100.941378 
2253.000000	100.943183 
2252.000000	100.943825 
2251.000000	100.946819 
2250.000000	100.956150 
2249.000000	100.971075 
2248.000000	100.986137 
2247.000000	100.995459 
2246.000000	100.996724 
2245.000000	100.991738 
2244.000000	100.983405 
2243.000000	100.973465 
2242.000000	100.963913 
2241.000000	100.958005 
2240.000000	100.956991 
2239.000000	100.957470 
2238.000000	100.955285 
2237.000000	100.950589 
2236.000000	100.945740 
2235.000000	100.940083 
2234.000000	100.931902 
2233.000000	100.924727 
2232.000000	100.926097 
2231.000000	100.939188 
2230.000000	100.960092 
2229.000000	100.983720 
2228.000000	101.007482 
2227.000000	101.027799 
2226.000000	101.038079 
2225.000000	101.033889 
2224.000000	101.018306 
2223.000000	101.000441 
2222.000000	100.989963 
2221.000000	100.992095 
2220.000000	101.004123 
2219.000000	101.016687 
2218.000000	101.022262 
2217.000000	101.023041 
2216.000000	101.027407 
2215.000000	101.038605 
2214.000000	101.050590 
2213.000000	101.055009 
2212.000000	101.048754 
2211.000000	101.035286 
2210.000000	101.023176 
2209.000000	101.022729 
2208.000000	101.037709 
2207.000000	101.058962 
2206.000000	101.071089 
2205.000000	101.067023 
2204.000000	101.052628 
2203.000000	101.037483 
2202.000000	101.027081 
2201.000000	101.023929 
2200.000000	101.028343 
2199.000000	101.035391 
2198.000000	101.037485 
2197.000000	101.033634 
2196.000000	101.031505 
2195.000000	101.037813 
2194.000000	101.051781 
2193.000000	101.069702 
2192.000000	101.089000 
2191.000000	101.104205 
2190.000000	101.106422 
2189.000000	101.093878 
2188.000000	101.078786 
2187.000000	101.076943 
2186.000000	101.092658 
2185.000000	101.117642 
2184.000000	101.140700 
2183.000000	101.153587 
2182.000000	101.151968 
2181.000000	101.139031 
2180.000000	101.126933 
2179.000000	101.127181 
2178.000000	101.138645 
2177.000000	101.149024 
2176.000000	101.148455 
2175.000000	101.138616 
2174.000000	101.128481 
2173.000000	101.124655 
2172.000000	101.126893 
2171.000000	101.131028 
2170.000000	101.134970 
2169.000000	101.141675 
2168.000000	101.155074 
2167.000000	101.172776 
2166.000000	101.185604 
2165.000000	101.187054 
2164.000000	101.182052 
2163.000000	101.183501 
2162.000000	101.200418 
2161.000000	101.230161 
2160.000000	101.259871 
2159.000000	101.274245 
2158.000000	101.265421 
2157.000000	101.239074 
2156.000000	101.209542 
2155.000000	101.187353 
2154.000000	101.172182 
2153.000000	101.157076 
2152.000000	101.138245 
2151.000000	101.120883 
2150.000000	101.115614 
2149.000000	101.128020 
2148.000000	101.150519 
2147.000000	101.166275 
2146.000000	101.163363 
2145.000000	101.144937 
2144.000000	101.124191 
2143.000000	101.110567 
2142.000000	101.103162 
2141.000000	101.095908 
2140.000000	101.085333 
2139.000000	101.072563 
2138.000000	101.060234 
2137.000000	101.049017 
2136.000000	101.036922 
2135.000000	101.022367 
2134.000000	101.008088 
2133.000000	100.999749 
2132.000000	100.998682 
2131.000000	100.997995 
2130.000000	100.989051 
2129.000000	100.971597 
2128.000000	100.954816 
2127.000000	100.947616 
2126.000000	100.950109 
2125.000000	100.955916 
2124.000000	100.961039 
2123.000000	100.967613 
2122.000000	100.978255 
2121.000000	100.989245 
2120.000000	100.992694 
2119.000000	100.985966 
2118.000000	100.975853 
2117.000000	100.971189 
2116.000000	100.973338 
2115.000000	100.977191 
2114.000000	100.980021 
2113.000000	100.984500 
2112.000000	100.992346 
2111.000000	100.999830 
2110.000000	101.002294 
2109.000000	100.999941 
2108.000000	100.996371 
2107.000000	100.993474 
2106.000000	100.990128 
2105.000000	100.984108 
2104.000000	100.973697 
2103.000000	100.959601 
2102.000000	100.946908 
2101.000000	100.942071 
2100.000000	100.945533 
2099.000000	100.950456 
2098.000000	100.951189 
2097.000000	100.950340 
2096.000000	100.953840 
2095.000000	100.961221 
2094.000000	100.965060 
2093.000000	100.959522 
2092.000000	100.946998 
2091.000000	100.936879 
2090.000000	100.938638 
2089.000000	100.953442 
2088.000000	100.971193 
2087.000000	100.979148 
2086.000000	100.975066 
2085.000000	100.968716 
2084.000000	100.969269 
2083.000000	100.976048 
2082.000000	100.984194 
2081.000000	100.993093 
2080.000000	101.003540 
2079.000000	101.011837 
2078.000000	101.014119 
2077.000000	101.014484 
2076.000000	101.021244 
2075.000000	101.035499 
2074.000000	101.049767 
2073.000000	101.056965 
2072.000000	101.056343 
2071.000000	101.051072 
2070.000000	101.045119 
2069.000000	101.042347 
2068.000000	101.043915 
2067.000000	101.046765 
2066.000000	101.047934 
2065.000000	101.048788 
2064.000000	101.051486 
2063.000000	101.054225 
2062.000000	101.055044 
2061.000000	101.057404 
2060.000000	101.065980 
2059.000000	101.079212 
2058.000000	101.091875 
2057.000000	101.102348 
2056.000000	101.111004 
2055.000000	101.114608 
2054.000000	101.111169 
2053.000000	101.108580 
2052.000000	101.119321 
2051.000000	101.145437 
2050.000000	101.175389 
2049.000000	101.196268 
2048.000000	101.203904 
2047.000000	101.199909 
2046.000000	101.187186 
2045.000000	101.172246 
2044.000000	101.164016 
2043.000000	101.165765 
2042.000000	101.173427 
2041.000000	101.183718 
2040.000000	101.198158 
2039.000000	101.217606 
2038.000000	101.238983 
2037.000000	101.258749 
2036.000000	101.274128 
2035.000000	101.280766 
2034.000000	101.276149 
2033.000000	101.265847 
2032.000000	101.258377 
2031.000000	101.253588 
2030.000000	101.244803 
2029.000000	101.231507 
2028.000000	101.220968 
2027.000000	101.216575 
2026.000000	101.216030 
2025.000000	101.220508 
2024.000000	101.234543 
2023.000000	101.253247 
2022.000000	101.260431 
2021.000000	101.246250 
2020.000000	101.220088 
2019.000000	101.200562 
2018.000000	101.197951 
2017.000000	101.208787 
2016.000000	101.221694 
2015.000000	101.225974 
2014.000000	101.219279 
2013.000000	101.209846 
2012.000000	101.208076 
2011.000000	101.215237 
2010.000000	101.224712 
2009.000000	101.232311 
2008.000000	101.238539 
2007.000000	101.241131 
2006.000000	101.235415 
2005.000000	101.222587 
2004.000000	101.209746 
2003.000000	101.200284 
2002.000000	101.191211 
2001.000000	101.181738 
2000.000000	101.173874 
1999.000000	101.166237 
1998.000000	101.154870 
1997.000000	101.141790 
1996.000000	101.135799 
1995.000000	101.142410 
1994.000000	101.157898 
1993.000000	101.174410 
1992.000000	101.186681 
1991.000000	101.192910 
1990.000000	101.193915 
1989.000000	101.194068 
1988.000000	101.198887 
1987.000000	101.208372 
1986.000000	101.216004 
1985.000000	101.216997 
1984.000000	101.214847 
1983.000000	101.218006 
1982.000000	101.231249 
1981.000000	101.251501 
1980.000000	101.268081 
1979.000000	101.270725 
1978.000000	101.259212 
1977.000000	101.243375 
1976.000000	101.230671 
1975.000000	101.219033 
1974.000000	101.207216 
1973.000000	101.204676 
1972.000000	101.221301 
1971.000000	101.250209 
1970.000000	101.270229 
1969.000000	101.266386 
1968.000000	101.243103 
1967.000000	101.216705 
1966.000000	101.199645 
1965.000000	101.193381 
1964.000000	101.191868 
1963.000000	101.188254 
1962.000000	101.179722 
1961.000000	101.167641 
1960.000000	101.154051 
1959.000000	101.140360 
1958.000000	101.129628 
1957.000000	101.125524 
1956.000000	101.126640 
1955.000000	101.126291 
1954.000000	101.121544 
1953.000000	101.116434 
1952.000000	101.114254 
1951.000000	101.109721 
1950.000000	101.096167 
1949.000000	101.077542 
1948.000000	101.064006 
1947.000000	101.058082 
1946.000000	101.052950 
1945.000000	101.042954 
1944.000000	101.029625 
1943.000000	101.017749 
1942.000000	101.011434 
1941.000000	101.012457 
1940.000000	101.017153 
1939.000000	101.018433 
1938.000000	101.015141 
1937.000000	101.015251 
1936.000000	101.025099 
1935.000000	101.038538 
1934.000000	101.043914 
1933.000000	101.038979 
1932.000000	101.033780 
1931.000000	101.035268 
1930.000000	101.039370 
1929.000000	101.040529 
1928.000000	101.037057 
1927.000000	101.030903 
1926.000000	101.022968 
1925.000000	101.016618 
1924.000000	101.016639 
1923.000000	101.021487 
1922.000000	101.024400 
1921.000000	101.022317 
1920.000000	101.016309 
1919.000000	101.005956 
1918.000000	100.988132 
1917.000000	100.967117 
1916.000000	100.953312 
1915.000000	100.949389 
1914.000000	100.950058 
1913.000000	100.951722 
1912.000000	100.956106 
1911.000000	100.963378 
1910.000000	100.969294 
1909.000000	100.971842 
1908.000000	100.972926 
1907.000000	100.975874 
1906.000000	100.979660 
1905.000000	100.982988 
1904.000000	100.985864 
1903.000000	100.984770 
1902.000000	100.976123 
1901.000000	100.963700 
1900.000000	100.954146 
1899.000000	100.949624 
1898.000000	100.947032 
1897.000000	100.946063 
1896.000000	100.949844 
1895.000000	100.955905 
1894.000000	100.956617 
1893.000000	100.950185 
1892.000000	100.942803 
1891.000000	100.939511 
1890.000000	100.938463 
1889.000000	100.936506 
1888.000000	100.935005 
1887.000000	100.935241 
1886.000000	100.936067 
1885.000000	100.937446 
1884.000000	100.940652 
1883.000000	100.943668 
1882.000000	100.943206 
1881.000000	100.940439 
1880.000000	100.938503 
1879.000000	100.938610 
1878.000000	100.940588 
1877.000000	100.945170 
1876.000000	100.953395 
1875.000000	100.961439 
1874.000000	100.961697 
1873.000000	100.952227 
1872.000000	100.938987 
1871.000000	100.928676 
1870.000000	100.923836 
1869.000000	100.924373 
1868.000000	100.930504 
1867.000000	100.939684 
1866.000000	100.945804 
1865.000000	100.945794 
1864.000000	100.940538 
1863.000000	100.930131 
1862.000000	100.915168 
1861.000000	100.902172 
1860.000000	100.899501 
1859.000000	100.907173 
1858.000000	100.917240 
1857.000000	100.924319 
1856.000000	100.929148 
1855.000000	100.932748 
1854.000000	100.933244 
1853.000000	100.932282 
1852.000000	100.930098 
1851.000000	100.926045 
1850.000000	100.922684 
1849.000000	100.925396 
1848.000000	100.935098 
1847.000000	100.943911 
1846.000000	100.945020 
1845.000000	100.941180 
1844.000000	100.939232 
1843.000000	100.942084 
1842.000000	100.946381 
1841.000000	100.947190 
1840.000000	100.943193 
1839.000000	100.936887 
1838.000000	100.929752 
1837.000000	100.924643 
1836.000000	100.923604 
1835.000000	100.923345 
1834.000000	100.920488 
1833.000000	100.917609 
1832.000000	100.918004 
1831.000000	100.922936 
1830.000000	100.927880 
1829.000000	100.928971 
1828.000000	100.928830 
1827.000000	100.928320 
1826.000000	100.926197 
1825.000000	100.922302 
1824.000000	100.919848 
1823.000000	100.920120 
1822.000000	100.917920 
1821.000000	100.909664 
1820.000000	100.899993 
1819.000000	100.896921 
1818.000000	100.899693 
1817.000000	100.902868 
1816.000000	100.905890 
1815.000000	100.909639 
1814.000000	100.913528 
1813.000000	100.915646 
1812.000000	100.918567 
1811.000000	100.925024 
1810.000000	100.930477 
1809.000000	100.931829 
1808.000000	100.932168 
1807.000000	100.932133 
1806.000000	100.927396 
1805.000000	100.917559 
1804.000000	100.910038 
1803.000000	100.907983 
1802.000000	100.908295 
1801.000000	100.905410 
1800.000000	100.901576 
1799.000000	100.901491 
1798.000000	100.903825 
1797.000000	100.906845 
1796.000000	100.911991 
1795.000000	100.918158 
1794.000000	100.923170 
1793.000000	100.924536 
1792.000000	100.923056 
1791.000000	100.922187 
1790.000000	100.921760 
1789.000000	100.920143 
1788.000000	100.919907 
1787.000000	100.923345 
1786.000000	100.927616 
1785.000000	100.929254 
1784.000000	100.929362 
1783.000000	100.926423 
1782.000000	100.922726 
1781.000000	100.919865 
1780.000000	100.918637 
1779.000000	100.918618 
1778.000000	100.917829 
1777.000000	100.917238 
1776.000000	100.916821 
1775.000000	100.916120 
1774.000000	100.919351 
1773.000000	100.928320 
1772.000000	100.935016 
1771.000000	100.938336 
1770.000000	100.939723 
1769.000000	100.935806 
1768.000000	100.928451 
1767.000000	100.922670 
1766.000000	100.921622 
1765.000000	100.921743 
1764.000000	100.921230 
1763.000000	100.922296 
1762.000000	100.925629 
1761.000000	100.926011 
1760.000000	100.924007 
1759.000000	100.921278 
1758.000000	100.921140 
1757.000000	100.926459 
1756.000000	100.932638 
1755.000000	100.937140 
1754.000000	100.939019 
1753.000000	100.937948 
1752.000000	100.933886 
1751.000000	100.929358 
1750.000000	100.926091 
1749.000000	100.924885 
1748.000000	100.923706 
1747.000000	100.921565 
1746.000000	100.922427 
1745.000000	100.923964 
1744.000000	100.922341 
1743.000000	100.919435 
1742.000000	100.919221 
1741.000000	100.921733 
1740.000000	100.926420 
1739.000000	100.931526 
1738.000000	100.936691 
1737.000000	100.937511 
1736.000000	100.934962 
1735.000000	100.937711 
1734.000000	100.936710 
1733.000000	100.929836 
1732.000000	100.927935 
1731.000000	100.925284 
1730.000000	100.918271 
1729.000000	100.913261 
1728.000000	100.914298 
1727.000000	100.919447 
1726.000000	100.926357 
1725.000000	100.930997 
1724.000000	100.934665 
1723.000000	100.939302 
1722.000000	100.940622 
1721.000000	100.934640 
1720.000000	100.925705 
1719.000000	100.926432 
1718.000000	100.933346 
1717.000000	100.932822 
1716.000000	100.932268 
1715.000000	100.936277 
1714.000000	100.935069 
1713.000000	100.927848 
1712.000000	100.923657 
1711.000000	100.924087 
1710.000000	100.923562 
1709.000000	100.921495 
1708.000000	100.921551 
1707.000000	100.926759 
1706.000000	100.931322 
1705.000000	100.930628 
1704.000000	100.931499 
1703.000000	100.932709 
1702.000000	100.931934 
1701.000000	100.932537 
1700.000000	100.926706 
1699.000000	100.925883 
1698.000000	100.929607 
1697.000000	100.927217 
1696.000000	100.924146 
1695.000000	100.920292 
1694.000000	100.918143 
1693.000000	100.915938 
1692.000000	100.911957 
1691.000000	100.908685 
1690.000000	100.906280 
1689.000000	100.906293 
1688.000000	100.906481 
1687.000000	100.905708 
1686.000000	100.909081 
1685.000000	100.923082 
1684.000000	100.929026 
1683.000000	100.921932 
1682.000000	100.918709 
1681.000000	100.918358 
1680.000000	100.916183 
1679.000000	100.912014 
1678.000000	100.909286 
1677.000000	100.911121 
1676.000000	100.915804 
1675.000000	100.914726 
1674.000000	100.913633 
1673.000000	100.917147 
1672.000000	100.920459 
1671.000000	100.921154 
1670.000000	100.919827 
1669.000000	100.918178 
1668.000000	100.917856 
1667.000000	100.917789 
1666.000000	100.915604 
1665.000000	100.910249 
1664.000000	100.906603 
1663.000000	100.904540 
1662.000000	100.904628 
1661.000000	100.909985 
1660.000000	100.914754 
1659.000000	100.914703 
1658.000000	100.913507 
1657.000000	100.912783 
1656.000000	100.904058 
1655.000000	100.897034 
1654.000000	100.914532 
1653.000000	100.922549 
1652.000000	100.915982 
1651.000000	100.924482 
1650.000000	100.929526 
1649.000000	100.921857 
1648.000000	100.913919 
1647.000000	100.911439 
1646.000000	100.909801 
1645.000000	100.910775 
1644.000000	100.915533 
1643.000000	100.916915 
1642.000000	100.914121 
1641.000000	100.911743 
1640.000000	100.910403 
1639.000000	100.909189 
1638.000000	100.906625 
1637.000000	100.909776 
1636.000000	100.916040 
1635.000000	100.917357 
1634.000000	100.918320 
1633.000000	100.919675 
1632.000000	100.916958 
1631.000000	100.908974 
1630.000000	100.899120 
1629.000000	100.893170 
1628.000000	100.893738 
1627.000000	100.896711 
1626.000000	100.899910 
1625.000000	100.903480 
1624.000000	100.906567 
1623.000000	100.904294 
1622.000000	100.900155 
1621.000000	100.902535 
1620.000000	100.906687 
1619.000000	100.905886 
1618.000000	100.904004 
1617.000000	100.907932 
1616.000000	100.914824 
1615.000000	100.921098 
1614.000000	100.924934 
1613.000000	100.926994 
1612.000000	100.930254 
1611.000000	100.932814 
1610.000000	100.933674 
1609.000000	100.934487 
1608.000000	100.934403 
1607.000000	100.929904 
1606.000000	100.925519 
1605.000000	100.926882 
1604.000000	100.930272 
1603.000000	100.931301 
1602.000000	100.932056 
1601.000000	100.936460 
1600.000000	100.942865 
1599.000000	100.947418 
1598.000000	100.950553 
1597.000000	100.953836 
1596.000000	100.955827 
1595.000000	100.954028 
1594.000000	100.950548 
1593.000000	100.950351 
1592.000000	100.954290 
1591.000000	100.958667 
1590.000000	100.961836 
1589.000000	100.965678 
1588.000000	100.970296 
1587.000000	100.973130 
1586.000000	100.973212 
1585.000000	100.975556 
1584.000000	100.979282 
1583.000000	100.980247 
1582.000000	100.980401 
1581.000000	100.983492 
1580.000000	100.985072 
1579.000000	100.979868 
1578.000000	100.973848 
1577.000000	100.976050 
1576.000000	100.980221 
1575.000000	100.978867 
1574.000000	100.979850 
1573.000000	100.982796 
1572.000000	100.981933 
1571.000000	100.978375 
1570.000000	100.975082 
1569.000000	100.976521 
1568.000000	100.980334 
1567.000000	100.981806 
1566.000000	100.980507 
1565.000000	100.981951 
1564.000000	100.983115 
1563.000000	100.981473 
1562.000000	100.976231 
1561.000000	100.978881 
1560.000000	100.996790 
1559.000000	100.998044 
1558.000000	100.978060 
1557.000000	100.979645 
1556.000000	100.988348 
1555.000000	100.984425 
1554.000000	100.976169 
1553.000000	100.970271 
1552.000000	100.965071 
1551.000000	100.959974 
1550.000000	100.957300 
1549.000000	100.960560 
1548.000000	100.967565 
1547.000000	100.970479 
1546.000000	100.966400 
1545.000000	100.960069 
1544.000000	100.957163 
1543.000000	100.963538 
1542.000000	100.978231 
1541.000000	100.995611 
1540.000000	101.001330 
1539.000000	100.990707 
1538.000000	100.984983 
1537.000000	100.989206 
1536.000000	100.992960 
1535.000000	100.991254 
1534.000000	100.984759 
1533.000000	100.972412 
1532.000000	100.962826 
1531.000000	100.962646 
1530.000000	100.964021 
1529.000000	100.961750 
1528.000000	100.958917 
1527.000000	100.959018 
1526.000000	100.963344 
1525.000000	100.970325 
1524.000000	100.976106 
1523.000000	100.979859 
1522.000000	100.981266 
1521.000000	100.977974 
1520.000000	100.974860 
1519.000000	100.972840 
1518.000000	100.965539 
1517.000000	100.953227 
1516.000000	100.944426 
1515.000000	100.944807 
1514.000000	100.949984 
1513.000000	100.950705 
1512.000000	100.947509 
1511.000000	100.945374 
1510.000000	100.943743 
1509.000000	100.939493 
1508.000000	100.942482 
1507.000000	100.955169 
1506.000000	100.957168 
1505.000000	100.955872 
1504.000000	100.961391 
1503.000000	100.969040 
1502.000000	100.976213 
1501.000000	100.981016 
1500.000000	100.981919 
1499.000000	100.981012 
1498.000000	100.979064 
1497.000000	100.968628 
1496.000000	100.951968 
1495.000000	100.941066 
1494.000000	100.938764 
1493.000000	100.938136 
1492.000000	100.936585 
1491.000000	100.935189 
1490.000000	100.930753 
1489.000000	100.921162 
1488.000000	100.914504 
1487.000000	100.913898 
1486.000000	100.912111 
1485.000000	100.910991 
1484.000000	100.912693 
1483.000000	100.916293 
1482.000000	100.919564 
1481.000000	100.921952 
1480.000000	100.925791 
1479.000000	100.929955 
1478.000000	100.930090 
1477.000000	100.924443 
1476.000000	100.920074 
1475.000000	100.920326 
1474.000000	100.922701 
1473.000000	100.921175 
1472.000000	100.914141 
1471.000000	100.909319 
1470.000000	100.908681 
1469.000000	100.907083 
1468.000000	100.904317 
1467.000000	100.901782 
1466.000000	100.900013 
1465.000000	100.899525 
1464.000000	100.900075 
1463.000000	100.905210 
1462.000000	100.912194 
1461.000000	100.915716 
1460.000000	100.913409 
1459.000000	100.909800 
1458.000000	100.908309 
1457.000000	100.898342 
1456.000000	100.880933 
1455.000000	100.872573 
1454.000000	100.872857 
1453.000000	100.873076 
1452.000000	100.872559 
1451.000000	100.873948 
1450.000000	100.875840 
1449.000000	100.872099 
1448.000000	100.864894 
1447.000000	100.860731 
1446.000000	100.865436 
1445.000000	100.874511 
1444.000000	100.879458 
1443.000000	100.881878 
1442.000000	100.885873 
1441.000000	100.890835 
1440.000000	100.892411 
1439.000000	100.892478 
1438.000000	100.894543 
1437.000000	100.894988 
1436.000000	100.889646 
1435.000000	100.887160 
1434.000000	100.890344 
1433.000000	100.890988 
1432.000000	100.886078 
1431.000000	100.881095 
1430.000000	100.881053 
1429.000000	100.882300 
1428.000000	100.882248 
1427.000000	100.880780 
1426.000000	100.880884 
1425.000000	100.882517 
1424.000000	100.880932 
1423.000000	100.878173 
1422.000000	100.876816 
1421.000000	100.872727 
1420.000000	100.860283 
1419.000000	100.844761 
1418.000000	100.837844 
1417.000000	100.838323 
1416.000000	100.835699 
1415.000000	100.828079 
1414.000000	100.821056 
1413.000000	100.816066 
1412.000000	100.810701 
1411.000000	100.806893 
1410.000000	100.807231 
1409.000000	100.807261 
1408.000000	100.804135 
1407.000000	100.800122 
1406.000000	100.800128 
1405.000000	100.804338 
1404.000000	100.808429 
1403.000000	100.814370 
1402.000000	100.824982 
1401.000000	100.837051 
1400.000000	100.844591 
1399.000000	100.846544 
1398.000000	100.845975 
1397.000000	100.840563 
1396.000000	100.824876 
1395.000000	100.802680 
1394.000000	100.792141 
1393.000000	100.805078 
1392.000000	100.833030 
1391.000000	100.861300 
1390.000000	100.881406 
1389.000000	100.890591 
1388.000000	100.889526 
1387.000000	100.881843 
1386.000000	100.873614 
1385.000000	100.868232 
1384.000000	100.863609 
1383.000000	100.858870 
1382.000000	100.855154 
1381.000000	100.853736 
1380.000000	100.855447 
1379.000000	100.860398 
1378.000000	100.868139 
1377.000000	100.876777 
1376.000000	100.883587 
1375.000000	100.886994 
1374.000000	100.889898 
1373.000000	100.896410 
1372.000000	100.906971 
1371.000000	100.916947 
1370.000000	100.923275 
1369.000000	100.926873 
1368.000000	100.929083 
1367.000000	100.931448 
1366.000000	100.934834 
1365.000000	100.938704 
1364.000000	100.942062 
1363.000000	100.944637 
1362.000000	100.946946 
1361.000000	100.949712 
1360.000000	100.952943 
1359.000000	100.956407 
1358.000000	100.961194 
1357.000000	100.968106 
1356.000000	100.975597 
1355.000000	100.981351 
1354.000000	100.985173 
1353.000000	100.987772 
1352.000000	100.990073 
1351.000000	100.990725 
1350.000000	100.989655 
1349.000000	100.989435 
1348.000000	100.991263 
1347.000000	100.993795 
1346.000000	100.995323 
1345.000000	100.996224 
1344.000000	100.997494 
1343.000000	100.998664 
1342.000000	100.998430 
1341.000000	100.997072 
1340.000000	100.996446 
1339.000000	100.997870 
1338.000000	101.001023 
1337.000000	101.004596 
1336.000000	101.007560 
1335.000000	101.009464 
1334.000000	101.009982 
1333.000000	101.009138 
1332.000000	101.008013 
1331.000000	101.008057 
1330.000000	101.009851 
1329.000000	101.012480 
1328.000000	101.014833 
1327.000000	101.016313 
1326.000000	101.017088 
1325.000000	101.017224 
1324.000000	101.016231 
1323.000000	101.014460 
1322.000000	101.013037 
1321.000000	101.012589 
1320.000000	101.013106 
1319.000000	101.014952 
1318.000000	101.017952 
1317.000000	101.019959 
1316.000000	101.018537 
1315.000000	101.014364 
1314.000000	101.011000 
1313.000000	101.010538 
1312.000000	101.011411 
1311.000000	101.011080 
1310.000000	101.009281 
1309.000000	101.007265 
1308.000000	101.006025 
1307.000000	101.005548 
1306.000000	101.005708 
1305.000000	101.006408 
1304.000000	101.007286 
1303.000000	101.008305 
1302.000000	101.009487 
1301.000000	101.010163 
1300.000000	101.009412 
1299.000000	101.007812 
1298.000000	101.007308 
1297.000000	101.009147 
1296.000000	101.012577 
1295.000000	101.015740 
1294.000000	101.016948 
1293.000000	101.014971 
1292.000000	101.009678 
1291.000000	101.002818 
1290.000000	100.997074 
1289.000000	100.993913 
1288.000000	100.992980 
1287.000000	100.993177 
1286.000000	100.993267 
1285.000000	100.991844 
1284.000000	100.988315 
1283.000000	100.983904 
1282.000000	100.980142 
1281.000000	100.976890 
1280.000000	100.973109 
1279.000000	100.969233 
1278.000000	100.966776 
1277.000000	100.965684 
1276.000000	100.964149 
1275.000000	100.961135 
1274.000000	100.957301 
1273.000000	100.953182 
1272.000000	100.948603 
1271.000000	100.944276 
1270.000000	100.941778 
1269.000000	100.941080 
1268.000000	100.939765 
1267.000000	100.935862 
1266.000000	100.929954 
1265.000000	100.923795 
1264.000000	100.918394 
1263.000000	100.913862 
1262.000000	100.909407 
1261.000000	100.903497 
1260.000000	100.895577 
1259.000000	100.887912 
1258.000000	100.883608 
1257.000000	100.882568 
1256.000000	100.881999 
1255.000000	100.881010 
1254.000000	100.881748 
1253.000000	100.885075 
1252.000000	100.888127 
1251.000000	100.888038 
1250.000000	100.885916 
1249.000000	100.885141 
1248.000000	100.887217 
1247.000000	100.890964 
1246.000000	100.893809 
1245.000000	100.892145 
1244.000000	100.882944 
1243.000000	100.867860 
1242.000000	100.854397 
1241.000000	100.849998 
1240.000000	100.855063 
1239.000000	100.863321 
1238.000000	100.868343 
1237.000000	100.868120 
1236.000000	100.864127 
1235.000000	100.858440 
1234.000000	100.852262 
1233.000000	100.845518 
1232.000000	100.837066 
1231.000000	100.826074 
1230.000000	100.813582 
1229.000000	100.802322 
1228.000000	100.794856 
1227.000000	100.791716 
1226.000000	100.790825 
1225.000000	100.788710 
1224.000000	100.783011 
1223.000000	100.774169 
1222.000000	100.764344 
1221.000000	100.754885 
1220.000000	100.745663 
1219.000000	100.736631 
1218.000000	100.728397 
1217.000000	100.720605 
1216.000000	100.711149 
1215.000000	100.698001 
1214.000000	100.681123 
1213.000000	100.661850 
1212.000000	100.641387 
1211.000000	100.620872 
1210.000000	100.601929 
1209.000000	100.585727 
1208.000000	100.571477 
1207.000000	100.556763 
1206.000000	100.539747 
1205.000000	100.520976 
1204.000000	100.502715 
1203.000000	100.486393 
1202.000000	100.470978 
1201.000000	100.454374 
1200.000000	100.436147 
1199.000000	100.417930 
1198.000000	100.400944 
1197.000000	100.384179 
1196.000000	100.365686 
1195.000000	100.344592 
1194.000000	100.321280 
1193.000000	100.296799 
1192.000000	100.272915 
1191.000000	100.251356 
1190.000000	100.231571 
1189.000000	100.210432 
1188.000000	100.185766 
1187.000000	100.159383 
1186.000000	100.135014 
1185.000000	100.113913 
1184.000000	100.094029 
1183.000000	100.072724 
1182.000000	100.048669 
1181.000000	100.021779 
1180.000000	99.992964  
1179.000000	99.963741  
1178.000000	99.934857  
1177.000000	99.905547  
1176.000000	99.874864  
1175.000000	99.842660  
1174.000000	99.808427  
1173.000000	99.770951  
1172.000000	99.730900  
1171.000000	99.692374  
1170.000000	99.659390  
1169.000000	99.631383  
1168.000000	99.604309  
1167.000000	99.575880  
1166.000000	99.548185  
1165.000000	99.525794  
1164.000000	99.513032  
1163.000000	99.512379  
1162.000000	99.523275  
1161.000000	99.542134  
1160.000000	99.564180  
1159.000000	99.584795  
1158.000000	99.598859  
1157.000000	99.600715  
1156.000000	99.587091  
1155.000000	99.560300  
1154.000000	99.527404  
1153.000000	99.495721  
1152.000000	99.468963  
1151.000000	99.446326  
1150.000000	99.424166  
1149.000000	99.399526  
1148.000000	99.373064  
1147.000000	99.347735  
1146.000000	99.324164  
1145.000000	99.299034  
1144.000000	99.269188  
1143.000000	99.235771  
1142.000000	99.202999  
1141.000000	99.174362  
1140.000000	99.151275  
1139.000000	99.133270  
1138.000000	99.117233  
1137.000000	99.098144  
1136.000000	99.073299  
1135.000000	99.045195  
1134.000000	99.018209  
1133.000000	98.993092  
1132.000000	98.966873  
1131.000000	98.937746  
1130.000000	98.907818  
1129.000000	98.880495  
1128.000000	98.856264  
1127.000000	98.831545  
1126.000000	98.801812  
1125.000000	98.766558  
1124.000000	98.730921  
1123.000000	98.700865  
1122.000000	98.676570  
1121.000000	98.652563  
1120.000000	98.624804  
1119.000000	98.595151  
1118.000000	98.567802  
1117.000000	98.543994  
1116.000000	98.522064  
1115.000000	98.500446  
1114.000000	98.478416  
1113.000000	98.455346  
1112.000000	98.431177  
1111.000000	98.406351  
1110.000000	98.380174  
1109.000000	98.350725  
1108.000000	98.318079  
1107.000000	98.285920  
1106.000000	98.257671  
1105.000000	98.232333  
1104.000000	98.206047  
1103.000000	98.176920  
1102.000000	98.146853  
1101.000000	98.119035  
1100.000000	98.095045  
1099.000000	98.073840  
1098.000000	98.052881  
1097.000000	98.030896  
1096.000000	98.008921  
1095.000000	97.987592  
1094.000000	97.964360  
1093.000000	97.935564  
1092.000000	97.900629  
1091.000000	97.861885  
1090.000000	97.821215  
1089.000000	97.780118  
1088.000000	97.742375  
1087.000000	97.712198  
1086.000000	97.688905  
1085.000000	97.667190  
1084.000000	97.643564  
1083.000000	97.618941  
1082.000000	97.594364  
1081.000000	97.568387  
1080.000000	97.540046  
1079.000000	97.510741  
1078.000000	97.481837  
1077.000000	97.453877  
1076.000000	97.429072  
1075.000000	97.410522  
1074.000000	97.397482  
1073.000000	97.384854  
1072.000000	97.367886  
1071.000000	97.343223  
1070.000000	97.305573  
1069.000000	97.250053  
1068.000000	97.180813  
1067.000000	97.112227  
1066.000000	97.057176  
1065.000000	97.016760  
1064.000000	96.983727  
1063.000000	96.951224  
1062.000000	96.914560  
1061.000000	96.869248  
1060.000000	96.813446  
1059.000000	96.751748  
1058.000000	96.692897  
1057.000000	96.643374  
1056.000000	96.603936  
1055.000000	96.570297  
1054.000000	96.535637  
1053.000000	96.494629  
1052.000000	96.446963  
1051.000000	96.395895  
1050.000000	96.343385  
1049.000000	96.289354  
1048.000000	96.235353  
1047.000000	96.184767  
1046.000000	96.138897  
1045.000000	96.096257  
1044.000000	96.055454  
1043.000000	96.015423  
1042.000000	95.973839  
1041.000000	95.929389  
1040.000000	95.884997  
1039.000000	95.844744  
1038.000000	95.808541  
1037.000000	95.774447  
1036.000000	95.744841  
1035.000000	95.724248  
1034.000000	95.711419  
1033.000000	95.699544  
1032.000000	95.684112  
1031.000000	95.664950  
1030.000000	95.641814  
1029.000000	95.615402  
1028.000000	95.592638  
1027.000000	95.582448  
1026.000000	95.584020  
1025.000000	95.586171  
1024.000000	95.580464  
1023.000000	95.568731  
1022.000000	95.556468  
1021.000000	95.545921  
1020.000000	95.537985  
1019.000000	95.533855  
1018.000000	95.531255  
1017.000000	95.524702  
1016.000000	95.512749  
1015.000000	95.500265  
1014.000000	95.491111  
1013.000000	95.483220  
1012.000000	95.472881  
1011.000000	95.459041  
1010.000000	95.441792  
1009.000000	95.421873  
1008.000000	95.403556  
1007.000000	95.392743  
1006.000000	95.390068  
1005.000000	95.390625  
1004.000000	95.391740  
1003.000000	95.395373  
1002.000000	95.401461  
1001.000000	95.405261  
1000.000000	95.403887  
999.000000	 95.400058  
998.000000	 95.397087  
997.000000	 95.395494  
996.000000	 95.396787  
995.000000	 95.404630  
994.000000	 95.418960  
993.000000	 95.433820  
992.000000	 95.444051  
991.000000	 95.449825  
990.000000	 95.452570  
989.000000	 95.451729  
988.000000	 95.448680  
987.000000	 95.449235  
986.000000	 95.458431  
985.000000	 95.475724  
984.000000	 95.497389  
983.000000	 95.520416  
982.000000	 95.542757  
981.000000	 95.563831  
980.000000	 95.586415  
979.000000	 95.614382  
978.000000	 95.647543  
977.000000	 95.682484  
976.000000	 95.718634  
975.000000	 95.758528  
974.000000	 95.801722  
973.000000	 95.844381  
972.000000	 95.886271  
971.000000	 95.932354  
970.000000	 95.985254  
969.000000	 96.041226  
968.000000	 96.095752  
967.000000	 96.148333  
966.000000	 96.199748  
965.000000	 96.249313  
964.000000	 96.297203  
963.000000	 96.345372  
962.000000	 96.394181  
961.000000	 96.441812  
960.000000	 96.488254  
959.000000	 96.535577  
958.000000	 96.583082  
957.000000	 96.626956  
956.000000	 96.666315  
955.000000	 96.704808  
954.000000	 96.744433  
953.000000	 96.782502  
952.000000	 96.816801  
951.000000	 96.849031  
950.000000	 96.880629  
949.000000	 96.909600  
948.000000	 96.934146  
947.000000	 96.955496  
946.000000	 96.974584  
945.000000	 96.989851  
944.000000	 97.001188  
943.000000	 97.012678  
942.000000	 97.028569  
941.000000	 97.048905  
940.000000	 97.070737  
939.000000	 97.090751  
938.000000	 97.105786  
937.000000	 97.114772  
936.000000	 97.121895  
935.000000	 97.134218  
934.000000	 97.154269  
933.000000	 97.178148  
932.000000	 97.201824  
931.000000	 97.225020  
930.000000	 97.247537  
929.000000	 97.266472  
928.000000	 97.279632  
927.000000	 97.288289  
926.000000	 97.294853  
925.000000	 97.301224  
924.000000	 97.310555  
923.000000	 97.326207  
922.000000	 97.346890  
921.000000	 97.366630  
920.000000	 97.381180  
919.000000	 97.390819  
918.000000	 97.396266  
917.000000	 97.396910  
916.000000	 97.394696  
915.000000	 97.394538  
914.000000	 97.398391  
913.000000	 97.403596  
912.000000	 97.409475  
911.000000	 97.420637  
910.000000	 97.440957  
909.000000	 97.468858  
908.000000	 97.501272  
907.000000	 97.537586  
906.000000	 97.576863  
905.000000	 97.615882  
904.000000	 97.653074  
903.000000	 97.690569  
902.000000	 97.730091  
901.000000	 97.770928  
900.000000	 97.813777  
899.000000	 97.861204  
898.000000	 97.911478  
897.000000	 97.957218  
896.000000	 97.993701  
895.000000	 98.024380  
894.000000	 98.055285  
893.000000	 98.088510  
892.000000	 98.124544  
891.000000	 98.166107  
890.000000	 98.214872  
889.000000	 98.267413  
888.000000	 98.318124  
887.000000	 98.363667  
886.000000	 98.402373  
885.000000	 98.433115  
884.000000	 98.457829  
883.000000	 98.481480  
882.000000	 98.506235  
881.000000	 98.529240  
880.000000	 98.549391  
879.000000	 98.571901  
878.000000	 98.601646  
877.000000	 98.635576  
876.000000	 98.666438  
875.000000	 98.691214  
874.000000	 98.712237  
873.000000	 98.733457  
872.000000	 98.759343  
871.000000	 98.793511  
870.000000	 98.833943  
869.000000	 98.873023  
868.000000	 98.906423  
867.000000	 98.938396  
866.000000	 98.974239  
865.000000	 99.011823  
864.000000	 99.046185  
863.000000	 99.078792  
862.000000	 99.114818  
861.000000	 99.152605  
860.000000	 99.183484  
859.000000	 99.203278  
858.000000	 99.217964  
857.000000	 99.235959  
856.000000	 99.259939  
855.000000	 99.288617  
854.000000	 99.321348  
853.000000	 99.356735  
852.000000	 99.389810  
851.000000	 99.415674  
850.000000	 99.435584  
849.000000	 99.455649  
848.000000	 99.478840  
847.000000	 99.501238  
846.000000	 99.517345  
845.000000	 99.526515  
844.000000	 99.531967  
843.000000	 99.535455  
842.000000	 99.536258  
841.000000	 99.534769  
840.000000	 99.533010  
839.000000	 99.530473  
838.000000	 99.523260  
837.000000	 99.509884  
836.000000	 99.494826  
835.000000	 99.483183  
834.000000	 99.475003  
833.000000	 99.469444  
832.000000	 99.470990  
831.000000	 99.483461  
830.000000	 99.498275  
829.000000	 99.498585  
828.000000	 99.479908  
827.000000	 99.459355  
826.000000	 99.457054  
825.000000	 99.472708  
824.000000	 99.488496  
823.000000	 99.492108  
822.000000	 99.488284  
821.000000	 99.488703  
820.000000	 99.499016  
819.000000	 99.517163  
818.000000	 99.537993  
817.000000	 99.556362  
816.000000	 99.567579  
815.000000	 99.567120  
814.000000	 99.551508  
813.000000	 99.520530  
812.000000	 99.477741  
811.000000	 99.426180  
810.000000	 99.363033  
809.000000	 99.281134  
808.000000	 99.176946  
807.000000	 99.054567  
806.000000	 98.920626  
805.000000	 98.778736  
804.000000	 98.631886  
803.000000	 98.487200  
802.000000	 98.354102  
801.000000	 98.238909  
800.000000	 98.143973  
799.000000	 98.070320  
798.000000	 98.018810  
797.000000	 97.990276  
796.000000	 97.985230  
795.000000	 98.000504  
794.000000	 98.025960  
793.000000	 98.049274  
792.000000	 98.065816  
791.000000	 98.080495  
790.000000	 98.098888  
789.000000	 98.119817  
788.000000	 98.136895  
787.000000	 98.142751  
786.000000	 98.130641  
785.000000	 98.096993  
784.000000	 98.045462  
783.000000	 97.986071  
782.000000	 97.928456  
781.000000	 97.877743  
780.000000	 97.836589  
779.000000	 97.806434  
778.000000	 97.785669  
777.000000	 97.771923  
776.000000	 97.768495  
775.000000	 97.783582  
774.000000	 97.819925  
773.000000	 97.868974  
772.000000	 97.918323  
771.000000	 97.962168  
770.000000	 98.002440  
769.000000	 98.042073  
768.000000	 98.079375  
767.000000	 98.108509  
766.000000	 98.125621  
765.000000	 98.135359  
764.000000	 98.148987  
763.000000	 98.172649  
762.000000	 98.199053  
761.000000	 98.215229  
760.000000	 98.217927  
759.000000	 98.217184  
758.000000	 98.225177  
757.000000	 98.245282  
756.000000	 98.270763  
755.000000	 98.289943  
754.000000	 98.294801  
753.000000	 98.290159  
752.000000	 98.293069  
751.000000	 98.317334  
750.000000	 98.358903  
749.000000	 98.401320  
748.000000	 98.433648  
747.000000	 98.456895  
746.000000	 98.475681  
745.000000	 98.492549  
744.000000	 98.510354  
743.000000	 98.531724  
742.000000	 98.554979  
741.000000	 98.577784  
740.000000	 98.605011  
739.000000	 98.644747  
738.000000	 98.695344  
737.000000	 98.744219  
736.000000	 98.780751  
735.000000	 98.803559  
734.000000	 98.815657  
733.000000	 98.821905  
732.000000	 98.832498  
731.000000	 98.858089  
730.000000	 98.896571  
729.000000	 98.932928  
728.000000	 98.956844  
727.000000	 98.972767  
726.000000	 98.987897  
725.000000	 98.999278  
724.000000	 98.999933  
723.000000	 98.991234  
722.000000	 98.982577  
721.000000	 98.983342  
720.000000	 98.999756  
719.000000	 99.033545  
718.000000	 99.077636  
717.000000	 99.117542  
716.000000	 99.141956  
715.000000	 99.150267  
714.000000	 99.149098  
713.000000	 99.146408  
712.000000	 99.150711  
711.000000	 99.168415  
710.000000	 99.196602  
709.000000	 99.223383  
708.000000	 99.238972  
707.000000	 99.241964  
706.000000	 99.232324  
705.000000	 99.206667  
704.000000	 99.166854  
703.000000	 99.125172  
702.000000	 99.092722  
701.000000	 99.066710  
700.000000	 99.034183  
699.000000	 98.984925  
698.000000	 98.917535  
697.000000	 98.838761  
696.000000	 98.762803  
695.000000	 98.705762  
694.000000	 98.675949  
693.000000	 98.672629  
692.000000	 98.693577  
691.000000	 98.736781  
690.000000	 98.792915  
689.000000	 98.846299  
688.000000	 98.889194  
687.000000	 98.926057  
686.000000	 98.959521  
685.000000	 98.983597  
684.000000	 98.996357  
683.000000	 99.007963  
682.000000	 99.028153  
681.000000	 99.053720  
680.000000	 99.074375  
679.000000	 99.083528  
678.000000	 99.079498  
677.000000	 99.065934  
676.000000	 99.057025  
675.000000	 99.070503  
674.000000	 99.105385  
673.000000	 99.138235  
672.000000	 99.153229  
671.000000	 99.164560  
670.000000	 99.197846  
669.000000	 99.264670  
668.000000	 99.329549  
667.000000	 99.337349  
666.000000	 99.310888  
665.000000	 99.296066  
664.000000	 99.297806  
663.000000	 99.325324  
662.000000	 99.380855  
661.000000	 99.438937  
660.000000	 99.460855  
659.000000	 99.436854  
658.000000	 99.392000  
657.000000	 99.353037  
656.000000	 99.327063  
655.000000	 99.315234  
654.000000	 99.321611  
653.000000	 99.343124  
652.000000	 99.368639  
651.000000	 99.388800  
650.000000	 99.398888  

