4000.000000	98.959953 
3999.000000	98.958339 
3998.000000	98.956165 
3997.000000	98.955096 
3996.000000	98.955051 
3995.000000	98.954676 
3994.000000	98.953363 
3993.000000	98.952057 
3992.000000	98.951863 
3991.000000	98.952385 
3990.000000	98.951906 
3989.000000	98.948996 
3988.000000	98.943780 
3987.000000	98.937967 
3986.000000	98.933945 
3985.000000	98.933588 
3984.000000	98.937291 
3983.000000	98.943959 
3982.000000	98.951839 
3981.000000	98.959370 
3980.000000	98.965381 
3979.000000	98.968994 
3978.000000	98.969883 
3977.000000	98.968641 
3976.000000	98.966290 
3975.000000	98.963325 
3974.000000	98.959545 
3973.000000	98.955056 
3972.000000	98.951025 
3971.000000	98.949238 
3970.000000	98.951124 
3969.000000	98.956610 
3968.000000	98.963752 
3967.000000	98.969475 
3966.000000	98.971408 
3965.000000	98.969354 
3964.000000	98.965253 
3963.000000	98.961928 
3962.000000	98.961396 
3961.000000	98.963550 
3960.000000	98.965769 
3959.000000	98.964599 
3958.000000	98.959358 
3957.000000	98.953276 
3956.000000	98.950625 
3955.000000	98.952491 
3954.000000	98.956335 
3953.000000	98.959115 
3952.000000	98.959761 
3951.000000	98.959103 
3950.000000	98.957815 
3949.000000	98.955473 
3948.000000	98.952003 
3947.000000	98.949411 
3946.000000	98.950156 
3945.000000	98.953941 
3944.000000	98.957453 
3943.000000	98.957752 
3942.000000	98.955386 
3941.000000	98.953513 
3940.000000	98.953538 
3939.000000	98.953546 
3938.000000	98.951973 
3937.000000	98.949429 
3936.000000	98.947040 
3935.000000	98.944404 
3934.000000	98.941492 
3933.000000	98.941003 
3932.000000	98.945727 
3931.000000	98.954590 
3930.000000	98.962875 
3929.000000	98.966843 
3928.000000	98.966566 
3927.000000	98.963373 
3926.000000	98.957906 
3925.000000	98.952005 
3924.000000	98.949744 
3923.000000	98.952703 
3922.000000	98.956172 
3921.000000	98.954832 
3920.000000	98.949905 
3919.000000	98.946170 
3918.000000	98.944461 
3917.000000	98.941867 
3916.000000	98.938399 
3915.000000	98.937617 
3914.000000	98.940526 
3913.000000	98.944101 
3912.000000	98.946050 
3911.000000	98.945987 
3910.000000	98.945232 
3909.000000	98.944922 
3908.000000	98.946673 
3907.000000	98.950977 
3906.000000	98.956094 
3905.000000	98.958816 
3904.000000	98.957981 
3903.000000	98.956592 
3902.000000	98.956869 
3901.000000	98.955120 
3900.000000	98.947213 
3899.000000	98.936392 
3898.000000	98.929492 
3897.000000	98.927928 
3896.000000	98.927642 
3895.000000	98.927566 
3894.000000	98.932781 
3893.000000	98.944791 
3892.000000	98.955505 
3891.000000	98.956413 
3890.000000	98.954704 
3889.000000	98.959751 
3888.000000	98.966751 
3887.000000	98.966070 
3886.000000	98.957232 
3885.000000	98.949764 
3884.000000	98.953653 
3883.000000	98.963199 
3882.000000	98.964153 
3881.000000	98.953366 
3880.000000	98.939952 
3879.000000	98.935621 
3878.000000	98.944321 
3877.000000	98.957027 
3876.000000	98.963055 
3875.000000	98.959731 
3874.000000	98.953324 
3873.000000	98.953125 
3872.000000	98.957894 
3871.000000	98.955680 
3870.000000	98.942482 
3869.000000	98.933823 
3868.000000	98.945361 
3867.000000	98.964596 
3866.000000	98.970017 
3865.000000	98.963346 
3864.000000	98.960171 
3863.000000	98.964244 
3862.000000	98.967273 
3861.000000	98.963717 
3860.000000	98.957247 
3859.000000	98.949411 
3858.000000	98.938104 
3857.000000	98.923669 
3856.000000	98.915103 
3855.000000	98.922642 
3854.000000	98.936337 
3853.000000	98.934019 
3852.000000	98.930230 
3851.000000	98.945332 
3850.000000	98.962136 
3849.000000	98.966412 
3848.000000	98.964392 
3847.000000	98.963491 
3846.000000	98.963407 
3845.000000	98.961987 
3844.000000	98.960396 
3843.000000	98.961954 
3842.000000	98.969421 
3841.000000	98.980239 
3840.000000	98.989455 
3839.000000	98.993336 
3838.000000	98.991186 
3837.000000	98.984710 
3836.000000	98.978594 
3835.000000	98.975379 
3834.000000	98.973019 
3833.000000	98.968388 
3832.000000	98.961877 
3831.000000	98.957888 
3830.000000	98.960464 
3829.000000	98.967545 
3828.000000	98.971928 
3827.000000	98.968393 
3826.000000	98.961556 
3825.000000	98.961645 
3824.000000	98.972137 
3823.000000	98.985788 
3822.000000	98.991853 
3821.000000	98.983753 
3820.000000	98.974584 
3819.000000	98.979240 
3818.000000	98.985813 
3817.000000	98.978919 
3816.000000	98.961453 
3815.000000	98.949122 
3814.000000	98.950495 
3813.000000	98.953346 
3812.000000	98.945275 
3811.000000	98.934281 
3810.000000	98.934398 
3809.000000	98.946757 
3808.000000	98.959215 
3807.000000	98.962676 
3806.000000	98.965058 
3805.000000	98.977339 
3804.000000	98.990867 
3803.000000	98.990182 
3802.000000	98.974147 
3801.000000	98.954282 
3800.000000	98.948454 
3799.000000	98.956257 
3798.000000	98.957637 
3797.000000	98.946329 
3796.000000	98.934337 
3795.000000	98.933123 
3794.000000	98.940325 
3793.000000	98.946015 
3792.000000	98.946163 
3791.000000	98.944680 
3790.000000	98.944800 
3789.000000	98.946829 
3788.000000	98.951339 
3787.000000	98.959310 
3786.000000	98.968429 
3785.000000	98.974918 
3784.000000	98.979476 
3783.000000	98.985996 
3782.000000	98.993448 
3781.000000	98.995020 
3780.000000	98.986519 
3779.000000	98.971991 
3778.000000	98.961093 
3777.000000	98.957519 
3776.000000	98.955761 
3775.000000	98.951168 
3774.000000	98.947824 
3773.000000	98.951355 
3772.000000	98.959666 
3771.000000	98.964509 
3770.000000	98.961938 
3769.000000	98.957006 
3768.000000	98.955969 
3767.000000	98.956231 
3766.000000	98.952355 
3765.000000	98.946688 
3764.000000	98.947308 
3763.000000	98.956040 
3762.000000	98.965092 
3761.000000	98.969505 
3760.000000	98.973353 
3759.000000	98.977950 
3758.000000	98.978294 
3757.000000	98.972698 
3756.000000	98.967697 
3755.000000	98.968718 
3754.000000	98.975333 
3753.000000	98.986728 
3752.000000	99.001425 
3751.000000	99.007889 
3750.000000	98.993816 
3749.000000	98.970373 
3748.000000	98.958806 
3747.000000	98.958686 
3746.000000	98.954895 
3745.000000	98.938797 
3744.000000	98.917179 
3743.000000	98.918023 
3742.000000	98.945834 
3741.000000	98.965943 
3740.000000	98.964991 
3739.000000	98.960201 
3738.000000	98.965273 
3737.000000	98.975202 
3736.000000	98.980919 
3735.000000	98.982823 
3734.000000	98.982372 
3733.000000	98.974807 
3732.000000	98.961185 
3731.000000	98.954285 
3730.000000	98.960821 
3729.000000	98.970620 
3728.000000	98.971461 
3727.000000	98.965908 
3726.000000	98.965821 
3725.000000	98.975287 
3724.000000	98.983950 
3723.000000	98.981742 
3722.000000	98.971103 
3721.000000	98.961762 
3720.000000	98.959741 
3719.000000	98.961988 
3718.000000	98.962227 
3717.000000	98.958021 
3716.000000	98.951524 
3715.000000	98.944487 
3714.000000	98.938127 
3713.000000	98.935245 
3712.000000	98.935718 
3711.000000	98.934933 
3710.000000	98.931979 
3709.000000	98.929757 
3708.000000	98.929110 
3707.000000	98.928481 
3706.000000	98.926543 
3705.000000	98.922762 
3704.000000	98.917149 
3703.000000	98.910525 
3702.000000	98.903421 
3701.000000	98.896629 
3700.000000	98.892977 
3699.000000	98.892310 
3698.000000	98.889319 
3697.000000	98.881931 
3696.000000	98.875444 
3695.000000	98.874950 
3694.000000	98.878064 
3693.000000	98.879951 
3692.000000	98.881039 
3691.000000	98.883570 
3690.000000	98.883342 
3689.000000	98.871955 
3688.000000	98.853127 
3687.000000	98.842720 
3686.000000	98.845493 
3685.000000	98.850543 
3684.000000	98.851310 
3683.000000	98.851929 
3682.000000	98.855585 
3681.000000	98.857124 
3680.000000	98.851349 
3679.000000	98.843925 
3678.000000	98.842353 
3677.000000	98.844652 
3676.000000	98.839522 
3675.000000	98.825290 
3674.000000	98.822870 
3673.000000	98.837826 
3672.000000	98.847951 
3671.000000	98.844221 
3670.000000	98.835005 
3669.000000	98.827737 
3668.000000	98.825812 
3667.000000	98.825056 
3666.000000	98.821190 
3665.000000	98.816819 
3664.000000	98.815537 
3663.000000	98.816415 
3662.000000	98.816618 
3661.000000	98.816088 
3660.000000	98.817879 
3659.000000	98.824076 
3658.000000	98.831364 
3657.000000	98.833902 
3656.000000	98.830601 
3655.000000	98.831507 
3654.000000	98.843136 
3653.000000	98.858120 
3652.000000	98.870652 
3651.000000	98.885680 
3650.000000	98.902557 
3649.000000	98.906449 
3648.000000	98.890488 
3647.000000	98.868190 
3646.000000	98.855664 
3645.000000	98.855594 
3644.000000	98.861264 
3643.000000	98.866540 
3642.000000	98.870587 
3641.000000	98.874812 
3640.000000	98.879803 
3639.000000	98.885618 
3638.000000	98.894143 
3637.000000	98.907094 
3636.000000	98.919854 
3635.000000	98.923566 
3634.000000	98.915665 
3633.000000	98.904539 
3632.000000	98.899100 
3631.000000	98.900493 
3630.000000	98.903973 
3629.000000	98.899792 
3628.000000	98.887667 
3627.000000	98.884087 
3626.000000	98.891093 
3625.000000	98.897129 
3624.000000	98.900568 
3623.000000	98.905679 
3622.000000	98.912147 
3621.000000	98.916279 
3620.000000	98.916940 
3619.000000	98.915634 
3618.000000	98.915865 
3617.000000	98.920846 
3616.000000	98.928026 
3615.000000	98.931468 
3614.000000	98.928218 
3613.000000	98.919899 
3612.000000	98.910221 
3611.000000	98.901655 
3610.000000	98.895367 
3609.000000	98.894032 
3608.000000	98.899784 
3607.000000	98.910200 
3606.000000	98.919471 
3605.000000	98.923642 
3604.000000	98.924376 
3603.000000	98.925996 
3602.000000	98.929137 
3601.000000	98.930906 
3600.000000	98.930472 
3599.000000	98.930395 
3598.000000	98.932281 
3597.000000	98.936083 
3596.000000	98.939873 
3595.000000	98.940914 
3594.000000	98.937900 
3593.000000	98.934336 
3592.000000	98.935526 
3591.000000	98.943645 
3590.000000	98.955750 
3589.000000	98.965576 
3588.000000	98.966050 
3587.000000	98.955484 
3586.000000	98.941492 
3585.000000	98.932252 
3584.000000	98.928682 
3583.000000	98.928289 
3582.000000	98.928871 
3581.000000	98.928665 
3580.000000	98.926468 
3579.000000	98.922838 
3578.000000	98.919082 
3577.000000	98.916613 
3576.000000	98.916620 
3575.000000	98.919832 
3574.000000	98.925918 
3573.000000	98.933051 
3572.000000	98.938907 
3571.000000	98.941809 
3570.000000	98.941421 
3569.000000	98.938617 
3568.000000	98.934847 
3567.000000	98.931036 
3566.000000	98.928500 
3565.000000	98.928354 
3564.000000	98.928634 
3563.000000	98.926982 
3562.000000	98.924272 
3561.000000	98.923106 
3560.000000	98.924571 
3559.000000	98.927657 
3558.000000	98.930855 
3557.000000	98.933693 
3556.000000	98.937140 
3555.000000	98.941627 
3554.000000	98.945355 
3553.000000	98.945310 
3552.000000	98.940788 
3551.000000	98.934526 
3550.000000	98.929443 
3549.000000	98.926023 
3548.000000	98.924074 
3547.000000	98.924323 
3546.000000	98.926896 
3545.000000	98.930217 
3544.000000	98.932246 
3543.000000	98.931748 
3542.000000	98.928850 
3541.000000	98.925020 
3540.000000	98.922779 
3539.000000	98.923989 
3538.000000	98.928226 
3537.000000	98.932895 
3536.000000	98.935080 
3535.000000	98.933527 
3534.000000	98.928913 
3533.000000	98.923721 
3532.000000	98.921088 
3531.000000	98.922837 
3530.000000	98.927270 
3529.000000	98.930776 
3528.000000	98.932071 
3527.000000	98.933792 
3526.000000	98.938452 
3525.000000	98.944441 
3524.000000	98.947574 
3523.000000	98.945818 
3522.000000	98.941186 
3521.000000	98.937048 
3520.000000	98.934854 
3519.000000	98.933706 
3518.000000	98.932175 
3517.000000	98.929931 
3516.000000	98.927812 
3515.000000	98.927216 
3514.000000	98.929172 
3513.000000	98.933453 
3512.000000	98.938174 
3511.000000	98.941182 
3510.000000	98.941889 
3509.000000	98.941803 
3508.000000	98.942977 
3507.000000	98.945804 
3506.000000	98.948133 
3505.000000	98.946984 
3504.000000	98.941129 
3503.000000	98.932733 
3502.000000	98.926747 
3501.000000	98.927642 
3500.000000	98.935431 
3499.000000	98.944670 
3498.000000	98.948160 
3497.000000	98.943040 
3496.000000	98.933915 
3495.000000	98.929058 
3494.000000	98.932806 
3493.000000	98.941661 
3492.000000	98.947935 
3491.000000	98.946976 
3490.000000	98.940829 
3489.000000	98.935330 
3488.000000	98.934400 
3487.000000	98.937377 
3486.000000	98.940958 
3485.000000	98.942723 
3484.000000	98.942592 
3483.000000	98.941890 
3482.000000	98.941462 
3481.000000	98.940768 
3480.000000	98.938539 
3479.000000	98.934319 
3478.000000	98.929249 
3477.000000	98.925083 
3476.000000	98.922477 
3475.000000	98.920580 
3474.000000	98.918702 
3473.000000	98.917766 
3472.000000	98.919459 
3471.000000	98.924315 
3470.000000	98.931189 
3469.000000	98.938073 
3468.000000	98.942867 
3467.000000	98.943880 
3466.000000	98.940632 
3465.000000	98.934284 
3464.000000	98.926919 
3463.000000	98.920309 
3462.000000	98.915410 
3461.000000	98.912752 
3460.000000	98.912617 
3459.000000	98.914664 
3458.000000	98.917725 
3457.000000	98.920223 
3456.000000	98.920961 
3455.000000	98.919945 
3454.000000	98.918306 
3453.000000	98.917515 
3452.000000	98.918517 
3451.000000	98.921585 
3450.000000	98.926300 
3449.000000	98.931442 
3448.000000	98.935064 
3447.000000	98.935458 
3446.000000	98.932695 
3445.000000	98.928966 
3444.000000	98.926899 
3443.000000	98.927504 
3442.000000	98.929539 
3441.000000	98.930822 
3440.000000	98.930416 
3439.000000	98.929391 
3438.000000	98.929378 
3437.000000	98.930390 
3436.000000	98.930567 
3435.000000	98.928607 
3434.000000	98.925804 
3433.000000	98.925176 
3432.000000	98.928210 
3431.000000	98.932960 
3430.000000	98.935590 
3429.000000	98.933857 
3428.000000	98.928799 
3427.000000	98.923148 
3426.000000	98.918883 
3425.000000	98.916625 
3424.000000	98.916469 
3423.000000	98.918284 
3422.000000	98.921187 
3421.000000	98.923524 
3420.000000	98.923845 
3419.000000	98.921994 
3418.000000	98.919248 
3417.000000	98.917383 
3416.000000	98.917218 
3415.000000	98.917822 
3414.000000	98.917451 
3413.000000	98.915582 
3412.000000	98.913706 
3411.000000	98.913755 
3410.000000	98.916168 
3409.000000	98.919786 
3408.000000	98.923080 
3407.000000	98.924920 
3406.000000	98.924869 
3405.000000	98.923705 
3404.000000	98.923452 
3403.000000	98.925966 
3402.000000	98.931086 
3401.000000	98.936442 
3400.000000	98.939135 
3399.000000	98.937904 
3398.000000	98.934193 
3397.000000	98.931173 
3396.000000	98.931061 
3395.000000	98.933198 
3394.000000	98.935158 
3393.000000	98.935565 
3392.000000	98.935125 
3391.000000	98.934918 
3390.000000	98.934776 
3389.000000	98.933867 
3388.000000	98.932002 
3387.000000	98.929603 
3386.000000	98.927030 
3385.000000	98.924693 
3384.000000	98.923259 
3383.000000	98.922977 
3382.000000	98.923052 
3381.000000	98.922360 
3380.000000	98.920550 
3379.000000	98.918248 
3378.000000	98.916577 
3377.000000	98.916842 
3376.000000	98.920077 
3375.000000	98.926256 
3374.000000	98.934061 
3373.000000	98.941626 
3372.000000	98.947312 
3371.000000	98.949856 
3370.000000	98.948709 
3369.000000	98.944786 
3368.000000	98.940369 
3367.000000	98.937438 
3366.000000	98.936063 
3365.000000	98.934785 
3364.000000	98.932457 
3363.000000	98.929363 
3362.000000	98.926656 
3361.000000	98.925018 
3360.000000	98.923975 
3359.000000	98.922624 
3358.000000	98.921201 
3357.000000	98.921607 
3356.000000	98.925600 
3355.000000	98.932247 
3354.000000	98.938051 
3353.000000	98.940187 
3352.000000	98.939157 
3351.000000	98.937864 
3350.000000	98.938625 
3349.000000	98.941518 
3348.000000	98.945000 
3347.000000	98.947271 
3346.000000	98.947362 
3345.000000	98.945824 
3344.000000	98.944374 
3343.000000	98.944171 
3342.000000	98.944374 
3341.000000	98.943030 
3340.000000	98.939355 
3339.000000	98.934564 
3338.000000	98.930286 
3337.000000	98.926838 
3336.000000	98.923599 
3335.000000	98.920816 
3334.000000	98.920282 
3333.000000	98.923781 
3332.000000	98.930837 
3331.000000	98.938278 
3330.000000	98.942452 
3329.000000	98.942176 
3328.000000	98.939455 
3327.000000	98.937217 
3326.000000	98.936598 
3325.000000	98.936789 
3324.000000	98.937074 
3323.000000	98.938186 
3322.000000	98.941208 
3321.000000	98.945562 
3320.000000	98.948710 
3319.000000	98.948277 
3318.000000	98.944433 
3317.000000	98.939979 
3316.000000	98.937981 
3315.000000	98.939310 
3314.000000	98.942305 
3313.000000	98.944552 
3312.000000	98.944909 
3311.000000	98.944186 
3310.000000	98.944175 
3309.000000	98.945874 
3308.000000	98.948475 
3307.000000	98.950159 
3306.000000	98.949906 
3305.000000	98.948200 
3304.000000	98.945891 
3303.000000	98.943128 
3302.000000	98.940057 
3301.000000	98.938027 
3300.000000	98.938888 
3299.000000	98.942840 
3298.000000	98.947673 
3297.000000	98.950678 
3296.000000	98.951122 
3295.000000	98.950742 
3294.000000	98.951998 
3293.000000	98.955793 
3292.000000	98.960525 
3291.000000	98.963419 
3290.000000	98.963026 
3289.000000	98.960301 
3288.000000	98.957176 
3287.000000	98.954647 
3286.000000	98.952700 
3285.000000	98.951461 
3284.000000	98.951306 
3283.000000	98.951987 
3282.000000	98.952745 
3281.000000	98.953277 
3280.000000	98.953625 
3279.000000	98.953186 
3278.000000	98.951118 
3277.000000	98.947996 
3276.000000	98.945927 
3275.000000	98.946358 
3274.000000	98.948512 
3273.000000	98.950410 
3272.000000	98.950568 
3271.000000	98.948318 
3270.000000	98.943588 
3269.000000	98.937507 
3268.000000	98.932746 
3267.000000	98.932155 
3266.000000	98.936730 
3265.000000	98.945036 
3264.000000	98.954254 
3263.000000	98.961638 
3262.000000	98.965733 
3261.000000	98.966738 
3260.000000	98.965628 
3259.000000	98.962926 
3258.000000	98.958623 
3257.000000	98.953045 
3256.000000	98.947238 
3255.000000	98.942543 
3254.000000	98.940374 
3253.000000	98.942079 
3252.000000	98.947675 
3251.000000	98.954416 
3250.000000	98.957984 
3249.000000	98.956217 
3248.000000	98.951216 
3247.000000	98.947173 
3246.000000	98.946438 
3245.000000	98.948118 
3244.000000	98.950018 
3243.000000	98.951324 
3242.000000	98.953389 
3241.000000	98.957843 
3240.000000	98.963671 
3239.000000	98.966770 
3238.000000	98.963655 
3237.000000	98.955686 
3236.000000	98.948369 
3235.000000	98.945998 
3234.000000	98.948052 
3233.000000	98.951268 
3232.000000	98.953680 
3231.000000	98.955483 
3230.000000	98.957153 
3229.000000	98.958385 
3228.000000	98.958583 
3227.000000	98.957221 
3226.000000	98.953981 
3225.000000	98.949588 
3224.000000	98.946149 
3223.000000	98.945436 
3222.000000	98.946934 
3221.000000	98.948640 
3220.000000	98.949714 
3219.000000	98.951153 
3218.000000	98.953629 
3217.000000	98.955865 
3216.000000	98.956074 
3215.000000	98.954448 
3214.000000	98.953196 
3213.000000	98.954032 
3212.000000	98.956303 
3211.000000	98.957949 
3210.000000	98.957932 
3209.000000	98.957230 
3208.000000	98.957485 
3207.000000	98.959144 
3206.000000	98.961294 
3205.000000	98.963014 
3204.000000	98.964295 
3203.000000	98.965666 
3202.000000	98.967589 
3201.000000	98.970343 
3200.000000	98.973826 
3199.000000	98.976994 
3198.000000	98.978083 
3197.000000	98.976194 
3196.000000	98.972628 
3195.000000	98.969930 
3194.000000	98.969345 
3193.000000	98.969564 
3192.000000	98.968322 
3191.000000	98.965108 
3190.000000	98.962004 
3189.000000	98.961684 
3188.000000	98.964670 
3187.000000	98.968743 
3186.000000	98.971036 
3185.000000	98.970356 
3184.000000	98.967524 
3183.000000	98.964132 
3182.000000	98.961503 
3181.000000	98.960383 
3180.000000	98.960772 
3179.000000	98.961772 
3178.000000	98.962057 
3177.000000	98.960801 
3176.000000	98.958200 
3175.000000	98.955409 
3174.000000	98.954301 
3173.000000	98.956703 
3172.000000	98.962664 
3171.000000	98.969372 
3170.000000	98.972960 
3169.000000	98.972218 
3168.000000	98.969910 
3167.000000	98.969759 
3166.000000	98.972545 
3165.000000	98.975807 
3164.000000	98.977098 
3163.000000	98.976688 
3162.000000	98.976907 
3161.000000	98.979428 
3160.000000	98.983585 
3159.000000	98.987093 
3158.000000	98.988100 
3157.000000	98.986583 
3156.000000	98.983998 
3155.000000	98.981810 
3154.000000	98.980544 
3153.000000	98.980061 
3152.000000	98.980109 
3151.000000	98.980174 
3150.000000	98.979317 
3149.000000	98.977061 
3148.000000	98.974517 
3147.000000	98.973796 
3146.000000	98.975808 
3145.000000	98.979129 
3144.000000	98.981675 
3143.000000	98.983246 
3142.000000	98.985627 
3141.000000	98.990020 
3140.000000	98.994992 
3139.000000	98.997609 
3138.000000	98.996537 
3137.000000	98.993454 
3136.000000	98.991153 
3135.000000	98.990671 
3134.000000	98.990685 
3133.000000	98.989576 
3132.000000	98.987548 
3131.000000	98.986300 
3130.000000	98.986582 
3129.000000	98.986636 
3128.000000	98.983858 
3127.000000	98.978193 
3126.000000	98.973084 
3125.000000	98.972283 
3124.000000	98.976026 
3123.000000	98.981012 
3122.000000	98.984068 
3121.000000	98.985299 
3120.000000	98.987419 
3119.000000	98.992447 
3118.000000	98.999352 
3117.000000	99.004747 
3116.000000	99.005808 
3115.000000	99.002717 
3114.000000	98.998206 
3113.000000	98.994681 
3112.000000	98.992327 
3111.000000	98.990351 
3110.000000	98.989033 
3109.000000	98.989157 
3108.000000	98.989774 
3107.000000	98.988348 
3106.000000	98.983765 
3105.000000	98.978182 
3104.000000	98.975242 
3103.000000	98.977063 
3102.000000	98.983302 
3101.000000	98.991974 
3100.000000	99.000113 
3099.000000	99.004475 
3098.000000	99.003447 
3097.000000	98.998698 
3096.000000	98.994019 
3095.000000	98.992146 
3094.000000	98.993161 
3093.000000	98.995668 
3092.000000	98.998354 
3091.000000	99.000140 
3090.000000	99.000084 
3089.000000	98.998334 
3088.000000	98.996903 
3087.000000	98.998376 
3086.000000	99.003251 
3085.000000	99.008881 
3084.000000	99.011749 
3083.000000	99.010949 
3082.000000	99.009061 
3081.000000	99.009218 
3080.000000	99.011682 
3079.000000	99.013881 
3078.000000	99.013404 
3077.000000	99.009889 
3076.000000	99.004200 
3075.000000	98.997455 
3074.000000	98.991445 
3073.000000	98.988506 
3072.000000	98.989644 
3071.000000	98.993415 
3070.000000	98.997567 
3069.000000	99.000987 
3068.000000	99.003108 
3067.000000	99.002606 
3066.000000	98.998709 
3065.000000	98.993413 
3064.000000	98.990252 
3063.000000	98.990349 
3062.000000	98.991320 
3061.000000	98.990699 
3060.000000	98.989050 
3059.000000	98.988831 
3058.000000	98.991209 
3057.000000	98.995067 
3056.000000	98.998718 
3055.000000	99.001708 
3054.000000	99.004774 
3053.000000	99.008365 
3052.000000	99.011512 
3051.000000	99.012474 
3050.000000	99.010568 
3049.000000	99.006742 
3048.000000	99.001927 
3047.000000	98.995773 
3046.000000	98.988181 
3045.000000	98.981280 
3044.000000	98.978077 
3043.000000	98.979006 
3042.000000	98.981261 
3041.000000	98.981774 
3040.000000	98.979767 
3039.000000	98.976273 
3038.000000	98.972643 
3037.000000	98.970005 
3036.000000	98.968808 
3035.000000	98.968020 
3034.000000	98.965683 
3033.000000	98.960994 
3032.000000	98.955098 
3031.000000	98.949271 
3030.000000	98.943092 
3029.000000	98.935120 
3028.000000	98.924985 
3027.000000	98.914316 
3026.000000	98.905679 
3025.000000	98.900421 
3024.000000	98.897051 
3023.000000	98.891905 
3022.000000	98.882255 
3021.000000	98.868896 
3020.000000	98.855172 
3019.000000	98.843702 
3018.000000	98.835006 
3017.000000	98.828894 
3016.000000	98.825345 
3015.000000	98.823337 
3014.000000	98.820192 
3013.000000	98.813032 
3012.000000	98.800356 
3011.000000	98.782090 
3010.000000	98.759531 
3009.000000	98.735855 
3008.000000	98.715377 
3007.000000	98.700986 
3006.000000	98.692438 
3005.000000	98.687187 
3004.000000	98.681920 
3003.000000	98.673288 
3002.000000	98.659193 
3001.000000	98.641005 
3000.000000	98.623432 
2999.000000	98.610445 
2998.000000	98.601790 
2997.000000	98.594798 
2996.000000	98.588676 
2995.000000	98.584536 
2994.000000	98.580738 
2993.000000	98.570908 
2992.000000	98.549324 
2991.000000	98.518361 
2990.000000	98.488841 
2989.000000	98.471637 
2988.000000	98.468967 
2987.000000	98.474419 
2986.000000	98.480765 
2985.000000	98.486189 
2984.000000	98.492619 
2983.000000	98.500279 
2982.000000	98.506220 
2981.000000	98.507822 
2980.000000	98.505769 
2979.000000	98.502855 
2978.000000	98.501074 
2977.000000	98.500409 
2976.000000	98.499487 
2975.000000	98.496777 
2974.000000	98.491926 
2973.000000	98.486450 
2972.000000	98.482612 
2971.000000	98.481349 
2970.000000	98.482046 
2969.000000	98.484433 
2968.000000	98.489524 
2967.000000	98.498111 
2966.000000	98.509339 
2965.000000	98.521584 
2964.000000	98.534009 
2963.000000	98.546415 
2962.000000	98.558151 
2961.000000	98.568065 
2960.000000	98.575461 
2959.000000	98.580780 
2958.000000	98.585692 
2957.000000	98.592473 
2956.000000	98.602213 
2955.000000	98.613021 
2954.000000	98.621052 
2953.000000	98.624634 
2952.000000	98.627017 
2951.000000	98.633734 
2950.000000	98.646793 
2949.000000	98.662019 
2948.000000	98.672475 
2947.000000	98.674376 
2946.000000	98.669842 
2945.000000	98.664290 
2944.000000	98.661600 
2943.000000	98.661731 
2942.000000	98.662276 
2941.000000	98.661282 
2940.000000	98.658243 
2939.000000	98.653582 
2938.000000	98.648425 
2937.000000	98.644626 
2936.000000	98.643846 
2935.000000	98.646340 
2934.000000	98.651087 
2933.000000	98.656659 
2932.000000	98.661160 
2931.000000	98.662009 
2930.000000	98.657518 
2929.000000	98.648977 
2928.000000	98.640005 
2927.000000	98.633594 
2926.000000	98.630750 
2925.000000	98.631555 
2924.000000	98.635608 
2923.000000	98.641016 
2922.000000	98.644785 
2921.000000	98.645316 
2920.000000	98.643430 
2919.000000	98.640467 
2918.000000	98.636721 
2917.000000	98.632323 
2916.000000	98.628163 
2915.000000	98.624993 
2914.000000	98.622807 
2913.000000	98.621938 
2912.000000	98.623342 
2911.000000	98.626583 
2910.000000	98.628871 
2909.000000	98.627814 
2908.000000	98.624416 
2907.000000	98.621648 
2906.000000	98.620265 
2905.000000	98.617388 
2904.000000	98.609545 
2903.000000	98.596610 
2902.000000	98.583138 
2901.000000	98.576140 
2900.000000	98.580648 
2899.000000	98.595777 
2898.000000	98.614773 
2897.000000	98.630220 
2896.000000	98.639460 
2895.000000	98.644960 
2894.000000	98.650052 
2893.000000	98.655428 
2892.000000	98.659679 
2891.000000	98.661873 
2890.000000	98.662749 
2889.000000	98.663769 
2888.000000	98.665642 
2887.000000	98.667949 
2886.000000	98.670131 
2885.000000	98.672522 
2884.000000	98.676114 
2883.000000	98.681438 
2882.000000	98.688234 
2881.000000	98.696215 
2880.000000	98.705527 
2879.000000	98.716276 
2878.000000	98.728217 
2877.000000	98.740940 
2876.000000	98.753514 
2875.000000	98.763714 
2874.000000	98.768900 
2873.000000	98.768768 
2872.000000	98.766685 
2871.000000	98.767287 
2870.000000	98.772826 
2869.000000	98.782115 
2868.000000	98.792447 
2867.000000	98.801916 
2866.000000	98.810519 
2865.000000	98.819874 
2864.000000	98.831517 
2863.000000	98.844689 
2862.000000	98.856140 
2861.000000	98.862953 
2860.000000	98.865559 
2859.000000	98.867380 
2858.000000	98.871663 
2857.000000	98.879037 
2856.000000	98.887623 
2855.000000	98.894824 
2854.000000	98.899209 
2853.000000	98.901383 
2852.000000	98.903215 
2851.000000	98.906144 
2850.000000	98.910466 
2849.000000	98.916054 
2848.000000	98.922903 
2847.000000	98.930600 
2846.000000	98.938154 
2845.000000	98.945045 
2844.000000	98.951847 
2843.000000	98.959154 
2842.000000	98.966514 
2841.000000	98.973093 
2840.000000	98.978778 
2839.000000	98.983761 
2838.000000	98.987479 
2837.000000	98.988894 
2836.000000	98.987690 
2835.000000	98.984703 
2834.000000	98.981578 
2833.000000	98.980450 
2832.000000	98.983068 
2831.000000	98.989110 
2830.000000	98.995706 
2829.000000	98.999748 
2828.000000	99.000671 
2827.000000	99.000199 
2826.000000	98.999675 
2825.000000	98.998739 
2824.000000	98.996793 
2823.000000	98.994820 
2822.000000	98.995134 
2821.000000	98.999362 
2820.000000	99.006587 
2819.000000	99.013429 
2818.000000	99.016519 
2817.000000	99.015482 
2816.000000	99.013177 
2815.000000	99.012596 
2814.000000	99.013961 
2813.000000	99.015312 
2812.000000	99.015186 
2811.000000	99.013831 
2810.000000	99.012422 
2809.000000	99.012269 
2808.000000	99.014421 
2807.000000	99.018754 
2806.000000	99.023409 
2805.000000	99.026313 
2804.000000	99.027580 
2803.000000	99.029394 
2802.000000	99.033100 
2801.000000	99.037139 
2800.000000	99.038427 
2799.000000	99.035488 
2798.000000	99.030014 
2797.000000	99.025545 
2796.000000	99.024509 
2795.000000	99.026156 
2794.000000	99.027486 
2793.000000	99.026529 
2792.000000	99.024408 
2791.000000	99.023777 
2790.000000	99.025775 
2789.000000	99.029365 
2788.000000	99.033137 
2787.000000	99.036463 
2786.000000	99.038930 
2785.000000	99.040074 
2784.000000	99.040205 
2783.000000	99.040488 
2782.000000	99.041681 
2781.000000	99.043495 
2780.000000	99.045490 
2779.000000	99.047681 
2778.000000	99.049731 
2777.000000	99.050487 
2776.000000	99.049174 
2775.000000	99.046512 
2774.000000	99.043892 
2773.000000	99.041836 
2772.000000	99.039978 
2771.000000	99.038295 
2770.000000	99.037715 
2769.000000	99.039551 
2768.000000	99.044509 
2767.000000	99.051688 
2766.000000	99.058076 
2765.000000	99.059912 
2764.000000	99.055875 
2763.000000	99.049058 
2762.000000	99.044735 
2761.000000	99.045679 
2760.000000	99.049950 
2759.000000	99.053379 
2758.000000	99.053755 
2757.000000	99.052518 
2756.000000	99.053018 
2755.000000	99.057391 
2754.000000	99.064574 
2753.000000	99.070898 
2752.000000	99.073029 
2751.000000	99.070921 
2750.000000	99.067681 
2749.000000	99.066146 
2748.000000	99.065812 
2747.000000	99.063807 
2746.000000	99.058847 
2745.000000	99.053435 
2744.000000	99.051629 
2743.000000	99.054937 
2742.000000	99.060960 
2741.000000	99.065993 
2740.000000	99.068478 
2739.000000	99.069643 
2738.000000	99.071095 
2737.000000	99.072497 
2736.000000	99.071959 
2735.000000	99.068439 
2734.000000	99.063087 
2733.000000	99.058024 
2732.000000	99.054229 
2731.000000	99.051101 
2730.000000	99.047860 
2729.000000	99.044908 
2728.000000	99.043818 
2727.000000	99.046257 
2726.000000	99.052590 
2725.000000	99.060929 
2724.000000	99.067826 
2723.000000	99.070914 
2722.000000	99.071127 
2721.000000	99.071571 
2720.000000	99.073803 
2719.000000	99.076002 
2718.000000	99.075408 
2717.000000	99.071926 
2716.000000	99.068649 
2715.000000	99.069165 
2714.000000	99.074754 
2713.000000	99.083452 
2712.000000	99.091057 
2711.000000	99.093868 
2710.000000	99.091862 
2709.000000	99.089010 
2708.000000	99.089092 
2707.000000	99.091016 
2706.000000	99.089568 
2705.000000	99.081462 
2704.000000	99.069593 
2703.000000	99.060331 
2702.000000	99.057149 
2701.000000	99.057899 
2700.000000	99.058253 
2699.000000	99.056713 
2698.000000	99.055527 
2697.000000	99.057149 
2696.000000	99.060938 
2695.000000	99.064011 
2694.000000	99.064774 
2693.000000	99.064361 
2692.000000	99.064339 
2691.000000	99.064284 
2690.000000	99.062827 
2689.000000	99.060596 
2688.000000	99.060750 
2687.000000	99.066145 
2686.000000	99.076335 
2685.000000	99.087379 
2684.000000	99.094403 
2683.000000	99.095033 
2682.000000	99.091300 
2681.000000	99.088095 
2680.000000	99.088787 
2679.000000	99.092061 
2678.000000	99.093592 
2677.000000	99.090872 
2676.000000	99.085826 
2675.000000	99.082657 
2674.000000	99.083663 
2673.000000	99.087043 
2672.000000	99.088160 
2671.000000	99.083192 
2670.000000	99.072505 
2669.000000	99.060720 
2668.000000	99.052780 
2667.000000	99.049764 
2666.000000	99.048944 
2665.000000	99.047637 
2664.000000	99.046155 
2663.000000	99.046983 
2662.000000	99.051943 
2661.000000	99.060188 
2660.000000	99.068184 
2659.000000	99.071820 
2658.000000	99.069834 
2657.000000	99.065621 
2656.000000	99.064673 
2655.000000	99.069618 
2654.000000	99.078268 
2653.000000	99.086544 
2652.000000	99.092267 
2651.000000	99.095725 
2650.000000	99.097797 
2649.000000	99.098563 
2648.000000	99.097482 
2647.000000	99.094473 
2646.000000	99.090933 
2645.000000	99.089174 
2644.000000	99.089732 
2643.000000	99.089628 
2642.000000	99.085213 
2641.000000	99.077295 
2640.000000	99.071519 
2639.000000	99.072368 
2638.000000	99.077998 
2637.000000	99.082157 
2636.000000	99.080258 
2635.000000	99.072691 
2634.000000	99.063548 
2633.000000	99.057466 
2632.000000	99.056467 
2631.000000	99.058097 
2630.000000	99.057294 
2629.000000	99.051736 
2628.000000	99.045076 
2627.000000	99.043630 
2626.000000	99.050166 
2625.000000	99.061914 
2624.000000	99.073842 
2623.000000	99.082424 
2622.000000	99.086979 
2621.000000	99.089349 
2620.000000	99.092349 
2619.000000	99.096971 
2618.000000	99.100851 
2617.000000	99.100705 
2616.000000	99.096343 
2615.000000	99.091091 
2614.000000	99.088283 
2613.000000	99.088613 
2612.000000	99.090918 
2611.000000	99.093866 
2610.000000	99.096068 
2609.000000	99.095764 
2608.000000	99.091777 
2607.000000	99.084922 
2606.000000	99.077962 
2605.000000	99.073603 
2604.000000	99.071834 
2603.000000	99.069263 
2602.000000	99.062341 
2601.000000	99.052266 
2600.000000	99.045630 
2599.000000	99.048442 
2598.000000	99.059443 
2597.000000	99.070580 
2596.000000	99.074281 
2595.000000	99.069697 
2594.000000	99.062477 
2593.000000	99.059828 
2592.000000	99.065298 
2591.000000	99.076299 
2590.000000	99.086191 
2589.000000	99.090307 
2588.000000	99.090507 
2587.000000	99.092381 
2586.000000	99.097509 
2585.000000	99.100478 
2584.000000	99.095106 
2583.000000	99.082397 
2582.000000	99.070420 
2581.000000	99.066596 
2580.000000	99.071398 
2579.000000	99.079253 
2578.000000	99.083903 
2577.000000	99.082577 
2576.000000	99.076580 
2575.000000	99.069270 
2574.000000	99.063287 
2573.000000	99.058937 
2572.000000	99.054938 
2571.000000	99.050564 
2570.000000	99.046486 
2569.000000	99.043342 
2568.000000	99.040371 
2567.000000	99.036551 
2566.000000	99.032873 
2565.000000	99.032150 
2564.000000	99.035753 
2563.000000	99.041033 
2562.000000	99.042977 
2561.000000	99.039063 
2560.000000	99.032695 
2559.000000	99.031506 
2558.000000	99.041128 
2557.000000	99.059532 
2556.000000	99.077877 
2555.000000	99.088329 
2554.000000	99.091201 
2553.000000	99.093177 
2552.000000	99.098467 
2551.000000	99.103758 
2550.000000	99.102942 
2549.000000	99.094770 
2548.000000	99.083637 
2547.000000	99.074069 
2546.000000	99.067107 
2545.000000	99.061791 
2544.000000	99.057436 
2543.000000	99.053806 
2542.000000	99.051145 
2541.000000	99.050820 
2540.000000	99.054038 
2539.000000	99.058803 
2538.000000	99.059814 
2537.000000	99.053129 
2536.000000	99.040479 
2535.000000	99.028034 
2534.000000	99.021335 
2533.000000	99.021901 
2532.000000	99.027825 
2531.000000	99.036550 
2530.000000	99.047158 
2529.000000	99.060469 
2528.000000	99.076750 
2527.000000	99.093356 
2526.000000	99.105508 
2525.000000	99.110173 
2524.000000	99.108947 
2523.000000	99.106538 
2522.000000	99.106278 
2521.000000	99.107115 
2520.000000	99.105051 
2519.000000	99.097801 
2518.000000	99.087928 
2517.000000	99.080449 
2516.000000	99.077107 
2515.000000	99.074688 
2514.000000	99.070279 
2513.000000	99.066310 
2512.000000	99.067643 
2511.000000	99.074368 
2510.000000	99.080730 
2509.000000	99.081752 
2508.000000	99.078251 
2507.000000	99.074228 
2506.000000	99.071743 
2505.000000	99.069882 
2504.000000	99.066778 
2503.000000	99.060903 
2502.000000	99.051973 
2501.000000	99.042707 
2500.000000	99.038688 
2499.000000	99.044068 
2498.000000	99.057048 
2497.000000	99.070731 
2496.000000	99.078778 
2495.000000	99.079967 
2494.000000	99.077578 
2493.000000	99.074995 
2492.000000	99.072051 
2491.000000	99.065992 
2490.000000	99.056389 
2489.000000	99.048166 
2488.000000	99.047891 
2487.000000	99.057045 
2486.000000	99.070807 
2485.000000	99.083685 
2484.000000	99.093949 
2483.000000	99.101527 
2482.000000	99.104425 
2481.000000	99.100266 
2480.000000	99.090368 
2479.000000	99.079442 
2478.000000	99.070884 
2477.000000	99.064052 
2476.000000	99.056491 
2475.000000	99.047505 
2474.000000	99.039104 
2473.000000	99.034437 
2472.000000	99.035921 
2471.000000	99.044206 
2470.000000	99.057723 
2469.000000	99.072562 
2468.000000	99.083381 
2467.000000	99.086257 
2466.000000	99.082171 
2465.000000	99.077194 
2464.000000	99.077355 
2463.000000	99.082768 
2462.000000	99.087781 
2461.000000	99.087125 
2460.000000	99.080895 
2459.000000	99.073454 
2458.000000	99.068971 
2457.000000	99.068528 
2456.000000	99.070083 
2455.000000	99.070293 
2454.000000	99.067223 
2453.000000	99.061974 
2452.000000	99.057115 
2451.000000	99.053664 
2450.000000	99.050872 
2449.000000	99.048695 
2448.000000	99.048315 
2447.000000	99.049705 
2446.000000	99.050973 
2445.000000	99.051400 
2444.000000	99.053178 
2443.000000	99.058430 
2442.000000	99.065874 
2441.000000	99.072012 
2440.000000	99.074535 
2439.000000	99.073350 
2438.000000	99.069777 
2437.000000	99.066403 
2436.000000	99.066042 
2435.000000	99.068280 
2434.000000	99.067865 
2433.000000	99.059385 
2432.000000	99.044040 
2431.000000	99.029843 
2430.000000	99.024467 
2429.000000	99.029084 
2428.000000	99.039359 
2427.000000	99.050621 
2426.000000	99.060635 
2425.000000	99.068301 
2424.000000	99.071929 
2423.000000	99.070159 
2422.000000	99.064171 
2421.000000	99.057622 
2420.000000	99.053666 
2419.000000	99.052625 
2418.000000	99.053117 
2417.000000	99.054405 
2416.000000	99.056263 
2415.000000	99.057305 
2414.000000	99.055625 
2413.000000	99.051431 
2412.000000	99.047371 
2411.000000	99.045621 
2410.000000	99.045958 
2409.000000	99.047144 
2408.000000	99.048788 
2407.000000	99.051119 
2406.000000	99.054175 
2405.000000	99.057971 
2404.000000	99.062471 
2403.000000	99.066862 
2402.000000	99.069879 
2401.000000	99.071256 
2400.000000	99.071737 
2399.000000	99.071401 
2398.000000	99.069440 
2397.000000	99.066223 
2396.000000	99.064080 
2395.000000	99.065060 
2394.000000	99.068770 
2393.000000	99.072939 
2392.000000	99.075215 
2391.000000	99.074443 
2390.000000	99.071759 
2389.000000	99.070683 
2388.000000	99.074189 
2387.000000	99.080976 
2386.000000	99.086336 
2385.000000	99.087422 
2384.000000	99.086037 
2383.000000	99.085689 
2382.000000	99.088116 
2381.000000	99.093522 
2380.000000	99.101363 
2379.000000	99.108685 
2378.000000	99.110241 
2377.000000	99.103819 
2376.000000	99.094422 
2375.000000	99.089611 
2374.000000	99.091081 
2373.000000	99.094441 
2372.000000	99.097165 
2371.000000	99.102283 
2370.000000	99.112594 
2369.000000	99.124806 
2368.000000	99.131709 
2367.000000	99.128294 
2366.000000	99.115071 
2365.000000	99.098234 
2364.000000	99.087060 
2363.000000	99.087292 
2362.000000	99.095591 
2361.000000	99.102801 
2360.000000	99.103439 
2359.000000	99.099946 
2358.000000	99.097596 
2357.000000	99.098852 
2356.000000	99.103230 
2355.000000	99.109037 
2354.000000	99.113309 
2353.000000	99.113238 
2352.000000	99.109699 
2351.000000	99.106426 
2350.000000	99.105447 
2349.000000	99.105837 
2348.000000	99.106492 
2347.000000	99.106822 
2346.000000	99.104732 
2345.000000	99.097922 
2344.000000	99.088302 
2343.000000	99.082103 
2342.000000	99.084193 
2341.000000	99.094013 
2340.000000	99.106531 
2339.000000	99.115935 
2338.000000	99.119726 
2337.000000	99.119718 
2336.000000	99.119281 
2335.000000	99.119075 
2334.000000	99.116924 
2333.000000	99.111802 
2332.000000	99.105935 
2331.000000	99.101064 
2330.000000	99.095494 
2329.000000	99.087405 
2328.000000	99.078932 
2327.000000	99.073914 
2326.000000	99.072534 
2325.000000	99.071703 
2324.000000	99.069496 
2323.000000	99.067635 
2322.000000	99.068921 
2321.000000	99.074146 
2320.000000	99.081710 
2319.000000	99.089017 
2318.000000	99.094377 
2317.000000	99.098024 
2316.000000	99.101223 
2315.000000	99.103685 
2314.000000	99.103314 
2313.000000	99.099591 
2312.000000	99.095876 
2311.000000	99.096423 
2310.000000	99.101496 
2309.000000	99.107045 
2308.000000	99.108460 
2307.000000	99.103861 
2306.000000	99.094617 
2305.000000	99.084263 
2304.000000	99.075806 
2303.000000	99.068954 
2302.000000	99.060939 
2301.000000	99.051166 
2300.000000	99.043042 
2299.000000	99.039462 
2298.000000	99.038593 
2297.000000	99.037136 
2296.000000	99.035911 
2295.000000	99.038362 
2294.000000	99.043840 
2293.000000	99.046597 
2292.000000	99.042299 
2291.000000	99.032629 
2290.000000	99.022467 
2289.000000	99.015414 
2288.000000	99.012906 
2287.000000	99.014757 
2286.000000	99.018678 
2285.000000	99.021411 
2284.000000	99.021958 
2283.000000	99.021860 
2282.000000	99.020958 
2281.000000	99.015457 
2280.000000	99.003056 
2279.000000	98.988623 
2278.000000	98.981561 
2277.000000	98.986723 
2276.000000	98.999308 
2275.000000	99.009280 
2274.000000	99.010066 
2273.000000	99.002759 
2272.000000	98.992797 
2271.000000	98.983879 
2270.000000	98.976155 
2269.000000	98.969674 
2268.000000	98.967221 
2267.000000	98.972176 
2266.000000	98.984356 
2265.000000	98.999168 
2264.000000	99.010470 
2263.000000	99.014030 
2262.000000	99.010009 
2261.000000	99.003535 
2260.000000	99.000934 
2259.000000	99.003226 
2258.000000	99.004644 
2257.000000	98.999660 
2256.000000	98.989895 
2255.000000	98.981528 
2254.000000	98.977643 
2253.000000	98.976717 
2252.000000	98.977683 
2251.000000	98.982171 
2250.000000	98.991136 
2249.000000	99.002319 
2248.000000	99.011861 
2247.000000	99.016221 
2246.000000	99.012630 
2245.000000	99.000707 
2244.000000	98.984246 
2243.000000	98.969254 
2242.000000	98.959456 
2241.000000	98.954688 
2240.000000	98.952685 
2239.000000	98.950475 
2238.000000	98.945233 
2237.000000	98.936896 
2236.000000	98.929455 
2235.000000	98.926445 
2234.000000	98.925408 
2233.000000	98.920456 
2232.000000	98.911021 
2231.000000	98.904897 
2230.000000	98.911196 
2229.000000	98.931762 
2228.000000	98.959332 
2227.000000	98.981848 
2226.000000	98.988999 
2225.000000	98.978740 
2224.000000	98.959386 
2223.000000	98.943041 
2222.000000	98.935700 
2221.000000	98.934741 
2220.000000	98.935340 
2219.000000	98.936488 
2218.000000	98.940263 
2217.000000	98.948154 
2216.000000	98.959522 
2215.000000	98.971730 
2214.000000	98.980482 
2213.000000	98.981744 
2212.000000	98.975227 
2211.000000	98.965934 
2210.000000	98.961558 
2209.000000	98.967155 
2208.000000	98.980254 
2207.000000	98.990711 
2206.000000	98.987766 
2205.000000	98.969215 
2204.000000	98.942643 
2203.000000	98.917271 
2202.000000	98.897653 
2201.000000	98.885656 
2200.000000	98.882637 
2199.000000	98.885682 
2198.000000	98.886408 
2197.000000	98.879829 
2196.000000	98.872600 
2195.000000	98.876803 
2194.000000	98.896190 
2193.000000	98.922512 
2192.000000	98.943853 
2191.000000	98.952283 
2190.000000	98.945667 
2189.000000	98.928771 
2188.000000	98.912425 
2187.000000	98.905727 
2186.000000	98.908448 
2185.000000	98.914584 
2184.000000	98.921571 
2183.000000	98.930633 
2182.000000	98.939856 
2181.000000	98.944337 
2180.000000	98.943374 
2179.000000	98.940564 
2178.000000	98.936374 
2177.000000	98.927147 
2176.000000	98.912176 
2175.000000	98.895872 
2174.000000	98.882284 
2173.000000	98.873004 
2172.000000	98.870424 
2171.000000	98.876705 
2170.000000	98.888801 
2169.000000	98.900393 
2168.000000	98.909539 
2167.000000	98.918375 
2166.000000	98.924846 
2165.000000	98.922766 
2164.000000	98.912669 
2163.000000	98.904705 
2162.000000	98.906578 
2161.000000	98.914652 
2160.000000	98.920691 
2159.000000	98.922075 
2158.000000	98.921598 
2157.000000	98.922398 
2156.000000	98.926360 
2155.000000	98.932352 
2154.000000	98.934384 
2153.000000	98.927448 
2152.000000	98.916460 
2151.000000	98.913217 
2150.000000	98.922959 
2149.000000	98.939668 
2148.000000	98.955694 
2147.000000	98.968856 
2146.000000	98.977529 
2145.000000	98.977008 
2144.000000	98.966425 
2143.000000	98.953519 
2142.000000	98.947012 
2141.000000	98.947660 
2140.000000	98.950612 
2139.000000	98.952828 
2138.000000	98.953678 
2137.000000	98.951535 
2136.000000	98.945500 
2135.000000	98.939765 
2134.000000	98.941689 
2133.000000	98.954209 
2132.000000	98.971634 
2131.000000	98.983370 
2130.000000	98.981928 
2129.000000	98.968972 
2128.000000	98.953930 
2127.000000	98.944981 
2126.000000	98.941937 
2125.000000	98.940300 
2124.000000	98.940881 
2123.000000	98.950083 
2122.000000	98.969032 
2121.000000	98.987565 
2120.000000	98.993325 
2119.000000	98.984545 
2118.000000	98.970447 
2117.000000	98.960863 
2116.000000	98.958681 
2115.000000	98.961120 
2114.000000	98.964619 
2113.000000	98.967702 
2112.000000	98.971060 
2111.000000	98.975705 
2110.000000	98.980856 
2109.000000	98.984435 
2108.000000	98.985904 
2107.000000	98.986637 
2106.000000	98.986175 
2105.000000	98.980165 
2104.000000	98.964541 
2103.000000	98.941396 
2102.000000	98.919097 
2101.000000	98.906452 
2100.000000	98.906754 
2099.000000	98.916318 
2098.000000	98.927888 
2097.000000	98.936029 
2096.000000	98.939918 
2095.000000	98.940490 
2094.000000	98.936081 
2093.000000	98.924158 
2092.000000	98.907765 
2091.000000	98.896396 
2090.000000	98.897655 
2089.000000	98.909138 
2088.000000	98.920656 
2087.000000	98.924087 
2086.000000	98.919578 
2085.000000	98.913205 
2084.000000	98.910507 
2083.000000	98.912264 
2082.000000	98.915532 
2081.000000	98.918037 
2080.000000	98.920682 
2079.000000	98.924959 
2078.000000	98.929504 
2077.000000	98.932123 
2076.000000	98.934838 
2075.000000	98.942638 
2074.000000	98.955657 
2073.000000	98.966461 
2072.000000	98.967818 
2071.000000	98.960659 
2070.000000	98.951742 
2069.000000	98.945840 
2068.000000	98.943122 
2067.000000	98.942251 
2066.000000	98.942355 
2065.000000	98.942198 
2064.000000	98.940539 
2063.000000	98.937888 
2062.000000	98.936278 
2061.000000	98.937112 
2060.000000	98.940122 
2059.000000	98.944162 
2058.000000	98.948113 
2057.000000	98.951037 
2056.000000	98.951565 
2055.000000	98.946892 
2054.000000	98.933732 
2053.000000	98.912784 
2052.000000	98.891622 
2051.000000	98.879853 
2050.000000	98.880242 
2049.000000	98.885923 
2048.000000	98.887617 
2047.000000	98.882222 
2046.000000	98.872944 
2045.000000	98.864482 
2044.000000	98.860797 
2043.000000	98.863892 
2042.000000	98.870742 
2041.000000	98.873612 
2040.000000	98.867821 
2039.000000	98.857894 
2038.000000	98.852423 
2037.000000	98.854105 
2036.000000	98.857983 
2035.000000	98.858689 
2034.000000	98.855726 
2033.000000	98.851386 
2032.000000	98.847025 
2031.000000	98.842464 
2030.000000	98.836958 
2029.000000	98.829796 
2028.000000	98.821209 
2027.000000	98.813650 
2026.000000	98.811587 
2025.000000	98.819189 
2024.000000	98.836411 
2023.000000	98.856177 
2022.000000	98.866705 
2021.000000	98.860162 
2020.000000	98.841114 
2019.000000	98.824032 
2018.000000	98.820545 
2017.000000	98.829232 
2016.000000	98.838470 
2015.000000	98.838437 
2014.000000	98.828956 
2013.000000	98.817836 
2012.000000	98.813804 
2011.000000	98.819957 
2010.000000	98.832879 
2009.000000	98.847722 
2008.000000	98.862900 
2007.000000	98.877925 
2006.000000	98.888362 
2005.000000	98.888691 
2004.000000	98.881063 
2003.000000	98.875984 
2002.000000	98.881522 
2001.000000	98.894076 
2000.000000	98.902228 
1999.000000	98.897774 
1998.000000	98.882321 
1997.000000	98.865861 
1996.000000	98.859754 
1995.000000	98.869016 
1994.000000	98.889391 
1993.000000	98.910705 
1992.000000	98.923016 
1991.000000	98.920881 
1990.000000	98.904472 
1989.000000	98.880537 
1988.000000	98.861098 
1987.000000	98.855197 
1986.000000	98.860128 
1985.000000	98.864889 
1984.000000	98.863624 
1983.000000	98.861489 
1982.000000	98.865541 
1981.000000	98.874418 
1980.000000	98.880793 
1979.000000	98.880272 
1978.000000	98.874238 
1977.000000	98.865715 
1976.000000	98.855703 
1975.000000	98.844404 
1974.000000	98.834904 
1973.000000	98.834460 
1972.000000	98.849218 
1971.000000	98.875146 
1970.000000	98.896250 
1969.000000	98.896831 
1968.000000	98.877151 
1967.000000	98.853682 
1966.000000	98.842037 
1965.000000	98.843704 
1964.000000	98.850946 
1963.000000	98.857967 
1962.000000	98.863352 
1961.000000	98.866830 
1960.000000	98.869001 
1959.000000	98.872552 
1958.000000	98.879951 
1957.000000	98.889974 
1956.000000	98.898481 
1955.000000	98.902093 
1954.000000	98.900243 
1953.000000	98.895024 
1952.000000	98.889657 
1951.000000	98.886590 
1950.000000	98.885969 
1949.000000	98.886615 
1948.000000	98.888948 
1947.000000	98.893857 
1946.000000	98.897681 
1945.000000	98.892483 
1944.000000	98.875050 
1943.000000	98.854359 
1942.000000	98.845442 
1941.000000	98.853980 
1940.000000	98.870979 
1939.000000	98.883778 
1938.000000	98.888429 
1937.000000	98.890800 
1936.000000	98.897225 
1935.000000	98.905587 
1934.000000	98.908237 
1933.000000	98.903812 
1932.000000	98.901763 
1931.000000	98.912254 
1930.000000	98.932380 
1929.000000	98.947514 
1928.000000	98.948174 
1927.000000	98.939574 
1926.000000	98.933435 
1925.000000	98.934220 
1924.000000	98.937656 
1923.000000	98.940059 
1922.000000	98.942812 
1921.000000	98.947922 
1920.000000	98.953562 
1919.000000	98.955321 
1918.000000	98.949635 
1917.000000	98.936878 
1916.000000	98.922034 
1915.000000	98.910492 
1914.000000	98.904236 
1913.000000	98.902213 
1912.000000	98.902428 
1911.000000	98.904109 
1910.000000	98.907156 
1909.000000	98.911636 
1908.000000	98.918831 
1907.000000	98.929228 
1906.000000	98.939667 
1905.000000	98.943921 
1904.000000	98.939098 
1903.000000	98.930241 
1902.000000	98.924686 
1901.000000	98.924761 
1900.000000	98.927753 
1899.000000	98.930084 
1898.000000	98.930342 
1897.000000	98.929233 
1896.000000	98.928676 
1895.000000	98.930365 
1894.000000	98.933268 
1893.000000	98.934815 
1892.000000	98.935149 
1891.000000	98.937241 
1890.000000	98.941443 
1889.000000	98.943380 
1888.000000	98.940393 
1887.000000	98.935563 
1886.000000	98.933089 
1885.000000	98.934190 
1884.000000	98.938332 
1883.000000	98.945222 
1882.000000	98.952896 
1881.000000	98.957503 
1880.000000	98.958351 
1879.000000	98.959299 
1878.000000	98.963667 
1877.000000	98.970166 
1876.000000	98.975246 
1875.000000	98.977899 
1874.000000	98.979124 
1873.000000	98.978378 
1872.000000	98.974224 
1871.000000	98.966891 
1870.000000	98.957553 
1869.000000	98.946540 
1868.000000	98.936333 
1867.000000	98.932319 
1866.000000	98.935326 
1865.000000	98.939276 
1864.000000	98.938226 
1863.000000	98.932197 
1862.000000	98.925737 
1861.000000	98.922978 
1860.000000	98.926156 
1859.000000	98.936060 
1858.000000	98.949881 
1857.000000	98.961030 
1856.000000	98.965423 
1855.000000	98.966343 
1854.000000	98.969119 
1853.000000	98.973398 
1852.000000	98.975781 
1851.000000	98.975451 
1850.000000	98.975007 
1849.000000	98.977288 
1848.000000	98.982435 
1847.000000	98.987601 
1846.000000	98.987764 
1845.000000	98.979343 
1844.000000	98.966177 
1843.000000	98.959343 
1842.000000	98.963752 
1841.000000	98.972546 
1840.000000	98.977921 
1839.000000	98.978581 
1838.000000	98.978104 
1837.000000	98.978764 
1836.000000	98.980022 
1835.000000	98.982123 
1834.000000	98.985858 
1833.000000	98.989678 
1832.000000	98.989609 
1831.000000	98.982337 
1830.000000	98.970487 
1829.000000	98.962723 
1828.000000	98.963538 
1827.000000	98.968089 
1826.000000	98.970311 
1825.000000	98.969893 
1824.000000	98.970248 
1823.000000	98.972495 
1822.000000	98.972858 
1821.000000	98.967874 
1820.000000	98.960134 
1819.000000	98.956891 
1818.000000	98.962866 
1817.000000	98.973597 
1816.000000	98.980732 
1815.000000	98.982813 
1814.000000	98.984617 
1813.000000	98.989343 
1812.000000	98.994806 
1811.000000	98.998780 
1810.000000	99.002519 
1809.000000	99.004994 
1808.000000	99.002659 
1807.000000	98.996003 
1806.000000	98.989760 
1805.000000	98.986589 
1804.000000	98.985450 
1803.000000	98.985852 
1802.000000	98.988078 
1801.000000	98.990423 
1800.000000	98.989597 
1799.000000	98.986438 
1798.000000	98.985735 
1797.000000	98.989163 
1796.000000	98.994708 
1795.000000	99.000399 
1794.000000	99.004901 
1793.000000	99.005400 
1792.000000	98.998687 
1791.000000	98.988996 
1790.000000	98.984442 
1789.000000	98.985712 
1788.000000	98.988801 
1787.000000	98.992123 
1786.000000	98.996578 
1785.000000	99.000600 
1784.000000	99.000825 
1783.000000	98.997132 
1782.000000	98.991238 
1781.000000	98.985411 
1780.000000	98.980497 
1779.000000	98.976585 
1778.000000	98.975072 
1777.000000	98.977342 
1776.000000	98.983550 
1775.000000	98.989959 
1774.000000	98.991069 
1773.000000	98.986011 
1772.000000	98.980265 
1771.000000	98.980839 
1770.000000	98.989189 
1769.000000	98.999516 
1768.000000	99.004238 
1767.000000	99.000360 
1766.000000	98.992233 
1765.000000	98.986928 
1764.000000	98.987236 
1763.000000	98.990596 
1762.000000	98.991852 
1761.000000	98.990017 
1760.000000	98.987965 
1759.000000	98.987610 
1758.000000	98.989295 
1757.000000	98.993302 
1756.000000	98.998784 
1755.000000	99.001823 
1754.000000	99.000245 
1753.000000	98.997972 
1752.000000	99.000596 
1751.000000	99.004310 
1750.000000	99.000417 
1749.000000	98.990269 
1748.000000	98.984440 
1747.000000	98.987773 
1746.000000	98.993626 
1745.000000	98.994958 
1744.000000	98.991191 
1743.000000	98.986324 
1742.000000	98.984311 
1741.000000	98.985670 
1740.000000	98.987546 
1739.000000	98.988129 
1738.000000	98.988070 
1737.000000	98.987500 
1736.000000	98.986775 
1735.000000	98.991017 
1734.000000	98.998382 
1733.000000	99.001404 
1732.000000	99.000773 
1731.000000	98.998590 
1730.000000	98.996516 
1729.000000	98.996634 
1728.000000	98.998605 
1727.000000	98.999945 
1726.000000	98.999026 
1725.000000	98.997993 
1724.000000	98.998359 
1723.000000	98.999897 
1722.000000	99.001919 
1721.000000	99.002807 
1720.000000	99.001688 
1719.000000	99.001364 
1718.000000	99.004977 
1717.000000	99.006883 
1716.000000	99.001422 
1715.000000	98.994755 
1714.000000	98.993982 
1713.000000	98.996886 
1712.000000	98.997617 
1711.000000	98.996034 
1710.000000	98.996289 
1709.000000	98.999471 
1708.000000	99.002643 
1707.000000	99.003656 
1706.000000	99.004149 
1705.000000	99.003974 
1704.000000	99.001690 
1703.000000	98.998198 
1702.000000	98.997462 
1701.000000	99.003293 
1700.000000	99.005965 
1699.000000	99.002776 
1698.000000	99.002788 
1697.000000	99.002775 
1696.000000	98.997595 
1695.000000	98.991183 
1694.000000	98.990128 
1693.000000	98.992918 
1692.000000	98.993854 
1691.000000	98.993656 
1690.000000	98.995221 
1689.000000	98.999167 
1688.000000	99.005389 
1687.000000	99.012082 
1686.000000	99.018523 
1685.000000	99.022529 
1684.000000	99.015374 
1683.000000	99.003265 
1682.000000	98.997386 
1681.000000	98.994807 
1680.000000	98.994631 
1679.000000	98.997065 
1678.000000	98.998268 
1677.000000	98.996600 
1676.000000	98.995829 
1675.000000	98.997938 
1674.000000	98.999170 
1673.000000	98.998330 
1672.000000	98.996418 
1671.000000	98.995679 
1670.000000	98.995447 
1669.000000	98.992812 
1668.000000	98.990864 
1667.000000	98.991505 
1666.000000	98.991716 
1665.000000	98.990063 
1664.000000	98.989084 
1663.000000	98.991826 
1662.000000	98.995186 
1661.000000	98.995570 
1660.000000	98.995465 
1659.000000	98.997946 
1658.000000	99.002176 
1657.000000	99.004891 
1656.000000	99.005194 
1655.000000	99.003599 
1654.000000	99.004407 
1653.000000	98.999111 
1652.000000	98.990213 
1651.000000	98.991677 
1650.000000	98.994863 
1649.000000	98.993025 
1648.000000	98.990343 
1647.000000	98.988664 
1646.000000	98.987999 
1645.000000	98.989394 
1644.000000	98.992615 
1643.000000	98.996291 
1642.000000	98.999125 
1641.000000	99.000707 
1640.000000	99.001746 
1639.000000	99.002434 
1638.000000	99.002368 
1637.000000	99.002368 
1636.000000	99.003092 
1635.000000	99.002780 
1634.000000	99.002314 
1633.000000	99.001586 
1632.000000	98.998001 
1631.000000	98.992382 
1630.000000	98.986719 
1629.000000	98.982613 
1628.000000	98.982050 
1627.000000	98.985437 
1626.000000	98.988855 
1625.000000	98.988498 
1624.000000	98.985735 
1623.000000	98.984285 
1622.000000	98.984613 
1621.000000	98.985133 
1620.000000	98.985647 
1619.000000	98.986522 
1618.000000	98.988166 
1617.000000	98.988665 
1616.000000	98.988576 
1615.000000	98.991134 
1614.000000	98.994114 
1613.000000	98.994326 
1612.000000	98.994845 
1611.000000	98.999393 
1610.000000	99.004309 
1609.000000	99.003865 
1608.000000	98.999485 
1607.000000	98.996513 
1606.000000	98.995503 
1605.000000	98.995208 
1604.000000	98.997075 
1603.000000	99.000999 
1602.000000	99.003710 
1601.000000	99.003779 
1600.000000	99.004260 
1599.000000	99.007502 
1598.000000	99.011629 
1597.000000	99.014151 
1596.000000	99.014955 
1595.000000	99.014355 
1594.000000	99.011242 
1593.000000	99.006221 
1592.000000	99.003219 
1591.000000	99.004646 
1590.000000	99.007649 
1589.000000	99.008855 
1588.000000	99.009791 
1587.000000	99.013545 
1586.000000	99.018545 
1585.000000	99.020430 
1584.000000	99.019822 
1583.000000	99.019710 
1582.000000	99.019615 
1581.000000	99.018261 
1580.000000	99.016902 
1579.000000	99.015248 
1578.000000	99.010190 
1577.000000	99.001655 
1576.000000	98.995074 
1575.000000	98.996340 
1574.000000	99.002257 
1573.000000	99.005575 
1572.000000	99.004574 
1571.000000	99.002986 
1570.000000	99.002539 
1569.000000	99.002727 
1568.000000	99.006162 
1567.000000	99.010966 
1566.000000	99.011962 
1565.000000	99.008816 
1564.000000	99.007115 
1563.000000	99.007359 
1562.000000	99.006495 
1561.000000	99.001791 
1560.000000	99.004402 
1559.000000	99.005865 
1558.000000	98.997209 
1557.000000	98.995736 
1556.000000	99.001523 
1555.000000	99.006367 
1554.000000	99.007278 
1553.000000	99.005120 
1552.000000	99.003073 
1551.000000	99.001421 
1550.000000	99.001077 
1549.000000	99.002997 
1548.000000	99.007123 
1547.000000	99.010801 
1546.000000	99.009940 
1545.000000	99.003361 
1544.000000	98.995338 
1543.000000	98.993115 
1542.000000	99.000895 
1541.000000	99.014599 
1540.000000	99.020623 
1539.000000	99.015950 
1538.000000	99.010896 
1537.000000	99.008987 
1536.000000	99.008787 
1535.000000	99.012254 
1534.000000	99.017241 
1533.000000	99.016679 
1532.000000	99.010534 
1531.000000	99.005975 
1530.000000	99.006453 
1529.000000	99.009297 
1528.000000	99.010461 
1527.000000	99.009585 
1526.000000	99.008822 
1525.000000	99.009227 
1524.000000	99.010562 
1523.000000	99.014205 
1522.000000	99.020850 
1521.000000	99.024123 
1520.000000	99.019690 
1519.000000	99.010472 
1518.000000	99.000334 
1517.000000	98.993125 
1516.000000	98.990467 
1515.000000	98.990886 
1514.000000	98.992236 
1513.000000	98.994559 
1512.000000	98.997852 
1511.000000	98.999928 
1510.000000	98.999967 
1509.000000	98.998560 
1508.000000	98.998703 
1507.000000	98.999451 
1506.000000	98.999079 
1505.000000	98.998538 
1504.000000	98.997926 
1503.000000	98.996590 
1502.000000	98.995721 
1501.000000	98.996010 
1500.000000	98.995599 
1499.000000	98.991949 
1498.000000	98.985979 
1497.000000	98.980085 
1496.000000	98.974534 
1495.000000	98.973795 
1494.000000	98.982604 
1493.000000	98.998056 
1492.000000	99.012570 
1491.000000	99.019657 
1490.000000	99.017302 
1489.000000	99.008622 
1488.000000	98.997907 
1487.000000	98.989978 
1486.000000	98.986790 
1485.000000	98.984092 
1484.000000	98.979480 
1483.000000	98.974828 
1482.000000	98.973723 
1481.000000	98.976209 
1480.000000	98.977996 
1479.000000	98.976413 
1478.000000	98.973091 
1477.000000	98.970888 
1476.000000	98.970972 
1475.000000	98.974869 
1474.000000	98.982003 
1473.000000	98.986607 
1472.000000	98.983608 
1471.000000	98.977856 
1470.000000	98.976026 
1469.000000	98.976708 
1468.000000	98.975578 
1467.000000	98.972089 
1466.000000	98.969237 
1465.000000	98.969233 
1464.000000	98.971533 
1463.000000	98.973827 
1462.000000	98.974997 
1461.000000	98.974444 
1460.000000	98.972117 
1459.000000	98.967661 
1458.000000	98.960955 
1457.000000	98.950002 
1456.000000	98.936406 
1455.000000	98.925985 
1454.000000	98.920706 
1453.000000	98.922191 
1452.000000	98.931177 
1451.000000	98.942976 
1450.000000	98.951318 
1449.000000	98.953575 
1448.000000	98.950812 
1447.000000	98.947138 
1446.000000	98.945428 
1445.000000	98.946601 
1444.000000	98.949861 
1443.000000	98.953075 
1442.000000	98.956126 
1441.000000	98.960364 
1440.000000	98.965162 
1439.000000	98.966703 
1438.000000	98.964562 
1437.000000	98.962125 
1436.000000	98.961155 
1435.000000	98.960603 
1434.000000	98.959473 
1433.000000	98.957382 
1432.000000	98.954562 
1431.000000	98.950335 
1430.000000	98.945042 
1429.000000	98.941578 
1428.000000	98.940540 
1427.000000	98.939305 
1426.000000	98.934611 
1425.000000	98.928534 
1424.000000	98.926046 
1423.000000	98.926435 
1422.000000	98.924668 
1421.000000	98.917489 
1420.000000	98.905336 
1419.000000	98.889196 
1418.000000	98.874152 
1417.000000	98.864921 
1416.000000	98.857276 
1415.000000	98.845463 
1414.000000	98.829568 
1413.000000	98.814429 
1412.000000	98.803743 
1411.000000	98.795683 
1410.000000	98.787256 
1409.000000	98.778843 
1408.000000	98.772456 
1407.000000	98.770239 
1406.000000	98.772715 
1405.000000	98.779387 
1404.000000	98.789001 
1403.000000	98.799183 
1402.000000	98.809467 
1401.000000	98.821810 
1400.000000	98.837079 
1399.000000	98.850098 
1398.000000	98.852033 
1397.000000	98.836984 
1396.000000	98.806143 
1395.000000	98.772726 
1394.000000	98.758173 
1393.000000	98.774081 
1392.000000	98.809968 
1391.000000	98.844982 
1390.000000	98.865597 
1389.000000	98.870884 
1388.000000	98.866615 
1387.000000	98.857985 
1386.000000	98.848486 
1385.000000	98.841570 
1384.000000	98.839314 
1383.000000	98.840120 
1382.000000	98.840755 
1381.000000	98.840091 
1380.000000	98.840668 
1379.000000	98.845688 
1378.000000	98.855272 
1377.000000	98.866669 
1376.000000	98.876739 
1375.000000	98.883221 
1374.000000	98.885756 
1373.000000	98.887988 
1372.000000	98.894385 
1371.000000	98.905402 
1370.000000	98.917115 
1369.000000	98.926003 
1368.000000	98.931959 
1367.000000	98.936356 
1366.000000	98.940333 
1365.000000	98.945044 
1364.000000	98.951369 
1363.000000	98.957988 
1362.000000	98.962012 
1361.000000	98.963044 
1360.000000	98.964199 
1359.000000	98.968474 
1358.000000	98.975852 
1357.000000	98.984164 
1356.000000	98.991299 
1355.000000	98.996339 
1354.000000	99.000042 
1353.000000	99.004101 
1352.000000	99.008747 
1351.000000	99.012458 
1350.000000	99.013134 
1349.000000	99.011578 
1348.000000	99.011133 
1347.000000	99.012955 
1346.000000	99.014940 
1345.000000	99.015447 
1344.000000	99.015393 
1343.000000	99.015796 
1342.000000	99.016176 
1341.000000	99.016481 
1340.000000	99.018020 
1339.000000	99.020751 
1338.000000	99.022468 
1337.000000	99.022481 
1336.000000	99.023028 
1335.000000	99.025615 
1334.000000	99.028535 
1333.000000	99.029522 
1332.000000	99.028957 
1331.000000	99.028730 
1330.000000	99.029372 
1329.000000	99.030275 
1328.000000	99.031095 
1327.000000	99.031309 
1326.000000	99.029602 
1325.000000	99.026252 
1324.000000	99.024080 
1323.000000	99.025065 
1322.000000	99.027870 
1321.000000	99.030137 
1320.000000	99.031761 
1319.000000	99.034203 
1318.000000	99.037708 
1317.000000	99.040585 
1316.000000	99.040751 
1315.000000	99.037148 
1314.000000	99.030693 
1313.000000	99.024478 
1312.000000	99.021725 
1311.000000	99.022786 
1310.000000	99.025124 
1309.000000	99.026476 
1308.000000	99.026581 
1307.000000	99.025968 
1306.000000	99.024546 
1305.000000	99.022592 
1304.000000	99.021185 
1303.000000	99.020723 
1302.000000	99.020666 
1301.000000	99.021243 
1300.000000	99.023619 
1299.000000	99.027465 
1298.000000	99.030397 
1297.000000	99.030920 
1296.000000	99.030371 
1295.000000	99.030515 
1294.000000	99.030756 
1293.000000	99.029186 
1292.000000	99.025205 
1291.000000	99.020032 
1290.000000	99.015691 
1289.000000	99.014170 
1288.000000	99.016001 
1287.000000	99.018561 
1286.000000	99.017539 
1285.000000	99.011650 
1284.000000	99.004466 
1283.000000	99.000169 
1282.000000	98.998734 
1281.000000	98.996818 
1280.000000	98.992431 
1279.000000	98.986697 
1278.000000	98.981752 
1277.000000	98.978688 
1276.000000	98.977212 
1275.000000	98.975689 
1274.000000	98.971802 
1273.000000	98.964734 
1272.000000	98.956496 
1271.000000	98.949811 
1270.000000	98.944857 
1269.000000	98.939409 
1268.000000	98.932005 
1267.000000	98.923558 
1266.000000	98.916042 
1265.000000	98.910560 
1264.000000	98.906549 
1263.000000	98.902033 
1262.000000	98.894978 
1261.000000	98.885431 
1260.000000	98.876251 
1259.000000	98.870475 
1258.000000	98.868092 
1257.000000	98.866448 
1256.000000	98.863674 
1255.000000	98.860601 
1254.000000	98.859038 
1253.000000	98.859048 
1252.000000	98.858656 
1251.000000	98.856109 
1250.000000	98.852167 
1249.000000	98.850101 
1248.000000	98.853165 
1247.000000	98.861247 
1246.000000	98.869378 
1245.000000	98.869915 
1244.000000	98.858090 
1243.000000	98.837718 
1242.000000	98.821066 
1241.000000	98.819823 
1240.000000	98.834151 
1239.000000	98.851785 
1238.000000	98.859669 
1237.000000	98.855616 
1236.000000	98.847066 
1235.000000	98.840560 
1234.000000	98.835931 
1233.000000	98.830003 
1232.000000	98.821658 
1231.000000	98.811930 
1230.000000	98.802303 
1229.000000	98.794877 
1228.000000	98.792024 
1227.000000	98.793796 
1226.000000	98.796906 
1225.000000	98.797958 
1224.000000	98.796734 
1223.000000	98.795087 
1222.000000	98.793839 
1221.000000	98.792352 
1220.000000	98.790421 
1219.000000	98.789030 
1218.000000	98.789242 
1217.000000	98.790868 
1216.000000	98.791905 
1215.000000	98.789392 
1214.000000	98.781914 
1213.000000	98.771481 
1212.000000	98.761779 
1211.000000	98.754495 
1210.000000	98.748612 
1209.000000	98.743105 
1208.000000	98.738307 
1207.000000	98.734206 
1206.000000	98.729560 
1205.000000	98.723569 
1204.000000	98.716750 
1203.000000	98.709497 
1202.000000	98.701701 
1201.000000	98.694450 
1200.000000	98.689732 
1199.000000	98.687139 
1198.000000	98.683200 
1197.000000	98.675681 
1196.000000	98.666445 
1195.000000	98.658292 
1194.000000	98.650910 
1193.000000	98.642122 
1192.000000	98.631467 
1191.000000	98.620224 
1190.000000	98.609215 
1189.000000	98.598898 
1188.000000	98.590486 
1187.000000	98.584580 
1186.000000	98.579485 
1185.000000	98.573110 
1184.000000	98.565837 
1183.000000	98.559516 
1182.000000	98.554439 
1181.000000	98.549449 
1180.000000	98.544287 
1179.000000	98.539455 
1178.000000	98.534322 
1177.000000	98.527657 
1176.000000	98.519500 
1175.000000	98.510113 
1174.000000	98.497674 
1173.000000	98.480181 
1172.000000	98.459881 
1171.000000	98.442618 
1170.000000	98.431363 
1169.000000	98.422555 
1168.000000	98.410507 
1167.000000	98.394148 
1166.000000	98.378077 
1165.000000	98.367807 
1164.000000	98.365111 
1163.000000	98.367631 
1162.000000	98.372057 
1161.000000	98.377420 
1160.000000	98.385041 
1159.000000	98.395056 
1158.000000	98.403665 
1157.000000	98.404839 
1156.000000	98.395050 
1155.000000	98.376626 
1154.000000	98.357024 
1153.000000	98.344097 
1152.000000	98.339986 
1151.000000	98.338734 
1150.000000	98.331543 
1149.000000	98.315805 
1148.000000	98.297596 
1147.000000	98.284098 
1146.000000	98.275310 
1145.000000	98.265173 
1144.000000	98.249380 
1143.000000	98.229524 
1142.000000	98.210426 
1141.000000	98.196005 
1140.000000	98.187448 
1139.000000	98.182681 
1138.000000	98.177148 
1137.000000	98.167169 
1136.000000	98.153103 
1135.000000	98.137925 
1134.000000	98.122757 
1133.000000	98.105425 
1132.000000	98.083809 
1131.000000	98.059335 
1130.000000	98.036669 
1129.000000	98.020156 
1128.000000	98.009841 
1127.000000	98.000301 
1126.000000	97.984938 
1125.000000	97.963060 
1124.000000	97.941260 
1123.000000	97.925642 
1122.000000	97.914080 
1121.000000	97.899110 
1120.000000	97.877641 
1119.000000	97.854169 
1118.000000	97.834052 
1117.000000	97.817024 
1116.000000	97.798889 
1115.000000	97.777321 
1114.000000	97.754289 
1113.000000	97.733795 
1112.000000	97.717934 
1111.000000	97.704233 
1110.000000	97.686770 
1109.000000	97.661710 
1108.000000	97.631927 
1107.000000	97.604765 
1106.000000	97.584561 
1105.000000	97.568441 
1104.000000	97.549962 
1103.000000	97.525967 
1102.000000	97.499626 
1101.000000	97.477599 
1100.000000	97.463586 
1099.000000	97.454608 
1098.000000	97.443874 
1097.000000	97.428358 
1096.000000	97.412194 
1095.000000	97.400730 
1094.000000	97.392614 
1093.000000	97.379822 
1092.000000	97.354958 
1091.000000	97.317080 
1090.000000	97.271818 
1089.000000	97.227800 
1088.000000	97.191633 
1087.000000	97.163590 
1086.000000	97.138448 
1085.000000	97.112322 
1084.000000	97.087255 
1083.000000	97.066730 
1082.000000	97.048794 
1081.000000	97.027627 
1080.000000	97.001191 
1079.000000	96.973708 
1078.000000	96.951017 
1077.000000	96.936597 
1076.000000	96.931204 
1075.000000	96.932568 
1074.000000	96.936109 
1073.000000	96.939506 
1072.000000	96.944719 
1071.000000	96.950441 
1070.000000	96.944664 
1069.000000	96.913361 
1068.000000	96.859529 
1067.000000	96.807665 
1066.000000	96.784149 
1065.000000	96.794728 
1064.000000	96.823061 
1063.000000	96.846757 
1062.000000	96.851275 
1061.000000	96.833231 
1060.000000	96.798248 
1059.000000	96.757769 
1058.000000	96.723770 
1057.000000	96.702467 
1056.000000	96.692374 
1055.000000	96.688357 
1054.000000	96.686873 
1053.000000	96.686999 
1052.000000	96.687425 
1051.000000	96.684733 
1050.000000	96.676506 
1049.000000	96.664900 
1048.000000	96.654250 
1047.000000	96.645553 
1046.000000	96.636325 
1045.000000	96.625680 
1044.000000	96.615995 
1043.000000	96.608855 
1042.000000	96.602852 
1041.000000	96.596969 
1040.000000	96.593030 
1039.000000	96.592983 
1038.000000	96.597072 
1037.000000	96.606693 
1036.000000	96.624863 
1035.000000	96.650333 
1034.000000	96.674885 
1033.000000	96.690529 
1032.000000	96.696388 
1031.000000	96.695054 
1030.000000	96.686822 
1029.000000	96.673649 
1028.000000	96.665638 
1027.000000	96.675275 
1026.000000	96.704047 
1025.000000	96.739941 
1024.000000	96.768757 
1023.000000	96.783916 
1022.000000	96.786634 
1021.000000	96.782740 
1020.000000	96.780460 
1019.000000	96.785950 
1018.000000	96.797985 
1017.000000	96.809505 
1016.000000	96.815747 
1015.000000	96.818768 
1014.000000	96.823765 
1013.000000	96.833519 
1012.000000	96.846738 
1011.000000	96.859436 
1010.000000	96.867929 
1009.000000	96.872878 
1008.000000	96.880029 
1007.000000	96.894388 
1006.000000	96.914126 
1005.000000	96.933033 
1004.000000	96.948414 
1003.000000	96.963451 
1002.000000	96.982014 
1001.000000	97.004103 
1000.000000	97.026220 
999.000000	 97.043577 
998.000000	 97.052872 
997.000000	 97.056373 
996.000000	 97.062738 
995.000000	 97.079681 
994.000000	 97.105068 
993.000000	 97.128747 
992.000000	 97.143947 
991.000000	 97.153602 
990.000000	 97.164483 
989.000000	 97.178520 
988.000000	 97.192135 
987.000000	 97.202250 
986.000000	 97.210885 
985.000000	 97.224169 
984.000000	 97.247082 
983.000000	 97.278153 
982.000000	 97.309503 
981.000000	 97.333652 
980.000000	 97.350430 
979.000000	 97.366235 
978.000000	 97.387089 
977.000000	 97.413701 
976.000000	 97.442528 
975.000000	 97.469754 
974.000000	 97.494443 
973.000000	 97.519214 
972.000000	 97.547428 
971.000000	 97.578789 
970.000000	 97.608786 
969.000000	 97.633774 
968.000000	 97.655235 
967.000000	 97.677386 
966.000000	 97.701860 
965.000000	 97.726468 
964.000000	 97.748000 
963.000000	 97.764702 
962.000000	 97.777681 
961.000000	 97.791529 
960.000000	 97.811352 
959.000000	 97.836623 
958.000000	 97.859999 
957.000000	 97.875428 
956.000000	 97.885839 
955.000000	 97.899347 
954.000000	 97.918950 
953.000000	 97.939654 
952.000000	 97.955382 
951.000000	 97.965134 
950.000000	 97.972147 
949.000000	 97.979967 
948.000000	 97.989804 
947.000000	 97.999419 
946.000000	 98.004444 
945.000000	 98.002907 
944.000000	 97.998389 
943.000000	 97.996768 
942.000000	 98.000152 
941.000000	 98.005952 
940.000000	 98.011218 
939.000000	 98.015419 
938.000000	 98.019449 
937.000000	 98.024472 
936.000000	 98.031655 
935.000000	 98.040927 
934.000000	 98.050482 
933.000000	 98.059501 
932.000000	 98.070159 
931.000000	 98.084010 
930.000000	 98.097319 
929.000000	 98.103680 
928.000000	 98.101475 
927.000000	 98.095783 
926.000000	 98.092657 
925.000000	 98.094152 
924.000000	 98.099132 
923.000000	 98.105664 
922.000000	 98.111535 
921.000000	 98.114999 
920.000000	 98.116210 
919.000000	 98.116343 
918.000000	 98.114986 
917.000000	 98.110569 
916.000000	 98.103885 
915.000000	 98.098732 
914.000000	 98.097658 
913.000000	 98.098687 
912.000000	 98.097914 
911.000000	 98.094864 
910.000000	 98.094304 
909.000000	 98.102309 
908.000000	 98.119979 
907.000000	 98.140862 
906.000000	 98.155852 
905.000000	 98.161807 
904.000000	 98.164427 
903.000000	 98.171839 
902.000000	 98.186593 
901.000000	 98.204759 
900.000000	 98.220961 
899.000000	 98.232510 
898.000000	 98.239902 
897.000000	 98.245294 
896.000000	 98.250010 
895.000000	 98.253188 
894.000000	 98.254392 
893.000000	 98.257401 
892.000000	 98.268031 
891.000000	 98.286941 
890.000000	 98.308048 
889.000000	 98.325931 
888.000000	 98.341032 
887.000000	 98.355346 
886.000000	 98.367690 
885.000000	 98.376956 
884.000000	 98.385483 
883.000000	 98.394173 
882.000000	 98.398317 
881.000000	 98.394579 
880.000000	 98.389161 
879.000000	 98.391964 
878.000000	 98.404165 
877.000000	 98.418540 
876.000000	 98.430658 
875.000000	 98.441863 
874.000000	 98.451668 
873.000000	 98.455836 
872.000000	 98.453914 
871.000000	 98.451882 
870.000000	 98.454987 
869.000000	 98.463162 
868.000000	 98.474873 
867.000000	 98.489798 
866.000000	 98.505947 
865.000000	 98.519640 
864.000000	 98.530885 
863.000000	 98.544018 
862.000000	 98.560233 
861.000000	 98.573899 
860.000000	 98.579914 
859.000000	 98.581204 
858.000000	 98.584816 
857.000000	 98.592772 
856.000000	 98.601025 
855.000000	 98.606430 
854.000000	 98.610633 
853.000000	 98.616427 
852.000000	 98.623210 
851.000000	 98.627904 
850.000000	 98.629434 
849.000000	 98.630703 
848.000000	 98.635629 
847.000000	 98.644817 
846.000000	 98.654825 
845.000000	 98.661382 
844.000000	 98.662341 
843.000000	 98.658088 
842.000000	 98.651360 
841.000000	 98.646730 
840.000000	 98.647129 
839.000000	 98.649431 
838.000000	 98.646454 
837.000000	 98.635613 
836.000000	 98.622772 
835.000000	 98.614732 
834.000000	 98.610968 
833.000000	 98.606836 
832.000000	 98.602219 
831.000000	 98.601124 
830.000000	 98.603617 
829.000000	 98.604793 
828.000000	 98.603412 
827.000000	 98.605662 
826.000000	 98.616552 
825.000000	 98.631639 
824.000000	 98.641722 
823.000000	 98.643311 
822.000000	 98.640536 
821.000000	 98.638092 
820.000000	 98.636245 
819.000000	 98.633333 
818.000000	 98.630657 
817.000000	 98.632386 
816.000000	 98.639212 
815.000000	 98.643415 
814.000000	 98.634400 
813.000000	 98.610931 
812.000000	 98.583921 
811.000000	 98.563390 
810.000000	 98.545410 
809.000000	 98.516806 
808.000000	 98.471363 
807.000000	 98.416068 
806.000000	 98.361273 
805.000000	 98.310060 
804.000000	 98.259713 
803.000000	 98.209870 
802.000000	 98.165840 
801.000000	 98.134730 
800.000000	 98.119692 
799.000000	 98.117399 
798.000000	 98.121205 
797.000000	 98.127554 
796.000000	 98.138037 
795.000000	 98.154219 
794.000000	 98.173065 
793.000000	 98.189797 
792.000000	 98.202878 
791.000000	 98.213545 
790.000000	 98.222875 
789.000000	 98.231657 
788.000000	 98.239389 
787.000000	 98.239918 
786.000000	 98.222752 
785.000000	 98.185141 
784.000000	 98.140658 
783.000000	 98.109269 
782.000000	 98.098896 
781.000000	 98.101064 
780.000000	 98.102977 
779.000000	 98.098263 
778.000000	 98.088102 
777.000000	 98.079509 
776.000000	 98.082906 
775.000000	 98.104264 
774.000000	 98.137368 
773.000000	 98.168987 
772.000000	 98.193066 
771.000000	 98.215048 
770.000000	 98.241195 
769.000000	 98.268657 
768.000000	 98.288533 
767.000000	 98.295754 
766.000000	 98.294541 
765.000000	 98.295849 
764.000000	 98.308486 
763.000000	 98.329509 
762.000000	 98.344439 
761.000000	 98.341553 
760.000000	 98.325819 
759.000000	 98.314392 
758.000000	 98.318402 
757.000000	 98.333231 
756.000000	 98.346239 
755.000000	 98.348949 
754.000000	 98.341583 
753.000000	 98.331022 
752.000000	 98.326119 
751.000000	 98.331551 
750.000000	 98.344491 
749.000000	 98.358968 
748.000000	 98.372629 
747.000000	 98.386518 
746.000000	 98.400192 
745.000000	 98.411404 
744.000000	 98.419497 
743.000000	 98.424941 
742.000000	 98.427009 
741.000000	 98.426441 
740.000000	 98.428529 
739.000000	 98.437874 
738.000000	 98.451006 
737.000000	 98.459568 
736.000000	 98.459539 
735.000000	 98.452067 
734.000000	 98.437909 
733.000000	 98.419092 
732.000000	 98.405485 
731.000000	 98.410468 
730.000000	 98.436783 
729.000000	 98.472197 
728.000000	 98.500596 
727.000000	 98.512790 
726.000000	 98.508037 
725.000000	 98.492759 
724.000000	 98.478451 
723.000000	 98.473285 
722.000000	 98.473670 
721.000000	 98.470331 
720.000000	 98.464094 
719.000000	 98.467693 
718.000000	 98.488448 
717.000000	 98.516450 
716.000000	 98.533700 
715.000000	 98.529817 
714.000000	 98.508094 
713.000000	 98.482863 
712.000000	 98.472505 
711.000000	 98.487027 
710.000000	 98.517134 
709.000000	 98.540345 
708.000000	 98.541923 
707.000000	 98.526146 
706.000000	 98.505549 
705.000000	 98.485300 
704.000000	 98.463052 
703.000000	 98.439692 
702.000000	 98.423313 
701.000000	 98.421382 
700.000000	 98.430575 
699.000000	 98.435167 
698.000000	 98.420102 
697.000000	 98.390069 
696.000000	 98.370532 
695.000000	 98.381386 
694.000000	 98.411306 
693.000000	 98.428464 
692.000000	 98.417568 
691.000000	 98.396228 
690.000000	 98.393768 
689.000000	 98.423044 
688.000000	 98.472998 
687.000000	 98.517530 
686.000000	 98.529440 
685.000000	 98.499463 
684.000000	 98.449496 
683.000000	 98.417468 
682.000000	 98.422037 
681.000000	 98.447562 
680.000000	 98.465976 
679.000000	 98.464694 
678.000000	 98.450198 
677.000000	 98.437345 
676.000000	 98.441653 
675.000000	 98.466807 
674.000000	 98.494659 
673.000000	 98.498045 
672.000000	 98.468598 
671.000000	 98.423004 
670.000000	 98.382796 
669.000000	 98.360175 
668.000000	 98.357614 
667.000000	 98.376000 
666.000000	 98.406705 
665.000000	 98.427746 
664.000000	 98.431798 
663.000000	 98.433729 
662.000000	 98.449150 
661.000000	 98.474602 
660.000000	 98.493366 
659.000000	 98.492434 
658.000000	 98.465186 
657.000000	 98.411307 
656.000000	 98.348236 
655.000000	 98.312242 
654.000000	 98.329357 
653.000000	 98.383937 
652.000000	 98.430091 
651.000000	 98.433594 
650.000000	 98.398087 

