4000.000000	99.955106  
3999.000000	99.952498  
3998.000000	99.951164  
3997.000000	99.953027  
3996.000000	99.956979  
3995.000000	99.960145  
3994.000000	99.960931  
3993.000000	99.960420  
3992.000000	99.960745  
3991.000000	99.962372  
3990.000000	99.963224  
3989.000000	99.960589  
3988.000000	99.954021  
3987.000000	99.946282  
3986.000000	99.941267  
3985.000000	99.941052  
3984.000000	99.944883  
3983.000000	99.950721  
3982.000000	99.957142  
3981.000000	99.963695  
3980.000000	99.970067  
3979.000000	99.975494  
3978.000000	99.978970  
3977.000000	99.979814  
3976.000000	99.978097  
3975.000000	99.974550  
3974.000000	99.969902  
3973.000000	99.964399  
3972.000000	99.958469  
3971.000000	99.953776  
3970.000000	99.952839  
3969.000000	99.956934  
3968.000000	99.964558  
3967.000000	99.972279  
3966.000000	99.976938  
3965.000000	99.977356  
3964.000000	99.974709  
3963.000000	99.971702  
3962.000000	99.970661  
3961.000000	99.971497  
3960.000000	99.971760  
3959.000000	99.969144  
3958.000000	99.964068  
3957.000000	99.959366  
3956.000000	99.957625  
3955.000000	99.959005  
3954.000000	99.961433  
3953.000000	99.962831  
3952.000000	99.962868  
3951.000000	99.962722  
3950.000000	99.963223  
3949.000000	99.963669  
3948.000000	99.962977  
3947.000000	99.961484  
3946.000000	99.960833  
3945.000000	99.962116  
3944.000000	99.964574  
3943.000000	99.966270  
3942.000000	99.965867  
3941.000000	99.963791  
3940.000000	99.961595  
3939.000000	99.960312  
3938.000000	99.959696  
3937.000000	99.958872  
3936.000000	99.957610  
3935.000000	99.956960  
3934.000000	99.958113  
3933.000000	99.961039  
3932.000000	99.964555  
3931.000000	99.967910  
3930.000000	99.971181  
3929.000000	99.973688  
3928.000000	99.973570  
3927.000000	99.969844  
3926.000000	99.964562  
3925.000000	99.961382  
3924.000000	99.961608  
3923.000000	99.963445  
3922.000000	99.965036  
3921.000000	99.966110  
3920.000000	99.966909  
3919.000000	99.966968  
3918.000000	99.965761  
3917.000000	99.963513  
3916.000000	99.960979  
3915.000000	99.958993  
3914.000000	99.958279  
3913.000000	99.958482  
3912.000000	99.957711  
3911.000000	99.954042  
3910.000000	99.948469  
3909.000000	99.944931  
3908.000000	99.947001  
3907.000000	99.955129  
3906.000000	99.966468  
3905.000000	99.977309  
3904.000000	99.984748  
3903.000000	99.987408  
3902.000000	99.985851  
3901.000000	99.982106  
3900.000000	99.978186  
3899.000000	99.974404  
3898.000000	99.969371  
3897.000000	99.962362  
3896.000000	99.954829  
3895.000000	99.949004  
3894.000000	99.946642  
3893.000000	99.948488  
3892.000000	99.954530  
3891.000000	99.963392  
3890.000000	99.972433  
3889.000000	99.979533  
3888.000000	99.983836  
3887.000000	99.985431  
3886.000000	99.984381  
3885.000000	99.980740  
3884.000000	99.976171  
3883.000000	99.973682  
3882.000000	99.974247  
3881.000000	99.975355  
3880.000000	99.973906  
3879.000000	99.970431  
3878.000000	99.967652  
3877.000000	99.965994  
3876.000000	99.963515  
3875.000000	99.960211  
3874.000000	99.958692  
3873.000000	99.959980  
3872.000000	99.961770  
3871.000000	99.961926  
3870.000000	99.961125  
3869.000000	99.960860  
3868.000000	99.962654  
3867.000000	99.967943  
3866.000000	99.976099  
3865.000000	99.982589  
3864.000000	99.982448  
3863.000000	99.976809  
3862.000000	99.971697  
3861.000000	99.968614  
3860.000000	99.963580  
3859.000000	99.954143  
3858.000000	99.943256  
3857.000000	99.936134  
3856.000000	99.936071  
3855.000000	99.944238  
3854.000000	99.959911  
3853.000000	99.975533  
3852.000000	99.983897  
3851.000000	99.986550  
3850.000000	99.987720  
3849.000000	99.987601  
3848.000000	99.984105  
3847.000000	99.976748  
3846.000000	99.968824  
3845.000000	99.964343  
3844.000000	99.964170  
3843.000000	99.965937  
3842.000000	99.967116  
3841.000000	99.967366  
3840.000000	99.969173  
3839.000000	99.974529  
3838.000000	99.981708  
3837.000000	99.986866  
3836.000000	99.987618  
3835.000000	99.984445  
3834.000000	99.979459  
3833.000000	99.974692  
3832.000000	99.971223  
3831.000000	99.968848  
3830.000000	99.966868  
3829.000000	99.964628  
3828.000000	99.961398  
3827.000000	99.956980  
3826.000000	99.952552  
3825.000000	99.949728  
3824.000000	99.949827  
3823.000000	99.953385  
3822.000000	99.960213  
3821.000000	99.968314  
3820.000000	99.974368  
3819.000000	99.977651  
3818.000000	99.979438  
3817.000000	99.980353  
3816.000000	99.979399  
3815.000000	99.975700  
3814.000000	99.971164  
3813.000000	99.968491  
3812.000000	99.967339  
3811.000000	99.964792  
3810.000000	99.959998  
3809.000000	99.956785  
3808.000000	99.960197  
3807.000000	99.969180  
3806.000000	99.976489  
3805.000000	99.977355  
3804.000000	99.973762  
3803.000000	99.970036  
3802.000000	99.968490  
3801.000000	99.967140  
3800.000000	99.963548  
3799.000000	99.959502  
3798.000000	99.957480  
3797.000000	99.956961  
3796.000000	99.955773  
3795.000000	99.953828  
3794.000000	99.953887  
3793.000000	99.957847  
3792.000000	99.963666  
3791.000000	99.967162  
3790.000000	99.966578  
3789.000000	99.964086  
3788.000000	99.962976  
3787.000000	99.965069  
3786.000000	99.970561  
3785.000000	99.978489  
3784.000000	99.986703  
3783.000000	99.992401  
3782.000000	99.993904  
3781.000000	99.991481  
3780.000000	99.986790  
3779.000000	99.981429  
3778.000000	99.976528  
3777.000000	99.972698  
3776.000000	99.969963  
3775.000000	99.967872  
3774.000000	99.966151  
3773.000000	99.965232  
3772.000000	99.965972  
3771.000000	99.968339  
3770.000000	99.970533  
3769.000000	99.970777  
3768.000000	99.970038  
3767.000000	99.970867  
3766.000000	99.973736  
3765.000000	99.976410  
3764.000000	99.976812  
3763.000000	99.975742  
3762.000000	99.976037  
3761.000000	99.978789  
3760.000000	99.981678  
3759.000000	99.981889  
3758.000000	99.980709  
3757.000000	99.981206  
3756.000000	99.983092  
3755.000000	99.983878  
3754.000000	99.983200  
3753.000000	99.983602  
3752.000000	99.986162  
3751.000000	99.988191  
3750.000000	99.988122  
3749.000000	99.988353  
3748.000000	99.990041  
3747.000000	99.991241  
3746.000000	99.990861  
3745.000000	99.991084  
3744.000000	99.991139  
3743.000000	99.988317  
3742.000000	99.985012  
3741.000000	99.985186  
3740.000000	99.988497  
3739.000000	99.990693  
3738.000000	99.989352  
3737.000000	99.987756  
3736.000000	99.989744  
3735.000000	99.993894  
3734.000000	99.996742  
3733.000000	99.999020  
3732.000000	100.003241 
3731.000000	100.008680 
3730.000000	100.012535 
3729.000000	100.013243 
3728.000000	100.011087 
3727.000000	100.007441 
3726.000000	100.003845 
3725.000000	100.001750 
3724.000000	100.001647 
3723.000000	100.001962 
3722.000000	100.000663 
3721.000000	99.998059  
3720.000000	99.996870  
3719.000000	99.998237  
3718.000000	100.000128 
3717.000000	99.999432  
3716.000000	99.994194  
3715.000000	99.984706  
3714.000000	99.972803  
3713.000000	99.961148  
3712.000000	99.953512  
3711.000000	99.953177  
3710.000000	99.960004  
3709.000000	99.969390  
3708.000000	99.975094  
3707.000000	99.973359  
3706.000000	99.964190  
3705.000000	99.950519  
3704.000000	99.936686  
3703.000000	99.926837  
3702.000000	99.923310  
3701.000000	99.925184  
3700.000000	99.928932  
3699.000000	99.930664  
3698.000000	99.928023  
3697.000000	99.920978  
3696.000000	99.911130  
3695.000000	99.900939  
3694.000000	99.893095  
3693.000000	99.888898  
3692.000000	99.887603  
3691.000000	99.887842  
3690.000000	99.889599  
3689.000000	99.892830  
3688.000000	99.896036  
3687.000000	99.898224  
3686.000000	99.899681  
3685.000000	99.900861  
3684.000000	99.901133  
3683.000000	99.898911  
3682.000000	99.893689  
3681.000000	99.887733  
3680.000000	99.883219  
3679.000000	99.878495  
3678.000000	99.869782  
3677.000000	99.858481  
3676.000000	99.853568  
3675.000000	99.859855  
3674.000000	99.872488  
3673.000000	99.885111  
3672.000000	99.894854  
3671.000000	99.900420  
3670.000000	99.901066  
3669.000000	99.897139  
3668.000000	99.890933  
3667.000000	99.884364  
3666.000000	99.877072  
3665.000000	99.868895  
3664.000000	99.861733  
3663.000000	99.857814  
3662.000000	99.857545  
3661.000000	99.859605  
3660.000000	99.862197  
3659.000000	99.864456  
3658.000000	99.866162  
3657.000000	99.867546  
3656.000000	99.868706  
3655.000000	99.869985  
3654.000000	99.872991  
3653.000000	99.879043  
3652.000000	99.887236  
3651.000000	99.893874  
3650.000000	99.894698  
3649.000000	99.889275  
3648.000000	99.882043  
3647.000000	99.877244  
3646.000000	99.875531  
3645.000000	99.875837  
3644.000000	99.877097  
3643.000000	99.878013  
3642.000000	99.877424  
3641.000000	99.875728  
3640.000000	99.875375  
3639.000000	99.879240  
3638.000000	99.887481  
3637.000000	99.896643  
3636.000000	99.902223  
3635.000000	99.902318  
3634.000000	99.898691  
3633.000000	99.894745  
3632.000000	99.893291  
3631.000000	99.895651  
3630.000000	99.901057  
3629.000000	99.905590  
3628.000000	99.904931  
3627.000000	99.900636  
3626.000000	99.897725  
3625.000000	99.897626  
3624.000000	99.897931  
3623.000000	99.896289  
3622.000000	99.892970  
3621.000000	99.890064  
3620.000000	99.888882  
3619.000000	99.889166  
3618.000000	99.891127  
3617.000000	99.895777  
3616.000000	99.902303  
3615.000000	99.907681  
3614.000000	99.909362  
3613.000000	99.907442  
3612.000000	99.904150  
3611.000000	99.901730  
3610.000000	99.900788  
3609.000000	99.900547  
3608.000000	99.900183  
3607.000000	99.899740  
3606.000000	99.900168  
3605.000000	99.902102  
3604.000000	99.904729  
3603.000000	99.906470  
3602.000000	99.906898  
3601.000000	99.907892  
3600.000000	99.911941  
3599.000000	99.919522  
3598.000000	99.928273  
3597.000000	99.934546  
3596.000000	99.935736  
3595.000000	99.932777  
3594.000000	99.929772  
3593.000000	99.930951  
3592.000000	99.937892  
3591.000000	99.948685  
3590.000000	99.958742  
3589.000000	99.963193  
3588.000000	99.960141  
3587.000000	99.952226  
3586.000000	99.944308  
3585.000000	99.939598  
3584.000000	99.937826  
3583.000000	99.936748  
3582.000000	99.934506  
3581.000000	99.930967  
3580.000000	99.926915  
3579.000000	99.922534  
3578.000000	99.917395  
3577.000000	99.911893  
3576.000000	99.908045  
3575.000000	99.908074  
3574.000000	99.912499  
3573.000000	99.919509  
3572.000000	99.926298  
3571.000000	99.930372  
3570.000000	99.929988  
3569.000000	99.924910  
3568.000000	99.917769  
3567.000000	99.913510  
3566.000000	99.915661  
3565.000000	99.923176  
3564.000000	99.931365  
3563.000000	99.935158  
3562.000000	99.932390  
3561.000000	99.925020  
3560.000000	99.917485  
3559.000000	99.913155  
3558.000000	99.912339  
3557.000000	99.913161  
3556.000000	99.913744  
3555.000000	99.913468  
3554.000000	99.912995  
3553.000000	99.913335  
3552.000000	99.914559  
3551.000000	99.915661  
3550.000000	99.915736  
3549.000000	99.915053  
3548.000000	99.914825  
3547.000000	99.916169  
3546.000000	99.919269  
3545.000000	99.923196  
3544.000000	99.926191  
3543.000000	99.926417  
3542.000000	99.923175  
3541.000000	99.917763  
3540.000000	99.913090  
3539.000000	99.911877  
3538.000000	99.914491  
3537.000000	99.918361  
3536.000000	99.919741  
3535.000000	99.916911  
3534.000000	99.911658  
3533.000000	99.907750  
3532.000000	99.907839  
3531.000000	99.911623  
3530.000000	99.916553  
3529.000000	99.920170  
3528.000000	99.921889  
3527.000000	99.922792  
3526.000000	99.923891  
3525.000000	99.924793  
3524.000000	99.924141  
3523.000000	99.921307  
3522.000000	99.917258  
3521.000000	99.913594  
3520.000000	99.911119  
3519.000000	99.909862  
3518.000000	99.909829  
3517.000000	99.911170  
3516.000000	99.913694  
3515.000000	99.916988  
3514.000000	99.920852  
3513.000000	99.924978  
3512.000000	99.928084  
3511.000000	99.928249  
3510.000000	99.924976  
3509.000000	99.920502  
3508.000000	99.918009  
3507.000000	99.918292  
3506.000000	99.918765  
3505.000000	99.915924  
3504.000000	99.908892  
3503.000000	99.900981  
3502.000000	99.897579  
3501.000000	99.901886  
3500.000000	99.911932  
3499.000000	99.921555  
3498.000000	99.924731  
3497.000000	99.920110  
3496.000000	99.912026  
3495.000000	99.906694  
3494.000000	99.907026  
3493.000000	99.910806  
3492.000000	99.913538  
3491.000000	99.912684  
3490.000000	99.909461  
3489.000000	99.907243  
3488.000000	99.908502  
3487.000000	99.912881  
3486.000000	99.917666  
3485.000000	99.920125  
3484.000000	99.919755  
3483.000000	99.918538  
3482.000000	99.918619  
3481.000000	99.919630  
3480.000000	99.919065  
3479.000000	99.915541  
3478.000000	99.910705  
3477.000000	99.907124  
3476.000000	99.905105  
3475.000000	99.902817  
3474.000000	99.899574  
3473.000000	99.897429  
3472.000000	99.898714  
3471.000000	99.902959  
3470.000000	99.907313  
3469.000000	99.909647  
3468.000000	99.910206  
3467.000000	99.910178  
3466.000000	99.909550  
3465.000000	99.907130  
3464.000000	99.902383  
3463.000000	99.896580  
3462.000000	99.891851  
3461.000000	99.889285  
3460.000000	99.888291  
3459.000000	99.887853  
3458.000000	99.888005  
3457.000000	99.889581  
3456.000000	99.892568  
3455.000000	99.895454  
3454.000000	99.896574  
3453.000000	99.895733  
3452.000000	99.893946  
3451.000000	99.892044  
3450.000000	99.890334  
3449.000000	99.889322  
3448.000000	99.889727  
3447.000000	99.891436  
3446.000000	99.893355  
3445.000000	99.894727  
3444.000000	99.895813  
3443.000000	99.896856  
3442.000000	99.897215  
3441.000000	99.896302  
3440.000000	99.894921  
3439.000000	99.894700  
3438.000000	99.896042  
3437.000000	99.897377  
3436.000000	99.896883  
3435.000000	99.894714  
3434.000000	99.892995  
3433.000000	99.893550  
3432.000000	99.895875  
3431.000000	99.897602  
3430.000000	99.896846  
3429.000000	99.893688  
3428.000000	99.889652  
3427.000000	99.886411  
3426.000000	99.885158  
3425.000000	99.886319  
3424.000000	99.889125  
3423.000000	99.891856  
3422.000000	99.893180  
3421.000000	99.893152  
3420.000000	99.892585  
3419.000000	99.891954  
3418.000000	99.891387  
3417.000000	99.891116  
3416.000000	99.890995  
3415.000000	99.889914  
3414.000000	99.886799  
3413.000000	99.882394  
3412.000000	99.879246  
3411.000000	99.879533  
3410.000000	99.883254  
3409.000000	99.888458  
3408.000000	99.892531  
3407.000000	99.893340  
3406.000000	99.890196  
3405.000000	99.884551  
3404.000000	99.879482  
3403.000000	99.877776  
3402.000000	99.880033  
3401.000000	99.884517  
3400.000000	99.888776  
3399.000000	99.891502  
3398.000000	99.893132  
3397.000000	99.894806  
3396.000000	99.896827  
3395.000000	99.898291  
3394.000000	99.898278  
3393.000000	99.897018  
3392.000000	99.895497  
3391.000000	99.894161  
3390.000000	99.892619  
3389.000000	99.890620  
3388.000000	99.888674  
3387.000000	99.887390  
3386.000000	99.886561  
3385.000000	99.885400  
3384.000000	99.883646  
3383.000000	99.882215  
3382.000000	99.882488  
3381.000000	99.884802  
3380.000000	99.887600  
3379.000000	99.888399  
3378.000000	99.886067  
3377.000000	99.882156  
3376.000000	99.879777  
3375.000000	99.881136  
3374.000000	99.886273  
3373.000000	99.893671  
3372.000000	99.901320  
3371.000000	99.907284  
3370.000000	99.910305  
3369.000000	99.910656  
3368.000000	99.909941  
3367.000000	99.909343  
3366.000000	99.908222  
3365.000000	99.905052  
3364.000000	99.899665  
3363.000000	99.893958  
3362.000000	99.890238  
3361.000000	99.889199  
3360.000000	99.889681  
3359.000000	99.890184  
3358.000000	99.890430  
3357.000000	99.891365  
3356.000000	99.893692  
3355.000000	99.896568  
3354.000000	99.898193  
3353.000000	99.897785  
3352.000000	99.896566  
3351.000000	99.896527  
3350.000000	99.898558  
3349.000000	99.902199  
3348.000000	99.906724  
3347.000000	99.911559  
3346.000000	99.915637  
3345.000000	99.917419  
3344.000000	99.916195  
3343.000000	99.912943  
3342.000000	99.909363  
3341.000000	99.906385  
3340.000000	99.904125  
3339.000000	99.902785  
3338.000000	99.902612  
3337.000000	99.902899  
3336.000000	99.902150  
3335.000000	99.899982  
3334.000000	99.898284  
3333.000000	99.899542  
3332.000000	99.903900  
3331.000000	99.908522  
3330.000000	99.910276  
3329.000000	99.908869  
3328.000000	99.907070  
3327.000000	99.907851  
3326.000000	99.911464  
3325.000000	99.915422  
3324.000000	99.917291  
3323.000000	99.917261  
3322.000000	99.917542  
3321.000000	99.919214  
3320.000000	99.920367  
3319.000000	99.918137  
3318.000000	99.912445  
3317.000000	99.906837  
3316.000000	99.905250  
3315.000000	99.908440  
3314.000000	99.913859  
3313.000000	99.918410  
3312.000000	99.920672  
3311.000000	99.920909  
3310.000000	99.920039  
3309.000000	99.919093  
3308.000000	99.919148  
3307.000000	99.920934  
3306.000000	99.924065  
3305.000000	99.926742  
3304.000000	99.926714  
3303.000000	99.923162  
3302.000000	99.917847  
3301.000000	99.914074  
3300.000000	99.914153  
3299.000000	99.917898  
3298.000000	99.923404  
3297.000000	99.928751  
3296.000000	99.932742  
3295.000000	99.934690  
3294.000000	99.934458  
3293.000000	99.932807  
3292.000000	99.931138  
3291.000000	99.930500  
3290.000000	99.930862  
3289.000000	99.931357  
3288.000000	99.931138  
3287.000000	99.930152  
3286.000000	99.929223  
3285.000000	99.929219  
3284.000000	99.930019  
3283.000000	99.930623  
3282.000000	99.930432  
3281.000000	99.929909  
3280.000000	99.929605  
3279.000000	99.929104  
3278.000000	99.927697  
3277.000000	99.925908  
3276.000000	99.925474  
3275.000000	99.927570  
3274.000000	99.931465  
3273.000000	99.934928  
3272.000000	99.935585  
3271.000000	99.932171  
3270.000000	99.925488  
3269.000000	99.918506  
3268.000000	99.914829  
3267.000000	99.916299  
3266.000000	99.921975  
3265.000000	99.929384  
3264.000000	99.936502  
3263.000000	99.942575  
3262.000000	99.947583  
3261.000000	99.951304  
3260.000000	99.952831  
3259.000000	99.951007  
3258.000000	99.945585  
3257.000000	99.938043  
3256.000000	99.930883  
3255.000000	99.926104  
3254.000000	99.924607  
3253.000000	99.926708  
3252.000000	99.932154  
3251.000000	99.939290  
3250.000000	99.945230  
3249.000000	99.947837  
3248.000000	99.947312  
3247.000000	99.945246  
3246.000000	99.942512  
3245.000000	99.938945  
3244.000000	99.935053  
3243.000000	99.932991  
3242.000000	99.935074  
3241.000000	99.941356  
3240.000000	99.948908  
3239.000000	99.953706  
3238.000000	99.953686  
3237.000000	99.950360  
3236.000000	99.947345  
3235.000000	99.947024  
3234.000000	99.948760  
3233.000000	99.950472  
3232.000000	99.951420  
3231.000000	99.952692  
3230.000000	99.955120  
3229.000000	99.957590  
3228.000000	99.957831  
3227.000000	99.954498  
3226.000000	99.948307  
3225.000000	99.941606  
3224.000000	99.937080  
3223.000000	99.936385  
3222.000000	99.939419  
3221.000000	99.944725  
3220.000000	99.950627  
3219.000000	99.955790  
3218.000000	99.958923  
3217.000000	99.958941  
3216.000000	99.956129  
3215.000000	99.952668  
3214.000000	99.950979  
3213.000000	99.951409  
3212.000000	99.952211  
3211.000000	99.951969  
3210.000000	99.951388  
3209.000000	99.952211  
3208.000000	99.954885  
3207.000000	99.958050  
3206.000000	99.960331  
3205.000000	99.961947  
3204.000000	99.964200  
3203.000000	99.967738  
3202.000000	99.971803  
3201.000000	99.975100  
3200.000000	99.976845  
3199.000000	99.976806  
3198.000000	99.975026  
3197.000000	99.972316  
3196.000000	99.970792  
3195.000000	99.972662  
3194.000000	99.977615  
3193.000000	99.981997  
3192.000000	99.981724  
3191.000000	99.976397  
3190.000000	99.970001  
3189.000000	99.967310  
3188.000000	99.969976  
3187.000000	99.975970  
3186.000000	99.981779  
3185.000000	99.984523  
3184.000000	99.982857  
3183.000000	99.977304  
3182.000000	99.970077  
3181.000000	99.963897  
3180.000000	99.960414  
3179.000000	99.959648  
3178.000000	99.960521  
3177.000000	99.961438  
3176.000000	99.960791  
3175.000000	99.958267  
3174.000000	99.956064  
3173.000000	99.957637  
3172.000000	99.964037  
3171.000000	99.971944  
3170.000000	99.976459  
3169.000000	99.975956  
3168.000000	99.973416  
3167.000000	99.972913  
3166.000000	99.975672  
3165.000000	99.979868  
3164.000000	99.983296  
3163.000000	99.985266  
3162.000000	99.986234  
3161.000000	99.986721  
3160.000000	99.987055  
3159.000000	99.987634  
3158.000000	99.988723  
3157.000000	99.989923  
3156.000000	99.990297  
3155.000000	99.989358  
3154.000000	99.987835  
3153.000000	99.987078  
3152.000000	99.987572  
3151.000000	99.988259  
3150.000000	99.987564  
3149.000000	99.985110  
3148.000000	99.982380  
3147.000000	99.981647  
3146.000000	99.984011  
3145.000000	99.988139  
3144.000000	99.991131  
3143.000000	99.991253  
3142.000000	99.989921  
3141.000000	99.990286  
3140.000000	99.993505  
3139.000000	99.997120  
3138.000000	99.997796  
3137.000000	99.995185  
3136.000000	99.992182  
3135.000000	99.991532  
3134.000000	99.993199  
3133.000000	99.995232  
3132.000000	99.996125  
3131.000000	99.995577  
3130.000000	99.993684  
3129.000000	99.990628  
3128.000000	99.987292  
3127.000000	99.985272  
3126.000000	99.985709  
3125.000000	99.988276  
3124.000000	99.991564  
3123.000000	99.994403  
3122.000000	99.996747  
3121.000000	99.999430  
3120.000000	100.003164 
3119.000000	100.007623 
3118.000000	100.011285 
3117.000000	100.012310 
3116.000000	100.010062 
3115.000000	100.005880 
3114.000000	100.001912 
3113.000000	99.998985  
3112.000000	99.996093  
3111.000000	99.992453  
3110.000000	99.989434  
3109.000000	99.989316  
3108.000000	99.992069  
3107.000000	99.994605  
3106.000000	99.994016  
3105.000000	99.990791  
3104.000000	99.988107  
3103.000000	99.988693  
3102.000000	99.993188  
3101.000000	100.000537 
3100.000000	100.008411 
3099.000000	100.013612 
3098.000000	100.013935 
3097.000000	100.010407 
3096.000000	100.006790 
3095.000000	100.006176 
3094.000000	100.008602 
3093.000000	100.012156 
3092.000000	100.015260 
3091.000000	100.017109 
3090.000000	100.016967 
3089.000000	100.014625 
3088.000000	100.011654 
3087.000000	100.010951 
3086.000000	100.014194 
3085.000000	100.019975 
3084.000000	100.024967 
3083.000000	100.026941 
3082.000000	100.026416 
3081.000000	100.025441 
3080.000000	100.025164 
3079.000000	100.024853 
3078.000000	100.023004 
3077.000000	100.018979 
3076.000000	100.013649 
3075.000000	100.008909 
3074.000000	100.006621 
3073.000000	100.007534 
3072.000000	100.010868 
3071.000000	100.015127 
3070.000000	100.019246 
3069.000000	100.022478 
3068.000000	100.023399 
3067.000000	100.020396 
3066.000000	100.013945 
3065.000000	100.007404 
3064.000000	100.004160 
3063.000000	100.004298 
3062.000000	100.005221 
3061.000000	100.005375 
3060.000000	100.006062 
3059.000000	100.009239 
3058.000000	100.014539 
3057.000000	100.019214 
3056.000000	100.020726 
3055.000000	100.019039 
3054.000000	100.016481 
3053.000000	100.015586 
3052.000000	100.016926 
3051.000000	100.018940 
3050.000000	100.019828 
3049.000000	100.019139 
3048.000000	100.017237 
3047.000000	100.013932 
3046.000000	100.008847 
3045.000000	100.003091 
3044.000000	99.999285  
3043.000000	99.999103  
3042.000000	100.001241 
3041.000000	100.002476 
3040.000000	100.000705 
3039.000000	99.996750  
3038.000000	99.993349  
3037.000000	99.992618  
3036.000000	99.994326  
3035.000000	99.996364  
3034.000000	99.996726  
3033.000000	99.994894  
3032.000000	99.991388  
3031.000000	99.986540  
3030.000000	99.980302  
3029.000000	99.973008  
3028.000000	99.965564  
3027.000000	99.958761  
3026.000000	99.952813  
3025.000000	99.947539  
3024.000000	99.942376  
3023.000000	99.936173  
3022.000000	99.927800  
3021.000000	99.917468  
3020.000000	99.907150  
3019.000000	99.899308  
3018.000000	99.895245  
3017.000000	99.894457  
3016.000000	99.894903  
3015.000000	99.893763  
3014.000000	99.888647  
3013.000000	99.878772  
3012.000000	99.864987  
3011.000000	99.848706  
3010.000000	99.831267  
3009.000000	99.814434  
3008.000000	99.800724  
3007.000000	99.792302  
3006.000000	99.789257  
3005.000000	99.788987  
3004.000000	99.787315  
3003.000000	99.780669  
3002.000000	99.768244  
3001.000000	99.752820  
3000.000000	99.739082  
2999.000000	99.730171  
2998.000000	99.725534  
2997.000000	99.722345  
2996.000000	99.718772  
2995.000000	99.714892  
2994.000000	99.710069  
2993.000000	99.700885  
2992.000000	99.683783  
2991.000000	99.660231  
2990.000000	99.637656  
2989.000000	99.623579  
2988.000000	99.619066  
2987.000000	99.619218  
2986.000000	99.619805  
2985.000000	99.621625  
2984.000000	99.627681  
2983.000000	99.637792  
2982.000000	99.647788  
2981.000000	99.653540  
2980.000000	99.654414  
2979.000000	99.652653  
2978.000000	99.650614  
2977.000000	99.649075  
2976.000000	99.647447  
2975.000000	99.644929  
2974.000000	99.641518  
2973.000000	99.638036  
2972.000000	99.635155  
2971.000000	99.632695  
2970.000000	99.630292  
2969.000000	99.628557  
2968.000000	99.629005  
2967.000000	99.632810  
2966.000000	99.639970  
2965.000000	99.649502  
2964.000000	99.659879  
2963.000000	99.669418  
2962.000000	99.676944  
2961.000000	99.682330  
2960.000000	99.686034  
2959.000000	99.688361  
2958.000000	99.689869  
2957.000000	99.692189  
2956.000000	99.697039  
2955.000000	99.703857  
2954.000000	99.709644  
2953.000000	99.712451  
2952.000000	99.714473  
2951.000000	99.720137  
2950.000000	99.730709  
2949.000000	99.741954  
2948.000000	99.748134  
2947.000000	99.747867  
2946.000000	99.745111  
2945.000000	99.744489  
2944.000000	99.746853  
2943.000000	99.749822  
2942.000000	99.751312  
2941.000000	99.750986  
2940.000000	99.748743  
2939.000000	99.743792  
2938.000000	99.736094  
2937.000000	99.727610  
2936.000000	99.721042  
2935.000000	99.717708  
2934.000000	99.717120  
2933.000000	99.717858  
2932.000000	99.718082  
2931.000000	99.715811  
2930.000000	99.709897  
2929.000000	99.700913  
2928.000000	99.690787  
2927.000000	99.681766  
2926.000000	99.675769  
2925.000000	99.673665  
2924.000000	99.674504  
2923.000000	99.676270  
2922.000000	99.678246  
2921.000000	99.681854  
2920.000000	99.688218  
2919.000000	99.695830  
2918.000000	99.701933  
2917.000000	99.705565  
2916.000000	99.707858  
2915.000000	99.709852  
2914.000000	99.711643  
2913.000000	99.713479  
2912.000000	99.715910  
2911.000000	99.718464  
2910.000000	99.719624  
2909.000000	99.718657  
2908.000000	99.716414  
2907.000000	99.713926  
2906.000000	99.711179  
2905.000000	99.707664  
2904.000000	99.703132  
2903.000000	99.697601  
2902.000000	99.691757  
2901.000000	99.688171  
2900.000000	99.690525  
2899.000000	99.700150  
2898.000000	99.713751  
2897.000000	99.725561  
2896.000000	99.732054  
2895.000000	99.734360  
2894.000000	99.736432  
2893.000000	99.741206  
2892.000000	99.748230  
2891.000000	99.754530  
2890.000000	99.757723  
2889.000000	99.758272  
2888.000000	99.758543  
2887.000000	99.760071  
2886.000000	99.762584  
2885.000000	99.765509  
2884.000000	99.769185  
2883.000000	99.774065  
2882.000000	99.779726  
2881.000000	99.785571  
2880.000000	99.792040  
2879.000000	99.800375  
2878.000000	99.811262  
2877.000000	99.823886  
2876.000000	99.835891  
2875.000000	99.844144  
2874.000000	99.846486  
2873.000000	99.843703  
2872.000000	99.839523  
2871.000000	99.837952  
2870.000000	99.840515  
2869.000000	99.846070  
2868.000000	99.852773  
2867.000000	99.859734  
2866.000000	99.867250  
2865.000000	99.876057  
2864.000000	99.886128  
2863.000000	99.895689  
2862.000000	99.901790  
2861.000000	99.902715  
2860.000000	99.900051  
2859.000000	99.897778  
2858.000000	99.898880  
2857.000000	99.902958  
2856.000000	99.907271  
2855.000000	99.910014  
2854.000000	99.912271  
2853.000000	99.916543  
2852.000000	99.923751  
2851.000000	99.932408  
2850.000000	99.940970  
2849.000000	99.949963  
2848.000000	99.960759  
2847.000000	99.972716  
2846.000000	99.982808  
2845.000000	99.988339  
2844.000000	99.989350  
2843.000000	99.988391  
2842.000000	99.988830  
2841.000000	99.993256  
2840.000000	100.001971 
2839.000000	100.012134 
2838.000000	100.019235 
2837.000000	100.020538 
2836.000000	100.017179 
2835.000000	100.012924 
2834.000000	100.011394 
2833.000000	100.014337 
2832.000000	100.021091 
2831.000000	100.028777 
2830.000000	100.033904 
2829.000000	100.035133 
2828.000000	100.034492 
2827.000000	100.035184 
2826.000000	100.038342 
2825.000000	100.042388 
2824.000000	100.045221 
2823.000000	100.046281 
2822.000000	100.046540 
2821.000000	100.047157 
2820.000000	100.048412 
2819.000000	100.049835 
2818.000000	100.051264 
2817.000000	100.053465 
2816.000000	100.057182 
2815.000000	100.061581 
2814.000000	100.064466 
2813.000000	100.064423 
2812.000000	100.062085 
2811.000000	100.058849 
2810.000000	100.055216 
2809.000000	100.051229 
2808.000000	100.047880 
2807.000000	100.046807 
2806.000000	100.048561 
2805.000000	100.051990 
2804.000000	100.055567 
2803.000000	100.058740 
2802.000000	100.061851 
2801.000000	100.065109 
2800.000000	100.067919 
2799.000000	100.069155 
2798.000000	100.068210 
2797.000000	100.065829 
2796.000000	100.063636 
2795.000000	100.062740 
2794.000000	100.063107 
2793.000000	100.064289 
2792.000000	100.065991 
2791.000000	100.067612 
2790.000000	100.068172 
2789.000000	100.067531 
2788.000000	100.067121 
2787.000000	100.068495 
2786.000000	100.071469 
2785.000000	100.074555 
2784.000000	100.076868 
2783.000000	100.078493 
2782.000000	100.079230 
2781.000000	100.078349 
2780.000000	100.076045 
2779.000000	100.074064 
2778.000000	100.074192 
2777.000000	100.076584 
2776.000000	100.079851 
2775.000000	100.082245 
2774.000000	100.082519 
2773.000000	100.080457 
2772.000000	100.077208 
2771.000000	100.074739 
2770.000000	100.074465 
2769.000000	100.076545 
2768.000000	100.080493 
2767.000000	100.085691 
2766.000000	100.090946 
2765.000000	100.094393 
2764.000000	100.094830 
2763.000000	100.092932 
2762.000000	100.090551 
2761.000000	100.089092 
2760.000000	100.089038 
2759.000000	100.090416 
2758.000000	100.092683 
2757.000000	100.094535 
2756.000000	100.095061 
2755.000000	100.095103 
2754.000000	100.096193 
2753.000000	100.097929 
2752.000000	100.097843 
2751.000000	100.094645 
2750.000000	100.090291 
2749.000000	100.087611 
2748.000000	100.086773 
2747.000000	100.085646 
2746.000000	100.083199 
2745.000000	100.080814 
2744.000000	100.080040 
2743.000000	100.080599 
2742.000000	100.081346 
2741.000000	100.082123 
2740.000000	100.083751 
2739.000000	100.086787 
2738.000000	100.090994 
2737.000000	100.095638 
2736.000000	100.099642 
2735.000000	100.101742 
2734.000000	100.101160 
2733.000000	100.098168 
2732.000000	100.093865 
2731.000000	100.089659 
2730.000000	100.087055 
2729.000000	100.087255 
2728.000000	100.090289 
2727.000000	100.094722 
2726.000000	100.098650 
2725.000000	100.101015 
2724.000000	100.101965 
2723.000000	100.102390 
2722.000000	100.103317 
2721.000000	100.105205 
2720.000000	100.107367 
2719.000000	100.108360 
2718.000000	100.107327 
2717.000000	100.104818 
2716.000000	100.102332 
2715.000000	100.101521 
2714.000000	100.103602 
2713.000000	100.108347 
2712.000000	100.113242 
2711.000000	100.114958 
2710.000000	100.112779 
2709.000000	100.109729 
2708.000000	100.109134 
2707.000000	100.110711 
2706.000000	100.111405 
2705.000000	100.109713 
2704.000000	100.107523 
2703.000000	100.107420 
2702.000000	100.109520 
2701.000000	100.111701 
2700.000000	100.112229 
2699.000000	100.111344 
2698.000000	100.110360 
2697.000000	100.109740 
2696.000000	100.108586 
2695.000000	100.106375 
2694.000000	100.104710 
2693.000000	100.105974 
2692.000000	100.109828 
2691.000000	100.112501 
2690.000000	100.110942 
2689.000000	100.106794 
2688.000000	100.104574 
2687.000000	100.106377 
2686.000000	100.110132 
2685.000000	100.112991 
2684.000000	100.114534 
2683.000000	100.116058 
2682.000000	100.118264 
2681.000000	100.120631 
2680.000000	100.122153 
2679.000000	100.121943 
2678.000000	100.119865 
2677.000000	100.117182 
2676.000000	100.115844 
2675.000000	100.116412 
2674.000000	100.117244 
2673.000000	100.116276 
2672.000000	100.113174 
2671.000000	100.109223 
2670.000000	100.105590 
2669.000000	100.102402 
2668.000000	100.099447 
2667.000000	100.097284 
2666.000000	100.097306 
2665.000000	100.100494 
2664.000000	100.106040 
2663.000000	100.111649 
2662.000000	100.115639 
2661.000000	100.118365 
2660.000000	100.120944 
2659.000000	100.123083 
2658.000000	100.123290 
2657.000000	100.121231 
2656.000000	100.118760 
2655.000000	100.118194 
2654.000000	100.120107 
2653.000000	100.122875 
2652.000000	100.123904 
2651.000000	100.121616 
2650.000000	100.117162 
2649.000000	100.113916 
2648.000000	100.114172 
2647.000000	100.116518 
2646.000000	100.117725 
2645.000000	100.116933 
2644.000000	100.116176 
2643.000000	100.116713 
2642.000000	100.117139 
2641.000000	100.116116 
2640.000000	100.115038 
2639.000000	100.116333 
2638.000000	100.120247 
2637.000000	100.124669 
2636.000000	100.127362 
2635.000000	100.127298 
2634.000000	100.124757 
2633.000000	100.121347 
2632.000000	100.119276 
2631.000000	100.119487 
2630.000000	100.120937 
2629.000000	100.122285 
2628.000000	100.123370 
2627.000000	100.124415 
2626.000000	100.125181 
2625.000000	100.126103 
2624.000000	100.128827 
2623.000000	100.133854 
2622.000000	100.138592 
2621.000000	100.139748 
2620.000000	100.137272 
2619.000000	100.134173 
2618.000000	100.132681 
2617.000000	100.132249 
2616.000000	100.131369 
2615.000000	100.129738 
2614.000000	100.128247 
2613.000000	100.128003 
2612.000000	100.129731 
2611.000000	100.133293 
2610.000000	100.137485 
2609.000000	100.140884 
2608.000000	100.143010 
2607.000000	100.144385 
2606.000000	100.145814 
2605.000000	100.147991 
2604.000000	100.150984 
2603.000000	100.153260 
2602.000000	100.152225 
2601.000000	100.147207 
2600.000000	100.141475 
2599.000000	100.139739 
2598.000000	100.143562 
2597.000000	100.150111 
2596.000000	100.154952 
2595.000000	100.154864 
2594.000000	100.148812 
2593.000000	100.138630 
2592.000000	100.129251 
2591.000000	100.126066 
2590.000000	100.130497 
2589.000000	100.138867 
2588.000000	100.146189 
2587.000000	100.150121 
2586.000000	100.150750 
2585.000000	100.148253 
2584.000000	100.142684 
2583.000000	100.135627 
2582.000000	100.130211 
2581.000000	100.128679 
2580.000000	100.130401 
2579.000000	100.132621 
2578.000000	100.132961 
2577.000000	100.131295 
2576.000000	100.129641 
2575.000000	100.130331 
2574.000000	100.133819 
2573.000000	100.137952 
2572.000000	100.139564 
2571.000000	100.137086 
2570.000000	100.131702 
2569.000000	100.126169 
2568.000000	100.122825 
2567.000000	100.122616 
2566.000000	100.125135 
2565.000000	100.128840 
2564.000000	100.131747 
2563.000000	100.133066 
2562.000000	100.134274 
2561.000000	100.137642 
2560.000000	100.143325 
2559.000000	100.148674 
2558.000000	100.150699 
2557.000000	100.148600 
2556.000000	100.143943 
2555.000000	100.139691 
2554.000000	100.139242 
2553.000000	100.144330 
2552.000000	100.152389 
2551.000000	100.157597 
2550.000000	100.156546 
2549.000000	100.151996 
2548.000000	100.149119 
2547.000000	100.149099 
2546.000000	100.148943 
2545.000000	100.146971 
2544.000000	100.145282 
2543.000000	100.146118 
2542.000000	100.148528 
2541.000000	100.150058 
2540.000000	100.149906 
2539.000000	100.148985 
2538.000000	100.148023 
2537.000000	100.146733 
2536.000000	100.144188 
2535.000000	100.139736 
2534.000000	100.134565 
2533.000000	100.132235 
2532.000000	100.135809 
2531.000000	100.144105 
2530.000000	100.152641 
2529.000000	100.158743 
2528.000000	100.163505 
2527.000000	100.168034 
2526.000000	100.170687 
2525.000000	100.170061 
2524.000000	100.168415 
2523.000000	100.169252 
2522.000000	100.172510 
2521.000000	100.174702 
2520.000000	100.173505 
2519.000000	100.170166 
2518.000000	100.167370 
2517.000000	100.166348 
2516.000000	100.166208 
2515.000000	100.165053 
2514.000000	100.161760 
2513.000000	100.157244 
2512.000000	100.153505 
2511.000000	100.151002 
2510.000000	100.148216 
2509.000000	100.144822 
2508.000000	100.143728 
2507.000000	100.147835 
2506.000000	100.155404 
2505.000000	100.160831 
2504.000000	100.160249 
2503.000000	100.154859 
2502.000000	100.148696 
2501.000000	100.144907 
2500.000000	100.144796 
2499.000000	100.148816 
2498.000000	100.156818 
2497.000000	100.167232 
2496.000000	100.176836 
2495.000000	100.182051 
2494.000000	100.181053 
2493.000000	100.174889 
2492.000000	100.166372 
2491.000000	100.157897 
2490.000000	100.150633 
2489.000000	100.145351 
2488.000000	100.142678 
2487.000000	100.142240 
2486.000000	100.143034 
2485.000000	100.145390 
2484.000000	100.151018 
2483.000000	100.159695 
2482.000000	100.167211 
2481.000000	100.168759 
2480.000000	100.164187 
2479.000000	100.158085 
2478.000000	100.154652 
2477.000000	100.154128 
2476.000000	100.154524 
2475.000000	100.154990 
2474.000000	100.156195 
2473.000000	100.158419 
2472.000000	100.160856 
2471.000000	100.162807 
2470.000000	100.164391 
2469.000000	100.165452 
2468.000000	100.164489 
2467.000000	100.159939 
2466.000000	100.152946 
2465.000000	100.147880 
2464.000000	100.148750 
2463.000000	100.154915 
2462.000000	100.161107 
2461.000000	100.162053 
2460.000000	100.156951 
2459.000000	100.149784 
2458.000000	100.146047 
2457.000000	100.148688 
2456.000000	100.155645 
2455.000000	100.160931 
2454.000000	100.159550 
2453.000000	100.152354 
2452.000000	100.145382 
2451.000000	100.143813 
2450.000000	100.147312 
2449.000000	100.151635 
2448.000000	100.153476 
2447.000000	100.152825 
2446.000000	100.151797 
2445.000000	100.152679 
2444.000000	100.156606 
2443.000000	100.162712 
2442.000000	100.168452 
2441.000000	100.171459 
2440.000000	100.171104 
2439.000000	100.168161 
2438.000000	100.163838 
2437.000000	100.159763 
2436.000000	100.157659 
2435.000000	100.157542 
2434.000000	100.156764 
2433.000000	100.152435 
2432.000000	100.144989 
2431.000000	100.138270 
2430.000000	100.135923 
2429.000000	100.138576 
2428.000000	100.144575 
2427.000000	100.152170 
2426.000000	100.159939 
2425.000000	100.165623 
2424.000000	100.166162 
2423.000000	100.160112 
2422.000000	100.150013 
2421.000000	100.141284 
2420.000000	100.137874 
2419.000000	100.139294 
2418.000000	100.142430 
2417.000000	100.145383 
2416.000000	100.148230 
2415.000000	100.150655 
2414.000000	100.151153 
2413.000000	100.149223 
2412.000000	100.146484 
2411.000000	100.144404 
2410.000000	100.142384 
2409.000000	100.139553 
2408.000000	100.137390 
2407.000000	100.138705 
2406.000000	100.144234 
2405.000000	100.151540 
2404.000000	100.157205 
2403.000000	100.159187 
2402.000000	100.157391 
2401.000000	100.153309 
2400.000000	100.149288 
2399.000000	100.147131 
2398.000000	100.146880 
2397.000000	100.147258 
2396.000000	100.147279 
2395.000000	100.146994 
2394.000000	100.146812 
2393.000000	100.146717 
2392.000000	100.146442 
2391.000000	100.146187 
2390.000000	100.146922 
2389.000000	100.149655 
2388.000000	100.154043 
2387.000000	100.158038 
2386.000000	100.159696 
2385.000000	100.159455 
2384.000000	100.159892 
2383.000000	100.162963 
2382.000000	100.168184 
2381.000000	100.173544 
2380.000000	100.176936 
2379.000000	100.176344 
2378.000000	100.170578 
2377.000000	100.161574 
2376.000000	100.154765 
2375.000000	100.154345 
2374.000000	100.158223 
2373.000000	100.160318 
2372.000000	100.158649 
2371.000000	100.158552 
2370.000000	100.165907 
2369.000000	100.178748 
2368.000000	100.188019 
2367.000000	100.186563 
2366.000000	100.176002 
2365.000000	100.164723 
2364.000000	100.160270 
2363.000000	100.163721 
2362.000000	100.169560 
2361.000000	100.171307 
2360.000000	100.167079 
2359.000000	100.159158 
2358.000000	100.150736 
2357.000000	100.143246 
2356.000000	100.137463 
2355.000000	100.134538 
2354.000000	100.133896 
2353.000000	100.133388 
2352.000000	100.132726 
2351.000000	100.136143 
2350.000000	100.147634 
2349.000000	100.165058 
2348.000000	100.181675 
2347.000000	100.189735 
2346.000000	100.185703 
2345.000000	100.172872 
2344.000000	100.159794 
2343.000000	100.154015 
2342.000000	100.156622 
2341.000000	100.164475 
2340.000000	100.171999 
2339.000000	100.174057 
2338.000000	100.168955 
2337.000000	100.159845 
2336.000000	100.151624 
2335.000000	100.147667 
2334.000000	100.148531 
2333.000000	100.152860 
2332.000000	100.156642 
2331.000000	100.155121 
2330.000000	100.146843 
2329.000000	100.135803 
2328.000000	100.129461 
2327.000000	100.131472 
2326.000000	100.139641 
2325.000000	100.147573 
2324.000000	100.150144 
2323.000000	100.147623 
2322.000000	100.144699 
2321.000000	100.146518 
2320.000000	100.153279 
2319.000000	100.161194 
2318.000000	100.166213 
2317.000000	100.167323 
2316.000000	100.165397 
2315.000000	100.161831 
2314.000000	100.158713 
2313.000000	100.158617 
2312.000000	100.162546 
2311.000000	100.168830 
2310.000000	100.175526 
2309.000000	100.182135 
2308.000000	100.188091 
2307.000000	100.190863 
2306.000000	100.188296 
2305.000000	100.181666 
2304.000000	100.174228 
2303.000000	100.167441 
2302.000000	100.161051 
2301.000000	100.156131 
2300.000000	100.154614 
2299.000000	100.155517 
2298.000000	100.155352 
2297.000000	100.153423 
2296.000000	100.153922 
2295.000000	100.160208 
2294.000000	100.169532 
2293.000000	100.175541 
2292.000000	100.175245 
2291.000000	100.171071 
2290.000000	100.166998 
2289.000000	100.164707 
2288.000000	100.163650 
2287.000000	100.163124 
2286.000000	100.163384 
2285.000000	100.165006 
2284.000000	100.167494 
2283.000000	100.168942 
2282.000000	100.167480 
2281.000000	100.163067 
2280.000000	100.157627 
2279.000000	100.154125 
2278.000000	100.155854 
2277.000000	100.164853 
2276.000000	100.178990 
2275.000000	100.191840 
2274.000000	100.197853 
2273.000000	100.196863 
2272.000000	100.191455 
2271.000000	100.181894 
2270.000000	100.168164 
2269.000000	100.156020 
2268.000000	100.154843 
2267.000000	100.167320 
2266.000000	100.185266 
2265.000000	100.197803 
2264.000000	100.200684 
2263.000000	100.196417 
2262.000000	100.190062 
2261.000000	100.187450 
2260.000000	100.192854 
2259.000000	100.204023 
2258.000000	100.212046 
2257.000000	100.210020 
2256.000000	100.200107 
2255.000000	100.189328 
2254.000000	100.181028 
2253.000000	100.174274 
2252.000000	100.169329 
2251.000000	100.169119 
2250.000000	100.175624 
2249.000000	100.187912 
2248.000000	100.203063 
2247.000000	100.216543 
2246.000000	100.222712 
2245.000000	100.218072 
2244.000000	100.204507 
2243.000000	100.187724 
2242.000000	100.173160 
2241.000000	100.164274 
2240.000000	100.162507 
2239.000000	100.166150 
2238.000000	100.170113 
2237.000000	100.169242 
2236.000000	100.162141 
2235.000000	100.151307 
2234.000000	100.141051 
2233.000000	100.136154 
2232.000000	100.139957 
2231.000000	100.151565 
2230.000000	100.166359 
2229.000000	100.180942 
2228.000000	100.196034 
2227.000000	100.212787 
2226.000000	100.228142 
2225.000000	100.236372 
2224.000000	100.234569 
2223.000000	100.225346 
2222.000000	100.215396 
2221.000000	100.211939 
2220.000000	100.217951 
2219.000000	100.229332 
2218.000000	100.238859 
2217.000000	100.243957 
2216.000000	100.248241 
2215.000000	100.254589 
2214.000000	100.260196 
2213.000000	100.260169 
2212.000000	100.252987 
2211.000000	100.241106 
2210.000000	100.229739 
2209.000000	100.225947 
2208.000000	100.233617 
2207.000000	100.246699 
2206.000000	100.252205 
2205.000000	100.243427 
2204.000000	100.226653 
2203.000000	100.212490 
2202.000000	100.205752 
2201.000000	100.206417 
2200.000000	100.213401 
2199.000000	100.221928 
2198.000000	100.223155 
2197.000000	100.213955 
2196.000000	100.203651 
2195.000000	100.204327 
2194.000000	100.217192 
2193.000000	100.234013 
2192.000000	100.248135 
2191.000000	100.257214 
2190.000000	100.258528 
2189.000000	100.250704 
2188.000000	100.239691 
2187.000000	100.235567 
2186.000000	100.242836 
2185.000000	100.258407 
2184.000000	100.277116 
2183.000000	100.293384 
2182.000000	100.300143 
2181.000000	100.294574 
2180.000000	100.284256 
2179.000000	100.279594 
2178.000000	100.280532 
2177.000000	100.277746 
2176.000000	100.266388 
2175.000000	100.251420 
2174.000000	100.239042 
2173.000000	100.230298 
2172.000000	100.224473 
2171.000000	100.222278 
2170.000000	100.224060 
2169.000000	100.229998 
2168.000000	100.242633 
2167.000000	100.263587 
2166.000000	100.287144 
2165.000000	100.303409 
2164.000000	100.309718 
2163.000000	100.312868 
2162.000000	100.318581 
2161.000000	100.325119 
2160.000000	100.328591 
2159.000000	100.327580 
2158.000000	100.320509 
2157.000000	100.306301 
2156.000000	100.290025 
2155.000000	100.280236 
2154.000000	100.278457 
2153.000000	100.276730 
2152.000000	100.267271 
2151.000000	100.250706 
2150.000000	100.234421 
2149.000000	100.227106 
2148.000000	100.234160 
2147.000000	100.252312 
2146.000000	100.268047 
2145.000000	100.268001 
2144.000000	100.253474 
2143.000000	100.239053 
2142.000000	100.235140 
2141.000000	100.237747 
2140.000000	100.237704 
2139.000000	100.233079 
2138.000000	100.227379 
2137.000000	100.220912 
2136.000000	100.211276 
2135.000000	100.200765 
2134.000000	100.196812 
2133.000000	100.203614 
2132.000000	100.216363 
2131.000000	100.224560 
2130.000000	100.219809 
2129.000000	100.201877 
2128.000000	100.179371 
2127.000000	100.163277 
2126.000000	100.157835 
2125.000000	100.158425 
2124.000000	100.159529 
2123.000000	100.162479 
2122.000000	100.172052 
2121.000000	100.186849 
2120.000000	100.197894 
2119.000000	100.198144 
2118.000000	100.190101 
2117.000000	100.182133 
2116.000000	100.179599 
2115.000000	100.181836 
2114.000000	100.186022 
2113.000000	100.190464 
2112.000000	100.193852 
2111.000000	100.194230 
2110.000000	100.190778 
2109.000000	100.185825 
2108.000000	100.183230 
2107.000000	100.184081 
2106.000000	100.184433 
2105.000000	100.178072 
2104.000000	100.162576 
2103.000000	100.143403 
2102.000000	100.131469 
2101.000000	100.134732 
2100.000000	100.150889 
2099.000000	100.169220 
2098.000000	100.180603 
2097.000000	100.185037 
2096.000000	100.188195 
2095.000000	100.191571 
2094.000000	100.189193 
2093.000000	100.175498 
2092.000000	100.154338 
2091.000000	100.137621 
2090.000000	100.134740 
2089.000000	100.143820 
2088.000000	100.153610 
2087.000000	100.154138 
2086.000000	100.145396 
2085.000000	100.135843 
2084.000000	100.133234 
2083.000000	100.138061 
2082.000000	100.145976 
2081.000000	100.154087 
2080.000000	100.162598 
2079.000000	100.171584 
2078.000000	100.179762 
2077.000000	100.187411 
2076.000000	100.197464 
2075.000000	100.211377 
2074.000000	100.225504 
2073.000000	100.233874 
2072.000000	100.233993 
2071.000000	100.228258 
2070.000000	100.220508 
2069.000000	100.213214 
2068.000000	100.207495 
2067.000000	100.203740 
2066.000000	100.201665 
2065.000000	100.200716 
2064.000000	100.200900 
2063.000000	100.202829 
2062.000000	100.207089 
2061.000000	100.213863 
2060.000000	100.222711 
2059.000000	100.232231 
2058.000000	100.240291 
2057.000000	100.244947 
2056.000000	100.244870 
2055.000000	100.239266 
2054.000000	100.229043 
2053.000000	100.218657 
2052.000000	100.214967 
2051.000000	100.222444 
2050.000000	100.238961 
2049.000000	100.255963 
2048.000000	100.263420 
2047.000000	100.256374 
2046.000000	100.238620 
2045.000000	100.221108 
2044.000000	100.214835 
2043.000000	100.222838 
2042.000000	100.238834 
2041.000000	100.253836 
2040.000000	100.263594 
2039.000000	100.269388 
2038.000000	100.273450 
2037.000000	100.275733 
2036.000000	100.274749 
2035.000000	100.270492 
2034.000000	100.266458 
2033.000000	100.267836 
2032.000000	100.275539 
2031.000000	100.282488 
2030.000000	100.278827 
2029.000000	100.261772 
2028.000000	100.238509 
2027.000000	100.219372 
2026.000000	100.211428 
2025.000000	100.217983 
2024.000000	100.237826 
2023.000000	100.261786 
2022.000000	100.274524 
2021.000000	100.266137 
2020.000000	100.242722 
2019.000000	100.221917 
2018.000000	100.217433 
2017.000000	100.228371 
2016.000000	100.242455 
2015.000000	100.248441 
2014.000000	100.245087 
2013.000000	100.239788 
2012.000000	100.239917 
2011.000000	100.245774 
2010.000000	100.252378 
2009.000000	100.256656 
2008.000000	100.260016 
2007.000000	100.263890 
2006.000000	100.266747 
2005.000000	100.267304 
2004.000000	100.267041 
2003.000000	100.266852 
2002.000000	100.264124 
2001.000000	100.256114 
2000.000000	100.244342 
1999.000000	100.233021 
1998.000000	100.224603 
1997.000000	100.219293 
1996.000000	100.218048 
1995.000000	100.223645 
1994.000000	100.237749 
1993.000000	100.256809 
1992.000000	100.271472 
1991.000000	100.272510 
1990.000000	100.259442 
1989.000000	100.242792 
1988.000000	100.235609 
1987.000000	100.241287 
1986.000000	100.250725 
1985.000000	100.253057 
1984.000000	100.247931 
1983.000000	100.244984 
1982.000000	100.251795 
1981.000000	100.264501 
1980.000000	100.271258 
1979.000000	100.264674 
1978.000000	100.249919 
1977.000000	100.238864 
1976.000000	100.236181 
1975.000000	100.235710 
1974.000000	100.232523 
1973.000000	100.232728 
1972.000000	100.245524 
1971.000000	100.267725 
1970.000000	100.282869 
1969.000000	100.277668 
1968.000000	100.256097 
1967.000000	100.234753 
1966.000000	100.225921 
1965.000000	100.228413 
1964.000000	100.233332 
1963.000000	100.233559 
1962.000000	100.227205 
1961.000000	100.216391 
1960.000000	100.205684 
1959.000000	100.200684 
1958.000000	100.204916 
1957.000000	100.215936 
1956.000000	100.225710 
1955.000000	100.227429 
1954.000000	100.222077 
1953.000000	100.216209 
1952.000000	100.213124 
1951.000000	100.209267 
1950.000000	100.200738 
1949.000000	100.190083 
1948.000000	100.183069 
1947.000000	100.180420 
1946.000000	100.176667 
1945.000000	100.166972 
1944.000000	100.152500 
1943.000000	100.139439 
1942.000000	100.134122 
1941.000000	100.137744 
1940.000000	100.144841 
1939.000000	100.148539 
1938.000000	100.148319 
1937.000000	100.150907 
1936.000000	100.160895 
1935.000000	100.172713 
1934.000000	100.176689 
1933.000000	100.172103 
1932.000000	100.168569 
1931.000000	100.172976 
1930.000000	100.180653 
1929.000000	100.182608 
1928.000000	100.177133 
1927.000000	100.170334 
1926.000000	100.167734 
1925.000000	100.169557 
1924.000000	100.173080 
1923.000000	100.175978 
1922.000000	100.177092 
1921.000000	100.175686 
1920.000000	100.170623 
1919.000000	100.160673 
1918.000000	100.146859 
1917.000000	100.133983 
1916.000000	100.126549 
1915.000000	100.124189 
1914.000000	100.124312 
1913.000000	100.126786 
1912.000000	100.132874 
1911.000000	100.140443 
1910.000000	100.144053 
1909.000000	100.141788 
1908.000000	100.138723 
1907.000000	100.140954 
1906.000000	100.148652 
1905.000000	100.156887 
1904.000000	100.160772 
1903.000000	100.158069 
1902.000000	100.149543 
1901.000000	100.139077 
1900.000000	100.131389 
1899.000000	100.128287 
1898.000000	100.128478 
1897.000000	100.130850 
1896.000000	100.135421 
1895.000000	100.140325 
1894.000000	100.141573 
1893.000000	100.138198 
1892.000000	100.134287 
1891.000000	100.133765 
1890.000000	100.135354 
1889.000000	100.134874 
1888.000000	100.131334 
1887.000000	100.127351 
1886.000000	100.125230 
1885.000000	100.125671 
1884.000000	100.128417 
1883.000000	100.132123 
1882.000000	100.134798 
1881.000000	100.135880 
1880.000000	100.137014 
1879.000000	100.140126 
1878.000000	100.145606 
1877.000000	100.152603 
1876.000000	100.159806 
1875.000000	100.164815 
1874.000000	100.164204 
1873.000000	100.156537 
1872.000000	100.144687 
1871.000000	100.133816 
1870.000000	100.127317 
1869.000000	100.124551 
1868.000000	100.122538 
1867.000000	100.119495 
1866.000000	100.116406 
1865.000000	100.115598 
1864.000000	100.117142 
1863.000000	100.117323 
1862.000000	100.113090 
1861.000000	100.107853 
1860.000000	100.109455 
1859.000000	100.121005 
1858.000000	100.136637 
1857.000000	100.147847 
1856.000000	100.151706 
1855.000000	100.151195 
1854.000000	100.150039 
1853.000000	100.149370 
1852.000000	100.147768 
1851.000000	100.143811 
1850.000000	100.139208 
1849.000000	100.138537 
1848.000000	100.144372 
1847.000000	100.153288 
1846.000000	100.158836 
1845.000000	100.158016 
1844.000000	100.154603 
1843.000000	100.154490 
1842.000000	100.158453 
1841.000000	100.163030 
1840.000000	100.165124 
1839.000000	100.163429 
1838.000000	100.158382 
1837.000000	100.152298 
1836.000000	100.147908 
1835.000000	100.145841 
1834.000000	100.145011 
1833.000000	100.144465 
1832.000000	100.143300 
1831.000000	100.140421 
1830.000000	100.136544 
1829.000000	100.135503 
1828.000000	100.139867 
1827.000000	100.146756 
1826.000000	100.150953 
1825.000000	100.150931 
1824.000000	100.149942 
1823.000000	100.149605 
1822.000000	100.146339 
1821.000000	100.137735 
1820.000000	100.128453 
1819.000000	100.125887 
1818.000000	100.130876 
1817.000000	100.137153 
1816.000000	100.140057 
1815.000000	100.140958 
1814.000000	100.143056 
1813.000000	100.146988 
1812.000000	100.151747 
1811.000000	100.156995 
1810.000000	100.162250 
1809.000000	100.166112 
1808.000000	100.167451 
1807.000000	100.165550 
1806.000000	100.159918 
1805.000000	100.151661 
1804.000000	100.143498 
1803.000000	100.137104 
1802.000000	100.132036 
1801.000000	100.128076 
1800.000000	100.127325 
1799.000000	100.131608 
1798.000000	100.139248 
1797.000000	100.147336 
1796.000000	100.154565 
1795.000000	100.160061 
1794.000000	100.162159 
1793.000000	100.159751 
1792.000000	100.155285 
1791.000000	100.152893 
1790.000000	100.152684 
1789.000000	100.152531 
1788.000000	100.152696 
1787.000000	100.154681 
1786.000000	100.158016 
1785.000000	100.160757 
1784.000000	100.161940 
1783.000000	100.161244 
1782.000000	100.158208 
1781.000000	100.153173 
1780.000000	100.148034 
1779.000000	100.144603 
1778.000000	100.143043 
1777.000000	100.143443 
1776.000000	100.146333 
1775.000000	100.150648 
1774.000000	100.153720 
1773.000000	100.153432 
1772.000000	100.151389 
1771.000000	100.151805 
1770.000000	100.154448 
1769.000000	100.154962 
1768.000000	100.151907 
1767.000000	100.148158 
1766.000000	100.145859 
1765.000000	100.143853 
1764.000000	100.141315 
1763.000000	100.140375 
1762.000000	100.143162 
1761.000000	100.148166 
1760.000000	100.152424 
1759.000000	100.155198 
1758.000000	100.157758 
1757.000000	100.161125 
1756.000000	100.164147 
1755.000000	100.164971 
1754.000000	100.162958 
1753.000000	100.159100 
1752.000000	100.155595 
1751.000000	100.153865 
1750.000000	100.152871 
1749.000000	100.150734 
1748.000000	100.147654 
1747.000000	100.145561 
1746.000000	100.145173 
1745.000000	100.144580 
1744.000000	100.142392 
1743.000000	100.140562 
1742.000000	100.141325 
1741.000000	100.143323 
1740.000000	100.143722 
1739.000000	100.142767 
1738.000000	100.142866 
1737.000000	100.143173 
1736.000000	100.141799 
1735.000000	100.139381 
1734.000000	100.138501 
1733.000000	100.142304 
1732.000000	100.148986 
1731.000000	100.152486 
1730.000000	100.150417 
1729.000000	100.146293 
1728.000000	100.143833 
1727.000000	100.143721 
1726.000000	100.145091 
1725.000000	100.147724 
1724.000000	100.151322 
1723.000000	100.154161 
1722.000000	100.153971 
1721.000000	100.151263 
1720.000000	100.149782 
1719.000000	100.153307 
1718.000000	100.159164 
1717.000000	100.160320 
1716.000000	100.158285 
1715.000000	100.158465 
1714.000000	100.159301 
1713.000000	100.158185 
1712.000000	100.156399 
1711.000000	100.155452 
1710.000000	100.154722 
1709.000000	100.153784 
1708.000000	100.153932 
1707.000000	100.155899 
1706.000000	100.157136 
1705.000000	100.154723 
1704.000000	100.151144 
1703.000000	100.149128 
1702.000000	100.148772 
1701.000000	100.146848 
1700.000000	100.142511 
1699.000000	100.143875 
1698.000000	100.151243 
1697.000000	100.155907 
1696.000000	100.153887 
1695.000000	100.149272 
1694.000000	100.147414 
1693.000000	100.147594 
1692.000000	100.147409 
1691.000000	100.146923 
1690.000000	100.146722 
1689.000000	100.146606 
1688.000000	100.146758 
1687.000000	100.148376 
1686.000000	100.153753 
1685.000000	100.161407 
1684.000000	100.164681 
1683.000000	100.163476 
1682.000000	100.162338 
1681.000000	100.160918 
1680.000000	100.157251 
1679.000000	100.152780 
1678.000000	100.148980 
1677.000000	100.145827 
1676.000000	100.142150 
1675.000000	100.139547 
1674.000000	100.142490 
1673.000000	100.150967 
1672.000000	100.159742 
1671.000000	100.164441 
1670.000000	100.163476 
1669.000000	100.159192 
1668.000000	100.155585 
1667.000000	100.153978 
1666.000000	100.153323 
1665.000000	100.152267 
1664.000000	100.150163 
1663.000000	100.147055 
1662.000000	100.144631 
1661.000000	100.145520 
1660.000000	100.149231 
1659.000000	100.153531 
1658.000000	100.155880 
1657.000000	100.154896 
1656.000000	100.149738 
1655.000000	100.144734 
1654.000000	100.146051 
1653.000000	100.150043 
1652.000000	100.153712 
1651.000000	100.159324 
1650.000000	100.163761 
1649.000000	100.162544 
1648.000000	100.157733 
1647.000000	100.151930 
1646.000000	100.148301 
1645.000000	100.148700 
1644.000000	100.153148 
1643.000000	100.158356 
1642.000000	100.161008 
1641.000000	100.159297 
1640.000000	100.154146 
1639.000000	100.148625 
1638.000000	100.145964 
1637.000000	100.148581 
1636.000000	100.155134 
1635.000000	100.160438 
1634.000000	100.162325 
1633.000000	100.161076 
1632.000000	100.156173 
1631.000000	100.148404 
1630.000000	100.140469 
1629.000000	100.135769 
1628.000000	100.135346 
1627.000000	100.137023 
1626.000000	100.138601 
1625.000000	100.140096 
1624.000000	100.141931 
1623.000000	100.143043 
1622.000000	100.143217 
1621.000000	100.144033 
1620.000000	100.145170 
1619.000000	100.144917 
1618.000000	100.143473 
1617.000000	100.143650 
1616.000000	100.147952 
1615.000000	100.154573 
1614.000000	100.159641 
1613.000000	100.161992 
1612.000000	100.163253 
1611.000000	100.164287 
1610.000000	100.164262 
1609.000000	100.162920 
1608.000000	100.161198 
1607.000000	100.159714 
1606.000000	100.158877 
1605.000000	100.159020 
1604.000000	100.159561 
1603.000000	100.159654 
1602.000000	100.159535 
1601.000000	100.160410 
1600.000000	100.162925 
1599.000000	100.166704 
1598.000000	100.171291 
1597.000000	100.176085 
1596.000000	100.179493 
1595.000000	100.179420 
1594.000000	100.175789 
1593.000000	100.171826 
1592.000000	100.171038 
1591.000000	100.173566 
1590.000000	100.176777 
1589.000000	100.178881 
1588.000000	100.180439 
1587.000000	100.182545 
1586.000000	100.185491 
1585.000000	100.189029 
1584.000000	100.191885 
1583.000000	100.192254 
1582.000000	100.190085 
1581.000000	100.187079 
1580.000000	100.184053 
1579.000000	100.180248 
1578.000000	100.176015 
1577.000000	100.173775 
1576.000000	100.174852 
1575.000000	100.178175 
1574.000000	100.182728 
1573.000000	100.187198 
1572.000000	100.190233 
1571.000000	100.191870 
1570.000000	100.192402 
1569.000000	100.193320 
1568.000000	100.195230 
1567.000000	100.196482 
1566.000000	100.195236 
1565.000000	100.191866 
1564.000000	100.186879 
1563.000000	100.181188 
1562.000000	100.176254 
1561.000000	100.176955 
1560.000000	100.186618 
1559.000000	100.193165 
1558.000000	100.189692 
1557.000000	100.189110 
1556.000000	100.193765 
1555.000000	100.194535 
1554.000000	100.191489 
1553.000000	100.187155 
1552.000000	100.184472 
1551.000000	100.182799 
1550.000000	100.182437 
1549.000000	100.184267 
1548.000000	100.187569 
1547.000000	100.188611 
1546.000000	100.184006 
1545.000000	100.174434 
1544.000000	100.166287 
1543.000000	100.167343 
1542.000000	100.179915 
1541.000000	100.197891 
1540.000000	100.208873 
1539.000000	100.207580 
1538.000000	100.202730 
1537.000000	100.201127 
1536.000000	100.201268 
1535.000000	100.201002 
1534.000000	100.197748 
1533.000000	100.191208 
1532.000000	100.186320 
1531.000000	100.187033 
1530.000000	100.190306 
1529.000000	100.191393 
1528.000000	100.189201 
1527.000000	100.186699 
1526.000000	100.187536 
1525.000000	100.192721 
1524.000000	100.200961 
1523.000000	100.210627 
1522.000000	100.217571 
1521.000000	100.216458 
1520.000000	100.209381 
1519.000000	100.201516 
1518.000000	100.192894 
1517.000000	100.182897 
1516.000000	100.174983 
1515.000000	100.172337 
1514.000000	100.173127 
1513.000000	100.173432 
1512.000000	100.172349 
1511.000000	100.171219 
1510.000000	100.170345 
1509.000000	100.169822 
1508.000000	100.173850 
1507.000000	100.185491 
1506.000000	100.194823 
1505.000000	100.194657 
1504.000000	100.191236 
1503.000000	100.189274 
1502.000000	100.189775 
1501.000000	100.190977 
1500.000000	100.190709 
1499.000000	100.188799 
1498.000000	100.186031 
1497.000000	100.180362 
1496.000000	100.171648 
1495.000000	100.165699 
1494.000000	100.165777 
1493.000000	100.168648 
1492.000000	100.170353 
1491.000000	100.169435 
1490.000000	100.166054 
1489.000000	100.161090 
1488.000000	100.156936 
1487.000000	100.155043 
1486.000000	100.153403 
1485.000000	100.150753 
1484.000000	100.148216 
1483.000000	100.147405 
1482.000000	100.148738 
1481.000000	100.150925 
1480.000000	100.152660 
1479.000000	100.153352 
1478.000000	100.152386 
1477.000000	100.149477 
1476.000000	100.146759 
1475.000000	100.147467 
1474.000000	100.151820 
1473.000000	100.155052 
1472.000000	100.152948 
1471.000000	100.148256 
1470.000000	100.144372 
1469.000000	100.140587 
1468.000000	100.136004 
1467.000000	100.131728 
1466.000000	100.129636 
1465.000000	100.130378 
1464.000000	100.132932 
1463.000000	100.135881 
1462.000000	100.137028 
1461.000000	100.134609 
1460.000000	100.129518 
1459.000000	100.125128 
1458.000000	100.123060 
1457.000000	100.117960 
1456.000000	100.107883 
1455.000000	100.100520 
1454.000000	100.099353 
1453.000000	100.101343 
1452.000000	100.104935 
1451.000000	100.109595 
1450.000000	100.113524 
1449.000000	100.113509 
1448.000000	100.109790 
1447.000000	100.106927 
1446.000000	100.108140 
1445.000000	100.111480 
1444.000000	100.114076 
1443.000000	100.116404 
1442.000000	100.119550 
1441.000000	100.122020 
1440.000000	100.121878 
1439.000000	100.120420 
1438.000000	100.120888 
1437.000000	100.122944 
1436.000000	100.123297 
1435.000000	100.122484 
1434.000000	100.122021 
1433.000000	100.120135 
1432.000000	100.116136 
1431.000000	100.112609 
1430.000000	100.112049 
1429.000000	100.113063 
1428.000000	100.113102 
1427.000000	100.112315 
1426.000000	100.112172 
1425.000000	100.112125 
1424.000000	100.109514 
1423.000000	100.103934 
1422.000000	100.097074 
1421.000000	100.089004 
1420.000000	100.078423 
1419.000000	100.067496 
1418.000000	100.061487 
1417.000000	100.059338 
1416.000000	100.055035 
1415.000000	100.046801 
1414.000000	100.037481 
1413.000000	100.029020 
1412.000000	100.020955 
1411.000000	100.013480 
1410.000000	100.008001 
1409.000000	100.004324 
1408.000000	100.001537 
1407.000000	100.000443 
1406.000000	100.002410 
1405.000000	100.006401 
1404.000000	100.010087 
1403.000000	100.014626 
1402.000000	100.023190 
1401.000000	100.035749 
1400.000000	100.048445 
1399.000000	100.056921 
1398.000000	100.058626 
1397.000000	100.050750 
1396.000000	100.031097 
1395.000000	100.006203 
1394.000000	99.993170  
1393.000000	100.002978 
1392.000000	100.028562 
1391.000000	100.055518 
1390.000000	100.074638 
1389.000000	100.083681 
1388.000000	100.083804 
1387.000000	100.077658 
1386.000000	100.069841 
1385.000000	100.064613 
1384.000000	100.062814 
1383.000000	100.062651 
1382.000000	100.062100 
1381.000000	100.060771 
1380.000000	100.060535 
1379.000000	100.063870 
1378.000000	100.071319 
1377.000000	100.080530 
1376.000000	100.088071 
1375.000000	100.092404 
1374.000000	100.095724 
1373.000000	100.101764 
1372.000000	100.111381 
1371.000000	100.121878 
1370.000000	100.130327 
1369.000000	100.136120 
1368.000000	100.140179 
1367.000000	100.143523 
1366.000000	100.146747 
1365.000000	100.150267 
1364.000000	100.154595 
1363.000000	100.159813 
1362.000000	100.164828 
1361.000000	100.168298 
1360.000000	100.170367 
1359.000000	100.172777 
1358.000000	100.177303 
1357.000000	100.183854 
1356.000000	100.190299 
1355.000000	100.194940 
1354.000000	100.198550 
1353.000000	100.202741 
1352.000000	100.207269 
1351.000000	100.209994 
1350.000000	100.209957 
1349.000000	100.209337 
1348.000000	100.210539 
1347.000000	100.213090 
1346.000000	100.214738 
1345.000000	100.214628 
1344.000000	100.213690 
1343.000000	100.212732 
1342.000000	100.211939 
1341.000000	100.212193 
1340.000000	100.214851 
1339.000000	100.219521 
1338.000000	100.223877 
1337.000000	100.226439 
1336.000000	100.227861 
1335.000000	100.229185 
1334.000000	100.230300 
1333.000000	100.230701 
1332.000000	100.230668 
1331.000000	100.230633 
1330.000000	100.230207 
1329.000000	100.228926 
1328.000000	100.227380 
1327.000000	100.226423 
1326.000000	100.225879 
1325.000000	100.225169 
1324.000000	100.224579 
1323.000000	100.225074 
1322.000000	100.226829 
1321.000000	100.229002 
1320.000000	100.231210 
1319.000000	100.234109 
1318.000000	100.237686 
1317.000000	100.240014 
1316.000000	100.239030 
1315.000000	100.235056 
1314.000000	100.230499 
1313.000000	100.227257 
1312.000000	100.225446 
1311.000000	100.224588 
1310.000000	100.224730 
1309.000000	100.225860 
1308.000000	100.227274 
1307.000000	100.228141 
1306.000000	100.228330 
1305.000000	100.228354 
1304.000000	100.228613 
1303.000000	100.229120 
1302.000000	100.229481 
1301.000000	100.229015 
1300.000000	100.227484 
1299.000000	100.226031 
1298.000000	100.226547 
1297.000000	100.229427 
1296.000000	100.232531 
1295.000000	100.233087 
1294.000000	100.230385 
1293.000000	100.225870 
1292.000000	100.221036 
1291.000000	100.216341 
1290.000000	100.212206 
1289.000000	100.209851 
1288.000000	100.210164 
1287.000000	100.212013 
1286.000000	100.212633 
1285.000000	100.210085 
1284.000000	100.204923 
1283.000000	100.199251 
1282.000000	100.194478 
1281.000000	100.190435 
1280.000000	100.186439 
1279.000000	100.182437 
1278.000000	100.178949 
1277.000000	100.176483 
1276.000000	100.175294 
1275.000000	100.175038 
1274.000000	100.174366 
1273.000000	100.171551 
1272.000000	100.166228 
1271.000000	100.160109 
1270.000000	100.155268 
1269.000000	100.151985 
1268.000000	100.148850 
1267.000000	100.144602 
1266.000000	100.139081 
1265.000000	100.132645 
1264.000000	100.125697 
1263.000000	100.118844 
1262.000000	100.112682 
1261.000000	100.107259 
1260.000000	100.102240 
1259.000000	100.097411 
1258.000000	100.092585 
1257.000000	100.087501 
1256.000000	100.082724 
1255.000000	100.080021 
1254.000000	100.080392 
1253.000000	100.081993 
1252.000000	100.081769 
1251.000000	100.079396 
1250.000000	100.077911 
1249.000000	100.079788 
1248.000000	100.083855 
1247.000000	100.086822 
1246.000000	100.086077 
1245.000000	100.079859 
1244.000000	100.067124 
1243.000000	100.050276 
1242.000000	100.036869 
1241.000000	100.034647 
1240.000000	100.043578 
1239.000000	100.054832 
1238.000000	100.059083 
1237.000000	100.054795 
1236.000000	100.047374 
1235.000000	100.041972 
1234.000000	100.039053 
1233.000000	100.035983 
1232.000000	100.030339 
1231.000000	100.021262 
1230.000000	100.009723 
1229.000000	99.998775  
1228.000000	99.992266  
1227.000000	99.991559  
1226.000000	99.993658  
1225.000000	99.993825  
1224.000000	99.990056  
1223.000000	99.984020  
1222.000000	99.977911  
1221.000000	99.971953  
1220.000000	99.965478  
1219.000000	99.958842  
1218.000000	99.952821  
1217.000000	99.946657  
1216.000000	99.938127  
1215.000000	99.925705  
1214.000000	99.909892  
1213.000000	99.892335  
1212.000000	99.874504  
1211.000000	99.857569  
1210.000000	99.842758  
1209.000000	99.830881  
1208.000000	99.821313  
1207.000000	99.811763  
1206.000000	99.799634  
1205.000000	99.784140  
1204.000000	99.767014  
1203.000000	99.750746  
1202.000000	99.736157  
1201.000000	99.722119  
1200.000000	99.707393  
1199.000000	99.691832  
1198.000000	99.675657  
1197.000000	99.658507  
1196.000000	99.639776  
1195.000000	99.619423  
1194.000000	99.598166  
1193.000000	99.577352  
1192.000000	99.558453  
1191.000000	99.541587  
1190.000000	99.524410  
1189.000000	99.503882  
1188.000000	99.479795  
1187.000000	99.455359  
1186.000000	99.433570  
1185.000000	99.414121  
1184.000000	99.394747  
1183.000000	99.374194  
1182.000000	99.352573  
1181.000000	99.329863  
1180.000000	99.305644  
1179.000000	99.279845  
1178.000000	99.252631  
1177.000000	99.223962  
1176.000000	99.193991  
1175.000000	99.163090  
1174.000000	99.130758  
1173.000000	99.095821  
1172.000000	99.059063  
1171.000000	99.024467  
1170.000000	98.995841  
1169.000000	98.972540  
1168.000000	98.950315  
1167.000000	98.926515  
1166.000000	98.903412  
1165.000000	98.886446  
1164.000000	98.880118  
1163.000000	98.885336  
1162.000000	98.899510  
1161.000000	98.918540  
1160.000000	98.938518  
1159.000000	98.955405  
1158.000000	98.964023  
1157.000000	98.959236  
1156.000000	98.939373  
1155.000000	98.908481  
1154.000000	98.874575  
1153.000000	98.844976  
1152.000000	98.822350  
1151.000000	98.803947  
1150.000000	98.784426  
1149.000000	98.760578  
1148.000000	98.733979  
1147.000000	98.708691  
1146.000000	98.686557  
1145.000000	98.665669  
1144.000000	98.643279  
1143.000000	98.618756  
1142.000000	98.593550  
1141.000000	98.569780  
1140.000000	98.549320  
1139.000000	98.532604  
1138.000000	98.517366  
1137.000000	98.499795  
1136.000000	98.477976  
1135.000000	98.453496  
1134.000000	98.429006  
1133.000000	98.405054  
1132.000000	98.380153  
1131.000000	98.353533  
1130.000000	98.327134  
1129.000000	98.304515  
1128.000000	98.287102  
1127.000000	98.271181  
1126.000000	98.250074  
1125.000000	98.220986  
1124.000000	98.188744  
1123.000000	98.160820  
1122.000000	98.139259  
1121.000000	98.119578  
1120.000000	98.096838  
1119.000000	98.070050  
1118.000000	98.041008  
1117.000000	98.012117  
1116.000000	97.985953  
1115.000000	97.964016  
1114.000000	97.944729  
1113.000000	97.924789  
1112.000000	97.902976  
1111.000000	97.880265  
1110.000000	97.856154  
1109.000000	97.828303  
1108.000000	97.797040  
1107.000000	97.767096  
1106.000000	97.742512  
1105.000000	97.721815  
1104.000000	97.700360  
1103.000000	97.676003  
1102.000000	97.650975  
1101.000000	97.628941  
1100.000000	97.611328  
1099.000000	97.596170  
1098.000000	97.579825  
1097.000000	97.561076  
1096.000000	97.542481  
1095.000000	97.526256  
1094.000000	97.509823  
1093.000000	97.487936  
1092.000000	97.458597  
1091.000000	97.424334  
1090.000000	97.388473  
1089.000000	97.353446  
1088.000000	97.322336  
1087.000000	97.297854  
1086.000000	97.278638  
1085.000000	97.259764  
1084.000000	97.237994  
1083.000000	97.214052  
1082.000000	97.189555  
1081.000000	97.164742  
1080.000000	97.139707  
1079.000000	97.114906  
1078.000000	97.090106  
1077.000000	97.065738  
1076.000000	97.045091  
1075.000000	97.031507  
1074.000000	97.023129  
1073.000000	97.013855  
1072.000000	96.999058  
1071.000000	96.976199  
1070.000000	96.940727  
1069.000000	96.888023  
1068.000000	96.821818  
1067.000000	96.755897  
1066.000000	96.703762  
1065.000000	96.668638  
1064.000000	96.644629  
1063.000000	96.623035  
1062.000000	96.595052  
1061.000000	96.553344  
1060.000000	96.496578  
1059.000000	96.432181  
1058.000000	96.371875  
1057.000000	96.323751  
1056.000000	96.288071  
1055.000000	96.258387  
1054.000000	96.226214  
1053.000000	96.187464  
1052.000000	96.145561  
1051.000000	96.106341  
1050.000000	96.069963  
1049.000000	96.031090  
1048.000000	95.986838  
1047.000000	95.940522  
1046.000000	95.897481  
1045.000000	95.860638  
1044.000000	95.829638  
1043.000000	95.800917  
1042.000000	95.769490  
1041.000000	95.734310  
1040.000000	95.701144  
1039.000000	95.676849  
1038.000000	95.661953  
1037.000000	95.652195  
1036.000000	95.645124  
1035.000000	95.640445  
1034.000000	95.635995  
1033.000000	95.628877  
1032.000000	95.619038  
1031.000000	95.606670  
1030.000000	95.588861  
1029.000000	95.565720  
1028.000000	95.547547  
1027.000000	95.546872  
1026.000000	95.562669  
1025.000000	95.580350  
1024.000000	95.588342  
1023.000000	95.587323  
1022.000000	95.582746  
1021.000000	95.576969  
1020.000000	95.571548  
1019.000000	95.569423  
1018.000000	95.570275  
1017.000000	95.569080  
1016.000000	95.563038  
1015.000000	95.555611  
1014.000000	95.550903  
1013.000000	95.548123  
1012.000000	95.544039  
1011.000000	95.537053  
1010.000000	95.527168  
1009.000000	95.516058  
1008.000000	95.508638  
1007.000000	95.510102  
1006.000000	95.519472  
1005.000000	95.529936  
1004.000000	95.536746  
1003.000000	95.540899  
1002.000000	95.544760  
1001.000000	95.549128  
1000.000000	95.555506  
999.000000	 95.565782  
998.000000	 95.578012  
997.000000	 95.587569  
996.000000	 95.594111  
995.000000	 95.602383  
994.000000	 95.614513  
993.000000	 95.626817  
992.000000	 95.636396  
991.000000	 95.645552  
990.000000	 95.656827  
989.000000	 95.668441  
988.000000	 95.678022  
987.000000	 95.687194  
986.000000	 95.699370  
985.000000	 95.715852  
984.000000	 95.736247  
983.000000	 95.759787  
982.000000	 95.784484  
981.000000	 95.808026  
980.000000	 95.831105  
979.000000	 95.857186  
978.000000	 95.888183  
977.000000	 95.923277  
976.000000	 95.961999  
975.000000	 96.004363  
974.000000	 96.047697  
973.000000	 96.088185  
972.000000	 96.126708  
971.000000	 96.168589  
970.000000	 96.215957  
969.000000	 96.264548  
968.000000	 96.309651  
967.000000	 96.351096  
966.000000	 96.390709  
965.000000	 96.428992  
964.000000	 96.466573  
963.000000	 96.505503  
962.000000	 96.546821  
961.000000	 96.589419  
960.000000	 96.632487  
959.000000	 96.675967  
958.000000	 96.717617  
957.000000	 96.753456  
956.000000	 96.782951  
955.000000	 96.810624  
954.000000	 96.840684  
953.000000	 96.872807  
952.000000	 96.904489  
951.000000	 96.934406  
950.000000	 96.961767  
949.000000	 96.985376  
948.000000	 97.005261  
947.000000	 97.022931  
946.000000	 97.038585  
945.000000	 97.050568  
944.000000	 97.059110  
943.000000	 97.068326  
942.000000	 97.082773  
941.000000	 97.103178  
940.000000	 97.125891  
939.000000	 97.144898  
938.000000	 97.155180  
937.000000	 97.157367  
936.000000	 97.159191  
935.000000	 97.169072  
934.000000	 97.187681  
933.000000	 97.208668  
932.000000	 97.227536  
931.000000	 97.245890  
930.000000	 97.266447  
929.000000	 97.287931  
928.000000	 97.306345  
927.000000	 97.318377  
926.000000	 97.323008  
925.000000	 97.323062  
924.000000	 97.325659  
923.000000	 97.337435  
922.000000	 97.357852  
921.000000	 97.379791  
920.000000	 97.396947  
919.000000	 97.407672  
918.000000	 97.412387  
917.000000	 97.411982  
916.000000	 97.409282  
915.000000	 97.407585  
914.000000	 97.406753  
913.000000	 97.405007  
912.000000	 97.405178  
911.000000	 97.414034  
910.000000	 97.433825  
909.000000	 97.459379  
908.000000	 97.485260  
907.000000	 97.510905  
906.000000	 97.536930  
905.000000	 97.561857  
904.000000	 97.585633  
903.000000	 97.612145  
902.000000	 97.645006  
901.000000	 97.683628  
900.000000	 97.725168  
899.000000	 97.766803  
898.000000	 97.804621  
897.000000	 97.834689  
896.000000	 97.857531  
895.000000	 97.878491  
894.000000	 97.902121  
893.000000	 97.929329  
892.000000	 97.960460  
891.000000	 97.996178  
890.000000	 98.033683  
889.000000	 98.067355  
888.000000	 98.095889  
887.000000	 98.124409  
886.000000	 98.156830  
885.000000	 98.190275  
884.000000	 98.219654  
883.000000	 98.243345  
882.000000	 98.261589  
881.000000	 98.274241  
880.000000	 98.284249  
879.000000	 98.298938  
878.000000	 98.322687  
877.000000	 98.351303  
876.000000	 98.377764  
875.000000	 98.400173  
874.000000	 98.420314  
873.000000	 98.438576  
872.000000	 98.455324  
871.000000	 98.473897  
870.000000	 98.497051  
869.000000	 98.523072  
868.000000	 98.549960  
867.000000	 98.580204  
866.000000	 98.615948  
865.000000	 98.652010  
864.000000	 98.680166  
863.000000	 98.699770  
862.000000	 98.718256  
861.000000	 98.740722  
860.000000	 98.764626  
859.000000	 98.786069  
858.000000	 98.805997  
857.000000	 98.827442  
856.000000	 98.850723  
855.000000	 98.874701  
854.000000	 98.899607  
853.000000	 98.924808  
852.000000	 98.945846  
851.000000	 98.958194  
850.000000	 98.963933  
849.000000	 98.971042  
848.000000	 98.985159  
847.000000	 99.004706  
846.000000	 99.024669  
845.000000	 99.041936  
844.000000	 99.054895  
843.000000	 99.061106  
842.000000	 99.059724  
841.000000	 99.054970  
840.000000	 99.052582  
839.000000	 99.052281  
838.000000	 99.047887  
837.000000	 99.036509  
836.000000	 99.023664  
835.000000	 99.016386  
834.000000	 99.014593  
833.000000	 99.013530  
832.000000	 99.012509  
831.000000	 99.015686  
830.000000	 99.023970  
829.000000	 99.031402  
828.000000	 99.032017  
827.000000	 99.027367  
826.000000	 99.024749  
825.000000	 99.029464  
824.000000	 99.040435  
823.000000	 99.052223  
822.000000	 99.060131  
821.000000	 99.063869  
820.000000	 99.066578  
819.000000	 99.070666  
818.000000	 99.075844  
817.000000	 99.081184  
816.000000	 99.086256  
815.000000	 99.088343  
814.000000	 99.081372  
813.000000	 99.061045  
812.000000	 99.029188  
811.000000	 98.988988  
810.000000	 98.937024  
809.000000	 98.864893  
808.000000	 98.769415  
807.000000	 98.657166  
806.000000	 98.537592  
805.000000	 98.415593  
804.000000	 98.293432  
803.000000	 98.176529  
802.000000	 98.073357  
801.000000	 97.990296  
800.000000	 97.928461  
799.000000	 97.884800  
798.000000	 97.855698  
797.000000	 97.840322  
796.000000	 97.839568  
795.000000	 97.850572  
794.000000	 97.865084  
793.000000	 97.876528  
792.000000	 97.886120  
791.000000	 97.898166  
790.000000	 97.911895  
789.000000	 97.922280  
788.000000	 97.925941  
787.000000	 97.920636  
786.000000	 97.901386  
785.000000	 97.864138  
784.000000	 97.813073  
783.000000	 97.758891  
782.000000	 97.709961  
781.000000	 97.669348  
780.000000	 97.638280  
779.000000	 97.615898  
778.000000	 97.597220  
777.000000	 97.579448  
776.000000	 97.570321  
775.000000	 97.582299  
774.000000	 97.617148  
773.000000	 97.663114  
772.000000	 97.708088  
771.000000	 97.748524  
770.000000	 97.784826  
769.000000	 97.815729  
768.000000	 97.839825  
767.000000	 97.857320  
766.000000	 97.868728  
765.000000	 97.876450  
764.000000	 97.887087  
763.000000	 97.905427  
762.000000	 97.925497  
761.000000	 97.934952  
760.000000	 97.930632  
759.000000	 97.923982  
758.000000	 97.929050  
757.000000	 97.949598  
756.000000	 97.978078  
755.000000	 98.001385  
754.000000	 98.008298  
753.000000	 97.999204  
752.000000	 97.989907  
751.000000	 97.998964  
750.000000	 98.028949  
749.000000	 98.065417  
748.000000	 98.094552  
747.000000	 98.114884  
746.000000	 98.131492  
745.000000	 98.147403  
744.000000	 98.163746  
743.000000	 98.181485  
742.000000	 98.200044  
741.000000	 98.219609  
740.000000	 98.245587  
739.000000	 98.283484  
738.000000	 98.327673  
737.000000	 98.362683  
736.000000	 98.378252  
735.000000	 98.377517  
734.000000	 98.370097  
733.000000	 98.364856  
732.000000	 98.370417  
731.000000	 98.392260  
730.000000	 98.424154  
729.000000	 98.450567  
728.000000	 98.462956  
727.000000	 98.467211  
726.000000	 98.471223  
725.000000	 98.473049  
724.000000	 98.466966  
723.000000	 98.454829  
722.000000	 98.445384  
721.000000	 98.446688  
720.000000	 98.463210  
719.000000	 98.494854  
718.000000	 98.534156  
717.000000	 98.568702  
716.000000	 98.590000  
715.000000	 98.597868  
714.000000	 98.596670  
713.000000	 98.592945  
712.000000	 98.596966  
711.000000	 98.617675  
710.000000	 98.651723  
709.000000	 98.683919  
708.000000	 98.702043  
707.000000	 98.705373  
706.000000	 98.696810  
705.000000	 98.676270  
704.000000	 98.647523  
703.000000	 98.622516  
702.000000	 98.609762  
701.000000	 98.601900  
700.000000	 98.580829  
699.000000	 98.533516  
698.000000	 98.461298  
697.000000	 98.378996  
696.000000	 98.307624  
695.000000	 98.262426  
694.000000	 98.244496  
693.000000	 98.246658  
692.000000	 98.265503  
691.000000	 98.300382  
690.000000	 98.342929  
689.000000	 98.380314  
688.000000	 98.410739  
687.000000	 98.442705  
686.000000	 98.475437  
685.000000	 98.494587  
684.000000	 98.492918  
683.000000	 98.482279  
682.000000	 98.479819  
681.000000	 98.492946  
680.000000	 98.519660  
679.000000	 98.550935  
678.000000	 98.570561  
677.000000	 98.568760  
676.000000	 98.560616  
675.000000	 98.570937  
674.000000	 98.598068  
673.000000	 98.611464  
672.000000	 98.591867  
671.000000	 98.554988  
670.000000	 98.531880  
669.000000	 98.540414  
668.000000	 98.565955  
667.000000	 98.591330  
666.000000	 98.621302  
665.000000	 98.644338  
664.000000	 98.658203  
663.000000	 98.684124  
662.000000	 98.732234  
661.000000	 98.775180  
660.000000	 98.779391  
659.000000	 98.749132  
658.000000	 98.717091  
657.000000	 98.701237  
656.000000	 98.695891  
655.000000	 98.694585  
654.000000	 98.695783  
653.000000	 98.691250  
652.000000	 98.673287  
651.000000	 98.652112  
650.000000	 98.645358  

