4000.000000	99.180212 
3999.000000	99.179285 
3998.000000	99.178559 
3997.000000	99.178507 
3996.000000	99.179063 
3995.000000	99.179670 
3994.000000	99.179931 
3993.000000	99.179976 
3992.000000	99.180106 
3991.000000	99.180295 
3990.000000	99.180150 
3989.000000	99.179316 
3988.000000	99.177872 
3987.000000	99.176397 
3986.000000	99.175604 
3985.000000	99.175824 
3984.000000	99.176779 
3983.000000	99.177889 
3982.000000	99.178873 
3981.000000	99.179905 
3980.000000	99.181098 
3979.000000	99.182086 
3978.000000	99.182351 
3977.000000	99.181827 
3976.000000	99.180931 
3975.000000	99.180034 
3974.000000	99.179083 
3973.000000	99.177894 
3972.000000	99.176584 
3971.000000	99.175588 
3970.000000	99.175307 
3969.000000	99.175746 
3968.000000	99.176486 
3967.000000	99.176981 
3966.000000	99.176952 
3965.000000	99.176506 
3964.000000	99.175939 
3963.000000	99.175533 
3962.000000	99.175433 
3961.000000	99.175597 
3960.000000	99.175755 
3959.000000	99.175560 
3958.000000	99.174925 
3957.000000	99.174125 
3956.000000	99.173538 
3955.000000	99.173273 
3954.000000	99.173161 
3953.000000	99.172994 
3952.000000	99.172685 
3951.000000	99.172260 
3950.000000	99.171770 
3949.000000	99.171263 
3948.000000	99.170816 
3947.000000	99.170520 
3946.000000	99.170378 
3945.000000	99.170266 
3944.000000	99.170029 
3943.000000	99.169622 
3942.000000	99.169123 
3941.000000	99.168635 
3940.000000	99.168171 
3939.000000	99.167690 
3938.000000	99.167198 
3937.000000	99.166737 
3936.000000	99.166336 
3935.000000	99.165975 
3934.000000	99.165603 
3933.000000	99.165219 
3932.000000	99.164887 
3931.000000	99.164658 
3930.000000	99.164503 
3929.000000	99.164334 
3928.000000	99.164105 
3927.000000	99.163772 
3926.000000	99.163315 
3925.000000	99.162823 
3924.000000	99.162488 
3923.000000	99.162362 
3922.000000	99.162212 
3921.000000	99.161821 
3920.000000	99.161292 
3919.000000	99.160860 
3918.000000	99.160572 
3917.000000	99.160319 
3916.000000	99.160080 
3915.000000	99.159925 
3914.000000	99.159853 
3913.000000	99.159773 
3912.000000	99.159640 
3911.000000	99.159472 
3910.000000	99.159303 
3909.000000	99.159150 
3908.000000	99.159017 
3907.000000	99.158895 
3906.000000	99.158773 
3905.000000	99.158655 
3904.000000	99.158538 
3903.000000	99.158424 
3902.000000	99.158312 
3901.000000	99.158201 
3900.000000	99.158088 
3899.000000	99.157971 
3898.000000	99.157855 
3897.000000	99.157747 
3896.000000	99.157655 
3895.000000	99.157580 
3894.000000	99.157519 
3893.000000	99.157470 
3892.000000	99.157433 
3891.000000	99.157405 
3890.000000	99.157386 
3889.000000	99.157375 
3888.000000	99.157365 
3887.000000	99.157351 
3886.000000	99.157333 
3885.000000	99.157321 
3884.000000	99.157322 
3883.000000	99.157334 
3882.000000	99.157348 
3881.000000	99.157362 
3880.000000	99.157384 
3879.000000	99.157426 
3878.000000	99.157491 
3877.000000	99.157568 
3876.000000	99.157642 
3875.000000	99.157705 
3874.000000	99.157755 
3873.000000	99.157793 
3872.000000	99.157820 
3871.000000	99.157835 
3870.000000	99.157849 
3869.000000	99.157878 
3868.000000	99.157931 
3867.000000	99.157996 
3866.000000	99.158057 
3865.000000	99.158112 
3864.000000	99.158172 
3863.000000	99.158242 
3862.000000	99.158317 
3861.000000	99.158400 
3860.000000	99.158497 
3859.000000	99.158612 
3858.000000	99.158746 
3857.000000	99.158901 
3856.000000	99.159085 
3855.000000	99.159301 
3854.000000	99.159532 
3853.000000	99.159758 
3852.000000	99.159981 
3851.000000	99.160208 
3850.000000	99.160434 
3849.000000	99.160649 
3848.000000	99.160851 
3847.000000	99.161044 
3846.000000	99.161231 
3845.000000	99.161413 
3844.000000	99.161587 
3843.000000	99.161744 
3842.000000	99.161879 
3841.000000	99.161988 
3840.000000	99.162074 
3839.000000	99.162137 
3838.000000	99.162170 
3837.000000	99.162169 
3836.000000	99.162134 
3835.000000	99.162072 
3834.000000	99.161994 
3833.000000	99.161911 
3832.000000	99.161834 
3831.000000	99.161766 
3830.000000	99.161705 
3829.000000	99.161648 
3828.000000	99.161589 
3827.000000	99.161524 
3826.000000	99.161453 
3825.000000	99.161385 
3824.000000	99.161328 
3823.000000	99.161283 
3822.000000	99.161236 
3821.000000	99.161173 
3820.000000	99.161092 
3819.000000	99.160994 
3818.000000	99.160871 
3817.000000	99.160713 
3816.000000	99.160524 
3815.000000	99.160320 
3814.000000	99.160112 
3813.000000	99.159894 
3812.000000	99.159663 
3811.000000	99.159428 
3810.000000	99.159203 
3809.000000	99.158989 
3808.000000	99.158776 
3807.000000	99.158561 
3806.000000	99.158348 
3805.000000	99.158142 
3804.000000	99.157937 
3803.000000	99.157726 
3802.000000	99.157515 
3801.000000	99.157315 
3800.000000	99.157136 
3799.000000	99.156996 
3798.000000	99.156874 
3797.000000	99.156727 
3796.000000	99.156579 
3795.000000	99.156524 
3794.000000	99.156603 
3793.000000	99.156761 
3792.000000	99.156933 
3791.000000	99.157117 
3790.000000	99.157303 
3789.000000	99.157459 
3788.000000	99.157612 
3787.000000	99.157853 
3786.000000	99.158202 
3785.000000	99.158554 
3784.000000	99.158847 
3783.000000	99.159119 
3782.000000	99.159330 
3781.000000	99.159333 
3780.000000	99.159094 
3779.000000	99.158756 
3778.000000	99.158525 
3777.000000	99.158439 
3776.000000	99.158405 
3775.000000	99.158399 
3774.000000	99.158501 
3773.000000	99.158713 
3772.000000	99.158917 
3771.000000	99.159011 
3770.000000	99.159021 
3769.000000	99.159022 
3768.000000	99.159038 
3767.000000	99.159041 
3766.000000	99.159031 
3765.000000	99.159023 
3764.000000	99.159022 
3763.000000	99.159023 
3762.000000	99.159022 
3761.000000	99.159019 
3760.000000	99.159015 
3759.000000	99.159006 
3758.000000	99.158981 
3757.000000	99.158928 
3756.000000	99.158847 
3755.000000	99.158739 
3754.000000	99.158603 
3753.000000	99.158431 
3752.000000	99.158212 
3751.000000	99.157935 
3750.000000	99.157598 
3749.000000	99.157211 
3748.000000	99.156793 
3747.000000	99.156354 
3746.000000	99.155898 
3745.000000	99.155429 
3744.000000	99.154952 
3743.000000	99.154476 
3742.000000	99.153995 
3741.000000	99.153489 
3740.000000	99.152949 
3739.000000	99.152385 
3738.000000	99.151805 
3737.000000	99.151205 
3736.000000	99.150577 
3735.000000	99.149915 
3734.000000	99.149215 
3733.000000	99.148461 
3732.000000	99.147627 
3731.000000	99.146768 
3730.000000	99.145982 
3729.000000	99.145250 
3728.000000	99.144418 
3727.000000	99.143451 
3726.000000	99.142555 
3725.000000	99.141931 
3724.000000	99.141388 
3723.000000	99.140520 
3722.000000	99.139231 
3721.000000	99.137809 
3720.000000	99.136562 
3719.000000	99.135451 
3718.000000	99.134213 
3717.000000	99.132668 
3716.000000	99.130864 
3715.000000	99.128888 
3714.000000	99.126858 
3713.000000	99.125018 
3712.000000	99.123288 
3711.000000	99.121272 
3710.000000	99.119139 
3709.000000	99.117398 
3708.000000	99.116052 
3707.000000	99.114666 
3706.000000	99.112918 
3705.000000	99.110768 
3704.000000	99.108314 
3703.000000	99.105679 
3702.000000	99.102888 
3701.000000	99.100188 
3700.000000	99.098348 
3699.000000	99.097410 
3698.000000	99.096041 
3697.000000	99.093321 
3696.000000	99.090076 
3695.000000	99.087670 
3694.000000	99.086212 
3693.000000	99.084966 
3692.000000	99.083727 
3691.000000	99.082483 
3690.000000	99.080332 
3689.000000	99.076266 
3688.000000	99.071849 
3687.000000	99.069953 
3686.000000	99.070375 
3685.000000	99.070381 
3684.000000	99.068942 
3683.000000	99.067383 
3682.000000	99.066523 
3681.000000	99.065222 
3680.000000	99.062280 
3679.000000	99.058843 
3678.000000	99.056809 
3677.000000	99.056367 
3676.000000	99.055421 
3675.000000	99.053288 
3674.000000	99.053663 
3673.000000	99.057046 
3672.000000	99.058826 
3671.000000	99.057820 
3670.000000	99.056264 
3669.000000	99.055558 
3668.000000	99.056008 
3667.000000	99.056248 
3666.000000	99.055184 
3665.000000	99.053784 
3664.000000	99.053432 
3663.000000	99.054396 
3662.000000	99.056079 
3661.000000	99.057929 
3660.000000	99.059896 
3659.000000	99.062142 
3658.000000	99.064368 
3657.000000	99.065943 
3656.000000	99.066727 
3655.000000	99.068158 
3654.000000	99.070984 
3653.000000	99.073980 
3652.000000	99.076608 
3651.000000	99.079754 
3650.000000	99.082736 
3649.000000	99.083152 
3648.000000	99.080922 
3647.000000	99.078881 
3646.000000	99.079174 
3645.000000	99.081486 
3644.000000	99.084372 
3643.000000	99.086796 
3642.000000	99.088743 
3641.000000	99.090612 
3640.000000	99.092669 
3639.000000	99.095005 
3638.000000	99.097843 
3637.000000	99.101326 
3636.000000	99.104786 
3635.000000	99.107032 
3634.000000	99.107692 
3633.000000	99.107739 
3632.000000	99.108248 
3631.000000	99.109425 
3630.000000	99.110852 
3629.000000	99.111421 
3628.000000	99.111166 
3627.000000	99.112059 
3626.000000	99.113999 
3625.000000	99.115555 
3624.000000	99.116833 
3623.000000	99.118418 
3622.000000	99.120028 
3621.000000	99.120971 
3620.000000	99.121118 
3619.000000	99.121020 
3618.000000	99.121546 
3617.000000	99.123128 
3616.000000	99.125118 
3615.000000	99.126403 
3614.000000	99.126423 
3613.000000	99.125458 
3612.000000	99.124297 
3611.000000	99.123509 
3610.000000	99.123130 
3609.000000	99.123097 
3608.000000	99.123426 
3607.000000	99.124084 
3606.000000	99.124902 
3605.000000	99.125649 
3604.000000	99.126329 
3603.000000	99.127073 
3602.000000	99.127754 
3601.000000	99.128273 
3600.000000	99.128951 
3599.000000	99.130103 
3598.000000	99.131380 
3597.000000	99.132166 
3596.000000	99.132151 
3595.000000	99.131508 
3594.000000	99.130692 
3593.000000	99.130320 
3592.000000	99.130780 
3591.000000	99.132046 
3590.000000	99.133672 
3589.000000	99.134866 
3588.000000	99.134777 
3587.000000	99.133286 
3586.000000	99.131436 
3585.000000	99.130297 
3584.000000	99.129888 
3583.000000	99.129818 
3582.000000	99.129813 
3581.000000	99.129704 
3580.000000	99.129358 
3579.000000	99.128782 
3578.000000	99.128066 
3577.000000	99.127377 
3576.000000	99.126927 
3575.000000	99.126890 
3574.000000	99.127262 
3573.000000	99.127840 
3572.000000	99.128423 
3571.000000	99.128892 
3570.000000	99.129194 
3569.000000	99.129256 
3568.000000	99.128983 
3567.000000	99.128441 
3566.000000	99.128065 
3565.000000	99.128225 
3564.000000	99.128685 
3563.000000	99.128955 
3562.000000	99.128870 
3561.000000	99.128602 
3560.000000	99.128381 
3559.000000	99.128293 
3558.000000	99.128279 
3557.000000	99.128269 
3556.000000	99.128302 
3555.000000	99.128446 
3554.000000	99.128641 
3553.000000	99.128704 
3552.000000	99.128532 
3551.000000	99.128182 
3550.000000	99.127730 
3549.000000	99.127215 
3548.000000	99.126764 
3547.000000	99.126551 
3546.000000	99.126617 
3545.000000	99.126842 
3544.000000	99.127054 
3543.000000	99.127162 
3542.000000	99.127189 
3541.000000	99.127214 
3540.000000	99.127323 
3539.000000	99.127525 
3538.000000	99.127758 
3537.000000	99.127934 
3536.000000	99.127995 
3535.000000	99.127954 
3534.000000	99.127852 
3533.000000	99.127744 
3532.000000	99.127668 
3531.000000	99.127633 
3530.000000	99.127623 
3529.000000	99.127610 
3528.000000	99.127580 
3527.000000	99.127545 
3526.000000	99.127514 
3525.000000	99.127473 
3524.000000	99.127409 
3523.000000	99.127328 
3522.000000	99.127249 
3521.000000	99.127184 
3520.000000	99.127128 
3519.000000	99.127071 
3518.000000	99.127009 
3517.000000	99.126945 
3516.000000	99.126886 
3515.000000	99.126835 
3514.000000	99.126791 
3513.000000	99.126753 
3512.000000	99.126714 
3511.000000	99.126666 
3510.000000	99.126607 
3509.000000	99.126538 
3508.000000	99.126465 
3507.000000	99.126384 
3506.000000	99.126284 
3505.000000	99.126161 
3504.000000	99.126016 
3503.000000	99.125854 
3502.000000	99.125685 
3501.000000	99.125517 
3500.000000	99.125347 
3499.000000	99.125167 
3498.000000	99.124968 
3497.000000	99.124749 
3496.000000	99.124516 
3495.000000	99.124279 
3494.000000	99.124055 
3493.000000	99.123861 
3492.000000	99.123698 
3491.000000	99.123552 
3490.000000	99.123409 
3489.000000	99.123269 
3488.000000	99.123140 
3487.000000	99.123028 
3486.000000	99.122923 
3485.000000	99.122806 
3484.000000	99.122674 
3483.000000	99.122551 
3482.000000	99.122463 
3481.000000	99.122397 
3480.000000	99.122295 
3479.000000	99.122119 
3478.000000	99.121893 
3477.000000	99.121674 
3476.000000	99.121472 
3475.000000	99.121245 
3474.000000	99.120982 
3473.000000	99.120772 
3472.000000	99.120729 
3471.000000	99.120844 
3470.000000	99.120956 
3469.000000	99.120919 
3468.000000	99.120749 
3467.000000	99.120553 
3466.000000	99.120353 
3465.000000	99.120050 
3464.000000	99.119582 
3463.000000	99.119049 
3462.000000	99.118604 
3461.000000	99.118258 
3460.000000	99.117870 
3459.000000	99.117377 
3458.000000	99.116952 
3457.000000	99.116807 
3456.000000	99.116946 
3455.000000	99.117189 
3454.000000	99.117396 
3453.000000	99.117660 
3452.000000	99.118192 
3451.000000	99.119029 
3450.000000	99.119875 
3449.000000	99.120273 
3448.000000	99.119934 
3447.000000	99.118979 
3446.000000	99.117887 
3445.000000	99.117164 
3444.000000	99.116998 
3443.000000	99.117241 
3442.000000	99.117578 
3441.000000	99.117758 
3440.000000	99.117781 
3439.000000	99.117868 
3438.000000	99.118214 
3437.000000	99.118724 
3436.000000	99.119049 
3435.000000	99.118958 
3434.000000	99.118595 
3433.000000	99.118344 
3432.000000	99.118395 
3431.000000	99.118534 
3430.000000	99.118377 
3429.000000	99.117764 
3428.000000	99.116887 
3427.000000	99.116086 
3426.000000	99.115592 
3425.000000	99.115487 
3424.000000	99.115760 
3423.000000	99.116278 
3422.000000	99.116744 
3421.000000	99.116829 
3420.000000	99.116442 
3419.000000	99.115878 
3418.000000	99.115651 
3417.000000	99.116101 
3416.000000	99.117059 
3415.000000	99.117868 
3414.000000	99.117875 
3413.000000	99.116988 
3412.000000	99.115759 
3411.000000	99.114888 
3410.000000	99.114702 
3409.000000	99.115139 
3408.000000	99.115969 
3407.000000	99.116836 
3406.000000	99.117304 
3405.000000	99.117181 
3404.000000	99.116846 
3403.000000	99.117042 
3402.000000	99.118284 
3401.000000	99.120456 
3400.000000	99.122823 
3399.000000	99.124488 
3398.000000	99.125047 
3397.000000	99.124879 
3396.000000	99.124679 
3395.000000	99.124658 
3394.000000	99.124500 
3393.000000	99.124076 
3392.000000	99.123720 
3391.000000	99.123594 
3390.000000	99.123240 
3389.000000	99.122189 
3388.000000	99.120698 
3387.000000	99.119502 
3386.000000	99.118984 
3385.000000	99.118959 
3384.000000	99.119142 
3383.000000	99.119479 
3382.000000	99.119961 
3381.000000	99.120432 
3380.000000	99.120640 
3379.000000	99.120455 
3378.000000	99.120055 
3377.000000	99.119983 
3376.000000	99.120849 
3375.000000	99.122804 
3374.000000	99.125313 
3373.000000	99.127522 
3372.000000	99.128836 
3371.000000	99.129124 
3370.000000	99.128640 
3369.000000	99.127897 
3368.000000	99.127420 
3367.000000	99.127336 
3366.000000	99.127217 
3365.000000	99.126526 
3364.000000	99.125240 
3363.000000	99.123919 
3362.000000	99.123152 
3361.000000	99.123041 
3360.000000	99.123245 
3359.000000	99.123465 
3358.000000	99.123800 
3357.000000	99.124615 
3356.000000	99.126053 
3355.000000	99.127668 
3354.000000	99.128663 
3353.000000	99.128567 
3352.000000	99.127614 
3351.000000	99.126539 
3350.000000	99.126049 
3349.000000	99.126438 
3348.000000	99.127561 
3347.000000	99.128948 
3346.000000	99.130032 
3345.000000	99.130508 
3344.000000	99.130474 
3343.000000	99.130185 
3342.000000	99.129718 
3341.000000	99.128989 
3340.000000	99.128076 
3339.000000	99.127320 
3338.000000	99.126964 
3337.000000	99.126833 
3336.000000	99.126501 
3335.000000	99.125798 
3334.000000	99.125079 
3333.000000	99.124890 
3332.000000	99.125399 
3331.000000	99.126237 
3330.000000	99.126875 
3329.000000	99.127150 
3328.000000	99.127318 
3327.000000	99.127647 
3326.000000	99.128082 
3325.000000	99.128355 
3324.000000	99.128356 
3323.000000	99.128295 
3322.000000	99.128463 
3321.000000	99.128882 
3320.000000	99.129250 
3319.000000	99.129259 
3318.000000	99.128912 
3317.000000	99.128523 
3316.000000	99.128434 
3315.000000	99.128711 
3314.000000	99.129156 
3313.000000	99.129514 
3312.000000	99.129705 
3311.000000	99.129823 
3310.000000	99.129980 
3309.000000	99.130207 
3308.000000	99.130470 
3307.000000	99.130712 
3306.000000	99.130867 
3305.000000	99.130849 
3304.000000	99.130591 
3303.000000	99.130118 
3302.000000	99.129610 
3301.000000	99.129329 
3300.000000	99.129432 
3299.000000	99.129865 
3298.000000	99.130398 
3297.000000	99.130816 
3296.000000	99.131033 
3295.000000	99.131042 
3294.000000	99.130896 
3293.000000	99.130769 
3292.000000	99.130871 
3291.000000	99.131234 
3290.000000	99.131641 
3289.000000	99.131827 
3288.000000	99.131697 
3287.000000	99.131356 
3286.000000	99.131033 
3285.000000	99.130971 
3284.000000	99.131241 
3283.000000	99.131595 
3282.000000	99.131641 
3281.000000	99.131229 
3280.000000	99.130539 
3279.000000	99.129781 
3278.000000	99.129010 
3277.000000	99.128316 
3276.000000	99.127964 
3275.000000	99.128147 
3274.000000	99.128716 
3273.000000	99.129291 
3272.000000	99.129517 
3271.000000	99.129179 
3270.000000	99.128233 
3269.000000	99.126939 
3268.000000	99.125846 
3267.000000	99.125447 
3266.000000	99.125865 
3265.000000	99.126868 
3264.000000	99.128134 
3263.000000	99.129424 
3262.000000	99.130652 
3261.000000	99.131845 
3260.000000	99.132904 
3259.000000	99.133446 
3258.000000	99.133085 
3257.000000	99.131905 
3256.000000	99.130496 
3255.000000	99.129469 
3254.000000	99.129060 
3253.000000	99.129245 
3252.000000	99.129911 
3251.000000	99.130767 
3250.000000	99.131334 
3249.000000	99.131281 
3248.000000	99.130726 
3247.000000	99.130087 
3246.000000	99.129660 
3245.000000	99.129432 
3244.000000	99.129285 
3243.000000	99.129245 
3242.000000	99.129498 
3241.000000	99.130192 
3240.000000	99.131242 
3239.000000	99.132280 
3238.000000	99.132881 
3237.000000	99.132911 
3236.000000	99.132601 
3235.000000	99.132294 
3234.000000	99.132148 
3233.000000	99.132151 
3232.000000	99.132315 
3231.000000	99.132679 
3230.000000	99.133173 
3229.000000	99.133562 
3228.000000	99.133601 
3227.000000	99.133203 
3226.000000	99.132495 
3225.000000	99.131810 
3224.000000	99.131524 
3223.000000	99.131789 
3222.000000	99.132409 
3221.000000	99.132965 
3220.000000	99.133193 
3219.000000	99.133157 
3218.000000	99.133085 
3217.000000	99.133128 
3216.000000	99.133290 
3215.000000	99.133491 
3214.000000	99.133630 
3213.000000	99.133646 
3212.000000	99.133589 
3211.000000	99.133636 
3210.000000	99.133998 
3209.000000	99.134742 
3208.000000	99.135679 
3207.000000	99.136441 
3206.000000	99.136774 
3205.000000	99.136790 
3204.000000	99.136868 
3203.000000	99.137244 
3202.000000	99.137800 
3201.000000	99.138317 
3200.000000	99.138789 
3199.000000	99.139291 
3198.000000	99.139677 
3197.000000	99.139694 
3196.000000	99.139385 
3195.000000	99.139106 
3194.000000	99.139048 
3193.000000	99.138969 
3192.000000	99.138567 
3191.000000	99.137957 
3190.000000	99.137590 
3189.000000	99.137753 
3188.000000	99.138300 
3187.000000	99.138867 
3186.000000	99.139253 
3185.000000	99.139538 
3184.000000	99.139898 
3183.000000	99.140376 
3182.000000	99.140817 
3181.000000	99.140972 
3180.000000	99.140699 
3179.000000	99.140118 
3178.000000	99.139590 
3177.000000	99.139453 
3176.000000	99.139720 
3175.000000	99.140153 
3174.000000	99.140622 
3173.000000	99.141272 
3172.000000	99.142194 
3171.000000	99.143135 
3170.000000	99.143705 
3169.000000	99.143835 
3168.000000	99.143836 
3167.000000	99.144066 
3166.000000	99.144575 
3165.000000	99.145156 
3164.000000	99.145601 
3163.000000	99.145882 
3162.000000	99.146090 
3161.000000	99.146319 
3160.000000	99.146608 
3159.000000	99.146953 
3158.000000	99.147311 
3157.000000	99.147627 
3156.000000	99.147876 
3155.000000	99.148085 
3154.000000	99.148307 
3153.000000	99.148575 
3152.000000	99.148883 
3151.000000	99.149201 
3150.000000	99.149502 
3149.000000	99.149782 
3148.000000	99.150058 
3147.000000	99.150345 
3146.000000	99.150641 
3145.000000	99.150928 
3144.000000	99.151185 
3143.000000	99.151403 
3142.000000	99.151609 
3141.000000	99.151845 
3140.000000	99.152125 
3139.000000	99.152409 
3138.000000	99.152633 
3137.000000	99.152784 
3136.000000	99.152914 
3135.000000	99.153072 
3134.000000	99.153242 
3133.000000	99.153368 
3132.000000	99.153427 
3131.000000	99.153452 
3130.000000	99.153509 
3129.000000	99.153619 
3128.000000	99.153733 
3127.000000	99.153786 
3126.000000	99.153779 
3125.000000	99.153775 
3124.000000	99.153832 
3123.000000	99.153962 
3122.000000	99.154134 
3121.000000	99.154320 
3120.000000	99.154537 
3119.000000	99.154837 
3118.000000	99.155202 
3117.000000	99.155457 
3116.000000	99.155400 
3115.000000	99.155031 
3114.000000	99.154614 
3113.000000	99.154414 
3112.000000	99.154420 
3111.000000	99.154435 
3110.000000	99.154373 
3109.000000	99.154332 
3108.000000	99.154368 
3107.000000	99.154368 
3106.000000	99.154223 
3105.000000	99.154008 
3104.000000	99.153914 
3103.000000	99.154063 
3102.000000	99.154483 
3101.000000	99.155128 
3100.000000	99.155829 
3099.000000	99.156296 
3098.000000	99.156333 
3097.000000	99.156018 
3096.000000	99.155664 
3095.000000	99.155558 
3094.000000	99.155733 
3093.000000	99.156034 
3092.000000	99.156300 
3091.000000	99.156441 
3090.000000	99.156393 
3089.000000	99.156157 
3088.000000	99.155926 
3087.000000	99.156037 
3086.000000	99.156665 
3085.000000	99.157627 
3084.000000	99.158534 
3083.000000	99.159120 
3082.000000	99.159351 
3081.000000	99.159309 
3080.000000	99.159110 
3079.000000	99.158898 
3078.000000	99.158758 
3077.000000	99.158511 
3076.000000	99.157743 
3075.000000	99.156210 
3074.000000	99.154285 
3073.000000	99.152880 
3072.000000	99.152831 
3071.000000	99.154370 
3070.000000	99.157013 
3069.000000	99.159643 
3068.000000	99.160677 
3067.000000	99.158771 
3066.000000	99.154046 
3065.000000	99.148702 
3064.000000	99.145607 
3063.000000	99.145845 
3062.000000	99.147981 
3061.000000	99.149783 
3060.000000	99.150432 
3059.000000	99.150802 
3058.000000	99.151980 
3057.000000	99.153947 
3056.000000	99.155592 
3055.000000	99.155820 
3054.000000	99.154658 
3053.000000	99.153273 
3052.000000	99.152717 
3051.000000	99.152670 
3050.000000	99.151741 
3049.000000	99.149063 
3048.000000	99.145130 
3047.000000	99.141079 
3046.000000	99.137783 
3045.000000	99.135811 
3044.000000	99.135387 
3043.000000	99.135762 
3042.000000	99.135235 
3041.000000	99.132574 
3040.000000	99.128336 
3039.000000	99.124296 
3038.000000	99.121716 
3037.000000	99.120531 
3036.000000	99.119854 
3035.000000	99.118707 
3034.000000	99.116424 
3033.000000	99.112880 
3032.000000	99.108405 
3031.000000	99.103293 
3030.000000	99.097316 
3029.000000	99.089920 
3028.000000	99.081124 
3027.000000	99.072048 
3026.000000	99.064346 
3025.000000	99.058899 
3024.000000	99.054886 
3023.000000	99.050141 
3022.000000	99.042701 
3021.000000	99.032361 
3020.000000	99.020994 
3019.000000	99.011364 
3018.000000	99.005411 
3017.000000	99.003069 
3016.000000	99.002110 
3015.000000	98.999289 
3014.000000	98.992442 
3013.000000	98.981830 
3012.000000	98.969262 
3011.000000	98.955964 
3010.000000	98.941915 
3009.000000	98.927328 
3008.000000	98.913767 
3007.000000	98.903068 
3006.000000	98.895575 
3005.000000	98.889887 
3004.000000	98.883893 
3003.000000	98.875613 
3002.000000	98.863850 
3001.000000	98.849329 
3000.000000	98.835089 
2999.000000	98.824497 
2998.000000	98.818477 
2997.000000	98.815332 
2996.000000	98.813179 
2995.000000	98.811268 
2994.000000	98.808218 
2993.000000	98.800475 
2992.000000	98.784846 
2991.000000	98.763005 
2990.000000	98.742029 
2989.000000	98.729000 
2988.000000	98.725446 
2987.000000	98.727536 
2986.000000	98.730859 
2985.000000	98.734127 
2984.000000	98.738120 
2983.000000	98.742602 
2982.000000	98.745678 
2981.000000	98.745829 
2980.000000	98.743524 
2979.000000	98.740610 
2978.000000	98.738729 
2977.000000	98.738441 
2976.000000	98.739215 
2975.000000	98.739813 
2974.000000	98.739039 
2973.000000	98.736619 
2972.000000	98.733449 
2971.000000	98.730936 
2970.000000	98.730194 
2969.000000	98.731734 
2968.000000	98.735500 
2967.000000	98.741007 
2966.000000	98.747667 
2965.000000	98.755160 
2964.000000	98.763438 
2963.000000	98.772386 
2962.000000	98.781579 
2961.000000	98.790294 
2960.000000	98.797703 
2959.000000	98.803426 
2958.000000	98.808247 
2957.000000	98.813829 
2956.000000	98.820827 
2955.000000	98.827390 
2954.000000	98.830674 
2953.000000	98.830498 
2952.000000	98.830725 
2951.000000	98.836014 
2950.000000	98.847074 
2949.000000	98.859635 
2948.000000	98.868257 
2947.000000	98.870706 
2946.000000	98.868807 
2945.000000	98.866099 
2944.000000	98.864985 
2943.000000	98.865793 
2942.000000	98.867717 
2941.000000	98.869920 
2940.000000	98.871775 
2939.000000	98.872744 
2938.000000	98.872521 
2937.000000	98.871340 
2936.000000	98.869976 
2935.000000	98.869473 
2934.000000	98.870715 
2933.000000	98.873824 
2932.000000	98.877635 
2931.000000	98.880056 
2930.000000	98.879499 
2929.000000	98.876215 
2928.000000	98.872183 
2927.000000	98.869649 
2926.000000	98.869616 
2925.000000	98.871258 
2924.000000	98.872496 
2923.000000	98.871552 
2922.000000	98.868525 
2921.000000	98.865404 
2920.000000	98.864095 
2919.000000	98.864520 
2918.000000	98.864956 
2917.000000	98.863909 
2916.000000	98.861173 
2915.000000	98.857442 
2914.000000	98.853767 
2913.000000	98.851399 
2912.000000	98.851166 
2911.000000	98.852532 
2910.000000	98.853696 
2909.000000	98.853018 
2908.000000	98.850082 
2907.000000	98.845349 
2906.000000	98.839372 
2905.000000	98.832574 
2904.000000	98.825350 
2903.000000	98.818162 
2902.000000	98.812088 
2901.000000	98.809237 
2900.000000	98.811828 
2899.000000	98.820190 
2898.000000	98.831640 
2897.000000	98.842054 
2896.000000	98.848877 
2895.000000	98.852659 
2894.000000	98.855823 
2893.000000	98.860133 
2892.000000	98.865162 
2891.000000	98.868940 
2890.000000	98.870068 
2889.000000	98.869177 
2888.000000	98.868300 
2887.000000	98.869074 
2886.000000	98.871853 
2885.000000	98.876210 
2884.000000	98.881561 
2883.000000	98.887242 
2882.000000	98.892718 
2881.000000	98.898090 
2880.000000	98.904048 
2879.000000	98.911133 
2878.000000	98.919342 
2877.000000	98.928340 
2876.000000	98.937417 
2875.000000	98.945158 
2874.000000	98.949954 
2873.000000	98.951474 
2872.000000	98.951361 
2871.000000	98.952091 
2870.000000	98.955260 
2869.000000	98.960986 
2868.000000	98.968357 
2867.000000	98.976136 
2866.000000	98.983615 
2865.000000	98.991246 
2864.000000	98.999963 
2863.000000	99.009396 
2862.000000	99.017360 
2861.000000	99.021995 
2860.000000	99.024191 
2859.000000	99.027070 
2858.000000	99.032879 
2857.000000	99.040968 
2856.000000	99.048925 
2855.000000	99.055124 
2854.000000	99.059743 
2853.000000	99.063787 
2852.000000	99.067848 
2851.000000	99.071975 
2850.000000	99.076347 
2849.000000	99.081408 
2848.000000	99.087091 
2847.000000	99.092302 
2846.000000	99.095653 
2845.000000	99.096719 
2844.000000	99.096410 
2843.000000	99.096286 
2842.000000	99.097744 
2841.000000	99.101541 
2840.000000	99.107304 
2839.000000	99.113222 
2838.000000	99.116873 
2837.000000	99.117013 
2836.000000	99.114591 
2835.000000	99.112034 
2834.000000	99.111510 
2833.000000	99.113707 
2832.000000	99.117702 
2831.000000	99.121639 
2830.000000	99.124039 
2829.000000	99.124975 
2828.000000	99.125918 
2827.000000	99.128117 
2826.000000	99.131260 
2825.000000	99.133971 
2824.000000	99.135426 
2823.000000	99.136182 
2822.000000	99.137439 
2821.000000	99.139722 
2820.000000	99.142330 
2819.000000	99.144051 
2818.000000	99.144478 
2817.000000	99.144497 
2816.000000	99.145232 
2815.000000	99.146614 
2814.000000	99.147541 
2813.000000	99.147445 
2812.000000	99.147046 
2811.000000	99.147262 
2810.000000	99.147920 
2809.000000	99.148158 
2808.000000	99.147742 
2807.000000	99.147383 
2806.000000	99.147792 
2805.000000	99.148910 
2804.000000	99.150190 
2803.000000	99.151270 
2802.000000	99.152221 
2801.000000	99.153242 
2800.000000	99.154257 
2799.000000	99.154862 
2798.000000	99.154744 
2797.000000	99.154095 
2796.000000	99.153514 
2795.000000	99.153487 
2794.000000	99.154054 
2793.000000	99.154897 
2792.000000	99.155647 
2791.000000	99.156117 
2790.000000	99.156381 
2789.000000	99.156724 
2788.000000	99.157393 
2787.000000	99.158314 
2786.000000	99.159109 
2785.000000	99.159524 
2784.000000	99.159709 
2783.000000	99.159971 
2782.000000	99.160338 
2781.000000	99.160578 
2780.000000	99.160613 
2779.000000	99.160677 
2778.000000	99.161028 
2777.000000	99.161652 
2776.000000	99.162315 
2775.000000	99.162779 
2774.000000	99.162908 
2773.000000	99.162703 
2772.000000	99.162357 
2771.000000	99.162175 
2770.000000	99.162325 
2769.000000	99.162743 
2768.000000	99.163361 
2767.000000	99.164249 
2766.000000	99.165382 
2765.000000	99.166388 
2764.000000	99.166811 
2763.000000	99.166634 
2762.000000	99.166378 
2761.000000	99.166606 
2760.000000	99.167453 
2759.000000	99.168658 
2758.000000	99.169830 
2757.000000	99.170712 
2756.000000	99.171306 
2755.000000	99.171853 
2754.000000	99.172527 
2753.000000	99.173106 
2752.000000	99.173156 
2751.000000	99.172579 
2750.000000	99.171796 
2749.000000	99.171310 
2748.000000	99.171221 
2747.000000	99.171314 
2746.000000	99.171438 
2745.000000	99.171598 
2744.000000	99.171770 
2743.000000	99.171883 
2742.000000	99.172000 
2741.000000	99.172312 
2740.000000	99.172904 
2739.000000	99.173656 
2738.000000	99.174411 
2737.000000	99.175119 
2736.000000	99.175767 
2735.000000	99.176262 
2734.000000	99.176464 
2733.000000	99.176298 
2732.000000	99.175815 
2731.000000	99.175211 
2730.000000	99.174796 
2729.000000	99.174838 
2728.000000	99.175370 
2727.000000	99.176168 
2726.000000	99.176892 
2725.000000	99.177258 
2724.000000	99.177160 
2723.000000	99.176777 
2722.000000	99.176558 
2721.000000	99.176929 
2720.000000	99.177916 
2719.000000	99.179101 
2718.000000	99.179947 
2717.000000	99.180213 
2716.000000	99.180020 
2715.000000	99.179701 
2714.000000	99.179617 
2713.000000	99.179962 
2712.000000	99.180547 
2711.000000	99.180896 
2710.000000	99.180719 
2709.000000	99.180232 
2708.000000	99.179880 
2707.000000	99.179802 
2706.000000	99.179747 
2705.000000	99.179496 
2704.000000	99.179139 
2703.000000	99.178904 
2702.000000	99.178882 
2701.000000	99.178972 
2700.000000	99.178970 
2699.000000	99.178710 
2698.000000	99.178202 
2697.000000	99.177671 
2696.000000	99.177381 
2695.000000	99.177438 
2694.000000	99.177800 
2693.000000	99.178375 
2692.000000	99.178977 
2691.000000	99.179295 
2690.000000	99.179139 
2689.000000	99.178734 
2688.000000	99.178578 
2687.000000	99.178894 
2686.000000	99.179353 
2685.000000	99.179459 
2684.000000	99.179135 
2683.000000	99.178835 
2682.000000	99.179070 
2681.000000	99.179920 
2680.000000	99.180945 
2679.000000	99.181537 
2678.000000	99.181395 
2677.000000	99.180672 
2676.000000	99.179784 
2675.000000	99.179084 
2674.000000	99.178724 
2673.000000	99.178670 
2672.000000	99.178736 
2671.000000	99.178658 
2670.000000	99.178258 
2669.000000	99.177546 
2668.000000	99.176706 
2667.000000	99.176028 
2666.000000	99.175802 
2665.000000	99.176135 
2664.000000	99.176802 
2663.000000	99.177327 
2662.000000	99.177409 
2661.000000	99.177187 
2660.000000	99.176992 
2659.000000	99.176915 
2658.000000	99.176770 
2657.000000	99.176474 
2656.000000	99.176221 
2655.000000	99.176231 
2654.000000	99.176464 
2653.000000	99.176669 
2652.000000	99.176603 
2651.000000	99.176195 
2650.000000	99.175576 
2649.000000	99.175003 
2648.000000	99.174645 
2647.000000	99.174460 
2646.000000	99.174379 
2645.000000	99.174555 
2644.000000	99.175186 
2643.000000	99.176078 
2642.000000	99.176725 
2641.000000	99.176917 
2640.000000	99.176945 
2639.000000	99.177029 
2638.000000	99.176936 
2637.000000	99.176436 
2636.000000	99.175732 
2635.000000	99.175167 
2634.000000	99.174795 
2633.000000	99.174551 
2632.000000	99.174553 
2631.000000	99.174927 
2630.000000	99.175456 
2629.000000	99.175721 
2628.000000	99.175574 
2627.000000	99.175221 
2626.000000	99.174880 
2625.000000	99.174554 
2624.000000	99.174168 
2623.000000	99.173755 
2622.000000	99.173456 
2621.000000	99.173450 
2620.000000	99.173832 
2619.000000	99.174471 
2618.000000	99.175007 
2617.000000	99.175139 
2616.000000	99.174875 
2615.000000	99.174487 
2614.000000	99.174222 
2613.000000	99.174128 
2612.000000	99.174151 
2611.000000	99.174288 
2610.000000	99.174581 
2609.000000	99.174992 
2608.000000	99.175354 
2607.000000	99.175478 
2606.000000	99.175328 
2605.000000	99.175077 
2604.000000	99.174913 
2603.000000	99.174791 
2602.000000	99.174490 
2601.000000	99.173924 
2600.000000	99.173277 
2599.000000	99.172833 
2598.000000	99.172702 
2597.000000	99.172793 
2596.000000	99.172932 
2595.000000	99.172954 
2594.000000	99.172775 
2593.000000	99.172414 
2592.000000	99.171993 
2591.000000	99.171668 
2590.000000	99.171489 
2589.000000	99.171395 
2588.000000	99.171294 
2587.000000	99.171147 
2586.000000	99.170938 
2585.000000	99.170614 
2584.000000	99.170125 
2583.000000	99.169554 
2582.000000	99.169127 
2581.000000	99.169002 
2580.000000	99.169098 
2579.000000	99.169137 
2578.000000	99.168923 
2577.000000	99.168514 
2576.000000	99.168134 
2575.000000	99.167944 
2574.000000	99.167938 
2573.000000	99.168050 
2572.000000	99.168240 
2571.000000	99.168429 
2570.000000	99.168481 
2569.000000	99.168358 
2568.000000	99.168224 
2567.000000	99.168284 
2566.000000	99.168529 
2565.000000	99.168751 
2564.000000	99.168822 
2563.000000	99.168836 
2562.000000	99.168909 
2561.000000	99.168961 
2560.000000	99.168865 
2559.000000	99.168734 
2558.000000	99.168799 
2557.000000	99.168953 
2556.000000	99.168674 
2555.000000	99.167687 
2554.000000	99.166553 
2553.000000	99.166167 
2552.000000	99.166694 
2551.000000	99.167328 
2550.000000	99.167296 
2549.000000	99.166742 
2548.000000	99.166256 
2547.000000	99.165934 
2546.000000	99.165482 
2545.000000	99.165096 
2544.000000	99.165519 
2543.000000	99.167115 
2542.000000	99.169347 
2541.000000	99.171217 
2540.000000	99.172082 
2539.000000	99.171950 
2538.000000	99.171311 
2537.000000	99.170756 
2536.000000	99.170483 
2535.000000	99.170228 
2534.000000	99.169870 
2533.000000	99.169875 
2532.000000	99.170730 
2531.000000	99.172125 
2530.000000	99.173200 
2529.000000	99.173635 
2528.000000	99.173923 
2527.000000	99.174523 
2526.000000	99.175237 
2525.000000	99.175654 
2524.000000	99.175729 
2523.000000	99.175573 
2522.000000	99.175103 
2521.000000	99.174270 
2520.000000	99.173364 
2519.000000	99.172759 
2518.000000	99.172524 
2517.000000	99.172465 
2516.000000	99.172427 
2515.000000	99.172384 
2514.000000	99.172378 
2513.000000	99.172483 
2512.000000	99.172720 
2511.000000	99.172912 
2510.000000	99.172791 
2509.000000	99.172357 
2508.000000	99.171980 
2507.000000	99.172007 
2506.000000	99.172348 
2505.000000	99.172596 
2504.000000	99.172493 
2503.000000	99.172119 
2502.000000	99.171699 
2501.000000	99.171387 
2500.000000	99.171249 
2499.000000	99.171333 
2498.000000	99.171665 
2497.000000	99.172185 
2496.000000	99.172720 
2495.000000	99.173032 
2494.000000	99.172915 
2493.000000	99.172315 
2492.000000	99.171376 
2491.000000	99.170391 
2490.000000	99.169670 
2489.000000	99.169400 
2488.000000	99.169592 
2487.000000	99.170065 
2486.000000	99.170520 
2485.000000	99.170735 
2484.000000	99.170691 
2483.000000	99.170512 
2482.000000	99.170313 
2481.000000	99.170118 
2480.000000	99.169915 
2479.000000	99.169730 
2478.000000	99.169607 
2477.000000	99.169532 
2476.000000	99.169443 
2475.000000	99.169328 
2474.000000	99.169270 
2473.000000	99.169380 
2472.000000	99.169686 
2471.000000	99.170123 
2470.000000	99.170572 
2469.000000	99.170883 
2468.000000	99.170879 
2467.000000	99.170473 
2466.000000	99.169892 
2465.000000	99.169629 
2464.000000	99.169974 
2463.000000	99.170640 
2462.000000	99.170971 
2461.000000	99.170597 
2460.000000	99.169719 
2459.000000	99.168802 
2458.000000	99.168133 
2457.000000	99.167755 
2456.000000	99.167587 
2455.000000	99.167436 
2454.000000	99.167045 
2453.000000	99.166355 
2452.000000	99.165636 
2451.000000	99.165223 
2450.000000	99.165165 
2449.000000	99.165267 
2448.000000	99.165380 
2447.000000	99.165442 
2446.000000	99.165363 
2445.000000	99.165116 
2444.000000	99.164906 
2443.000000	99.165032 
2442.000000	99.165560 
2441.000000	99.166230 
2440.000000	99.166713 
2439.000000	99.166859 
2438.000000	99.166738 
2437.000000	99.166536 
2436.000000	99.166384 
2435.000000	99.166177 
2434.000000	99.165598 
2433.000000	99.164428 
2432.000000	99.162822 
2431.000000	99.161269 
2430.000000	99.160255 
2429.000000	99.160015 
2428.000000	99.160543 
2427.000000	99.161671 
2426.000000	99.163065 
2425.000000	99.164194 
2424.000000	99.164530 
2423.000000	99.163871 
2422.000000	99.162544 
2421.000000	99.161302 
2420.000000	99.160713 
2419.000000	99.160780 
2418.000000	99.161229 
2417.000000	99.161929 
2416.000000	99.162856 
2415.000000	99.163736 
2414.000000	99.164127 
2413.000000	99.163993 
2412.000000	99.163869 
2411.000000	99.164268 
2410.000000	99.165097 
2409.000000	99.165842 
2408.000000	99.166249 
2407.000000	99.166539 
2406.000000	99.167007 
2405.000000	99.167638 
2404.000000	99.168215 
2403.000000	99.168585 
2402.000000	99.168746 
2401.000000	99.168805 
2400.000000	99.168936 
2399.000000	99.169286 
2398.000000	99.169863 
2397.000000	99.170568 
2396.000000	99.171343 
2395.000000	99.172217 
2394.000000	99.173187 
2393.000000	99.174133 
2392.000000	99.174932 
2391.000000	99.175651 
2390.000000	99.176550 
2389.000000	99.177829 
2388.000000	99.179390 
2387.000000	99.180876 
2386.000000	99.181988 
2385.000000	99.182713 
2384.000000	99.183224 
2383.000000	99.183672 
2382.000000	99.184133 
2381.000000	99.184700 
2380.000000	99.185420 
2379.000000	99.186133 
2378.000000	99.186589 
2377.000000	99.186786 
2376.000000	99.187092 
2375.000000	99.187879 
2374.000000	99.189170 
2373.000000	99.190662 
2372.000000	99.192010 
2371.000000	99.193096 
2370.000000	99.193948 
2369.000000	99.194572 
2368.000000	99.194947 
2367.000000	99.195115 
2366.000000	99.195216 
2365.000000	99.195453 
2364.000000	99.195988 
2363.000000	99.196812 
2362.000000	99.197717 
2361.000000	99.198436 
2360.000000	99.198862 
2359.000000	99.199086 
2358.000000	99.199266 
2357.000000	99.199500 
2356.000000	99.199801 
2355.000000	99.200112 
2354.000000	99.200330 
2353.000000	99.200408 
2352.000000	99.200428 
2351.000000	99.200523 
2350.000000	99.200717 
2349.000000	99.200941 
2348.000000	99.201120 
2347.000000	99.201221 
2346.000000	99.201235 
2345.000000	99.201155 
2344.000000	99.201015 
2343.000000	99.200869 
2342.000000	99.200757 
2341.000000	99.200686 
2340.000000	99.200586 
2339.000000	99.200366 
2338.000000	99.200012 
2337.000000	99.199677 
2336.000000	99.199559 
2335.000000	99.199665 
2334.000000	99.199726 
2333.000000	99.199469 
2332.000000	99.198846 
2331.000000	99.197963 
2330.000000	99.196839 
2329.000000	99.195573 
2328.000000	99.194484 
2327.000000	99.193844 
2326.000000	99.193549 
2325.000000	99.193106 
2324.000000	99.192173 
2323.000000	99.190903 
2322.000000	99.189862 
2321.000000	99.189458 
2320.000000	99.189580 
2319.000000	99.189658 
2318.000000	99.189139 
2317.000000	99.187956 
2316.000000	99.186493 
2315.000000	99.185156 
2314.000000	99.183979 
2313.000000	99.182816 
2312.000000	99.181655 
2311.000000	99.180647 
2310.000000	99.179916 
2309.000000	99.179414 
2308.000000	99.178800 
2307.000000	99.177476 
2306.000000	99.175105 
2305.000000	99.172060 
2304.000000	99.169153 
2303.000000	99.166890 
2302.000000	99.165215 
2301.000000	99.163920 
2300.000000	99.162933 
2299.000000	99.162051 
2298.000000	99.160905 
2297.000000	99.159449 
2296.000000	99.158160 
2295.000000	99.157349 
2294.000000	99.156516 
2293.000000	99.154869 
2292.000000	99.152345 
2291.000000	99.149643 
2290.000000	99.147364 
2289.000000	99.145473 
2288.000000	99.143638 
2287.000000	99.141731 
2286.000000	99.139855 
2285.000000	99.138087 
2284.000000	99.136424 
2283.000000	99.134856 
2282.000000	99.133286 
2281.000000	99.131438 
2280.000000	99.129055 
2279.000000	99.126325 
2278.000000	99.123948 
2277.000000	99.122582 
2276.000000	99.122264 
2275.000000	99.122391 
2274.000000	99.122198 
2273.000000	99.121202 
2272.000000	99.119193 
2271.000000	99.116105 
2270.000000	99.112311 
2269.000000	99.108974 
2268.000000	99.107520 
2267.000000	99.108504 
2266.000000	99.111014 
2265.000000	99.113203 
2264.000000	99.113508 
2263.000000	99.111416 
2262.000000	99.107801 
2261.000000	99.104709 
2260.000000	99.103784 
2259.000000	99.104450 
2258.000000	99.104233 
2257.000000	99.101498 
2256.000000	99.097172 
2255.000000	99.093321 
2254.000000	99.090791 
2253.000000	99.089298 
2252.000000	99.089030 
2251.000000	99.090564 
2250.000000	99.093499 
2249.000000	99.096470 
2248.000000	99.098422 
2247.000000	99.098881 
2246.000000	99.097303 
2245.000000	99.093303 
2244.000000	99.087461 
2243.000000	99.080998 
2242.000000	99.074814 
2241.000000	99.069570 
2240.000000	99.066095 
2239.000000	99.064621 
2238.000000	99.064096 
2237.000000	99.063086 
2236.000000	99.061032 
2235.000000	99.057951 
2234.000000	99.053843 
2233.000000	99.049646 
2232.000000	99.047730 
2231.000000	99.049725 
2230.000000	99.054412 
2229.000000	99.058887 
2228.000000	99.061696 
2227.000000	99.063436 
2226.000000	99.064643 
2225.000000	99.064838 
2224.000000	99.063654 
2223.000000	99.061664 
2222.000000	99.059821 
2221.000000	99.058738 
2220.000000	99.058514 
2219.000000	99.058783 
2218.000000	99.059031 
2217.000000	99.059260 
2216.000000	99.060087 
2215.000000	99.061734 
2214.000000	99.063187 
2213.000000	99.062974 
2212.000000	99.060671 
2211.000000	99.057260 
2210.000000	99.054314 
2209.000000	99.052901 
2208.000000	99.053074 
2207.000000	99.053944 
2206.000000	99.054236 
2205.000000	99.053267 
2204.000000	99.051317 
2203.000000	99.049156 
2202.000000	99.047421 
2201.000000	99.046442 
2200.000000	99.046225 
2199.000000	99.046248 
2198.000000	99.045676 
2197.000000	99.044319 
2196.000000	99.043171 
2195.000000	99.043382 
2194.000000	99.044991 
2193.000000	99.046903 
2192.000000	99.047950 
2191.000000	99.047680 
2190.000000	99.046110 
2189.000000	99.043558 
2188.000000	99.040887 
2187.000000	99.039224 
2186.000000	99.039078 
2185.000000	99.040029 
2184.000000	99.041383 
2183.000000	99.042811 
2182.000000	99.044073 
2181.000000	99.044848 
2180.000000	99.045250 
2179.000000	99.045663 
2178.000000	99.045658 
2177.000000	99.044065 
2176.000000	99.040609 
2175.000000	99.036588 
2174.000000	99.033403 
2173.000000	99.031264 
2172.000000	99.029884 
2171.000000	99.029388 
2170.000000	99.029925 
2169.000000	99.031217 
2168.000000	99.033153 
2167.000000	99.035923 
2166.000000	99.038861 
2165.000000	99.040333 
2164.000000	99.039598 
2163.000000	99.037635 
2162.000000	99.035617 
2161.000000	99.033737 
2160.000000	99.032354 
2159.000000	99.032775 
2158.000000	99.035513 
2157.000000	99.039162 
2156.000000	99.042258 
2155.000000	99.044813 
2154.000000	99.047022 
2153.000000	99.048148 
2152.000000	99.047696 
2151.000000	99.046642 
2150.000000	99.046596 
2149.000000	99.048513 
2148.000000	99.052565 
2147.000000	99.058123 
2146.000000	99.063286 
2145.000000	99.065803 
2144.000000	99.065246 
2143.000000	99.063547 
2142.000000	99.062707 
2141.000000	99.062797 
2140.000000	99.063110 
2139.000000	99.063806 
2138.000000	99.065304 
2137.000000	99.066940 
2136.000000	99.067585 
2135.000000	99.067367 
2134.000000	99.067669 
2133.000000	99.069408 
2132.000000	99.072006 
2131.000000	99.074063 
2130.000000	99.074598 
2129.000000	99.073710 
2128.000000	99.072533 
2127.000000	99.072343 
2126.000000	99.073417 
2125.000000	99.074937 
2124.000000	99.076181 
2123.000000	99.077496 
2122.000000	99.079522 
2121.000000	99.081825 
2120.000000	99.083157 
2119.000000	99.083006 
2118.000000	99.082095 
2117.000000	99.081371 
2116.000000	99.081051 
2115.000000	99.080889 
2114.000000	99.080831 
2113.000000	99.081026 
2112.000000	99.081431 
2111.000000	99.081665 
2110.000000	99.081299 
2109.000000	99.080261 
2108.000000	99.078944 
2107.000000	99.077800 
2106.000000	99.076724 
2105.000000	99.075011 
2104.000000	99.072212 
2103.000000	99.068998 
2102.000000	99.066845 
2101.000000	99.066640 
2100.000000	99.067862 
2099.000000	99.069173 
2098.000000	99.069762 
2097.000000	99.070057 
2096.000000	99.070942 
2095.000000	99.072341 
2094.000000	99.072810 
2093.000000	99.070950 
2092.000000	99.067116 
2091.000000	99.063610 
2090.000000	99.062637 
2089.000000	99.064313 
2088.000000	99.066677 
2087.000000	99.067519 
2086.000000	99.066293 
2085.000000	99.064231 
2084.000000	99.063031 
2083.000000	99.063326 
2082.000000	99.064320 
2081.000000	99.064829 
2080.000000	99.064624 
2079.000000	99.064431 
2078.000000	99.064727 
2077.000000	99.065206 
2076.000000	99.065723 
2075.000000	99.066991 
2074.000000	99.069528 
2073.000000	99.072359 
2072.000000	99.073613 
2071.000000	99.072345 
2070.000000	99.069098 
2069.000000	99.065010 
2068.000000	99.061010 
2067.000000	99.057725 
2066.000000	99.055296 
2065.000000	99.053026 
2064.000000	99.050066 
2063.000000	99.046902 
2062.000000	99.045429 
2061.000000	99.047041 
2060.000000	99.050972 
2059.000000	99.054927 
2058.000000	99.057203 
2057.000000	99.057725 
2056.000000	99.057098 
2055.000000	99.055297 
2054.000000	99.051833 
2053.000000	99.047011 
2052.000000	99.042332 
2051.000000	99.039164 
2050.000000	99.037275 
2049.000000	99.035012 
2048.000000	99.030951 
2047.000000	99.025256 
2046.000000	99.019420 
2045.000000	99.015097 
2044.000000	99.013189 
2043.000000	99.013236 
2042.000000	99.013475 
2041.000000	99.012211 
2040.000000	99.009710 
2039.000000	99.008284 
2038.000000	99.009850 
2037.000000	99.013598 
2036.000000	99.016395 
2035.000000	99.015602 
2034.000000	99.011228 
2033.000000	99.005426 
2032.000000	99.000236 
2031.000000	98.995999 
2030.000000	98.992156 
2029.000000	98.988952 
2028.000000	98.987390 
2027.000000	98.987607 
2026.000000	98.988485 
2025.000000	98.989391 
2024.000000	98.991092 
2023.000000	98.993883 
2022.000000	98.995715 
2021.000000	98.994036 
2020.000000	98.989406 
2019.000000	98.985625 
2018.000000	98.985579 
2017.000000	98.988221 
2016.000000	98.990276 
2015.000000	98.990318 
2014.000000	98.989879 
2013.000000	98.990851 
2012.000000	98.993207 
2011.000000	98.995398 
2010.000000	98.996521 
2009.000000	98.997545 
2008.000000	99.000097 
2007.000000	99.004258 
2006.000000	99.007970 
2005.000000	99.009163 
2004.000000	99.008024 
2003.000000	99.006610 
2002.000000	99.006440 
2001.000000	99.007029 
2000.000000	99.006992 
1999.000000	99.005794 
1998.000000	99.004181 
1997.000000	99.003450 
1996.000000	99.004428 
1995.000000	99.006999 
1994.000000	99.010166 
1993.000000	99.012615 
1992.000000	99.013665 
1991.000000	99.013660 
1990.000000	99.013398 
1989.000000	99.013347 
1988.000000	99.013508 
1987.000000	99.013665 
1986.000000	99.013551 
1985.000000	99.013065 
1984.000000	99.012557 
1983.000000	99.012698 
1982.000000	99.013815 
1981.000000	99.015342 
1980.000000	99.016165 
1979.000000	99.015739 
1978.000000	99.014681 
1977.000000	99.014139 
1976.000000	99.014447 
1975.000000	99.014933 
1974.000000	99.015108 
1973.000000	99.015611 
1972.000000	99.017427 
1971.000000	99.020536 
1970.000000	99.023611 
1969.000000	99.025181 
1968.000000	99.024891 
1967.000000	99.023573 
1966.000000	99.022394 
1965.000000	99.021879 
1964.000000	99.022066 
1963.000000	99.023010 
1962.000000	99.024651 
1961.000000	99.026512 
1960.000000	99.028162 
1959.000000	99.029884 
1958.000000	99.032395 
1957.000000	99.035818 
1956.000000	99.039272 
1955.000000	99.041655 
1954.000000	99.042583 
1953.000000	99.042455 
1952.000000	99.041829 
1951.000000	99.041035 
1950.000000	99.040391 
1949.000000	99.040354 
1948.000000	99.041173 
1947.000000	99.042339 
1946.000000	99.042586 
1945.000000	99.040813 
1944.000000	99.037363 
1943.000000	99.034460 
1942.000000	99.034661 
1941.000000	99.038521 
1940.000000	99.044065 
1939.000000	99.048717 
1938.000000	99.051750 
1937.000000	99.054395 
1936.000000	99.057703 
1935.000000	99.060881 
1934.000000	99.062442 
1933.000000	99.062669 
1932.000000	99.063744 
1931.000000	99.067224 
1930.000000	99.072069 
1929.000000	99.075813 
1928.000000	99.077400 
1927.000000	99.077545 
1926.000000	99.077009 
1925.000000	99.075907 
1924.000000	99.074610 
1923.000000	99.074226 
1922.000000	99.075397 
1921.000000	99.077288 
1920.000000	99.078340 
1919.000000	99.077549 
1918.000000	99.075059 
1917.000000	99.072300 
1916.000000	99.071087 
1915.000000	99.071949 
1914.000000	99.073877 
1913.000000	99.075727 
1912.000000	99.077409 
1911.000000	99.079411 
1910.000000	99.081366 
1909.000000	99.082367 
1908.000000	99.082742 
1907.000000	99.083847 
1906.000000	99.086029 
1905.000000	99.087867 
1904.000000	99.088138 
1903.000000	99.087498 
1902.000000	99.087358 
1901.000000	99.088190 
1900.000000	99.089650 
1899.000000	99.091341 
1898.000000	99.092929 
1897.000000	99.094044 
1896.000000	99.094615 
1895.000000	99.095050 
1894.000000	99.095567 
1893.000000	99.095927 
1892.000000	99.096120 
1891.000000	99.096582 
1890.000000	99.097312 
1889.000000	99.097559 
1888.000000	99.097053 
1887.000000	99.096588 
1886.000000	99.096997 
1885.000000	99.098363 
1884.000000	99.100324 
1883.000000	99.102598 
1882.000000	99.104771 
1881.000000	99.106292 
1880.000000	99.107288 
1879.000000	99.108707 
1878.000000	99.111310 
1877.000000	99.114718 
1876.000000	99.117663 
1875.000000	99.119067 
1874.000000	99.118549 
1873.000000	99.116444 
1872.000000	99.113877 
1871.000000	99.112182 
1870.000000	99.111779 
1869.000000	99.111900 
1868.000000	99.112139 
1867.000000	99.113292 
1866.000000	99.115546 
1865.000000	99.117467 
1864.000000	99.117513 
1863.000000	99.115597 
1862.000000	99.113009 
1861.000000	99.111177 
1860.000000	99.110680 
1859.000000	99.111405 
1858.000000	99.112818 
1857.000000	99.114146 
1856.000000	99.114957 
1855.000000	99.115574 
1854.000000	99.116471 
1853.000000	99.117487 
1852.000000	99.118124 
1851.000000	99.118206 
1850.000000	99.118101 
1849.000000	99.118362 
1848.000000	99.119176 
1847.000000	99.120221 
1846.000000	99.120944 
1845.000000	99.121046 
1844.000000	99.120822 
1843.000000	99.121001 
1842.000000	99.121805 
1841.000000	99.122692 
1840.000000	99.123145 
1839.000000	99.123025 
1838.000000	99.122451 
1837.000000	99.121649 
1836.000000	99.120959 
1835.000000	99.120726 
1834.000000	99.120931 
1833.000000	99.121194 
1832.000000	99.121102 
1831.000000	99.120423 
1830.000000	99.119363 
1829.000000	99.118707 
1828.000000	99.119048 
1827.000000	99.120078 
1826.000000	99.120969 
1825.000000	99.121168 
1824.000000	99.120749 
1823.000000	99.120124 
1822.000000	99.119321 
1821.000000	99.118206 
1820.000000	99.117213 
1819.000000	99.117198 
1818.000000	99.118521 
1817.000000	99.120297 
1816.000000	99.121361 
1815.000000	99.121804 
1814.000000	99.122473 
1813.000000	99.123645 
1812.000000	99.124732 
1811.000000	99.125454 
1810.000000	99.126273 
1809.000000	99.127065 
1808.000000	99.126991 
1807.000000	99.125797 
1806.000000	99.124066 
1805.000000	99.122409 
1804.000000	99.121154 
1803.000000	99.120626 
1802.000000	99.120804 
1801.000000	99.120979 
1800.000000	99.120482 
1799.000000	99.119891 
1798.000000	99.120310 
1797.000000	99.121776 
1796.000000	99.123431 
1795.000000	99.124664 
1794.000000	99.125464 
1793.000000	99.125875 
1792.000000	99.125756 
1791.000000	99.125538 
1790.000000	99.125793 
1789.000000	99.126214 
1788.000000	99.126350 
1787.000000	99.126397 
1786.000000	99.126812 
1785.000000	99.127450 
1784.000000	99.127760 
1783.000000	99.127576 
1782.000000	99.127080 
1781.000000	99.126601 
1780.000000	99.126356 
1779.000000	99.126430 
1778.000000	99.126824 
1777.000000	99.127399 
1776.000000	99.128001 
1775.000000	99.128504 
1774.000000	99.128934 
1773.000000	99.129419 
1772.000000	99.129865 
1771.000000	99.130067 
1770.000000	99.130051 
1769.000000	99.129980 
1768.000000	99.130010 
1767.000000	99.130195 
1766.000000	99.130489 
1765.000000	99.130828 
1764.000000	99.131173 
1763.000000	99.131512 
1762.000000	99.131839 
1761.000000	99.132155 
1760.000000	99.132464 
1759.000000	99.132787 
1758.000000	99.133139 
1757.000000	99.133508 
1756.000000	99.133867 
1755.000000	99.134204 
1754.000000	99.134522 
1753.000000	99.134827 
1752.000000	99.135123 
1751.000000	99.135414 
1750.000000	99.135701 
1749.000000	99.135986 
1748.000000	99.136277 
1747.000000	99.136581 
1746.000000	99.136896 
1745.000000	99.137219 
1744.000000	99.137543 
1743.000000	99.137866 
1742.000000	99.138187 
1741.000000	99.138505 
1740.000000	99.138818 
1739.000000	99.139124 
1738.000000	99.139419 
1737.000000	99.139697 
1736.000000	99.139954 
1735.000000	99.140192 
1734.000000	99.140407 
1733.000000	99.140599 
1732.000000	99.140774 
1731.000000	99.140941 
1730.000000	99.141107 
1729.000000	99.141279 
1728.000000	99.141464 
1727.000000	99.141661 
1726.000000	99.141867 
1725.000000	99.142072 
1724.000000	99.142265 
1723.000000	99.142439 
1722.000000	99.142594 
1721.000000	99.142734 
1720.000000	99.142866 
1719.000000	99.142992 
1718.000000	99.143106 
1717.000000	99.143199 
1716.000000	99.143264 
1715.000000	99.143310 
1714.000000	99.143347 
1713.000000	99.143381 
1712.000000	99.143414 
1711.000000	99.143446 
1710.000000	99.143478 
1709.000000	99.143507 
1708.000000	99.143529 
1707.000000	99.143542 
1706.000000	99.143545 
1705.000000	99.143535 
1704.000000	99.143511 
1703.000000	99.143473 
1702.000000	99.143427 
1701.000000	99.143382 
1700.000000	99.143338 
1699.000000	99.143300 
1698.000000	99.143272 
1697.000000	99.143253 
1696.000000	99.143237 
1695.000000	99.143224 
1694.000000	99.143215 
1693.000000	99.143215 
1692.000000	99.143225 
1691.000000	99.143249 
1690.000000	99.143289 
1689.000000	99.143339 
1688.000000	99.143392 
1687.000000	99.143440 
1686.000000	99.143485 
1685.000000	99.143525 
1684.000000	99.143559 
1683.000000	99.143588 
1682.000000	99.143621 
1681.000000	99.143665 
1680.000000	99.143728 
1679.000000	99.143809 
1678.000000	99.143905 
1677.000000	99.144012 
1676.000000	99.144133 
1675.000000	99.144274 
1674.000000	99.144434 
1673.000000	99.144607 
1672.000000	99.144784 
1671.000000	99.144954 
1670.000000	99.145113 
1669.000000	99.145261 
1668.000000	99.145402 
1667.000000	99.145542 
1666.000000	99.145681 
1665.000000	99.145823 
1664.000000	99.145972 
1663.000000	99.146131 
1662.000000	99.146300 
1661.000000	99.146474 
1660.000000	99.146656 
1659.000000	99.146848 
1658.000000	99.147040 
1657.000000	99.147206 
1656.000000	99.147328 
1655.000000	99.147408 
1654.000000	99.147507 
1653.000000	99.147630 
1652.000000	99.147784 
1651.000000	99.148041 
1650.000000	99.148316 
1649.000000	99.148518 
1648.000000	99.148677 
1647.000000	99.148794 
1646.000000	99.148873 
1645.000000	99.149030 
1644.000000	99.149350 
1643.000000	99.149786 
1642.000000	99.150204 
1641.000000	99.150477 
1640.000000	99.150575 
1639.000000	99.150563 
1638.000000	99.150560 
1637.000000	99.150790 
1636.000000	99.151270 
1635.000000	99.151574 
1634.000000	99.151643 
1633.000000	99.151621 
1632.000000	99.151384 
1631.000000	99.150976 
1630.000000	99.150512 
1629.000000	99.150128 
1628.000000	99.150092 
1627.000000	99.150482 
1626.000000	99.150799 
1625.000000	99.150622 
1624.000000	99.150351 
1623.000000	99.150554 
1622.000000	99.151017 
1621.000000	99.151279 
1620.000000	99.151365 
1619.000000	99.151555 
1618.000000	99.152155 
1617.000000	99.152925 
1616.000000	99.153961 
1615.000000	99.155644 
1614.000000	99.157157 
1613.000000	99.157762 
1612.000000	99.158224 
1611.000000	99.159279 
1610.000000	99.160080 
1609.000000	99.159719 
1608.000000	99.158982 
1607.000000	99.159007 
1606.000000	99.159432 
1605.000000	99.159681 
1604.000000	99.160165 
1603.000000	99.161098 
1602.000000	99.161878 
1601.000000	99.162275 
1600.000000	99.162886 
1599.000000	99.163937 
1598.000000	99.164864 
1597.000000	99.165307 
1596.000000	99.165549 
1595.000000	99.165814 
1594.000000	99.165873 
1593.000000	99.165730 
1592.000000	99.165934 
1591.000000	99.166763 
1590.000000	99.167712 
1589.000000	99.168215 
1588.000000	99.168405 
1587.000000	99.168716 
1586.000000	99.169149 
1585.000000	99.169425 
1584.000000	99.169617 
1583.000000	99.169849 
1582.000000	99.169964 
1581.000000	99.169862 
1580.000000	99.169666 
1579.000000	99.169470 
1578.000000	99.169291 
1577.000000	99.169190 
1576.000000	99.169228 
1575.000000	99.169374 
1574.000000	99.169507 
1573.000000	99.169550 
1572.000000	99.169531 
1571.000000	99.169499 
1570.000000	99.169451 
1569.000000	99.169370 
1568.000000	99.169263 
1567.000000	99.169131 
1566.000000	99.168978 
1565.000000	99.168814 
1564.000000	99.168639 
1563.000000	99.168461 
1562.000000	99.168288 
1561.000000	99.168126 
1560.000000	99.167980 
1559.000000	99.167837 
1558.000000	99.167682 
1557.000000	99.167515 
1556.000000	99.167339 
1555.000000	99.167156 
1554.000000	99.166966 
1553.000000	99.166769 
1552.000000	99.166568 
1551.000000	99.166365 
1550.000000	99.166159 
1549.000000	99.165946 
1548.000000	99.165722 
1547.000000	99.165488 
1546.000000	99.165245 
1545.000000	99.164999 
1544.000000	99.164758 
1543.000000	99.164531 
1542.000000	99.164319 
1541.000000	99.164110 
1540.000000	99.163891 
1539.000000	99.163659 
1538.000000	99.163419 
1537.000000	99.163175 
1536.000000	99.162924 
1535.000000	99.162667 
1534.000000	99.162404 
1533.000000	99.162136 
1532.000000	99.161868 
1531.000000	99.161607 
1530.000000	99.161352 
1529.000000	99.161100 
1528.000000	99.160846 
1527.000000	99.160592 
1526.000000	99.160340 
1525.000000	99.160091 
1524.000000	99.159846 
1523.000000	99.159613 
1522.000000	99.159414 
1521.000000	99.159245 
1520.000000	99.159030 
1519.000000	99.158687 
1518.000000	99.158172 
1517.000000	99.157544 
1516.000000	99.156957 
1515.000000	99.156525 
1514.000000	99.156239 
1513.000000	99.156063 
1512.000000	99.155937 
1511.000000	99.155726 
1510.000000	99.155355 
1509.000000	99.154864 
1508.000000	99.154470 
1507.000000	99.154159 
1506.000000	99.153785 
1505.000000	99.153449 
1504.000000	99.153185 
1503.000000	99.152873 
1502.000000	99.152496 
1501.000000	99.152001 
1500.000000	99.151223 
1499.000000	99.150181 
1498.000000	99.149349 
1497.000000	99.149040 
1496.000000	99.148804 
1495.000000	99.148557 
1494.000000	99.148824 
1493.000000	99.149773 
1492.000000	99.151021 
1491.000000	99.151884 
1490.000000	99.151693 
1489.000000	99.150300 
1488.000000	99.148229 
1487.000000	99.146432 
1486.000000	99.145259 
1485.000000	99.144194 
1484.000000	99.143089 
1483.000000	99.142369 
1482.000000	99.142404 
1481.000000	99.142816 
1480.000000	99.142844 
1479.000000	99.142418 
1478.000000	99.142060 
1477.000000	99.141837 
1476.000000	99.141216 
1475.000000	99.140473 
1474.000000	99.140518 
1473.000000	99.141052 
1472.000000	99.140607 
1471.000000	99.139365 
1470.000000	99.138623 
1469.000000	99.138207 
1468.000000	99.137246 
1467.000000	99.135805 
1466.000000	99.134681 
1465.000000	99.134148 
1464.000000	99.134175 
1463.000000	99.135042 
1462.000000	99.136761 
1461.000000	99.138028 
1460.000000	99.137154 
1459.000000	99.133208 
1458.000000	99.127159 
1457.000000	99.120530 
1456.000000	99.115109 
1455.000000	99.112105 
1454.000000	99.110861 
1453.000000	99.111563 
1452.000000	99.114782 
1451.000000	99.119178 
1450.000000	99.122598 
1449.000000	99.123785 
1448.000000	99.122681 
1447.000000	99.121226 
1446.000000	99.121479 
1445.000000	99.123871 
1444.000000	99.126872 
1443.000000	99.128324 
1442.000000	99.128040 
1441.000000	99.127258 
1440.000000	99.126295 
1439.000000	99.124245 
1438.000000	99.122489 
1437.000000	99.122847 
1436.000000	99.123572 
1435.000000	99.122658 
1434.000000	99.121020 
1433.000000	99.119601 
1432.000000	99.118193 
1431.000000	99.115707 
1430.000000	99.112293 
1429.000000	99.109631 
1428.000000	99.107654 
1427.000000	99.104893 
1426.000000	99.100765 
1425.000000	99.097271 
1424.000000	99.095652 
1423.000000	99.093215 
1422.000000	99.087303 
1421.000000	99.078813 
1420.000000	99.070717 
1419.000000	99.063858 
1418.000000	99.058249 
1417.000000	99.054224 
1416.000000	99.050181 
1415.000000	99.044482 
1414.000000	99.037484 
1413.000000	99.030924 
1412.000000	99.025830 
1411.000000	99.021273 
1410.000000	99.016444 
1409.000000	99.012068 
1408.000000	99.009106 
1407.000000	99.007937 
1406.000000	99.008074 
1405.000000	99.009164 
1404.000000	99.011418 
1403.000000	99.014821 
1402.000000	99.019209 
1401.000000	99.024340 
1400.000000	99.029368 
1399.000000	99.032237 
1398.000000	99.031032 
1397.000000	99.024978 
1396.000000	99.014552 
1395.000000	99.003423 
1394.000000	98.998266 
1393.000000	99.003191 
1392.000000	99.015541 
1391.000000	99.028614 
1390.000000	99.037382 
1389.000000	99.040873 
1388.000000	99.040633 
1387.000000	99.038551 
1386.000000	99.036040 
1385.000000	99.034067 
1384.000000	99.033012 
1383.000000	99.032610 
1382.000000	99.032644 
1381.000000	99.033415 
1380.000000	99.035601 
1379.000000	99.039459 
1378.000000	99.044371 
1377.000000	99.049544 
1376.000000	99.054739 
1375.000000	99.060001 
1374.000000	99.065204 
1373.000000	99.070482 
1372.000000	99.075975 
1371.000000	99.081196 
1370.000000	99.085304 
1369.000000	99.088415 
1368.000000	99.091614 
1367.000000	99.095344 
1366.000000	99.098997 
1365.000000	99.102140 
1364.000000	99.105220 
1363.000000	99.108692 
1362.000000	99.112158 
1361.000000	99.115087 
1360.000000	99.117847 
1359.000000	99.121392 
1358.000000	99.126220 
1357.000000	99.131924 
1356.000000	99.137412 
1355.000000	99.141589 
1354.000000	99.144434 
1353.000000	99.147143 
1352.000000	99.150513 
1351.000000	99.153868 
1350.000000	99.155659 
1349.000000	99.156277 
1348.000000	99.157705 
1347.000000	99.160374 
1346.000000	99.162711 
1345.000000	99.163725 
1344.000000	99.164178 
1343.000000	99.164734 
1342.000000	99.164913 
1341.000000	99.164574 
1340.000000	99.164816 
1339.000000	99.166300 
1338.000000	99.168233 
1337.000000	99.169983 
1336.000000	99.172009 
1335.000000	99.174461 
1334.000000	99.176361 
1333.000000	99.176942 
1332.000000	99.176692 
1331.000000	99.176311 
1330.000000	99.175689 
1329.000000	99.174857 
1328.000000	99.174677 
1327.000000	99.175560 
1326.000000	99.176368 
1325.000000	99.176085 
1324.000000	99.175337 
1323.000000	99.175215 
1322.000000	99.175740 
1321.000000	99.176463 
1320.000000	99.177764 
1319.000000	99.180296 
1318.000000	99.183435 
1317.000000	99.185294 
1316.000000	99.184474 
1315.000000	99.181287 
1314.000000	99.177520 
1313.000000	99.175056 
1312.000000	99.174397 
1311.000000	99.174557 
1310.000000	99.174475 
1309.000000	99.174255 
1308.000000	99.174550 
1307.000000	99.175246 
1306.000000	99.175529 
1305.000000	99.175447 
1304.000000	99.176095 
1303.000000	99.177873 
1302.000000	99.179627 
1301.000000	99.180049 
1300.000000	99.179213 
1299.000000	99.178277 
1298.000000	99.178323 
1297.000000	99.179728 
1296.000000	99.182007 
1295.000000	99.183786 
1294.000000	99.183657 
1293.000000	99.181494 
1292.000000	99.178470 
1291.000000	99.175721 
1290.000000	99.173643 
1289.000000	99.172453 
1288.000000	99.172344 
1287.000000	99.172735 
1286.000000	99.172450 
1285.000000	99.171057 
1284.000000	99.169044 
1283.000000	99.166583 
1282.000000	99.163240 
1281.000000	99.159330 
1280.000000	99.156362 
1279.000000	99.155134 
1278.000000	99.154553 
1277.000000	99.153340 
1276.000000	99.151809 
1275.000000	99.150869 
1274.000000	99.150112 
1273.000000	99.148179 
1272.000000	99.144626 
1271.000000	99.140309 
1270.000000	99.136154 
1269.000000	99.132403 
1268.000000	99.128894 
1267.000000	99.125230 
1266.000000	99.120816 
1265.000000	99.115438 
1264.000000	99.109771 
1263.000000	99.104786 
1262.000000	99.100691 
1261.000000	99.096979 
1260.000000	99.093464 
1259.000000	99.090557 
1258.000000	99.088518 
1257.000000	99.087056 
1256.000000	99.085897 
1255.000000	99.085252 
1254.000000	99.085334 
1253.000000	99.085677 
1252.000000	99.085409 
1251.000000	99.084252 
1250.000000	99.083008 
1249.000000	99.082829 
1248.000000	99.084028 
1247.000000	99.085637 
1246.000000	99.086037 
1245.000000	99.083995 
1244.000000	99.079419 
1243.000000	99.073811 
1242.000000	99.069905 
1241.000000	99.069841 
1240.000000	99.073320 
1239.000000	99.077458 
1238.000000	99.079203 
1237.000000	99.077940 
1236.000000	99.075198 
1235.000000	99.072502 
1234.000000	99.070196 
1233.000000	99.068121 
1232.000000	99.066199 
1231.000000	99.064026 
1230.000000	99.061048 
1229.000000	99.057776 
1228.000000	99.055955 
1227.000000	99.056730 
1226.000000	99.059155 
1225.000000	99.061164 
1224.000000	99.061738 
1223.000000	99.061489 
1222.000000	99.061491 
1221.000000	99.062299 
1220.000000	99.063982 
1219.000000	99.066360 
1218.000000	99.069000 
1217.000000	99.071255 
1216.000000	99.072455 
1215.000000	99.072151 
1214.000000	99.070354 
1213.000000	99.067463 
1212.000000	99.063842 
1211.000000	99.059756 
1210.000000	99.056008 
1209.000000	99.054030 
1208.000000	99.054427 
1207.000000	99.055684 
1206.000000	99.055474 
1205.000000	99.053272 
1204.000000	99.050560 
1203.000000	99.048440 
1202.000000	99.046356 
1201.000000	99.043495 
1200.000000	99.040048 
1199.000000	99.036532 
1198.000000	99.033137 
1197.000000	99.030154 
1196.000000	99.027702 
1195.000000	99.024678 
1194.000000	99.019484 
1193.000000	99.012347 
1192.000000	99.005627 
1191.000000	99.000987 
1190.000000	98.997303 
1189.000000	98.992505 
1188.000000	98.986409 
1187.000000	98.980542 
1186.000000	98.975980 
1185.000000	98.972558 
1184.000000	98.969689 
1183.000000	98.966807 
1182.000000	98.963303 
1181.000000	98.959035 
1180.000000	98.954671 
1179.000000	98.950747 
1178.000000	98.946772 
1177.000000	98.942071 
1176.000000	98.936999 
1175.000000	98.932225 
1174.000000	98.927068 
1173.000000	98.919866 
1172.000000	98.910330 
1171.000000	98.900640 
1170.000000	98.893548 
1169.000000	98.889749 
1168.000000	98.887378 
1167.000000	98.883839 
1166.000000	98.878265 
1165.000000	98.872360 
1164.000000	98.868755 
1163.000000	98.868524 
1162.000000	98.870397 
1161.000000	98.872393 
1160.000000	98.873778 
1159.000000	98.874857 
1158.000000	98.875236 
1157.000000	98.873190 
1156.000000	98.867097 
1155.000000	98.857353 
1154.000000	98.846866 
1153.000000	98.839286 
1152.000000	98.836059 
1151.000000	98.835049 
1150.000000	98.832401 
1149.000000	98.826175 
1148.000000	98.817815 
1147.000000	98.810044 
1146.000000	98.803832 
1145.000000	98.797959 
1144.000000	98.790919 
1143.000000	98.782422 
1142.000000	98.773408 
1141.000000	98.765418 
1140.000000	98.759836 
1139.000000	98.756851 
1138.000000	98.754825 
1137.000000	98.751227 
1136.000000	98.744633 
1135.000000	98.735818 
1134.000000	98.726811 
1133.000000	98.718752 
1132.000000	98.710796 
1131.000000	98.701398 
1130.000000	98.690726 
1129.000000	98.681138 
1128.000000	98.674498 
1127.000000	98.669389 
1126.000000	98.662198 
1125.000000	98.651212 
1124.000000	98.638560 
1123.000000	98.627763 
1122.000000	98.620269 
1121.000000	98.614976 
1120.000000	98.609992 
1119.000000	98.603860 
1118.000000	98.595927 
1117.000000	98.586634 
1116.000000	98.577064 
1115.000000	98.567510 
1114.000000	98.557207 
1113.000000	98.546101 
1112.000000	98.535707 
1111.000000	98.526886 
1110.000000	98.517804 
1109.000000	98.505947 
1108.000000	98.491710 
1107.000000	98.478270 
1106.000000	98.467844 
1105.000000	98.459532 
1104.000000	98.450915 
1103.000000	98.440857 
1102.000000	98.430324 
1101.000000	98.421046 
1100.000000	98.413536 
1099.000000	98.406780 
1098.000000	98.399630 
1097.000000	98.392311 
1096.000000	98.385800 
1095.000000	98.379578 
1094.000000	98.371114 
1093.000000	98.358108 
1092.000000	98.340458 
1091.000000	98.319673 
1090.000000	98.297423 
1089.000000	98.275294 
1088.000000	98.254902 
1087.000000	98.237103 
1086.000000	98.221499 
1085.000000	98.207477 
1084.000000	98.194987 
1083.000000	98.183421 
1082.000000	98.170766 
1081.000000	98.155277 
1080.000000	98.137492 
1079.000000	98.119451 
1078.000000	98.102623 
1077.000000	98.087890 
1076.000000	98.076668 
1075.000000	98.070202 
1074.000000	98.067983 
1073.000000	98.068130 
1072.000000	98.068484 
1071.000000	98.065711 
1070.000000	98.054761 
1069.000000	98.032632 
1068.000000	98.003591 
1067.000000	97.978429 
1066.000000	97.966407 
1065.000000	97.968459 
1064.000000	97.977960 
1063.000000	97.986179 
1062.000000	97.986734 
1061.000000	97.976862 
1060.000000	97.957335 
1059.000000	97.932409 
1058.000000	97.908656 
1057.000000	97.891920 
1056.000000	97.884214 
1055.000000	97.883048 
1054.000000	97.883865 
1053.000000	97.883599 
1052.000000	97.881995 
1051.000000	97.879955 
1050.000000	97.877742 
1049.000000	97.875021 
1048.000000	97.871570 
1047.000000	97.867616 
1046.000000	97.864348 
1045.000000	97.863840 
1044.000000	97.866984 
1043.000000	97.871613 
1042.000000	97.874493 
1041.000000	97.875427 
1040.000000	97.877419 
1039.000000	97.882653 
1038.000000	97.890807 
1037.000000	97.901658 
1036.000000	97.916212 
1035.000000	97.933921 
1034.000000	97.951689 
1033.000000	97.967155 
1032.000000	97.979987 
1031.000000	97.988449 
1030.000000	97.988843 
1029.000000	97.981914 
1028.000000	97.976831 
1027.000000	97.983767 
1026.000000	98.003123 
1025.000000	98.025469 
1024.000000	98.041592 
1023.000000	98.049665 
1022.000000	98.053244 
1021.000000	98.056345 
1020.000000	98.061370 
1019.000000	98.068980 
1018.000000	98.078113 
1017.000000	98.087182 
1016.000000	98.095819 
1015.000000	98.104607 
1014.000000	98.113405 
1013.000000	98.121182 
1012.000000	98.127374 
1011.000000	98.132448 
1010.000000	98.137477 
1009.000000	98.143841 
1008.000000	98.152593 
1007.000000	98.163258 
1006.000000	98.174035 
1005.000000	98.183979 
1004.000000	98.193969 
1003.000000	98.204774 
1002.000000	98.215539 
1001.000000	98.225259 
1000.000000	98.234509 
999.000000	 98.244385 
998.000000	 98.254525 
997.000000	 98.263536 
996.000000	 98.271175 
995.000000	 98.278942 
994.000000	 98.288222 
993.000000	 98.298715 
992.000000	 98.309180 
991.000000	 98.318879 
990.000000	 98.327572 
989.000000	 98.335023 
988.000000	 98.341374 
987.000000	 98.347425 
986.000000	 98.354128 
985.000000	 98.362521 
984.000000	 98.373647 
983.000000	 98.387037 
982.000000	 98.400304 
981.000000	 98.411464 
980.000000	 98.420976 
979.000000	 98.430462 
978.000000	 98.440372 
977.000000	 98.450586 
976.000000	 98.462087 
975.000000	 98.475653 
974.000000	 98.489756 
973.000000	 98.502319 
972.000000	 98.514061 
971.000000	 98.527517 
970.000000	 98.543046 
969.000000	 98.558364 
968.000000	 98.571933 
967.000000	 98.584253 
966.000000	 98.595818 
965.000000	 98.606352 
964.000000	 98.616336 
963.000000	 98.626977 
962.000000	 98.638249 
961.000000	 98.649023 
960.000000	 98.659340 
959.000000	 98.670270 
958.000000	 98.681121 
957.000000	 98.689275 
956.000000	 98.693857 
955.000000	 98.697687 
954.000000	 98.704330 
953.000000	 98.714331 
952.000000	 98.725281 
951.000000	 98.734455 
950.000000	 98.740592 
949.000000	 98.744144 
948.000000	 98.746654 
947.000000	 98.749280 
946.000000	 98.751446 
945.000000	 98.751688 
944.000000	 98.750192 
943.000000	 98.749714 
942.000000	 98.753317 
941.000000	 98.761366 
940.000000	 98.770843 
939.000000	 98.777481 
938.000000	 98.779027 
937.000000	 98.777075 
936.000000	 98.775693 
935.000000	 98.777818 
934.000000	 98.783227 
933.000000	 98.790126 
932.000000	 98.797648 
931.000000	 98.805814 
930.000000	 98.813798 
929.000000	 98.819662 
928.000000	 98.821838 
927.000000	 98.820232 
926.000000	 98.816306 
925.000000	 98.812710 
924.000000	 98.812194 
923.000000	 98.815809 
922.000000	 98.822055 
921.000000	 98.828141 
920.000000	 98.832059 
919.000000	 98.833457 
918.000000	 98.833304 
917.000000	 98.833200 
916.000000	 98.834243 
915.000000	 98.835910 
914.000000	 98.836643 
913.000000	 98.835968 
912.000000	 98.835358 
911.000000	 98.836549 
910.000000	 98.839902 
909.000000	 98.845004 
908.000000	 98.851750 
907.000000	 98.859731 
906.000000	 98.867365 
905.000000	 98.872959 
904.000000	 98.876358 
903.000000	 98.878792 
902.000000	 98.881569 
901.000000	 98.885472 
900.000000	 98.890801 
899.000000	 98.897017 
898.000000	 98.902622 
897.000000	 98.906440 
896.000000	 98.908717 
895.000000	 98.910347 
894.000000	 98.911617 
893.000000	 98.912734 
892.000000	 98.915100 
891.000000	 98.920573 
890.000000	 98.929391 
889.000000	 98.939698 
888.000000	 98.949151 
887.000000	 98.956482 
886.000000	 98.961545 
885.000000	 98.965035 
884.000000	 98.968313 
883.000000	 98.972379 
882.000000	 98.976709 
881.000000	 98.979953 
880.000000	 98.982064 
879.000000	 98.984876 
878.000000	 98.990177 
877.000000	 98.997941 
876.000000	 99.006550 
875.000000	 99.013955 
874.000000	 99.018617 
873.000000	 99.020433 
872.000000	 99.021224 
871.000000	 99.023308 
870.000000	 99.027241 
869.000000	 99.032010 
868.000000	 99.037441 
867.000000	 99.044714 
866.000000	 99.053943 
865.000000	 99.063093 
864.000000	 99.070762 
863.000000	 99.078662 
862.000000	 99.089209 
861.000000	 99.101128 
860.000000	 99.109795 
859.000000	 99.112429 
858.000000	 99.111203 
857.000000	 99.110688 
856.000000	 99.113232 
855.000000	 99.118307 
854.000000	 99.125214 
853.000000	 99.133901 
852.000000	 99.142815 
851.000000	 99.148582 
850.000000	 99.149781 
849.000000	 99.149482 
848.000000	 99.151722 
847.000000	 99.156284 
846.000000	 99.159574 
845.000000	 99.160223 
844.000000	 99.160791 
843.000000	 99.163703 
842.000000	 99.168622 
841.000000	 99.174600 
840.000000	 99.181264 
839.000000	 99.186243 
838.000000	 99.185100 
837.000000	 99.176771 
836.000000	 99.166643 
835.000000	 99.161109 
834.000000	 99.160795 
833.000000	 99.162352 
832.000000	 99.164837 
831.000000	 99.169948 
830.000000	 99.176624 
829.000000	 99.180154 
828.000000	 99.178059 
827.000000	 99.173743 
826.000000	 99.172395 
825.000000	 99.174918 
824.000000	 99.177581 
823.000000	 99.176846 
822.000000	 99.173409 
821.000000	 99.171291 
820.000000	 99.173095 
819.000000	 99.177199 
818.000000	 99.180760 
817.000000	 99.184249 
816.000000	 99.189915 
815.000000	 99.195711 
814.000000	 99.195144 
813.000000	 99.185176 
812.000000	 99.170490 
811.000000	 99.156766 
810.000000	 99.142424 
809.000000	 99.121292 
808.000000	 99.091594 
807.000000	 99.058050 
806.000000	 99.025773 
805.000000	 98.995971 
804.000000	 98.968425 
803.000000	 98.945021 
802.000000	 98.929055 
801.000000	 98.921945 
800.000000	 98.921095 
799.000000	 98.921302 
798.000000	 98.919867 
797.000000	 98.920000 
796.000000	 98.926244 
795.000000	 98.936625 
794.000000	 98.943566 
793.000000	 98.943786 
792.000000	 98.942392 
791.000000	 98.944802 
790.000000	 98.949735 
789.000000	 98.953557 
788.000000	 98.956210 
787.000000	 98.957723 
786.000000	 98.953404 
785.000000	 98.939016 
784.000000	 98.918435 
783.000000	 98.900527 
782.000000	 98.889708 
781.000000	 98.884149 
780.000000	 98.881139 
779.000000	 98.879093 
778.000000	 98.876115 
777.000000	 98.872360 
776.000000	 98.872846 
775.000000	 98.882367 
774.000000	 98.897881 
773.000000	 98.910784 
772.000000	 98.917075 
771.000000	 98.920852 
770.000000	 98.927808 
769.000000	 98.939268 
768.000000	 98.952510 
767.000000	 98.963553 
766.000000	 98.969911 
765.000000	 98.973415 
764.000000	 98.979472 
763.000000	 98.990751 
762.000000	 99.002789 
761.000000	 99.008983 
760.000000	 99.008699 
759.000000	 99.007230 
758.000000	 99.009133 
757.000000	 99.014737 
756.000000	 99.022097 
755.000000	 99.028626 
754.000000	 99.031453 
753.000000	 99.029921 
752.000000	 99.028121 
751.000000	 99.031929 
750.000000	 99.042650 
749.000000	 99.055475 
748.000000	 99.064454 
747.000000	 99.067928 
746.000000	 99.068542 
745.000000	 99.070034 
744.000000	 99.074424 
743.000000	 99.081129 
742.000000	 99.087967 
741.000000	 99.093455 
740.000000	 99.098166 
739.000000	 99.103316 
738.000000	 99.108630 
737.000000	 99.112564 
736.000000	 99.114167 
735.000000	 99.113886 
734.000000	 99.113011 
733.000000	 99.113138 
732.000000	 99.115847 
731.000000	 99.121720 
730.000000	 99.129250 
729.000000	 99.135785 
728.000000	 99.140143 
727.000000	 99.142959 
726.000000	 99.144605 
725.000000	 99.144417 
724.000000	 99.142515 
723.000000	 99.140524 
722.000000	 99.139751 
721.000000	 99.140412 
720.000000	 99.143104 
719.000000	 99.148855 
718.000000	 99.156900 
717.000000	 99.164413 
716.000000	 99.169357 
715.000000	 99.171621 
714.000000	 99.171331 
713.000000	 99.168484 
712.000000	 99.164966 
711.000000	 99.164094 
710.000000	 99.166663 
709.000000	 99.169900 
708.000000	 99.171259 
707.000000	 99.170810 
706.000000	 99.168966 
705.000000	 99.164808 
704.000000	 99.158703 
703.000000	 99.153800 
702.000000	 99.152795 
701.000000	 99.154421 
700.000000	 99.154732 
699.000000	 99.150924 
698.000000	 99.143461 
697.000000	 99.135741 
696.000000	 99.131669 
695.000000	 99.132411 
694.000000	 99.135320 
693.000000	 99.136960 
692.000000	 99.137179 
691.000000	 99.138291 
690.000000	 99.141282 
689.000000	 99.145234 
688.000000	 99.149637 
687.000000	 99.154485 
686.000000	 99.158225 
685.000000	 99.158690 
684.000000	 99.156125 
683.000000	 99.153083 
682.000000	 99.151562 
681.000000	 99.151628 
680.000000	 99.152667 
679.000000	 99.154052 
678.000000	 99.154909 
677.000000	 99.154821 
676.000000	 99.154727 
675.000000	 99.155652 
674.000000	 99.157145 
673.000000	 99.158014 
672.000000	 99.158075 
671.000000	 99.158104 
670.000000	 99.158711 
669.000000	 99.159845 
668.000000	 99.161135 
667.000000	 99.162384 
666.000000	 99.163485 
665.000000	 99.164317 
664.000000	 99.165020 
663.000000	 99.165933 
662.000000	 99.167206 
661.000000	 99.168584 
660.000000	 99.169676 
659.000000	 99.170359 
658.000000	 99.170709 
657.000000	 99.170992 
656.000000	 99.171433 
655.000000	 99.172295 
654.000000	 99.173714 
653.000000	 99.175514 
652.000000	 99.177346 
651.000000	 99.179085 
650.000000	 99.180755 

