4000.000000	100.414962 
3999.000000	100.411973 
3998.000000	100.409632 
3997.000000	100.410733 
3996.000000	100.415107 
3995.000000	100.419764 
3994.000000	100.421957 
3993.000000	100.421779 
3992.000000	100.421483 
3991.000000	100.422277 
3990.000000	100.422390 
3989.000000	100.419044 
3988.000000	100.412170 
3987.000000	100.405126 
3986.000000	100.401422 
3985.000000	100.401655 
3984.000000	100.404149 
3983.000000	100.407840 
3982.000000	100.413245 
3981.000000	100.420797 
3980.000000	100.429328 
3979.000000	100.436678 
3978.000000	100.441113 
3977.000000	100.441997 
3976.000000	100.439917 
3975.000000	100.436397 
3974.000000	100.432595 
3973.000000	100.428242 
3972.000000	100.422861 
3971.000000	100.417710 
3970.000000	100.415393 
3969.000000	100.417096 
3968.000000	100.421451 
3967.000000	100.425971 
3966.000000	100.428807 
3965.000000	100.429225 
3964.000000	100.427609 
3963.000000	100.425546 
3962.000000	100.424722 
3961.000000	100.425054 
3960.000000	100.425017 
3959.000000	100.423687 
3958.000000	100.421852 
3957.000000	100.420695 
3956.000000	100.420770 
3955.000000	100.421628 
3954.000000	100.421861 
3953.000000	100.420196 
3952.000000	100.416858 
3951.000000	100.413974 
3950.000000	100.413526 
3949.000000	100.415297 
3948.000000	100.417079 
3947.000000	100.416853 
3946.000000	100.415082 
3945.000000	100.414807 
3944.000000	100.418254 
3943.000000	100.423050 
3942.000000	100.423842 
3941.000000	100.418813 
3940.000000	100.412606 
3939.000000	100.411437 
3938.000000	100.416527 
3937.000000	100.422660 
3936.000000	100.424629 
3935.000000	100.423163 
3934.000000	100.422607 
3933.000000	100.424750 
3932.000000	100.427329 
3931.000000	100.429343 
3930.000000	100.432342 
3929.000000	100.435486 
3928.000000	100.434497 
3927.000000	100.428161 
3926.000000	100.422316 
3925.000000	100.421992 
3924.000000	100.424354 
3923.000000	100.424823 
3922.000000	100.424452 
3921.000000	100.425955 
3920.000000	100.427356 
3919.000000	100.424943 
3918.000000	100.420713 
3917.000000	100.419531 
3916.000000	100.421278 
3915.000000	100.422032 
3914.000000	100.421425 
3913.000000	100.421714 
3912.000000	100.423082 
3911.000000	100.422802 
3910.000000	100.421207 
3909.000000	100.421197 
3908.000000	100.424670 
3907.000000	100.430990 
3906.000000	100.439981 
3905.000000	100.451847 
3904.000000	100.461625 
3903.000000	100.461865 
3902.000000	100.452058 
3901.000000	100.440905 
3900.000000	100.435989 
3899.000000	100.434655 
3898.000000	100.429982 
3897.000000	100.421698 
3896.000000	100.415187 
3895.000000	100.412863 
3894.000000	100.413836 
3893.000000	100.418696 
3892.000000	100.431505 
3891.000000	100.449267 
3890.000000	100.460848 
3889.000000	100.458438 
3888.000000	100.448584 
3887.000000	100.447227 
3886.000000	100.456085 
3885.000000	100.457395 
3884.000000	100.442713 
3883.000000	100.426122 
3882.000000	100.425288 
3881.000000	100.439457 
3880.000000	100.450281 
3879.000000	100.446499 
3878.000000	100.434441 
3877.000000	100.425559 
3876.000000	100.427974 
3875.000000	100.441420 
3874.000000	100.453095 
3873.000000	100.449308 
3872.000000	100.435708 
3871.000000	100.434344 
3870.000000	100.449818 
3869.000000	100.458542 
3868.000000	100.447240 
3867.000000	100.433011 
3866.000000	100.438154 
3865.000000	100.456428 
3864.000000	100.462013 
3863.000000	100.449846 
3862.000000	100.439449 
3861.000000	100.440142 
3860.000000	100.444739 
3859.000000	100.444329 
3858.000000	100.437520 
3857.000000	100.425156 
3856.000000	100.412628 
3855.000000	100.417711 
3854.000000	100.443514 
3853.000000	100.458823 
3852.000000	100.451036 
3851.000000	100.440209 
3850.000000	100.441880 
3849.000000	100.452742 
3848.000000	100.459379 
3847.000000	100.454988 
3846.000000	100.446264 
3845.000000	100.443129 
3844.000000	100.448937 
3843.000000	100.457697 
3842.000000	100.461579 
3841.000000	100.460019 
3840.000000	100.461146 
3839.000000	100.468202 
3838.000000	100.475955 
3837.000000	100.478987 
3836.000000	100.476637 
3835.000000	100.469902 
3834.000000	100.460911 
3833.000000	100.454285 
3832.000000	100.452253 
3831.000000	100.451179 
3830.000000	100.447187 
3829.000000	100.441438 
3828.000000	100.440386 
3827.000000	100.448145 
3826.000000	100.458653 
3825.000000	100.460142 
3824.000000	100.451628 
3823.000000	100.448767 
3822.000000	100.466110 
3821.000000	100.489127 
3820.000000	100.492308 
3819.000000	100.475370 
3818.000000	100.459398 
3817.000000	100.463068 
3816.000000	100.474615 
3815.000000	100.467463 
3814.000000	100.444013 
3813.000000	100.429760 
3812.000000	100.435433 
3811.000000	100.446151 
3810.000000	100.443771 
3809.000000	100.433396 
3808.000000	100.437854 
3807.000000	100.460922 
3806.000000	100.478994 
3805.000000	100.474853 
3804.000000	100.457862 
3803.000000	100.452100 
3802.000000	100.464213 
3801.000000	100.468550 
3800.000000	100.450722 
3799.000000	100.429209 
3798.000000	100.424393 
3797.000000	100.435078 
3796.000000	100.441849 
3795.000000	100.433715 
3794.000000	100.421116 
3793.000000	100.419090 
3792.000000	100.427693 
3791.000000	100.435972 
3790.000000	100.437577 
3789.000000	100.435345 
3788.000000	100.433474 
3787.000000	100.433735 
3786.000000	100.438104 
3785.000000	100.447736 
3784.000000	100.457969 
3783.000000	100.461445 
3782.000000	100.457942 
3781.000000	100.454846 
3780.000000	100.456589 
3779.000000	100.457256 
3778.000000	100.450687 
3777.000000	100.440532 
3776.000000	100.436337 
3775.000000	100.440838 
3774.000000	100.446026 
3773.000000	100.444069 
3772.000000	100.439535 
3771.000000	100.442186 
3770.000000	100.449722 
3769.000000	100.450782 
3768.000000	100.443867 
3767.000000	100.439705 
3766.000000	100.446280 
3765.000000	100.457375 
3764.000000	100.460377 
3763.000000	100.454404 
3762.000000	100.452407 
3761.000000	100.462194 
3760.000000	100.474375 
3759.000000	100.477515 
3758.000000	100.477477 
3757.000000	100.482900 
3756.000000	100.489137 
3755.000000	100.489139 
3754.000000	100.487743 
3753.000000	100.494492 
3752.000000	100.504630 
3751.000000	100.506340 
3750.000000	100.504335 
3749.000000	100.507535 
3748.000000	100.506146 
3747.000000	100.489168 
3746.000000	100.473683 
3745.000000	100.480233 
3744.000000	100.485670 
3743.000000	100.468518 
3742.000000	100.449917 
3741.000000	100.452728 
3740.000000	100.471041 
3739.000000	100.479624 
3738.000000	100.470361 
3737.000000	100.462540 
3736.000000	100.468392 
3735.000000	100.474440 
3734.000000	100.469521 
3733.000000	100.464642 
3732.000000	100.469335 
3731.000000	100.476069 
3730.000000	100.474962 
3729.000000	100.468612 
3728.000000	100.467507 
3727.000000	100.473779 
3726.000000	100.477084 
3725.000000	100.472941 
3724.000000	100.469324 
3723.000000	100.471023 
3722.000000	100.472269 
3721.000000	100.467838 
3720.000000	100.461794 
3719.000000	100.461115 
3718.000000	100.467720 
3717.000000	100.474479 
3716.000000	100.472161 
3715.000000	100.460280 
3714.000000	100.447169 
3713.000000	100.440019 
3712.000000	100.437693 
3711.000000	100.436436 
3710.000000	100.436905 
3709.000000	100.439824 
3708.000000	100.442854 
3707.000000	100.442448 
3706.000000	100.436062 
3705.000000	100.425028 
3704.000000	100.414663 
3703.000000	100.409995 
3702.000000	100.410936 
3701.000000	100.412932 
3700.000000	100.411974 
3699.000000	100.408272 
3698.000000	100.405985 
3697.000000	100.406808 
3696.000000	100.405991 
3695.000000	100.401012 
3694.000000	100.397607 
3693.000000	100.400998 
3692.000000	100.407856 
3691.000000	100.411690 
3690.000000	100.412454 
3689.000000	100.412048 
3688.000000	100.407836 
3687.000000	100.397507 
3686.000000	100.385273 
3685.000000	100.379148 
3684.000000	100.380360 
3683.000000	100.380162 
3682.000000	100.373249 
3681.000000	100.368143 
3680.000000	100.371318 
3679.000000	100.372169 
3678.000000	100.358808 
3677.000000	100.345786 
3676.000000	100.352606 
3675.000000	100.367046 
3674.000000	100.370988 
3673.000000	100.367192 
3672.000000	100.370933 
3671.000000	100.388762 
3670.000000	100.401029 
3669.000000	100.389713 
3668.000000	100.368338 
3667.000000	100.356137 
3666.000000	100.354253 
3665.000000	100.354258 
3664.000000	100.351494 
3663.000000	100.348559 
3662.000000	100.350490 
3661.000000	100.357676 
3660.000000	100.364398 
3659.000000	100.366410 
3658.000000	100.366720 
3657.000000	100.372360 
3656.000000	100.382288 
3655.000000	100.390154 
3654.000000	100.395457 
3653.000000	100.404448 
3652.000000	100.422975 
3651.000000	100.444199 
3650.000000	100.447944 
3649.000000	100.428251 
3648.000000	100.404820 
3647.000000	100.393220 
3646.000000	100.390498 
3645.000000	100.390045 
3644.000000	100.391427 
3643.000000	100.395470 
3642.000000	100.399135 
3641.000000	100.398687 
3640.000000	100.397263 
3639.000000	100.402377 
3638.000000	100.414749 
3637.000000	100.427170 
3636.000000	100.435069 
3635.000000	100.442222 
3634.000000	100.450643 
3633.000000	100.454108 
3632.000000	100.447593 
3631.000000	100.439986 
3630.000000	100.445625 
3629.000000	100.455118 
3628.000000	100.448703 
3627.000000	100.433573 
3626.000000	100.428996 
3625.000000	100.438686 
3624.000000	100.450961 
3623.000000	100.452604 
3622.000000	100.443272 
3621.000000	100.434597 
3620.000000	100.434273 
3619.000000	100.438075 
3618.000000	100.440642 
3617.000000	100.442498 
3616.000000	100.445699 
3615.000000	100.451726 
3614.000000	100.459313 
3613.000000	100.463185 
3612.000000	100.459220 
3611.000000	100.449888 
3610.000000	100.441579 
3609.000000	100.437247 
3608.000000	100.434183 
3607.000000	100.430621 
3606.000000	100.429892 
3605.000000	100.434672 
3604.000000	100.442270 
3603.000000	100.447342 
3602.000000	100.447878 
3601.000000	100.446592 
3600.000000	100.446104 
3599.000000	100.447731 
3598.000000	100.451903 
3597.000000	100.457206 
3596.000000	100.460708 
3595.000000	100.461664 
3594.000000	100.461795 
3593.000000	100.463852 
3592.000000	100.468900 
3591.000000	100.475314 
3590.000000	100.481157 
3589.000000	100.485009 
3588.000000	100.483926 
3587.000000	100.476134 
3586.000000	100.466251 
3585.000000	100.460800 
3584.000000	100.460541 
3583.000000	100.461214 
3582.000000	100.458789 
3581.000000	100.453170 
3580.000000	100.446765 
3579.000000	100.441386 
3578.000000	100.437070 
3577.000000	100.433302 
3576.000000	100.430520 
3575.000000	100.430047 
3574.000000	100.433010 
3573.000000	100.439130 
3572.000000	100.446778 
3571.000000	100.452951 
3570.000000	100.455147 
3569.000000	100.453298 
3568.000000	100.448455 
3567.000000	100.441975 
3566.000000	100.437895 
3565.000000	100.440237 
3564.000000	100.447513 
3563.000000	100.454087 
3562.000000	100.455849 
3561.000000	100.453273 
3560.000000	100.449805 
3559.000000	100.447931 
3558.000000	100.447844 
3557.000000	100.448432 
3556.000000	100.448636 
3555.000000	100.448453 
3554.000000	100.449416 
3553.000000	100.452632 
3552.000000	100.456251 
3551.000000	100.456715 
3550.000000	100.452882 
3549.000000	100.447586 
3548.000000	100.444380 
3547.000000	100.444026 
3546.000000	100.445088 
3545.000000	100.446563 
3544.000000	100.448434 
3543.000000	100.450518 
3542.000000	100.452209 
3541.000000	100.452837 
3540.000000	100.452214 
3539.000000	100.451241 
3538.000000	100.451672 
3537.000000	100.454097 
3536.000000	100.456334 
3535.000000	100.455619 
3534.000000	100.451797 
3533.000000	100.447649 
3532.000000	100.445715 
3531.000000	100.446484 
3530.000000	100.449544 
3529.000000	100.454757 
3528.000000	100.461252 
3527.000000	100.466735 
3526.000000	100.469354 
3525.000000	100.469155 
3524.000000	100.467132 
3523.000000	100.464095 
3522.000000	100.461175 
3521.000000	100.459778 
3520.000000	100.460077 
3519.000000	100.460413 
3518.000000	100.458768 
3517.000000	100.455019 
3516.000000	100.451343 
3515.000000	100.450531 
3514.000000	100.453614 
3513.000000	100.459325 
3512.000000	100.465093 
3511.000000	100.468384 
3510.000000	100.468211 
3509.000000	100.466029 
3508.000000	100.464503 
3507.000000	100.464853 
3506.000000	100.465591 
3505.000000	100.463795 
3504.000000	100.457841 
3503.000000	100.449894 
3502.000000	100.445254 
3501.000000	100.447896 
3500.000000	100.456329 
3499.000000	100.464485 
3498.000000	100.466556 
3497.000000	100.461265 
3496.000000	100.452628 
3495.000000	100.446789 
3494.000000	100.447177 
3493.000000	100.451898 
3492.000000	100.455964 
3491.000000	100.456298 
3490.000000	100.454502 
3489.000000	100.454570 
3488.000000	100.458027 
3487.000000	100.462252 
3486.000000	100.463803 
3485.000000	100.462386 
3484.000000	100.460920 
3483.000000	100.462280 
3482.000000	100.466229 
3481.000000	100.469590 
3480.000000	100.469414 
3479.000000	100.466031 
3478.000000	100.462796 
3477.000000	100.462565 
3476.000000	100.464614 
3475.000000	100.465616 
3474.000000	100.463802 
3473.000000	100.461055 
3472.000000	100.460609 
3471.000000	100.463480 
3470.000000	100.467778 
3469.000000	100.471105 
3468.000000	100.472624 
3467.000000	100.472651 
3466.000000	100.471361 
3465.000000	100.468694 
3464.000000	100.465061 
3463.000000	100.461289 
3462.000000	100.457755 
3461.000000	100.454090 
3460.000000	100.450032 
3459.000000	100.446362 
3458.000000	100.444598 
3457.000000	100.445609 
3456.000000	100.448441 
3455.000000	100.450918 
3454.000000	100.451770 
3453.000000	100.451991 
3452.000000	100.453300 
3451.000000	100.456017 
3450.000000	100.459154 
3449.000000	100.461807 
3448.000000	100.463202 
3447.000000	100.462031 
3446.000000	100.457937 
3445.000000	100.453410 
3444.000000	100.452251 
3443.000000	100.455689 
3442.000000	100.461159 
3441.000000	100.465592 
3440.000000	100.468687 
3439.000000	100.471819 
3438.000000	100.474658 
3437.000000	100.474635 
3436.000000	100.469872 
3435.000000	100.461831 
3434.000000	100.454770 
3433.000000	100.452693 
3432.000000	100.456248 
3431.000000	100.462491 
3430.000000	100.467511 
3429.000000	100.469035 
3428.000000	100.467005 
3427.000000	100.462648 
3426.000000	100.457730 
3425.000000	100.454046 
3424.000000	100.452859 
3423.000000	100.454504 
3422.000000	100.458217 
3421.000000	100.462098 
3420.000000	100.463816 
3419.000000	100.462535 
3418.000000	100.460186 
3417.000000	100.459788 
3416.000000	100.462062 
3415.000000	100.464548 
3414.000000	100.464558 
3413.000000	100.462146 
3412.000000	100.459482 
3411.000000	100.458212 
3410.000000	100.458575 
3409.000000	100.460312 
3408.000000	100.463031 
3407.000000	100.465709 
3406.000000	100.466956 
3405.000000	100.466331 
3404.000000	100.465137 
3403.000000	100.465517 
3402.000000	100.468419 
3401.000000	100.472524 
3400.000000	100.475429 
3399.000000	100.476083 
3398.000000	100.475764 
3397.000000	100.476494 
3396.000000	100.478829 
3395.000000	100.481482 
3394.000000	100.482911 
3393.000000	100.482775 
3392.000000	100.481932 
3391.000000	100.481393 
3390.000000	100.481287 
3389.000000	100.480662 
3388.000000	100.478444 
3387.000000	100.474799 
3386.000000	100.471268 
3385.000000	100.469237 
3384.000000	100.468603 
3383.000000	100.468446 
3382.000000	100.468371 
3381.000000	100.468410 
3380.000000	100.467992 
3379.000000	100.466266 
3378.000000	100.463722 
3377.000000	100.462572 
3376.000000	100.464953 
3375.000000	100.470975 
3374.000000	100.478794 
3373.000000	100.486057 
3372.000000	100.491001 
3371.000000	100.492719 
3370.000000	100.491314 
3369.000000	100.488034 
3368.000000	100.484650 
3367.000000	100.482139 
3366.000000	100.480028 
3365.000000	100.477267 
3364.000000	100.473722 
3363.000000	100.470653 
3362.000000	100.469574 
3361.000000	100.470560 
3360.000000	100.471831 
3359.000000	100.471408 
3358.000000	100.469339 
3357.000000	100.467911 
3356.000000	100.469283 
3355.000000	100.473065 
3354.000000	100.476679 
3353.000000	100.478062 
3352.000000	100.477652 
3351.000000	100.477744 
3350.000000	100.480378 
3349.000000	100.486008 
3348.000000	100.493510 
3347.000000	100.500689 
3346.000000	100.505046 
3345.000000	100.505029 
3344.000000	100.501194 
3343.000000	100.495930 
3342.000000	100.491543 
3341.000000	100.488687 
3340.000000	100.486806 
3339.000000	100.485495 
3338.000000	100.484747 
3337.000000	100.484127 
3336.000000	100.482803 
3335.000000	100.480929 
3334.000000	100.480253 
3333.000000	100.482472 
3332.000000	100.487004 
3331.000000	100.491062 
3330.000000	100.492277 
3329.000000	100.491002 
3328.000000	100.489769 
3327.000000	100.490545 
3326.000000	100.492768 
3325.000000	100.494224 
3324.000000	100.493796 
3323.000000	100.492906 
3322.000000	100.493644 
3321.000000	100.495689 
3320.000000	100.496006 
3319.000000	100.492106 
3318.000000	100.485224 
3317.000000	100.479656 
3316.000000	100.479027 
3315.000000	100.483382 
3314.000000	100.489480 
3313.000000	100.493503 
3312.000000	100.493886 
3311.000000	100.492289 
3310.000000	100.491988 
3309.000000	100.494919 
3308.000000	100.500155 
3307.000000	100.505186 
3306.000000	100.508103 
3305.000000	100.508171 
3304.000000	100.505200 
3303.000000	100.499706 
3302.000000	100.493734 
3301.000000	100.490314 
3300.000000	100.491327 
3299.000000	100.496139 
3298.000000	100.502414 
3297.000000	100.507848 
3296.000000	100.511202 
3295.000000	100.512525 
3294.000000	100.512850 
3293.000000	100.513205 
3292.000000	100.513534 
3291.000000	100.512812 
3290.000000	100.510516 
3289.000000	100.507654 
3288.000000	100.505964 
3287.000000	100.506376 
3286.000000	100.508413 
3285.000000	100.510676 
3284.000000	100.511742 
3283.000000	100.511081 
3282.000000	100.509415 
3281.000000	100.507947 
3280.000000	100.507122 
3279.000000	100.506377 
3278.000000	100.505306 
3277.000000	100.504730 
3276.000000	100.506206 
3275.000000	100.510472 
3274.000000	100.516362 
3273.000000	100.521056 
3272.000000	100.521487 
3271.000000	100.516259 
3270.000000	100.506959 
3269.000000	100.497620 
3268.000000	100.492358 
3267.000000	100.493042 
3266.000000	100.498642 
3265.000000	100.506198 
3264.000000	100.512556 
3263.000000	100.516023 
3262.000000	100.516961 
3261.000000	100.516928 
3260.000000	100.517139 
3259.000000	100.517568 
3258.000000	100.517424 
3257.000000	100.516197 
3256.000000	100.513920 
3255.000000	100.510794 
3254.000000	100.507291 
3253.000000	100.504833 
3252.000000	100.505640 
3251.000000	100.510945 
3250.000000	100.518965 
3249.000000	100.525313 
3248.000000	100.526302 
3247.000000	100.522015 
3246.000000	100.515746 
3245.000000	100.510465 
3244.000000	100.506756 
3243.000000	100.504497 
3242.000000	100.505061 
3241.000000	100.510136 
3240.000000	100.518452 
3239.000000	100.525284 
3238.000000	100.526392 
3237.000000	100.522098 
3236.000000	100.516594 
3235.000000	100.513503 
3234.000000	100.513054 
3233.000000	100.513533 
3232.000000	100.514249 
3231.000000	100.516181 
3230.000000	100.519994 
3229.000000	100.524370 
3228.000000	100.526669 
3227.000000	100.525021 
3226.000000	100.519885 
3225.000000	100.513841 
3224.000000	100.509861 
3223.000000	100.509323 
3222.000000	100.511190 
3221.000000	100.513157 
3220.000000	100.513848 
3219.000000	100.513647 
3218.000000	100.513385 
3217.000000	100.512933 
3216.000000	100.511698 
3215.000000	100.510011 
3214.000000	100.509133 
3213.000000	100.509803 
3212.000000	100.511441 
3211.000000	100.513187 
3210.000000	100.515241 
3209.000000	100.518517 
3208.000000	100.523068 
3207.000000	100.527471 
3206.000000	100.530089 
3205.000000	100.530632 
3204.000000	100.530236 
3203.000000	100.530224 
3202.000000	100.531132 
3201.000000	100.532830 
3200.000000	100.534950 
3199.000000	100.536702 
3198.000000	100.536813 
3197.000000	100.534662 
3196.000000	100.531519 
3195.000000	100.529690 
3194.000000	100.529863 
3193.000000	100.530043 
3192.000000	100.527958 
3191.000000	100.524174 
3190.000000	100.521732 
3189.000000	100.522682 
3188.000000	100.525962 
3187.000000	100.528928 
3186.000000	100.529975 
3185.000000	100.529193 
3184.000000	100.527403 
3183.000000	100.525450 
3182.000000	100.524103 
3181.000000	100.523699 
3180.000000	100.523727 
3179.000000	100.523429 
3178.000000	100.522863 
3177.000000	100.522680 
3176.000000	100.522819 
3175.000000	100.522453 
3174.000000	100.521741 
3173.000000	100.522626 
3172.000000	100.526683 
3171.000000	100.532424 
3170.000000	100.536046 
3169.000000	100.535463 
3168.000000	100.532859 
3167.000000	100.532421 
3166.000000	100.535897 
3165.000000	100.541165 
3164.000000	100.544904 
3163.000000	100.545676 
3162.000000	100.544359 
3161.000000	100.542662 
3160.000000	100.541926 
3159.000000	100.542802 
3158.000000	100.545060 
3157.000000	100.547519 
3156.000000	100.548793 
3155.000000	100.548527 
3154.000000	100.547772 
3153.000000	100.547948 
3152.000000	100.549415 
3151.000000	100.550967 
3150.000000	100.550670 
3149.000000	100.547520 
3148.000000	100.542756 
3147.000000	100.539368 
3146.000000	100.539570 
3145.000000	100.542551 
3144.000000	100.545405 
3143.000000	100.546660 
3142.000000	100.548044 
3141.000000	100.551901 
3140.000000	100.557502 
3139.000000	100.561174 
3138.000000	100.560197 
3137.000000	100.555786 
3136.000000	100.551857 
3135.000000	100.551219 
3134.000000	100.553310 
3133.000000	100.555365 
3132.000000	100.555306 
3131.000000	100.553240 
3130.000000	100.550489 
3129.000000	100.547940 
3128.000000	100.545769 
3127.000000	100.544312 
3126.000000	100.544434 
3125.000000	100.546617 
3124.000000	100.549956 
3123.000000	100.552654 
3122.000000	100.553604 
3121.000000	100.553257 
3120.000000	100.553205 
3119.000000	100.555138 
3118.000000	100.559489 
3117.000000	100.564445 
3116.000000	100.566774 
3115.000000	100.564568 
3114.000000	100.559146 
3113.000000	100.553617 
3112.000000	100.549819 
3111.000000	100.547605 
3110.000000	100.546813 
3109.000000	100.548133 
3108.000000	100.551158 
3107.000000	100.553070 
3106.000000	100.551036 
3105.000000	100.545541 
3104.000000	100.540174 
3103.000000	100.538434 
3102.000000	100.541446 
3101.000000	100.547696 
3100.000000	100.553847 
3099.000000	100.556476 
3098.000000	100.554638 
3097.000000	100.551082 
3096.000000	100.550041 
3095.000000	100.553416 
3094.000000	100.559500 
3093.000000	100.565150 
3092.000000	100.568234 
3091.000000	100.568112 
3090.000000	100.565254 
3089.000000	100.561358 
3088.000000	100.559130 
3087.000000	100.560682 
3086.000000	100.565689 
3085.000000	100.571415 
3084.000000	100.574891 
3083.000000	100.575192 
3082.000000	100.573790 
3081.000000	100.572865 
3080.000000	100.573445 
3079.000000	100.574906 
3078.000000	100.575686 
3077.000000	100.574347 
3076.000000	100.570571 
3075.000000	100.565711 
3074.000000	100.562164 
3073.000000	100.561566 
3072.000000	100.563527 
3071.000000	100.566576 
3070.000000	100.569798 
3069.000000	100.572524 
3068.000000	100.572923 
3067.000000	100.568826 
3066.000000	100.560698 
3065.000000	100.552341 
3064.000000	100.547556 
3063.000000	100.546956 
3062.000000	100.548789 
3061.000000	100.551707 
3060.000000	100.555556 
3059.000000	100.560227 
3058.000000	100.565057 
3057.000000	100.569251 
3056.000000	100.572144 
3055.000000	100.573348 
3054.000000	100.573316 
3053.000000	100.573304 
3052.000000	100.573932 
3051.000000	100.574246 
3050.000000	100.573014 
3049.000000	100.570414 
3048.000000	100.567501 
3047.000000	100.564377 
3046.000000	100.560165 
3045.000000	100.554817 
3044.000000	100.549824 
3043.000000	100.546703 
3042.000000	100.545416 
3041.000000	100.544662 
3040.000000	100.543343 
3039.000000	100.541544 
3038.000000	100.540439 
3037.000000	100.541207 
3036.000000	100.543620 
3035.000000	100.545744 
3034.000000	100.545413 
3033.000000	100.542124 
3032.000000	100.537231 
3031.000000	100.532329 
3030.000000	100.527871 
3029.000000	100.523246 
3028.000000	100.517654 
3027.000000	100.510880 
3026.000000	100.503718 
3025.000000	100.497586 
3024.000000	100.493052 
3023.000000	100.488715 
3022.000000	100.482298 
3021.000000	100.473055 
3020.000000	100.462603 
3019.000000	100.453384 
3018.000000	100.446862 
3017.000000	100.443057 
3016.000000	100.440814 
3015.000000	100.438095 
3014.000000	100.432708 
3013.000000	100.423528 
3012.000000	100.410989 
3011.000000	100.396324 
3010.000000	100.380748 
3009.000000	100.365543 
3008.000000	100.352272 
3007.000000	100.342182 
3006.000000	100.335343 
3005.000000	100.330485 
3004.000000	100.325427 
3003.000000	100.317815 
3002.000000	100.306420 
3001.000000	100.292537 
3000.000000	100.279678 
2999.000000	100.270796 
2998.000000	100.265612 
2997.000000	100.261473 
2996.000000	100.256924 
2995.000000	100.252986 
2994.000000	100.249829 
2993.000000	100.243478 
2992.000000	100.228477 
2991.000000	100.204741 
2990.000000	100.180124 
2989.000000	100.164370 
2988.000000	100.160740 
2987.000000	100.164732 
2986.000000	100.170365 
2985.000000	100.175889 
2984.000000	100.182855 
2983.000000	100.191530 
2982.000000	100.199190 
2981.000000	100.202808 
2980.000000	100.202216 
2979.000000	100.200053 
2978.000000	100.199067 
2977.000000	100.199838 
2976.000000	100.200890 
2975.000000	100.200577 
2974.000000	100.198573 
2973.000000	100.195662 
2972.000000	100.192723 
2971.000000	100.190432 
2970.000000	100.189662 
2969.000000	100.191320 
2968.000000	100.195610 
2967.000000	100.202033 
2966.000000	100.210213 
2965.000000	100.220112 
2964.000000	100.231210 
2963.000000	100.242170 
2962.000000	100.251802 
2961.000000	100.259845 
2960.000000	100.266415 
2959.000000	100.271386 
2958.000000	100.275038 
2957.000000	100.278665 
2956.000000	100.283317 
2955.000000	100.287991 
2954.000000	100.290403 
2953.000000	100.290297 
2952.000000	100.291200 
2951.000000	100.297660 
2950.000000	100.310378 
2949.000000	100.324636 
2948.000000	100.334183 
2947.000000	100.336717 
2946.000000	100.335303 
2945.000000	100.334579 
2944.000000	100.336435 
2943.000000	100.339731 
2942.000000	100.343012 
2941.000000	100.345871 
2940.000000	100.347783 
2939.000000	100.347418 
2938.000000	100.344143 
2937.000000	100.339432 
2936.000000	100.335952 
2935.000000	100.335602 
2934.000000	100.338724 
2933.000000	100.344241 
2932.000000	100.349731 
2931.000000	100.352166 
2930.000000	100.349877 
2929.000000	100.343972 
2928.000000	100.337364 
2927.000000	100.332571 
2926.000000	100.330545 
2925.000000	100.330627 
2924.000000	100.330889 
2923.000000	100.329314 
2922.000000	100.325821 
2921.000000	100.322687 
2920.000000	100.321973 
2919.000000	100.322885 
2918.000000	100.322676 
2917.000000	100.319815 
2916.000000	100.315217 
2915.000000	100.310638 
2914.000000	100.307116 
2913.000000	100.305024 
2912.000000	100.304307 
2911.000000	100.304128 
2910.000000	100.303136 
2909.000000	100.300629 
2908.000000	100.297115 
2907.000000	100.293446 
2906.000000	100.289683 
2905.000000	100.284867 
2904.000000	100.277729 
2903.000000	100.267898 
2902.000000	100.257496 
2901.000000	100.251383 
2900.000000	100.254041 
2899.000000	100.265374 
2898.000000	100.279852 
2897.000000	100.290784 
2896.000000	100.295543 
2895.000000	100.296648 
2894.000000	100.298279 
2893.000000	100.302298 
2892.000000	100.307469 
2891.000000	100.311617 
2890.000000	100.313926 
2889.000000	100.315134 
2888.000000	100.316079 
2887.000000	100.316768 
2886.000000	100.317074 
2885.000000	100.317731 
2884.000000	100.319992 
2883.000000	100.324473 
2882.000000	100.330830 
2881.000000	100.338500 
2880.000000	100.347234 
2879.000000	100.356990 
2878.000000	100.367741 
2877.000000	100.379244 
2876.000000	100.390342 
2875.000000	100.398596 
2874.000000	100.401674 
2873.000000	100.399832 
2872.000000	100.396618 
2871.000000	100.396442 
2870.000000	100.401294 
2869.000000	100.409764 
2868.000000	100.418992 
2867.000000	100.427361 
2866.000000	100.435511 
2865.000000	100.445009 
2864.000000	100.456072 
2863.000000	100.466678 
2862.000000	100.474126 
2861.000000	100.477541 
2860.000000	100.478766 
2859.000000	100.480845 
2858.000000	100.485594 
2857.000000	100.492406 
2856.000000	100.499057 
2855.000000	100.503810 
2854.000000	100.506942 
2853.000000	100.510162 
2852.000000	100.514524 
2851.000000	100.519380 
2850.000000	100.523610 
2849.000000	100.527185 
2848.000000	100.530776 
2847.000000	100.534244 
2846.000000	100.536494 
2845.000000	100.536918 
2844.000000	100.536316 
2843.000000	100.536275 
2842.000000	100.538105 
2841.000000	100.542204 
2840.000000	100.547661 
2839.000000	100.552337 
2838.000000	100.554125 
2837.000000	100.552617 
2836.000000	100.549306 
2835.000000	100.546270 
2834.000000	100.545115 
2833.000000	100.546875 
2832.000000	100.551668 
2831.000000	100.557975 
2830.000000	100.563216 
2829.000000	100.565964 
2828.000000	100.567317 
2827.000000	100.569472 
2826.000000	100.573174 
2825.000000	100.577031 
2824.000000	100.579212 
2823.000000	100.579435 
2822.000000	100.579259 
2821.000000	100.580613 
2820.000000	100.583941 
2819.000000	100.587743 
2818.000000	100.590097 
2817.000000	100.590522 
2816.000000	100.590031 
2815.000000	100.589598 
2814.000000	100.589336 
2813.000000	100.589205 
2812.000000	100.589513 
2811.000000	100.590118 
2810.000000	100.589968 
2809.000000	100.588386 
2808.000000	100.586431 
2807.000000	100.586030 
2806.000000	100.587741 
2805.000000	100.590175 
2804.000000	100.591790 
2803.000000	100.592621 
2802.000000	100.593830 
2801.000000	100.595895 
2800.000000	100.597696 
2799.000000	100.597517 
2798.000000	100.594863 
2797.000000	100.591226 
2796.000000	100.588959 
2795.000000	100.589358 
2794.000000	100.591826 
2793.000000	100.594695 
2792.000000	100.596472 
2791.000000	100.596388 
2790.000000	100.594529 
2789.000000	100.591976 
2788.000000	100.590463 
2787.000000	100.591154 
2786.000000	100.593692 
2785.000000	100.596789 
2784.000000	100.599572 
2783.000000	100.601877 
2782.000000	100.603405 
2781.000000	100.603437 
2780.000000	100.601825 
2779.000000	100.599805 
2778.000000	100.599301 
2777.000000	100.601373 
2776.000000	100.605331 
2775.000000	100.609077 
2774.000000	100.610299 
2773.000000	100.607899 
2772.000000	100.602887 
2771.000000	100.597882 
2770.000000	100.595434 
2769.000000	100.596620 
2768.000000	100.600947 
2767.000000	100.606916 
2766.000000	100.612391 
2765.000000	100.615194 
2764.000000	100.614490 
2763.000000	100.611781 
2762.000000	100.609877 
2761.000000	100.610587 
2760.000000	100.613620 
2759.000000	100.617544 
2758.000000	100.621117 
2757.000000	100.623677 
2756.000000	100.625221 
2755.000000	100.626547 
2754.000000	100.628502 
2753.000000	100.630411 
2752.000000	100.630041 
2751.000000	100.626121 
2750.000000	100.620422 
2749.000000	100.616187 
2748.000000	100.614543 
2747.000000	100.613581 
2746.000000	100.611120 
2745.000000	100.607359 
2744.000000	100.604398 
2743.000000	100.603956 
2742.000000	100.606151 
2741.000000	100.609887 
2740.000000	100.613754 
2739.000000	100.616788 
2738.000000	100.618874 
2737.000000	100.620447 
2736.000000	100.621698 
2735.000000	100.622319 
2734.000000	100.622034 
2733.000000	100.620977 
2732.000000	100.619428 
2731.000000	100.617642 
2730.000000	100.616123 
2729.000000	100.615516 
2728.000000	100.615939 
2727.000000	100.616827 
2726.000000	100.617695 
2725.000000	100.618657 
2724.000000	100.619988 
2723.000000	100.621684 
2722.000000	100.623744 
2721.000000	100.626321 
2720.000000	100.629170 
2719.000000	100.631394 
2718.000000	100.632209 
2717.000000	100.631663 
2716.000000	100.630459 
2715.000000	100.629597 
2714.000000	100.630334 
2713.000000	100.633489 
2712.000000	100.638027 
2711.000000	100.641155 
2710.000000	100.640981 
2709.000000	100.638725 
2708.000000	100.637186 
2707.000000	100.637156 
2706.000000	100.636561 
2705.000000	100.633499 
2704.000000	100.629114 
2703.000000	100.626585 
2702.000000	100.627619 
2701.000000	100.630621 
2700.000000	100.632506 
2699.000000	100.631868 
2698.000000	100.629936 
2697.000000	100.628557 
2696.000000	100.628111 
2695.000000	100.628017 
2694.000000	100.628536 
2693.000000	100.630504 
2692.000000	100.633084 
2691.000000	100.633502 
2690.000000	100.630290 
2689.000000	100.625953 
2688.000000	100.624889 
2687.000000	100.628763 
2686.000000	100.634929 
2685.000000	100.639384 
2684.000000	100.640383 
2683.000000	100.639172 
2682.000000	100.638146 
2681.000000	100.638657 
2680.000000	100.640052 
2679.000000	100.640468 
2678.000000	100.638802 
2677.000000	100.635921 
2676.000000	100.633781 
2675.000000	100.633570 
2674.000000	100.635096 
2673.000000	100.637537 
2672.000000	100.640046 
2671.000000	100.641652 
2670.000000	100.641351 
2669.000000	100.638633 
2668.000000	100.633842 
2667.000000	100.628245 
2666.000000	100.624071 
2665.000000	100.623898 
2664.000000	100.629000 
2663.000000	100.638046 
2662.000000	100.647830 
2661.000000	100.655323 
2660.000000	100.658893 
2659.000000	100.658232 
2658.000000	100.654330 
2657.000000	100.649656 
2656.000000	100.647291 
2655.000000	100.648907 
2654.000000	100.653373 
2653.000000	100.657335 
2652.000000	100.657440 
2651.000000	100.652868 
2650.000000	100.646377 
2649.000000	100.642304 
2648.000000	100.642607 
2647.000000	100.645183 
2646.000000	100.646792 
2645.000000	100.646979 
2644.000000	100.647782 
2643.000000	100.650145 
2642.000000	100.652612 
2641.000000	100.653912 
2640.000000	100.655001 
2639.000000	100.657542 
2638.000000	100.661543 
2637.000000	100.665376 
2636.000000	100.667251 
2635.000000	100.666063 
2634.000000	100.661957 
2633.000000	100.656974 
2632.000000	100.654090 
2631.000000	100.654491 
2630.000000	100.656436 
2629.000000	100.657625 
2628.000000	100.657848 
2627.000000	100.658351 
2626.000000	100.659611 
2625.000000	100.661166 
2624.000000	100.662918 
2623.000000	100.664975 
2622.000000	100.666460 
2621.000000	100.666142 
2620.000000	100.664310 
2619.000000	100.662581 
2618.000000	100.661565 
2617.000000	100.660104 
2616.000000	100.657391 
2615.000000	100.654649 
2614.000000	100.653862 
2613.000000	100.655557 
2612.000000	100.658600 
2611.000000	100.661669 
2610.000000	100.664236 
2609.000000	100.666435 
2608.000000	100.668749 
2607.000000	100.671835 
2606.000000	100.676140 
2605.000000	100.681384 
2604.000000	100.686314 
2603.000000	100.688960 
2602.000000	100.687621 
2601.000000	100.682494 
2600.000000	100.676566 
2599.000000	100.674056 
2598.000000	100.677099 
2597.000000	100.683867 
2596.000000	100.690013 
2595.000000	100.691726 
2594.000000	100.687679 
2593.000000	100.679459 
2592.000000	100.671110 
2591.000000	100.667322 
2590.000000	100.670287 
2589.000000	100.677892 
2588.000000	100.685668 
2587.000000	100.690374 
2586.000000	100.690929 
2585.000000	100.686763 
2584.000000	100.677696 
2583.000000	100.666176 
2582.000000	100.657425 
2581.000000	100.655210 
2580.000000	100.657981 
2579.000000	100.660626 
2578.000000	100.659709 
2577.000000	100.656019 
2576.000000	100.652740 
2575.000000	100.652608 
2574.000000	100.656431 
2573.000000	100.662528 
2572.000000	100.667257 
2571.000000	100.667443 
2570.000000	100.663043 
2569.000000	100.657094 
2568.000000	100.653251 
2567.000000	100.653846 
2566.000000	100.659317 
2565.000000	100.667687 
2564.000000	100.674740 
2563.000000	100.676647 
2562.000000	100.673244 
2561.000000	100.668016 
2560.000000	100.664850 
2559.000000	100.665426 
2558.000000	100.668723 
2557.000000	100.671268 
2556.000000	100.668870 
2555.000000	100.661151 
2554.000000	100.654418 
2553.000000	100.656620 
2552.000000	100.668225 
2551.000000	100.680955 
2550.000000	100.686994 
2549.000000	100.686540 
2548.000000	100.684265 
2547.000000	100.681689 
2546.000000	100.676901 
2545.000000	100.670194 
2544.000000	100.665623 
2543.000000	100.666501 
2542.000000	100.672020 
2541.000000	100.678772 
2540.000000	100.683654 
2539.000000	100.685020 
2538.000000	100.682748 
2537.000000	100.677779 
2536.000000	100.670930 
2535.000000	100.662614 
2534.000000	100.654533 
2533.000000	100.650245 
2532.000000	100.651994 
2531.000000	100.657750 
2530.000000	100.663471 
2529.000000	100.667743 
2528.000000	100.671921 
2527.000000	100.676274 
2526.000000	100.678990 
2525.000000	100.679470 
2524.000000	100.679838 
2523.000000	100.681934 
2522.000000	100.684722 
2521.000000	100.685995 
2520.000000	100.685225 
2519.000000	100.683514 
2518.000000	100.681780 
2517.000000	100.680153 
2516.000000	100.678504 
2515.000000	100.676752 
2514.000000	100.674950 
2513.000000	100.673247 
2512.000000	100.671242 
2511.000000	100.667729 
2510.000000	100.662474 
2509.000000	100.658258 
2508.000000	100.659240 
2507.000000	100.666190 
2506.000000	100.674453 
2505.000000	100.677865 
2504.000000	100.674355 
2503.000000	100.667188 
2502.000000	100.661534 
2501.000000	100.660778 
2500.000000	100.665486 
2499.000000	100.674348 
2498.000000	100.685299 
2497.000000	100.695988 
2496.000000	100.703978 
2495.000000	100.707377 
2494.000000	100.705738 
2493.000000	100.700218 
2492.000000	100.692764 
2491.000000	100.685491 
2490.000000	100.680721 
2489.000000	100.680113 
2488.000000	100.682566 
2487.000000	100.684069 
2486.000000	100.681632 
2485.000000	100.677468 
2484.000000	100.677417 
2483.000000	100.684401 
2482.000000	100.694571 
2481.000000	100.700783 
2480.000000	100.699356 
2479.000000	100.692763 
2478.000000	100.686321 
2477.000000	100.683237 
2476.000000	100.682855 
2475.000000	100.682847 
2474.000000	100.682218 
2473.000000	100.682006 
2472.000000	100.683734 
2471.000000	100.687913 
2470.000000	100.693704 
2469.000000	100.698812 
2468.000000	100.699764 
2467.000000	100.694163 
2466.000000	100.683993 
2465.000000	100.675637 
2464.000000	100.674775 
2463.000000	100.681132 
2462.000000	100.688976 
2461.000000	100.692559 
2460.000000	100.690626 
2459.000000	100.686506 
2458.000000	100.684957 
2457.000000	100.688285 
2456.000000	100.694073 
2455.000000	100.696792 
2454.000000	100.692861 
2453.000000	100.684280 
2452.000000	100.676708 
2451.000000	100.674300 
2450.000000	100.676984 
2449.000000	100.681670 
2448.000000	100.684604 
2447.000000	100.683403 
2446.000000	100.678977 
2445.000000	100.675726 
2444.000000	100.678060 
2443.000000	100.686066 
2442.000000	100.695406 
2441.000000	100.701447 
2440.000000	100.702432 
2439.000000	100.699167 
2438.000000	100.693720 
2437.000000	100.688867 
2436.000000	100.686619 
2435.000000	100.685828 
2434.000000	100.682590 
2433.000000	100.674685 
2432.000000	100.665225 
2431.000000	100.660450 
2430.000000	100.663721 
2429.000000	100.672458 
2428.000000	100.681295 
2427.000000	100.687424 
2426.000000	100.691843 
2425.000000	100.695500 
2424.000000	100.696087 
2423.000000	100.690479 
2422.000000	100.679862 
2421.000000	100.670058 
2420.000000	100.665845 
2419.000000	100.666778 
2418.000000	100.669722 
2417.000000	100.673348 
2416.000000	100.677818 
2415.000000	100.681530 
2414.000000	100.681519 
2413.000000	100.677393 
2412.000000	100.672406 
2411.000000	100.669785 
2410.000000	100.669608 
2409.000000	100.670007 
2408.000000	100.669993 
2407.000000	100.670234 
2406.000000	100.671970 
2405.000000	100.675731 
2404.000000	100.680431 
2403.000000	100.683552 
2402.000000	100.683110 
2401.000000	100.679642 
2400.000000	100.675449 
2399.000000	100.671922 
2398.000000	100.668722 
2397.000000	100.665654 
2396.000000	100.663917 
2395.000000	100.664867 
2394.000000	100.668385 
2393.000000	100.672920 
2392.000000	100.676635 
2391.000000	100.678548 
2390.000000	100.679382 
2389.000000	100.681179 
2388.000000	100.684948 
2387.000000	100.688709 
2386.000000	100.689229 
2385.000000	100.685935 
2384.000000	100.681832 
2383.000000	100.680149 
2382.000000	100.681425 
2381.000000	100.684317 
2380.000000	100.687382 
2379.000000	100.688724 
2378.000000	100.685765 
2377.000000	100.677969 
2376.000000	100.669489 
2375.000000	100.666490 
2374.000000	100.670724 
2373.000000	100.678022 
2372.000000	100.683862 
2371.000000	100.688647 
2370.000000	100.695706 
2369.000000	100.705418 
2368.000000	100.712653 
2367.000000	100.710699 
2366.000000	100.698328 
2365.000000	100.682675 
2364.000000	100.673337 
2363.000000	100.675766 
2362.000000	100.687837 
2361.000000	100.701163 
2360.000000	100.709297 
2359.000000	100.710842 
2358.000000	100.708251 
2357.000000	100.705300 
2356.000000	100.702952 
2355.000000	100.701708 
2354.000000	100.701686 
2353.000000	100.704254 
2352.000000	100.709036 
2351.000000	100.712361 
2350.000000	100.712091 
2349.000000	100.707469 
2348.000000	100.702306 
2347.000000	100.701924 
2346.000000	100.706481 
2345.000000	100.712760 
2344.000000	100.716167 
2343.000000	100.718426 
2342.000000	100.721403 
2341.000000	100.725947 
2340.000000	100.731131 
2339.000000	100.733212 
2338.000000	100.729953 
2337.000000	100.722601 
2336.000000	100.716238 
2335.000000	100.713178 
2334.000000	100.713890 
2333.000000	100.716588 
2332.000000	100.720171 
2331.000000	100.718484 
2330.000000	100.710659 
2329.000000	100.698984 
2328.000000	100.692661 
2327.000000	100.696186 
2326.000000	100.707489 
2325.000000	100.719951 
2324.000000	100.726568 
2323.000000	100.726857 
2322.000000	100.725583 
2321.000000	100.728360 
2320.000000	100.735323 
2319.000000	100.740858 
2318.000000	100.742121 
2317.000000	100.739684 
2316.000000	100.737355 
2315.000000	100.734570 
2314.000000	100.731451 
2313.000000	100.727521 
2312.000000	100.725356 
2311.000000	100.725385 
2310.000000	100.729747 
2309.000000	100.738465 
2308.000000	100.749049 
2307.000000	100.753972 
2306.000000	100.749228 
2305.000000	100.737629 
2304.000000	100.726621 
2303.000000	100.719042 
2302.000000	100.714178 
2301.000000	100.710906 
2300.000000	100.710450 
2299.000000	100.711375 
2298.000000	100.711386 
2297.000000	100.710597 
2296.000000	100.713348 
2295.000000	100.721045 
2294.000000	100.729299 
2293.000000	100.732097 
2292.000000	100.728674 
2291.000000	100.723249 
2290.000000	100.720166 
2289.000000	100.720933 
2288.000000	100.724505 
2287.000000	100.728760 
2286.000000	100.731637 
2285.000000	100.732882 
2284.000000	100.733938 
2283.000000	100.735689 
2282.000000	100.735856 
2281.000000	100.730333 
2280.000000	100.717795 
2279.000000	100.703491 
2278.000000	100.697093 
2277.000000	100.704772 
2276.000000	100.722862 
2275.000000	100.740598 
2274.000000	100.749798 
2273.000000	100.749654 
2272.000000	100.742453 
2271.000000	100.729085 
2270.000000	100.712416 
2269.000000	100.701153 
2268.000000	100.704239 
2267.000000	100.721380 
2266.000000	100.742945 
2265.000000	100.758710 
2264.000000	100.764103 
2263.000000	100.760176 
2262.000000	100.753031 
2261.000000	100.752592 
2260.000000	100.764834 
2259.000000	100.783500 
2258.000000	100.794004 
2257.000000	100.788322 
2256.000000	100.772584 
2255.000000	100.758482 
2254.000000	100.751434 
2253.000000	100.749297 
2252.000000	100.748901 
2251.000000	100.749740 
2250.000000	100.753233 
2249.000000	100.760995 
2248.000000	100.773032 
2247.000000	100.786364 
2246.000000	100.796224 
2245.000000	100.799321 
2244.000000	100.795350 
2243.000000	100.786135 
2242.000000	100.775439 
2241.000000	100.768672 
2240.000000	100.769129 
2239.000000	100.774023 
2238.000000	100.776748 
2237.000000	100.773011 
2236.000000	100.762583 
2235.000000	100.746817 
2234.000000	100.728977 
2233.000000	100.716345 
2232.000000	100.716096 
2231.000000	100.727618 
2230.000000	100.743109 
2229.000000	100.756800 
2228.000000	100.769437 
2227.000000	100.782479 
2226.000000	100.792832 
2225.000000	100.796208 
2224.000000	100.792589 
2223.000000	100.786140 
2222.000000	100.782220 
2221.000000	100.785252 
2220.000000	100.795744 
2219.000000	100.808075 
2218.000000	100.815029 
2217.000000	100.816407 
2216.000000	100.819842 
2215.000000	100.831088 
2214.000000	100.846400 
2213.000000	100.856097 
2212.000000	100.853640 
2211.000000	100.841150 
2210.000000	100.829210 
2209.000000	100.830887 
2208.000000	100.850720 
2207.000000	100.878154 
2206.000000	100.895643 
2205.000000	100.894201 
2204.000000	100.878107 
2203.000000	100.855897 
2202.000000	100.833650 
2201.000000	100.816980 
2200.000000	100.810415 
2199.000000	100.811006 
2198.000000	100.809485 
2197.000000	100.802274 
2196.000000	100.797132 
2195.000000	100.802803 
2194.000000	100.818164 
2193.000000	100.835366 
2192.000000	100.848647 
2191.000000	100.855729 
2190.000000	100.855649 
2189.000000	100.850884 
2188.000000	100.848001 
2187.000000	100.851121 
2186.000000	100.857630 
2185.000000	100.863797 
2184.000000	100.870304 
2183.000000	100.878048 
2182.000000	100.883632 
2181.000000	100.884952 
2180.000000	100.886658 
2179.000000	100.893126 
2178.000000	100.899505 
2177.000000	100.896670 
2176.000000	100.883234 
2175.000000	100.866817 
2174.000000	100.854912 
2173.000000	100.849897 
2172.000000	100.851463 
2171.000000	100.858447 
2170.000000	100.868620 
2169.000000	100.880656 
2168.000000	100.895420 
2167.000000	100.911861 
2166.000000	100.923955 
2165.000000	100.926944 
2164.000000	100.925417 
2163.000000	100.929416 
2162.000000	100.942461 
2161.000000	100.957495 
2160.000000	100.963719 
2159.000000	100.953985 
2158.000000	100.928432 
2157.000000	100.896922 
2156.000000	100.875210 
2155.000000	100.871838 
2154.000000	100.878980 
2153.000000	100.880271 
2152.000000	100.868491 
2151.000000	100.852544 
2150.000000	100.846814 
2149.000000	100.856996 
2148.000000	100.876288 
2147.000000	100.891574 
2146.000000	100.891972 
2145.000000	100.875577 
2144.000000	100.851284 
2143.000000	100.832307 
2142.000000	100.825418 
2141.000000	100.826569 
2140.000000	100.827616 
2139.000000	100.825510 
2138.000000	100.822245 
2137.000000	100.817306 
2136.000000	100.805469 
2135.000000	100.785040 
2134.000000	100.764843 
2133.000000	100.757350 
2132.000000	100.764171 
2131.000000	100.772823 
2130.000000	100.769880 
2129.000000	100.754767 
2128.000000	100.738469 
2127.000000	100.730415 
2126.000000	100.730093 
2125.000000	100.731537 
2124.000000	100.732595 
2123.000000	100.737021 
2122.000000	100.747923 
2121.000000	100.761625 
2120.000000	100.770063 
2119.000000	100.769348 
2118.000000	100.764092 
2117.000000	100.761941 
2116.000000	100.765077 
2115.000000	100.769542 
2114.000000	100.772375 
2113.000000	100.775580 
2112.000000	100.781339 
2111.000000	100.786555 
2110.000000	100.785598 
2109.000000	100.777305 
2108.000000	100.766337 
2107.000000	100.757902 
2106.000000	100.753310 
2105.000000	100.750165 
2104.000000	100.745088 
2103.000000	100.736973 
2102.000000	100.729375 
2101.000000	100.728587 
2100.000000	100.737051 
2099.000000	100.749761 
2098.000000	100.759422 
2097.000000	100.764227 
2096.000000	100.767528 
2095.000000	100.770197 
2094.000000	100.767486 
2093.000000	100.755304 
2092.000000	100.737429 
2091.000000	100.724316 
2090.000000	100.724512 
2089.000000	100.736706 
2088.000000	100.750264 
2087.000000	100.755243 
2086.000000	100.752160 
2085.000000	100.750042 
2084.000000	100.754429 
2083.000000	100.760855 
2082.000000	100.762579 
2081.000000	100.760942 
2080.000000	100.763290 
2079.000000	100.772731 
2078.000000	100.785496 
2077.000000	100.797999 
2076.000000	100.810814 
2075.000000	100.824094 
2074.000000	100.834146 
2073.000000	100.837278 
2072.000000	100.834337 
2071.000000	100.828949 
2070.000000	100.823041 
2069.000000	100.816250 
2068.000000	100.808479 
2067.000000	100.801536 
2066.000000	100.798455 
2065.000000	100.801257 
2064.000000	100.808828 
2063.000000	100.817706 
2062.000000	100.825713 
2061.000000	100.833729 
2060.000000	100.843170 
2059.000000	100.853458 
2058.000000	100.863136 
2057.000000	100.871038 
2056.000000	100.874721 
2055.000000	100.871239 
2054.000000	100.863094 
2053.000000	100.860068 
2052.000000	100.869926 
2051.000000	100.888754 
2050.000000	100.904433 
2049.000000	100.908796 
2048.000000	100.903503 
2047.000000	100.894696 
2046.000000	100.887086 
2045.000000	100.883756 
2044.000000	100.885970 
2043.000000	100.891772 
2042.000000	100.898542 
2041.000000	100.906684 
2040.000000	100.917223 
2039.000000	100.927454 
2038.000000	100.934082 
2037.000000	100.938853 
2036.000000	100.944828 
2035.000000	100.948280 
2034.000000	100.941667 
2033.000000	100.924817 
2032.000000	100.905975 
2031.000000	100.891797 
2030.000000	100.884058 
2029.000000	100.884581 
2028.000000	100.894127 
2027.000000	100.906274 
2026.000000	100.912465 
2025.000000	100.914640 
2024.000000	100.923559 
2023.000000	100.941308 
2022.000000	100.953749 
2021.000000	100.946133 
2020.000000	100.921036 
2019.000000	100.895783 
2018.000000	100.885884 
2017.000000	100.893478 
2016.000000	100.907986 
2015.000000	100.916017 
2014.000000	100.912662 
2013.000000	100.904287 
2012.000000	100.899463 
2011.000000	100.899308 
2010.000000	100.901011 
2009.000000	100.907448 
2008.000000	100.924450 
2007.000000	100.947634 
2006.000000	100.961560 
2005.000000	100.956093 
2004.000000	100.937678 
2003.000000	100.921509 
2002.000000	100.917163 
2001.000000	100.923629 
2000.000000	100.931162 
1999.000000	100.927301 
1998.000000	100.907248 
1997.000000	100.880344 
1996.000000	100.863175 
1995.000000	100.865189 
1994.000000	100.883501 
1993.000000	100.908690 
1992.000000	100.930763 
1991.000000	100.941626 
1990.000000	100.938893 
1989.000000	100.929358 
1988.000000	100.923880 
1987.000000	100.925943 
1986.000000	100.928371 
1985.000000	100.923505 
1984.000000	100.913335 
1983.000000	100.907686 
1982.000000	100.914464 
1981.000000	100.932694 
1980.000000	100.951763 
1979.000000	100.958728 
1978.000000	100.950303 
1977.000000	100.936224 
1976.000000	100.926556 
1975.000000	100.919116 
1974.000000	100.907319 
1973.000000	100.896250 
1972.000000	100.899871 
1971.000000	100.921103 
1970.000000	100.943901 
1969.000000	100.949248 
1968.000000	100.934611 
1967.000000	100.913937 
1966.000000	100.900985 
1965.000000	100.897470 
1964.000000	100.896622 
1963.000000	100.893005 
1962.000000	100.886721 
1961.000000	100.880201 
1960.000000	100.873951 
1959.000000	100.867498 
1958.000000	100.862761 
1957.000000	100.862319 
1956.000000	100.864229 
1955.000000	100.862843 
1954.000000	100.856545 
1953.000000	100.849772 
1952.000000	100.845647 
1951.000000	100.840780 
1950.000000	100.831489 
1949.000000	100.822195 
1948.000000	100.820402 
1947.000000	100.824780 
1946.000000	100.824956 
1945.000000	100.813604 
1944.000000	100.794951 
1943.000000	100.780853 
1942.000000	100.780316 
1941.000000	100.791808 
1940.000000	100.804489 
1939.000000	100.808481 
1938.000000	100.805001 
1937.000000	100.804397 
1936.000000	100.812331 
1935.000000	100.821582 
1934.000000	100.822171 
1933.000000	100.815272 
1932.000000	100.811838 
1931.000000	100.817632 
1930.000000	100.826381 
1929.000000	100.829750 
1928.000000	100.825362 
1927.000000	100.816065 
1926.000000	100.805325 
1925.000000	100.796648 
1924.000000	100.793623 
1923.000000	100.795883 
1922.000000	100.799390 
1921.000000	100.801411 
1920.000000	100.800961 
1919.000000	100.796251 
1918.000000	100.785575 
1917.000000	100.772628 
1916.000000	100.764328 
1915.000000	100.761716 
1914.000000	100.761348 
1913.000000	100.762295 
1912.000000	100.766304 
1911.000000	100.771776 
1910.000000	100.773521 
1909.000000	100.770690 
1908.000000	100.767938 
1907.000000	100.769187 
1906.000000	100.773139 
1905.000000	100.776861 
1904.000000	100.779326 
1903.000000	100.778536 
1902.000000	100.772813 
1901.000000	100.765798 
1900.000000	100.762910 
1899.000000	100.764367 
1898.000000	100.765914 
1897.000000	100.766216 
1896.000000	100.768233 
1895.000000	100.771124 
1894.000000	100.768817 
1893.000000	100.759426 
1892.000000	100.749051 
1891.000000	100.744334 
1890.000000	100.745532 
1889.000000	100.748465 
1888.000000	100.750635 
1887.000000	100.751885 
1886.000000	100.753459 
1885.000000	100.758343 
1884.000000	100.768278 
1883.000000	100.779256 
1882.000000	100.784897 
1881.000000	100.784675 
1880.000000	100.783332 
1879.000000	100.784150 
1878.000000	100.787032 
1877.000000	100.791593 
1876.000000	100.798320 
1875.000000	100.804772 
1874.000000	100.804926 
1873.000000	100.796035 
1872.000000	100.782185 
1871.000000	100.769622 
1870.000000	100.761933 
1869.000000	100.759479 
1868.000000	100.761171 
1867.000000	100.764696 
1866.000000	100.767235 
1865.000000	100.768325 
1864.000000	100.768309 
1863.000000	100.764714 
1862.000000	100.755553 
1861.000000	100.746198 
1860.000000	100.745891 
1859.000000	100.755749 
1858.000000	100.766651 
1857.000000	100.770846 
1856.000000	100.769615 
1855.000000	100.768207 
1854.000000	100.768392 
1853.000000	100.769900 
1852.000000	100.770700 
1851.000000	100.768176 
1850.000000	100.763747 
1849.000000	100.762894 
1848.000000	100.768837 
1847.000000	100.777052 
1846.000000	100.781122 
1845.000000	100.781318 
1844.000000	100.782347 
1843.000000	100.785578 
1842.000000	100.787725 
1841.000000	100.786054 
1840.000000	100.780635 
1839.000000	100.773410 
1838.000000	100.766029 
1837.000000	100.760916 
1836.000000	100.760499 
1835.000000	100.763088 
1834.000000	100.764746 
1833.000000	100.764194 
1832.000000	100.761710 
1831.000000	100.758288 
1830.000000	100.755561 
1829.000000	100.756068 
1828.000000	100.761889 
1827.000000	100.769462 
1826.000000	100.772871 
1825.000000	100.770057 
1824.000000	100.764579 
1823.000000	100.759774 
1822.000000	100.753876 
1821.000000	100.745796 
1820.000000	100.739712 
1819.000000	100.740263 
1818.000000	100.744550 
1817.000000	100.746172 
1816.000000	100.745071 
1815.000000	100.744998 
1814.000000	100.747535 
1813.000000	100.751614 
1812.000000	100.757777 
1811.000000	100.767517 
1810.000000	100.777260 
1809.000000	100.782431 
1808.000000	100.783343 
1807.000000	100.781195 
1806.000000	100.774992 
1805.000000	100.765665 
1804.000000	100.758358 
1803.000000	100.755019 
1802.000000	100.752384 
1801.000000	100.747107 
1800.000000	100.741923 
1799.000000	100.741724 
1798.000000	100.745858 
1797.000000	100.752044 
1796.000000	100.760017 
1795.000000	100.767465 
1794.000000	100.770643 
1793.000000	100.768871 
1792.000000	100.766852 
1791.000000	100.769155 
1790.000000	100.772907 
1789.000000	100.773499 
1788.000000	100.771738 
1787.000000	100.770692 
1786.000000	100.770694 
1785.000000	100.770889 
1784.000000	100.772409 
1783.000000	100.773278 
1782.000000	100.771289 
1781.000000	100.767031 
1780.000000	100.763007 
1779.000000	100.761144 
1778.000000	100.760093 
1777.000000	100.760120 
1776.000000	100.762253 
1775.000000	100.764810 
1774.000000	100.766189 
1773.000000	100.767426 
1772.000000	100.769363 
1771.000000	100.774152 
1770.000000	100.780147 
1769.000000	100.780714 
1768.000000	100.775215 
1767.000000	100.769704 
1766.000000	100.768335 
1765.000000	100.767962 
1764.000000	100.765189 
1763.000000	100.761843 
1762.000000	100.761571 
1761.000000	100.763387 
1760.000000	100.765685 
1759.000000	100.767765 
1758.000000	100.769816 
1757.000000	100.773923 
1756.000000	100.779276 
1755.000000	100.784201 
1754.000000	100.786284 
1753.000000	100.783305 
1752.000000	100.776187 
1751.000000	100.770049 
1750.000000	100.768150 
1749.000000	100.768825 
1748.000000	100.769887 
1747.000000	100.771398 
1746.000000	100.775392 
1745.000000	100.779431 
1744.000000	100.779848 
1743.000000	100.778683 
1742.000000	100.779820 
1741.000000	100.782200 
1740.000000	100.783438 
1739.000000	100.784825 
1738.000000	100.789585 
1737.000000	100.794646 
1736.000000	100.794727 
1735.000000	100.791626 
1734.000000	100.786490 
1733.000000	100.782553 
1732.000000	100.783986 
1731.000000	100.784943 
1730.000000	100.781340 
1729.000000	100.777284 
1728.000000	100.776593 
1727.000000	100.777823 
1726.000000	100.778936 
1725.000000	100.778558 
1724.000000	100.777495 
1723.000000	100.776955 
1722.000000	100.774935 
1721.000000	100.770297 
1720.000000	100.766555 
1719.000000	100.771436 
1718.000000	100.783022 
1717.000000	100.788150 
1716.000000	100.788437 
1715.000000	100.791098 
1714.000000	100.792631 
1713.000000	100.790767 
1712.000000	100.789656 
1711.000000	100.790033 
1710.000000	100.788148 
1709.000000	100.783853 
1708.000000	100.780869 
1707.000000	100.781301 
1706.000000	100.781506 
1705.000000	100.778841 
1704.000000	100.778716 
1703.000000	100.780474 
1702.000000	100.777056 
1701.000000	100.770285 
1700.000000	100.767399 
1699.000000	100.778896 
1698.000000	100.796151 
1697.000000	100.803059 
1696.000000	100.799142 
1695.000000	100.791405 
1694.000000	100.785772 
1693.000000	100.781061 
1692.000000	100.775853 
1691.000000	100.772454 
1690.000000	100.772413 
1689.000000	100.776069 
1688.000000	100.780955 
1687.000000	100.784156 
1686.000000	100.786038 
1685.000000	100.791178 
1684.000000	100.793804 
1683.000000	100.789929 
1682.000000	100.787739 
1681.000000	100.787962 
1680.000000	100.787182 
1679.000000	100.785665 
1678.000000	100.784508 
1677.000000	100.782745 
1676.000000	100.778932 
1675.000000	100.772898 
1674.000000	100.771575 
1673.000000	100.776834 
1672.000000	100.782157 
1671.000000	100.784570 
1670.000000	100.785556 
1669.000000	100.786658 
1668.000000	100.787342 
1667.000000	100.786196 
1666.000000	100.783008 
1665.000000	100.778390 
1664.000000	100.776275 
1663.000000	100.778713 
1662.000000	100.784152 
1661.000000	100.791435 
1660.000000	100.796370 
1659.000000	100.796470 
1658.000000	100.795408 
1657.000000	100.796419 
1656.000000	100.794513 
1655.000000	100.788877 
1654.000000	100.791655 
1653.000000	100.792250 
1652.000000	100.787602 
1651.000000	100.792529 
1650.000000	100.798729 
1649.000000	100.798455 
1648.000000	100.797465 
1647.000000	100.798475 
1646.000000	100.797029 
1645.000000	100.795162 
1644.000000	100.797593 
1643.000000	100.801689 
1642.000000	100.802752 
1641.000000	100.799912 
1640.000000	100.794633 
1639.000000	100.789612 
1638.000000	100.785528 
1637.000000	100.785260 
1636.000000	100.789430 
1635.000000	100.793073 
1634.000000	100.797130 
1633.000000	100.800812 
1632.000000	100.800706 
1631.000000	100.795284 
1630.000000	100.786962 
1629.000000	100.781351 
1628.000000	100.782437 
1627.000000	100.787627 
1626.000000	100.792129 
1625.000000	100.793399 
1624.000000	100.791463 
1623.000000	100.786955 
1622.000000	100.783818 
1621.000000	100.786870 
1620.000000	100.792009 
1619.000000	100.792803 
1618.000000	100.789979 
1617.000000	100.790357 
1616.000000	100.795620 
1615.000000	100.802172 
1614.000000	100.806836 
1613.000000	100.808845 
1612.000000	100.809062 
1611.000000	100.806944 
1610.000000	100.803077 
1609.000000	100.800233 
1608.000000	100.798946 
1607.000000	100.796636 
1606.000000	100.794235 
1605.000000	100.794789 
1604.000000	100.796400 
1603.000000	100.796166 
1602.000000	100.795679 
1601.000000	100.798137 
1600.000000	100.802483 
1599.000000	100.804954 
1598.000000	100.805147 
1597.000000	100.805337 
1596.000000	100.806100 
1595.000000	100.805598 
1594.000000	100.803409 
1593.000000	100.801892 
1592.000000	100.802453 
1591.000000	100.803795 
1590.000000	100.805195 
1589.000000	100.808241 
1588.000000	100.813439 
1587.000000	100.818764 
1586.000000	100.822329 
1585.000000	100.825692 
1584.000000	100.828399 
1583.000000	100.827618 
1582.000000	100.824728 
1581.000000	100.823939 
1580.000000	100.824611 
1579.000000	100.822455 
1578.000000	100.817926 
1577.000000	100.815789 
1576.000000	100.815225 
1575.000000	100.812847 
1574.000000	100.812997 
1573.000000	100.816124 
1572.000000	100.817149 
1571.000000	100.815369 
1570.000000	100.814545 
1569.000000	100.818503 
1568.000000	100.823915 
1567.000000	100.824658 
1566.000000	100.820318 
1565.000000	100.816705 
1564.000000	100.815460 
1563.000000	100.814862 
1562.000000	100.810602 
1561.000000	100.806321 
1560.000000	100.811439 
1559.000000	100.817014 
1558.000000	100.811235 
1557.000000	100.816862 
1556.000000	100.829128 
1555.000000	100.832422 
1554.000000	100.829741 
1553.000000	100.827539 
1552.000000	100.825630 
1551.000000	100.822106 
1550.000000	100.819123 
1549.000000	100.820685 
1548.000000	100.825818 
1547.000000	100.826886 
1546.000000	100.819752 
1545.000000	100.809014 
1544.000000	100.802839 
1543.000000	100.807227 
1542.000000	100.821949 
1541.000000	100.840629 
1540.000000	100.849691 
1539.000000	100.841981 
1538.000000	100.833407 
1537.000000	100.832399 
1536.000000	100.833833 
1535.000000	100.833517 
1534.000000	100.831967 
1533.000000	100.828874 
1532.000000	100.826409 
1531.000000	100.827025 
1530.000000	100.826677 
1529.000000	100.823003 
1528.000000	100.818901 
1527.000000	100.816776 
1526.000000	100.817583 
1525.000000	100.822323 
1524.000000	100.830501 
1523.000000	100.840129 
1522.000000	100.846640 
1521.000000	100.844550 
1520.000000	100.837809 
1519.000000	100.831167 
1518.000000	100.822647 
1517.000000	100.812500 
1516.000000	100.806644 
1515.000000	100.808619 
1514.000000	100.813880 
1513.000000	100.815673 
1512.000000	100.814707 
1511.000000	100.815997 
1510.000000	100.818469 
1509.000000	100.818083 
1508.000000	100.819527 
1507.000000	100.828544 
1506.000000	100.831599 
1505.000000	100.828962 
1504.000000	100.829131 
1503.000000	100.831953 
1502.000000	100.835108 
1501.000000	100.836313 
1500.000000	100.835321 
1499.000000	100.835110 
1498.000000	100.836516 
1497.000000	100.831507 
1496.000000	100.817951 
1495.000000	100.806546 
1494.000000	100.803550 
1493.000000	100.804608 
1492.000000	100.805298 
1491.000000	100.805183 
1490.000000	100.803096 
1489.000000	100.797449 
1488.000000	100.793100 
1487.000000	100.793560 
1486.000000	100.793756 
1485.000000	100.792337 
1484.000000	100.791036 
1483.000000	100.790397 
1482.000000	100.790732 
1481.000000	100.792283 
1480.000000	100.795473 
1479.000000	100.797895 
1478.000000	100.796038 
1477.000000	100.790191 
1476.000000	100.787140 
1475.000000	100.790619 
1474.000000	100.797021 
1473.000000	100.800250 
1472.000000	100.798782 
1471.000000	100.798670 
1470.000000	100.801486 
1469.000000	100.802611 
1468.000000	100.800754 
1467.000000	100.798112 
1466.000000	100.796656 
1465.000000	100.797213 
1464.000000	100.799022 
1463.000000	100.802887 
1462.000000	100.806894 
1461.000000	100.807973 
1460.000000	100.805826 
1459.000000	100.803506 
1458.000000	100.801800 
1457.000000	100.792098 
1456.000000	100.775769 
1455.000000	100.768255 
1454.000000	100.770733 
1453.000000	100.773812 
1452.000000	100.773165 
1451.000000	100.770685 
1450.000000	100.768423 
1449.000000	100.764564 
1448.000000	100.760659 
1447.000000	100.760708 
1446.000000	100.766107 
1445.000000	100.772510 
1444.000000	100.774977 
1443.000000	100.775850 
1442.000000	100.778638 
1441.000000	100.782120 
1440.000000	100.782672 
1439.000000	100.781233 
1438.000000	100.781313 
1437.000000	100.781814 
1436.000000	100.779386 
1435.000000	100.778480 
1434.000000	100.781337 
1433.000000	100.781975 
1432.000000	100.777170 
1431.000000	100.771056 
1430.000000	100.768888 
1429.000000	100.769020 
1428.000000	100.768631 
1427.000000	100.767407 
1426.000000	100.766584 
1425.000000	100.766161 
1424.000000	100.763875 
1423.000000	100.761553 
1422.000000	100.760516 
1421.000000	100.755897 
1420.000000	100.742312 
1419.000000	100.724775 
1418.000000	100.714233 
1417.000000	100.710126 
1416.000000	100.703766 
1415.000000	100.693492 
1414.000000	100.684007 
1413.000000	100.676984 
1412.000000	100.670176 
1411.000000	100.664331 
1410.000000	100.661868 
1409.000000	100.659724 
1408.000000	100.654416 
1407.000000	100.647760 
1406.000000	100.644658 
1405.000000	100.646461 
1404.000000	100.650040 
1403.000000	100.656155 
1402.000000	100.667114 
1401.000000	100.680403 
1400.000000	100.690677 
1399.000000	100.695241 
1398.000000	100.693955 
1397.000000	100.683060 
1396.000000	100.658612 
1395.000000	100.628679 
1394.000000	100.614628 
1393.000000	100.628011 
1392.000000	100.657486 
1391.000000	100.685962 
1390.000000	100.704905 
1389.000000	100.713225 
1388.000000	100.712714 
1387.000000	100.706731 
1386.000000	100.700328 
1385.000000	100.696536 
1384.000000	100.693505 
1383.000000	100.689279 
1382.000000	100.684556 
1381.000000	100.681218 
1380.000000	100.680841 
1379.000000	100.683920 
1378.000000	100.690104 
1377.000000	100.697998 
1376.000000	100.705689 
1375.000000	100.711961 
1374.000000	100.718162 
1373.000000	100.726631 
1372.000000	100.737501 
1371.000000	100.747674 
1370.000000	100.754674 
1369.000000	100.758976 
1368.000000	100.761548 
1367.000000	100.763270 
1366.000000	100.765100 
1365.000000	100.767792 
1364.000000	100.771993 
1363.000000	100.777527 
1362.000000	100.782613 
1361.000000	100.785499 
1360.000000	100.786400 
1359.000000	100.787431 
1358.000000	100.791404 
1357.000000	100.799180 
1356.000000	100.808078 
1355.000000	100.814428 
1354.000000	100.817587 
1353.000000	100.819452 
1352.000000	100.822064 
1351.000000	100.824623 
1350.000000	100.825435 
1349.000000	100.825200 
1348.000000	100.825435 
1347.000000	100.826418 
1346.000000	100.827314 
1345.000000	100.827803 
1344.000000	100.828176 
1343.000000	100.828323 
1342.000000	100.827875 
1341.000000	100.827343 
1340.000000	100.827832 
1339.000000	100.829552 
1338.000000	100.831807 
1337.000000	100.834065 
1336.000000	100.836286 
1335.000000	100.838230 
1334.000000	100.838955 
1333.000000	100.837755 
1332.000000	100.835563 
1331.000000	100.834332 
1330.000000	100.835020 
1329.000000	100.836552 
1328.000000	100.837315 
1327.000000	100.836759 
1326.000000	100.835763 
1325.000000	100.835508 
1324.000000	100.836152 
1323.000000	100.837498 
1322.000000	100.839701 
1321.000000	100.842850 
1320.000000	100.846524 
1319.000000	100.850117 
1318.000000	100.852816 
1317.000000	100.853305 
1316.000000	100.850678 
1315.000000	100.846018 
1314.000000	100.842004 
1313.000000	100.840243 
1312.000000	100.840009 
1311.000000	100.840023 
1310.000000	100.840327 
1309.000000	100.841407 
1308.000000	100.842816 
1307.000000	100.843267 
1306.000000	100.842167 
1305.000000	100.840349 
1304.000000	100.839226 
1303.000000	100.839938 
1302.000000	100.842489 
1301.000000	100.845441 
1300.000000	100.847009 
1299.000000	100.846972 
1298.000000	100.846830 
1297.000000	100.847901 
1296.000000	100.849882 
1295.000000	100.851452 
1294.000000	100.851601 
1293.000000	100.849922 
1292.000000	100.846474 
1291.000000	100.842006 
1290.000000	100.837770 
1289.000000	100.834752 
1288.000000	100.833325 
1287.000000	100.833451 
1286.000000	100.834512 
1285.000000	100.835074 
1284.000000	100.833768 
1283.000000	100.830640 
1282.000000	100.826874 
1281.000000	100.823479 
1280.000000	100.820898 
1279.000000	100.819557 
1278.000000	100.819469 
1277.000000	100.819297 
1276.000000	100.817201 
1275.000000	100.812887 
1274.000000	100.807839 
1273.000000	100.803319 
1272.000000	100.799341 
1271.000000	100.795836 
1270.000000	100.793322 
1269.000000	100.791708 
1268.000000	100.789468 
1267.000000	100.785006 
1266.000000	100.778228 
1265.000000	100.770253 
1264.000000	100.762448 
1263.000000	100.756045 
1262.000000	100.751598 
1261.000000	100.748529 
1260.000000	100.745883 
1259.000000	100.743537 
1258.000000	100.741759 
1257.000000	100.739903 
1256.000000	100.737294 
1255.000000	100.735281 
1254.000000	100.736200 
1253.000000	100.739857 
1252.000000	100.743178 
1251.000000	100.744241 
1250.000000	100.744667 
1249.000000	100.746917 
1248.000000	100.751058 
1247.000000	100.755620 
1246.000000	100.759447 
1245.000000	100.760622 
1244.000000	100.755981 
1243.000000	100.745095 
1242.000000	100.733885 
1241.000000	100.730621 
1240.000000	100.737565 
1239.000000	100.748580 
1238.000000	100.755566 
1237.000000	100.755659 
1236.000000	100.751583 
1235.000000	100.746982 
1234.000000	100.743080 
1233.000000	100.738981 
1232.000000	100.733551 
1231.000000	100.726748 
1230.000000	100.719976 
1229.000000	100.715552 
1228.000000	100.715387 
1227.000000	100.719300 
1226.000000	100.724387 
1225.000000	100.726995 
1224.000000	100.726140 
1223.000000	100.724599 
1222.000000	100.725796 
1221.000000	100.730087 
1220.000000	100.735187 
1219.000000	100.739710 
1218.000000	100.744309 
1217.000000	100.748962 
1216.000000	100.751346 
1215.000000	100.749427 
1214.000000	100.744256 
1213.000000	100.738418 
1212.000000	100.732815 
1211.000000	100.727012 
1210.000000	100.722010 
1209.000000	100.720125 
1208.000000	100.721722 
1207.000000	100.724034 
1206.000000	100.724158 
1205.000000	100.721888 
1204.000000	100.718612 
1203.000000	100.714705 
1202.000000	100.709695 
1201.000000	100.704410 
1200.000000	100.701030 
1199.000000	100.700442 
1198.000000	100.700744 
1197.000000	100.699142 
1196.000000	100.694708 
1195.000000	100.688495 
1194.000000	100.681639 
1193.000000	100.674528 
1192.000000	100.667612 
1191.000000	100.661687 
1190.000000	100.656788 
1189.000000	100.651673 
1188.000000	100.645231 
1187.000000	100.638096 
1186.000000	100.632273 
1185.000000	100.629191 
1184.000000	100.628332 
1183.000000	100.627498 
1182.000000	100.624406 
1181.000000	100.618553 
1180.000000	100.611653 
1179.000000	100.605829 
1178.000000	100.601534 
1177.000000	100.597795 
1176.000000	100.594000 
1175.000000	100.589968 
1174.000000	100.584354 
1173.000000	100.575013 
1172.000000	100.561958 
1171.000000	100.548516 
1170.000000	100.538206 
1169.000000	100.531317 
1168.000000	100.525672 
1167.000000	100.519776 
1166.000000	100.513896 
1165.000000	100.508944 
1164.000000	100.506008 
1163.000000	100.506578 
1162.000000	100.511587 
1161.000000	100.520151 
1160.000000	100.530202 
1159.000000	100.539988 
1158.000000	100.547808 
1157.000000	100.550660 
1156.000000	100.545115 
1155.000000	100.530893 
1154.000000	100.513153 
1153.000000	100.499938 
1152.000000	100.496259 
1151.000000	100.499884 
1150.000000	100.503053 
1149.000000	100.499368 
1148.000000	100.489315 
1147.000000	100.478461 
1146.000000	100.470474 
1145.000000	100.463530 
1144.000000	100.453963 
1143.000000	100.441402 
1142.000000	100.428832 
1141.000000	100.419084 
1140.000000	100.413123 
1139.000000	100.410702 
1138.000000	100.410498 
1137.000000	100.409992 
1136.000000	100.407110 
1135.000000	100.401992 
1134.000000	100.395761 
1133.000000	100.387891 
1132.000000	100.376637 
1131.000000	100.362355 
1130.000000	100.348747 
1129.000000	100.339772 
1128.000000	100.335751 
1127.000000	100.332818 
1126.000000	100.326140 
1125.000000	100.314240 
1124.000000	100.300583 
1123.000000	100.290250 
1122.000000	100.284524 
1121.000000	100.279630 
1120.000000	100.271470 
1119.000000	100.260207 
1118.000000	100.248893 
1117.000000	100.238917 
1116.000000	100.228941 
1115.000000	100.217749 
1114.000000	100.206096 
1113.000000	100.195605 
1112.000000	100.187195 
1111.000000	100.180152 
1110.000000	100.171518 
1109.000000	100.157185 
1108.000000	100.136009 
1107.000000	100.113012 
1106.000000	100.095912 
1105.000000	100.087510 
1104.000000	100.083065 
1103.000000	100.075650 
1102.000000	100.062918 
1101.000000	100.047729 
1100.000000	100.034358 
1099.000000	100.025321 
1098.000000	100.020633 
1097.000000	100.018793 
1096.000000	100.017653 
1095.000000	100.015023 
1094.000000	100.008867 
1093.000000	99.997301  
1092.000000	99.978817  
1091.000000	99.953163  
1090.000000	99.922425  
1089.000000	99.891026  
1088.000000	99.863792  
1087.000000	99.843069  
1086.000000	99.827589  
1085.000000	99.814599  
1084.000000	99.802609  
1083.000000	99.791135  
1082.000000	99.778561  
1081.000000	99.762304  
1080.000000	99.741394  
1079.000000	99.717443  
1078.000000	99.693027  
1077.000000	99.670855  
1076.000000	99.654575  
1075.000000	99.647774  
1074.000000	99.650797  
1073.000000	99.659906  
1072.000000	99.669578  
1071.000000	99.673411  
1070.000000	99.663643  
1069.000000	99.635116  
1068.000000	99.593069  
1067.000000	99.554132  
1066.000000	99.534854  
1065.000000	99.538695  
1064.000000	99.555669  
1063.000000	99.572190  
1062.000000	99.578305  
1061.000000	99.568520  
1060.000000	99.542490  
1059.000000	99.507553  
1058.000000	99.476693  
1057.000000	99.459732  
1056.000000	99.456198  
1055.000000	99.457532  
1054.000000	99.455394  
1053.000000	99.447322  
1052.000000	99.435858  
1051.000000	99.424476  
1050.000000	99.414912  
1049.000000	99.407053  
1048.000000	99.400095  
1047.000000	99.393952  
1046.000000	99.390180  
1045.000000	99.390928  
1044.000000	99.395799  
1043.000000	99.400232  
1042.000000	99.399111  
1041.000000	99.392633  
1040.000000	99.386747  
1039.000000	99.386975  
1038.000000	99.393758  
1037.000000	99.404867  
1036.000000	99.419514  
1035.000000	99.437437  
1034.000000	99.456021  
1033.000000	99.471435  
1032.000000	99.481345  
1031.000000	99.484165  
1030.000000	99.478218  
1029.000000	99.465911  
1028.000000	99.457222  
1027.000000	99.463164  
1026.000000	99.484188  
1025.000000	99.508905  
1024.000000	99.525532  
1023.000000	99.531396  
1022.000000	99.530961  
1021.000000	99.529193  
1020.000000	99.529153  
1019.000000	99.532481  
1018.000000	99.538721  
1017.000000	99.545626  
1016.000000	99.552072  
1015.000000	99.559137  
1014.000000	99.567072  
1013.000000	99.573460  
1012.000000	99.576166  
1011.000000	99.576227  
1010.000000	99.576144  
1009.000000	99.577201  
1008.000000	99.580131  
1007.000000	99.586255  
1006.000000	99.595563  
1005.000000	99.605276  
1004.000000	99.612746  
1003.000000	99.618832  
1002.000000	99.626307  
1001.000000	99.635665  
1000.000000	99.644435  
999.000000	 99.650221  
998.000000	 99.652962  
997.000000	 99.654657  
996.000000	 99.658112  
995.000000	 99.665347  
994.000000	 99.675837  
993.000000	 99.686613  
992.000000	 99.694898  
991.000000	 99.700143  
990.000000	 99.703109  
989.000000	 99.704320  
988.000000	 99.704560  
987.000000	 99.705708  
986.000000	 99.709434  
985.000000	 99.715589  
984.000000	 99.723007  
983.000000	 99.731309  
982.000000	 99.740735  
981.000000	 99.750683  
980.000000	 99.759692  
979.000000	 99.767013  
978.000000	 99.773750  
977.000000	 99.782412  
976.000000	 99.794954  
975.000000	 99.810265  
974.000000	 99.823859  
973.000000	 99.831943  
972.000000	 99.836407  
971.000000	 99.844051  
970.000000	 99.859613  
969.000000	 99.880730  
968.000000	 99.900899  
967.000000	 99.916056  
966.000000	 99.926913  
965.000000	 99.936060  
964.000000	 99.944907  
963.000000	 99.953580  
962.000000	 99.962390  
961.000000	 99.972637  
960.000000	 99.985718  
959.000000	 100.000887 
958.000000	 100.014214 
957.000000	 100.021551 
956.000000	 100.023412 
955.000000	 100.025532 
954.000000	 100.033261 
953.000000	 100.046382 
952.000000	 100.060629 
951.000000	 100.072882 
950.000000	 100.082845 
949.000000	 100.090521 
948.000000	 100.094779 
947.000000	 100.095042 
946.000000	 100.092579 
945.000000	 100.089248 
944.000000	 100.086268 
943.000000	 100.085142 
942.000000	 100.088477 
941.000000	 100.098077 
940.000000	 100.111986 
939.000000	 100.124494 
938.000000	 100.130170 
937.000000	 100.128331 
936.000000	 100.123470 
935.000000	 100.121438 
934.000000	 100.125358 
933.000000	 100.134836 
932.000000	 100.147856 
931.000000	 100.162164 
930.000000	 100.175174 
929.000000	 100.183883 
928.000000	 100.185760 
927.000000	 100.180032 
926.000000	 100.168845 
925.000000	 100.157677 
924.000000	 100.153502 
923.000000	 100.160304 
922.000000	 100.175199 
921.000000	 100.189824 
920.000000	 100.196585 
919.000000	 100.193984 
918.000000	 100.186560 
917.000000	 100.180430 
916.000000	 100.178562 
915.000000	 100.179162 
914.000000	 100.178199 
913.000000	 100.173992 
912.000000	 100.169192 
911.000000	 100.167857 
910.000000	 100.171388 
909.000000	 100.178496 
908.000000	 100.188059 
907.000000	 100.199569 
906.000000	 100.210909 
905.000000	 100.218537 
904.000000	 100.221153 
903.000000	 100.221605 
902.000000	 100.224047 
901.000000	 100.230156 
900.000000	 100.238761 
899.000000	 100.247684 
898.000000	 100.254934 
897.000000	 100.259300 
896.000000	 100.260896 
895.000000	 100.260948 
894.000000	 100.260852 
893.000000	 100.262044 
892.000000	 100.266612 
891.000000	 100.276527 
890.000000	 100.291623 
889.000000	 100.309232 
888.000000	 100.326171 
887.000000	 100.340425 
886.000000	 100.351340 
885.000000	 100.359676 
884.000000	 100.367322 
883.000000	 100.375287 
882.000000	 100.381825 
881.000000	 100.384311 
880.000000	 100.383281 
879.000000	 100.382755 
878.000000	 100.386098 
877.000000	 100.393290 
876.000000	 100.402368 
875.000000	 100.410977 
874.000000	 100.416107 
873.000000	 100.415569 
872.000000	 100.411315 
871.000000	 100.408809 
870.000000	 100.411603 
869.000000	 100.418866 
868.000000	 100.429385 
867.000000	 100.444289 
866.000000	 100.463093 
865.000000	 100.480508 
864.000000	 100.491702 
863.000000	 100.499337 
862.000000	 100.510724 
861.000000	 100.527748 
860.000000	 100.543827 
859.000000	 100.552081 
858.000000	 100.552985 
857.000000	 100.552112 
856.000000	 100.553781 
855.000000	 100.559970 
854.000000	 100.572210 
853.000000	 100.589575 
852.000000	 100.605510 
851.000000	 100.611890 
850.000000	 100.608179 
849.000000	 100.603083 
848.000000	 100.604673 
847.000000	 100.611581 
846.000000	 100.616588 
845.000000	 100.616500 
844.000000	 100.614623 
843.000000	 100.614839 
842.000000	 100.617643 
841.000000	 100.621937 
840.000000	 100.626279 
839.000000	 100.627491 
838.000000	 100.622696 
837.000000	 100.614895 
836.000000	 100.612142 
835.000000	 100.617541 
834.000000	 100.623515 
833.000000	 100.620994 
832.000000	 100.612080 
831.000000	 100.607668 
830.000000	 100.612575 
829.000000	 100.619308 
828.000000	 100.619266 
827.000000	 100.614955 
826.000000	 100.615939 
825.000000	 100.624857 
824.000000	 100.633321 
823.000000	 100.632686 
822.000000	 100.624694 
821.000000	 100.618791 
820.000000	 100.621159 
819.000000	 100.629421 
818.000000	 100.637690 
817.000000	 100.643976 
816.000000	 100.650083 
815.000000	 100.655041 
814.000000	 100.653033 
813.000000	 100.640496 
812.000000	 100.622163 
811.000000	 100.605539 
810.000000	 100.590546 
809.000000	 100.569543 
808.000000	 100.538082 
807.000000	 100.500933 
806.000000	 100.465579 
805.000000	 100.434009 
804.000000	 100.404233 
803.000000	 100.376682 
802.000000	 100.354488 
801.000000	 100.338117 
800.000000	 100.323750 
799.000000	 100.308253 
798.000000	 100.293944 
797.000000	 100.286851 
796.000000	 100.290043 
795.000000	 100.299381 
794.000000	 100.306852 
793.000000	 100.308505 
792.000000	 100.307988 
791.000000	 100.311547 
790.000000	 100.321087 
789.000000	 100.333269 
788.000000	 100.343155 
787.000000	 100.346026 
786.000000	 100.337550 
785.000000	 100.316567 
784.000000	 100.288485 
783.000000	 100.263039 
782.000000	 100.247180 
781.000000	 100.240983 
780.000000	 100.239903 
779.000000	 100.238705 
778.000000	 100.233787 
777.000000	 100.225311 
776.000000	 100.218361 
775.000000	 100.219624 
774.000000	 100.231189 
773.000000	 100.248647 
772.000000	 100.265948 
771.000000	 100.280902 
770.000000	 100.295378 
769.000000	 100.310980 
768.000000	 100.325328 
767.000000	 100.333454 
766.000000	 100.334122 
765.000000	 100.334144 
764.000000	 100.343114 
763.000000	 100.362213 
762.000000	 100.380892 
761.000000	 100.387202 
760.000000	 100.379761 
759.000000	 100.367947 
758.000000	 100.363052 
757.000000	 100.370882 
756.000000	 100.388575 
755.000000	 100.404344 
754.000000	 100.404452 
753.000000	 100.386981 
752.000000	 100.367226 
751.000000	 100.364007 
750.000000	 100.380857 
749.000000	 100.404716 
748.000000	 100.421529 
747.000000	 100.427655 
746.000000	 100.427266 
745.000000	 100.425474 
744.000000	 100.425661 
743.000000	 100.428884 
742.000000	 100.434068 
741.000000	 100.441305 
740.000000	 100.454053 
739.000000	 100.474098 
738.000000	 100.495506 
737.000000	 100.508369 
736.000000	 100.508038 
735.000000	 100.497058 
734.000000	 100.480802 
733.000000	 100.467100 
732.000000	 100.467216 
731.000000	 100.487582 
730.000000	 100.519386 
729.000000	 100.544694 
728.000000	 100.554850 
727.000000	 100.556212 
726.000000	 100.556854 
725.000000	 100.555855 
724.000000	 100.549068 
723.000000	 100.537775 
722.000000	 100.526468 
721.000000	 100.517443 
720.000000	 100.512382 
719.000000	 100.514785 
718.000000	 100.526037 
717.000000	 100.541926 
716.000000	 100.555917 
715.000000	 100.563175 
714.000000	 100.561194 
713.000000	 100.551957 
712.000000	 100.545085 
711.000000	 100.552481 
710.000000	 100.575602 
709.000000	 100.602276 
708.000000	 100.618633 
707.000000	 100.619885 
706.000000	 100.607875 
705.000000	 100.584817 
704.000000	 100.555422 
703.000000	 100.530509 
702.000000	 100.520356 
701.000000	 100.524593 
700.000000	 100.532014 
699.000000	 100.529686 
698.000000	 100.512553 
697.000000	 100.486936 
696.000000	 100.465963 
695.000000	 100.458883 
694.000000	 100.463540 
693.000000	 100.472478 
692.000000	 100.484032 
691.000000	 100.501123 
690.000000	 100.521398 
689.000000	 100.537202 
688.000000	 100.546468 
687.000000	 100.553944 
686.000000	 100.559179 
685.000000	 100.555318 
684.000000	 100.543158 
683.000000	 100.534627 
682.000000	 100.537838 
681.000000	 100.547857 
680.000000	 100.555285 
679.000000	 100.554991 
678.000000	 100.544380 
677.000000	 100.527324 
676.000000	 100.520130 
675.000000	 100.536683 
674.000000	 100.568607 
673.000000	 100.589622 
672.000000	 100.585366 
671.000000	 100.567992 
670.000000	 100.558696 
669.000000	 100.572245 
668.000000	 100.597966 
667.000000	 100.608334 
666.000000	 100.605301 
665.000000	 100.599977 
664.000000	 100.593755 
663.000000	 100.601031 
662.000000	 100.630957 
661.000000	 100.667078 
660.000000	 100.681381 
659.000000	 100.668030 
658.000000	 100.643461 
657.000000	 100.620680 
656.000000	 100.600229 
655.000000	 100.584874 
654.000000	 100.585425 
653.000000	 100.602124 
652.000000	 100.619164 
651.000000	 100.625942 
650.000000	 100.629205 

