4000.000000	99.124873 
3999.000000	99.122934 
3998.000000	99.122280 
3997.000000	99.124071 
3996.000000	99.127007 
3995.000000	99.128723 
3994.000000	99.128154 
3993.000000	99.126213 
3992.000000	99.124404 
3991.000000	99.123248 
3990.000000	99.122125 
3989.000000	99.120189 
3988.000000	99.117256 
3987.000000	99.114143 
3986.000000	99.112278 
3985.000000	99.112698 
3984.000000	99.115239 
3983.000000	99.118983 
3982.000000	99.123423 
3981.000000	99.128702 
3980.000000	99.134531 
3979.000000	99.139445 
3978.000000	99.141764 
3977.000000	99.141070 
3976.000000	99.138193 
3975.000000	99.133924 
3974.000000	99.128451 
3973.000000	99.122296 
3972.000000	99.117138 
3971.000000	99.115145 
3970.000000	99.117532 
3969.000000	99.123426 
3968.000000	99.130161 
3967.000000	99.134768 
3966.000000	99.135715 
3965.000000	99.133560 
3964.000000	99.130194 
3963.000000	99.127708 
3962.000000	99.127510 
3961.000000	99.129650 
3960.000000	99.132349 
3959.000000	99.132929 
3958.000000	99.130455 
3957.000000	99.126855 
3956.000000	99.125084 
3955.000000	99.126062 
3954.000000	99.128186 
3953.000000	99.129333 
3952.000000	99.128507 
3951.000000	99.126016 
3950.000000	99.122494 
3949.000000	99.118445 
3948.000000	99.114788 
3947.000000	99.113288 
3946.000000	99.115277 
3945.000000	99.119925 
3944.000000	99.124360 
3943.000000	99.125960 
3942.000000	99.124748 
3941.000000	99.123142 
3940.000000	99.122754 
3939.000000	99.122884 
3938.000000	99.122695 
3937.000000	99.122217 
3936.000000	99.121475 
3935.000000	99.119717 
3934.000000	99.117075 
3933.000000	99.115869 
3932.000000	99.118236 
3931.000000	99.123443 
3930.000000	99.128469 
3929.000000	99.131184 
3928.000000	99.131741 
3927.000000	99.130405 
3926.000000	99.126657 
3925.000000	99.121484 
3924.000000	99.118605 
3923.000000	99.120222 
3922.000000	99.122997 
3921.000000	99.122176 
3920.000000	99.117897 
3919.000000	99.113891 
3918.000000	99.111978 
3917.000000	99.111251 
3916.000000	99.111770 
3915.000000	99.114721 
3914.000000	99.118919 
3913.000000	99.121072 
3912.000000	99.119953 
3911.000000	99.116873 
3910.000000	99.114318 
3909.000000	99.113583 
3908.000000	99.115223 
3907.000000	99.118690 
3906.000000	99.122208 
3905.000000	99.123468 
3904.000000	99.122156 
3903.000000	99.121351 
3902.000000	99.123110 
3901.000000	99.124056 
3900.000000	99.119908 
3899.000000	99.112193 
3898.000000	99.106056 
3897.000000	99.103287 
3896.000000	99.101466 
3895.000000	99.099866 
3894.000000	99.101886 
3893.000000	99.108552 
3892.000000	99.114871 
3891.000000	99.116251 
3890.000000	99.118227 
3889.000000	99.125448 
3888.000000	99.132195 
3887.000000	99.131465 
3886.000000	99.124013 
3885.000000	99.117282 
3884.000000	99.118505 
3883.000000	99.123398 
3882.000000	99.121957 
3881.000000	99.112968 
3880.000000	99.103980 
3879.000000	99.103148 
3878.000000	99.111170 
3877.000000	99.119406 
3876.000000	99.120541 
3875.000000	99.114722 
3874.000000	99.108120 
3873.000000	99.107903 
3872.000000	99.112252 
3871.000000	99.110696 
3870.000000	99.099546 
3869.000000	99.091538 
3868.000000	99.099712 
3867.000000	99.114642 
3866.000000	99.119729 
3865.000000	99.115674 
3864.000000	99.113368 
3863.000000	99.115666 
3862.000000	99.117052 
3861.000000	99.113432 
3860.000000	99.107004 
3859.000000	99.098634 
3858.000000	99.087072 
3857.000000	99.073767 
3856.000000	99.067224 
3855.000000	99.075626 
3854.000000	99.088268 
3853.000000	99.085426 
3852.000000	99.081986 
3851.000000	99.096484 
3850.000000	99.113548 
3849.000000	99.120728 
3848.000000	99.122587 
3847.000000	99.124870 
3846.000000	99.127272 
3845.000000	99.127608 
3844.000000	99.125696 
3843.000000	99.123025 
3842.000000	99.121512 
3841.000000	99.120802 
3840.000000	99.120184 
3839.000000	99.119583 
3838.000000	99.118765 
3837.000000	99.116701 
3836.000000	99.114232 
3835.000000	99.112571 
3834.000000	99.111769 
3833.000000	99.111411 
3832.000000	99.111803 
3831.000000	99.114067 
3830.000000	99.118796 
3829.000000	99.123670 
3828.000000	99.124581 
3827.000000	99.119731 
3826.000000	99.113743 
3825.000000	99.113910 
3824.000000	99.121722 
3823.000000	99.130857 
3822.000000	99.132483 
3821.000000	99.121754 
3820.000000	99.111074 
3819.000000	99.113577 
3818.000000	99.118928 
3817.000000	99.114689 
3816.000000	99.104335 
3815.000000	99.101058 
3814.000000	99.110689 
3813.000000	99.121282 
3812.000000	99.120667 
3811.000000	99.113450 
3810.000000	99.110616 
3809.000000	99.115095 
3808.000000	99.119971 
3807.000000	99.118887 
3806.000000	99.116893 
3805.000000	99.121629 
3804.000000	99.127229 
3803.000000	99.123771 
3802.000000	99.110895 
3801.000000	99.096059 
3800.000000	99.092408 
3799.000000	99.099877 
3798.000000	99.103343 
3797.000000	99.098387 
3796.000000	99.093632 
3795.000000	99.096736 
3794.000000	99.105713 
3793.000000	99.113763 
3792.000000	99.118273 
3791.000000	99.121218 
3790.000000	99.123224 
3789.000000	99.123707 
3788.000000	99.124113 
3787.000000	99.127010 
3786.000000	99.131829 
3785.000000	99.135668 
3784.000000	99.138348 
3783.000000	99.142268 
3782.000000	99.146722 
3781.000000	99.147136 
3780.000000	99.140572 
3779.000000	99.129524 
3778.000000	99.120628 
3777.000000	99.116596 
3776.000000	99.114047 
3775.000000	99.110811 
3774.000000	99.110418 
3773.000000	99.115840 
3772.000000	99.123573 
3771.000000	99.126554 
3770.000000	99.122939 
3769.000000	99.118913 
3768.000000	99.120398 
3767.000000	99.124205 
3766.000000	99.124255 
3765.000000	99.121567 
3764.000000	99.122770 
3763.000000	99.129862 
3762.000000	99.136733 
3761.000000	99.138537 
3760.000000	99.137501 
3759.000000	99.136121 
3758.000000	99.133883 
3757.000000	99.130385 
3756.000000	99.127376 
3755.000000	99.125251 
3754.000000	99.123141 
3753.000000	99.123335 
3752.000000	99.128588 
3751.000000	99.131886 
3750.000000	99.122930 
3749.000000	99.107372 
3748.000000	99.097740 
3747.000000	99.093936 
3746.000000	99.089786 
3745.000000	99.083048 
3744.000000	99.076323 
3743.000000	99.083831 
3742.000000	99.104953 
3741.000000	99.115460 
3740.000000	99.109630 
3739.000000	99.102948 
3738.000000	99.105786 
3737.000000	99.113034 
3736.000000	99.116426 
3735.000000	99.116414 
3734.000000	99.116174 
3733.000000	99.113257 
3732.000000	99.107028 
3731.000000	99.105099 
3730.000000	99.112074 
3729.000000	99.121896 
3728.000000	99.127308 
3727.000000	99.129702 
3726.000000	99.134509 
3725.000000	99.141843 
3724.000000	99.144812 
3723.000000	99.139411 
3722.000000	99.130086 
3721.000000	99.123925 
3720.000000	99.123421 
3719.000000	99.124856 
3718.000000	99.123739 
3717.000000	99.119069 
3716.000000	99.112732 
3715.000000	99.105776 
3714.000000	99.098623 
3713.000000	99.092638 
3712.000000	99.087620 
3711.000000	99.082555 
3710.000000	99.080492 
3709.000000	99.083391 
3708.000000	99.087124 
3707.000000	99.086463 
3706.000000	99.080406 
3705.000000	99.071718 
3704.000000	99.063805 
3703.000000	99.058640 
3702.000000	99.055767 
3701.000000	99.054408 
3700.000000	99.055696 
3699.000000	99.058139 
3698.000000	99.056291 
3697.000000	99.047972 
3696.000000	99.037581 
3695.000000	99.030319 
3694.000000	99.026172 
3693.000000	99.022482 
3692.000000	99.018905 
3691.000000	99.015517 
3690.000000	99.008980 
3689.000000	98.996178 
3688.000000	98.983878 
3687.000000	98.982975 
3686.000000	98.991928 
3685.000000	98.999640 
3684.000000	99.001791 
3683.000000	99.003265 
3682.000000	99.007503 
3681.000000	99.010074 
3680.000000	99.005054 
3679.000000	98.994506 
3678.000000	98.983791 
3677.000000	98.974058 
3676.000000	98.961144 
3675.000000	98.947505 
3674.000000	98.949371 
3673.000000	98.966442 
3672.000000	98.978198 
3671.000000	98.978874 
3670.000000	98.976182 
3669.000000	98.975437 
3668.000000	98.978660 
3667.000000	98.981297 
3666.000000	98.979377 
3665.000000	98.976207 
3664.000000	98.976012 
3663.000000	98.978330 
3662.000000	98.979947 
3661.000000	98.979466 
3660.000000	98.979010 
3659.000000	98.981670 
3658.000000	98.986950 
3657.000000	98.990713 
3656.000000	98.990296 
3655.000000	98.991572 
3654.000000	98.999278 
3653.000000	99.008690 
3652.000000	99.015911 
3651.000000	99.023181 
3650.000000	99.028147 
3649.000000	99.022640 
3648.000000	99.009095 
3647.000000	99.000287 
3646.000000	99.003011 
3645.000000	99.013495 
3644.000000	99.025042 
3643.000000	99.034255 
3642.000000	99.041814 
3641.000000	99.049082 
3640.000000	99.056365 
3639.000000	99.063640 
3638.000000	99.072049 
3637.000000	99.082326 
3636.000000	99.090824 
3635.000000	99.091577 
3634.000000	99.083658 
3633.000000	99.073889 
3632.000000	99.069272 
3631.000000	99.071399 
3630.000000	99.077025 
3629.000000	99.077308 
3628.000000	99.070611 
3627.000000	99.069411 
3626.000000	99.074497 
3625.000000	99.077775 
3624.000000	99.080423 
3623.000000	99.086527 
3622.000000	99.094051 
3621.000000	99.097104 
3620.000000	99.093063 
3619.000000	99.085266 
3618.000000	99.081391 
3617.000000	99.086115 
3616.000000	99.094888 
3615.000000	99.099594 
3614.000000	99.096672 
3613.000000	99.088875 
3612.000000	99.081802 
3611.000000	99.078604 
3610.000000	99.078605 
3609.000000	99.080703 
3608.000000	99.084588 
3607.000000	99.090076 
3606.000000	99.096421 
3605.000000	99.102236 
3604.000000	99.106995 
3603.000000	99.110826 
3602.000000	99.112912 
3601.000000	99.113017 
3600.000000	99.113436 
3599.000000	99.116296 
3598.000000	99.119591 
3597.000000	99.119856 
3596.000000	99.115674 
3595.000000	99.108812 
3594.000000	99.102636 
3593.000000	99.101173 
3592.000000	99.106593 
3591.000000	99.118086 
3590.000000	99.132337 
3589.000000	99.144198 
3588.000000	99.147155 
3587.000000	99.139009 
3586.000000	99.126395 
3585.000000	99.116713 
3584.000000	99.111213 
3583.000000	99.108909 
3582.000000	99.109087 
3581.000000	99.110234 
3580.000000	99.109907 
3579.000000	99.106802 
3578.000000	99.101519 
3577.000000	99.096466 
3576.000000	99.094348 
3575.000000	99.096318 
3574.000000	99.101148 
3573.000000	99.106145 
3572.000000	99.109221 
3571.000000	99.109747 
3570.000000	99.107970 
3569.000000	99.103866 
3568.000000	99.097113 
3567.000000	99.088973 
3566.000000	99.084488 
3565.000000	99.088061 
3564.000000	99.097074 
3563.000000	99.105561 
3562.000000	99.110613 
3561.000000	99.113130 
3560.000000	99.115065 
3559.000000	99.116978 
3558.000000	99.117667 
3557.000000	99.115941 
3556.000000	99.112701 
3555.000000	99.110056 
3554.000000	99.108843 
3553.000000	99.107859 
3552.000000	99.106181 
3551.000000	99.104792 
3550.000000	99.104883 
3549.000000	99.106279 
3548.000000	99.108813 
3547.000000	99.113132 
3546.000000	99.119102 
3545.000000	99.124913 
3544.000000	99.128344 
3543.000000	99.128235 
3542.000000	99.125172 
3541.000000	99.121117 
3540.000000	99.118496 
3539.000000	99.118561 
3538.000000	99.120484 
3537.000000	99.121979 
3536.000000	99.121002 
3535.000000	99.117083 
3534.000000	99.111173 
3533.000000	99.105423 
3532.000000	99.102329 
3531.000000	99.103283 
3530.000000	99.106934 
3529.000000	99.110481 
3528.000000	99.112807 
3527.000000	99.115452 
3526.000000	99.119669 
3525.000000	99.124053 
3524.000000	99.126171 
3523.000000	99.125501 
3522.000000	99.123659 
3521.000000	99.122121 
3520.000000	99.121064 
3519.000000	99.120291 
3518.000000	99.120047 
3517.000000	99.120480 
3516.000000	99.121097 
3515.000000	99.121668 
3514.000000	99.122879 
3513.000000	99.125081 
3512.000000	99.126477 
3511.000000	99.124260 
3510.000000	99.118091 
3509.000000	99.111702 
3508.000000	99.109790 
3507.000000	99.113237 
3506.000000	99.117950 
3505.000000	99.118648 
3504.000000	99.113590 
3503.000000	99.106343 
3502.000000	99.102959 
3501.000000	99.106567 
3500.000000	99.114228 
3499.000000	99.119376 
3498.000000	99.117695 
3497.000000	99.111139 
3496.000000	99.106062 
3495.000000	99.107010 
3494.000000	99.112644 
3493.000000	99.117771 
3492.000000	99.118503 
3491.000000	99.115033 
3490.000000	99.110345 
3489.000000	99.107324 
3488.000000	99.107143 
3487.000000	99.109409 
3486.000000	99.112925 
3485.000000	99.116401 
3484.000000	99.118977 
3483.000000	99.120435 
3482.000000	99.120788 
3481.000000	99.119941 
3480.000000	99.117908 
3479.000000	99.115430 
3478.000000	99.113877 
3477.000000	99.114022 
3476.000000	99.114990 
3475.000000	99.114993 
3474.000000	99.113545 
3473.000000	99.112271 
3472.000000	99.113094 
3471.000000	99.116186 
3470.000000	99.120148 
3469.000000	99.123460 
3468.000000	99.124982 
3467.000000	99.123707 
3466.000000	99.119356 
3465.000000	99.113316 
3464.000000	99.108105 
3463.000000	99.105404 
3462.000000	99.104795 
3461.000000	99.104726 
3460.000000	99.104315 
3459.000000	99.104015 
3458.000000	99.104734 
3457.000000	99.106579 
3456.000000	99.108553 
3455.000000	99.109636 
3454.000000	99.109917 
3453.000000	99.110499 
3452.000000	99.112151 
3451.000000	99.114458 
3450.000000	99.116288 
3449.000000	99.116930 
3448.000000	99.116377 
3447.000000	99.114840 
3446.000000	99.112750 
3445.000000	99.111187 
3444.000000	99.111421 
3443.000000	99.113618 
3442.000000	99.116327 
3441.000000	99.117968 
3440.000000	99.118747 
3439.000000	99.120158 
3438.000000	99.122590 
3437.000000	99.124294 
3436.000000	99.123349 
3435.000000	99.120187 
3434.000000	99.117265 
3433.000000	99.116577 
3432.000000	99.117945 
3431.000000	99.119738 
3430.000000	99.120438 
3429.000000	99.119493 
3428.000000	99.117175 
3427.000000	99.113999 
3426.000000	99.110442 
3425.000000	99.107129 
3424.000000	99.105027 
3423.000000	99.104983 
3422.000000	99.106794 
3421.000000	99.108829 
3420.000000	99.108978 
3419.000000	99.106415 
3418.000000	99.102562 
3417.000000	99.100098 
3416.000000	99.100603 
3415.000000	99.103087 
3414.000000	99.105065 
3413.000000	99.105196 
3412.000000	99.104552 
3411.000000	99.105203 
3410.000000	99.108049 
3409.000000	99.112171 
3408.000000	99.115689 
3407.000000	99.116863 
3406.000000	99.115038 
3405.000000	99.111281 
3404.000000	99.107968 
3403.000000	99.107203 
3402.000000	99.109420 
3401.000000	99.113378 
3400.000000	99.117146 
3399.000000	99.119313 
3398.000000	99.119999 
3397.000000	99.120823 
3396.000000	99.123141 
3395.000000	99.126205 
3394.000000	99.127855 
3393.000000	99.127159 
3392.000000	99.125431 
3391.000000	99.124244 
3390.000000	99.123467 
3389.000000	99.122034 
3388.000000	99.119771 
3387.000000	99.117358 
3386.000000	99.115051 
3385.000000	99.112598 
3384.000000	99.110308 
3383.000000	99.109234 
3382.000000	99.109936 
3381.000000	99.111543 
3380.000000	99.112217 
3379.000000	99.110744 
3378.000000	99.107991 
3377.000000	99.106843 
3376.000000	99.110016 
3375.000000	99.117433 
3374.000000	99.125955 
3373.000000	99.131821 
3372.000000	99.133226 
3371.000000	99.130779 
3370.000000	99.126479 
3369.000000	99.122650 
3368.000000	99.120921 
3367.000000	99.121164 
3366.000000	99.121516 
3365.000000	99.120222 
3364.000000	99.117528 
3363.000000	99.115440 
3362.000000	99.115638 
3361.000000	99.117820 
3360.000000	99.119886 
3359.000000	99.119617 
3358.000000	99.116656 
3357.000000	99.113217 
3356.000000	99.112422 
3355.000000	99.115368 
3354.000000	99.120066 
3353.000000	99.123672 
3352.000000	99.125365 
3351.000000	99.126573 
3350.000000	99.128914 
3349.000000	99.132664 
3348.000000	99.137019 
3347.000000	99.140819 
3346.000000	99.142853 
3345.000000	99.142260 
3344.000000	99.139197 
3343.000000	99.134874 
3342.000000	99.130755 
3341.000000	99.127922 
3340.000000	99.126987 
3339.000000	99.127851 
3338.000000	99.129142 
3337.000000	99.128521 
3336.000000	99.124557 
3335.000000	99.118634 
3334.000000	99.114464 
3333.000000	99.115071 
3332.000000	99.120018 
3331.000000	99.125765 
3330.000000	99.129054 
3329.000000	99.129914 
3328.000000	99.131077 
3327.000000	99.134403 
3326.000000	99.138434 
3325.000000	99.139994 
3324.000000	99.137923 
3323.000000	99.134543 
3322.000000	99.133161 
3321.000000	99.134549 
3320.000000	99.136325 
3319.000000	99.135804 
3318.000000	99.133011 
3317.000000	99.130502 
3316.000000	99.130414 
3315.000000	99.132293 
3314.000000	99.134020 
3313.000000	99.134364 
3312.000000	99.134018 
3311.000000	99.134343 
3310.000000	99.135813 
3309.000000	99.137945 
3308.000000	99.140262 
3307.000000	99.142790 
3306.000000	99.145502 
3305.000000	99.147488 
3304.000000	99.147026 
3303.000000	99.143007 
3302.000000	99.136614 
3301.000000	99.131191 
3300.000000	99.129754 
3299.000000	99.132491 
3298.000000	99.136968 
3297.000000	99.140707 
3296.000000	99.143157 
3295.000000	99.145270 
3294.000000	99.147846 
3293.000000	99.150650 
3292.000000	99.152763 
3291.000000	99.153460 
3290.000000	99.152757 
3289.000000	99.151183 
3288.000000	99.149154 
3287.000000	99.146830 
3286.000000	99.144625 
3285.000000	99.143312 
3284.000000	99.143166 
3283.000000	99.143443 
3282.000000	99.143365 
3281.000000	99.143109 
3280.000000	99.142972 
3279.000000	99.142113 
3278.000000	99.139495 
3277.000000	99.136029 
3276.000000	99.134362 
3275.000000	99.135994 
3274.000000	99.139529 
3273.000000	99.142230 
3272.000000	99.142441 
3271.000000	99.140140 
3270.000000	99.136229 
3269.000000	99.132180 
3268.000000	99.129759 
3267.000000	99.130163 
3266.000000	99.133420 
3265.000000	99.138787 
3264.000000	99.145264 
3263.000000	99.151564 
3262.000000	99.156403 
3261.000000	99.159184 
3260.000000	99.159987 
3259.000000	99.158810 
3258.000000	99.155579 
3257.000000	99.150890 
3256.000000	99.145900 
3255.000000	99.141281 
3254.000000	99.137210 
3253.000000	99.134578 
3252.000000	99.134848 
3251.000000	99.137987 
3250.000000	99.141646 
3249.000000	99.143422 
3248.000000	99.143189 
3247.000000	99.142409 
3246.000000	99.141925 
3245.000000	99.141481 
3244.000000	99.140943 
3243.000000	99.141029 
3242.000000	99.143021 
3241.000000	99.148047 
3240.000000	99.155713 
3239.000000	99.162814 
3238.000000	99.164685 
3237.000000	99.159447 
3236.000000	99.150629 
3235.000000	99.144236 
3234.000000	99.143284 
3233.000000	99.146151 
3232.000000	99.149686 
3231.000000	99.152262 
3230.000000	99.153601 
3229.000000	99.153373 
3228.000000	99.151162 
3227.000000	99.147277 
3226.000000	99.142883 
3225.000000	99.139489 
3224.000000	99.138335 
3223.000000	99.139593 
3222.000000	99.141927 
3221.000000	99.143538 
3220.000000	99.144046 
3219.000000	99.144777 
3218.000000	99.146744 
3217.000000	99.148904 
3216.000000	99.149201 
3215.000000	99.147079 
3214.000000	99.144069 
3213.000000	99.141834 
3212.000000	99.140603 
3211.000000	99.140044 
3210.000000	99.140828 
3209.000000	99.144038 
3208.000000	99.148993 
3207.000000	99.152868 
3206.000000	99.153421 
3205.000000	99.151715 
3204.000000	99.151223 
3203.000000	99.154176 
3202.000000	99.159522 
3201.000000	99.164499 
3200.000000	99.167266 
3199.000000	99.167503 
3198.000000	99.165485 
3197.000000	99.161833 
3196.000000	99.158051 
3195.000000	99.155895 
3194.000000	99.155491 
3193.000000	99.154775 
3192.000000	99.151736 
3191.000000	99.147195 
3190.000000	99.144584 
3189.000000	99.146603 
3188.000000	99.152384 
3187.000000	99.158245 
3186.000000	99.160968 
3185.000000	99.159955 
3184.000000	99.156671 
3183.000000	99.152911 
3182.000000	99.149822 
3181.000000	99.147737 
3180.000000	99.146261 
3179.000000	99.144740 
3178.000000	99.142983 
3177.000000	99.141240 
3176.000000	99.139323 
3175.000000	99.136540 
3174.000000	99.133281 
3173.000000	99.131977 
3172.000000	99.135009 
3171.000000	99.141501 
3170.000000	99.147435 
3169.000000	99.149704 
3168.000000	99.149354 
3167.000000	99.150228 
3166.000000	99.154916 
3165.000000	99.162562 
3164.000000	99.170079 
3163.000000	99.174665 
3162.000000	99.175369 
3161.000000	99.173264 
3160.000000	99.170613 
3159.000000	99.169412 
3158.000000	99.170105 
3157.000000	99.171499 
3156.000000	99.171951 
3155.000000	99.170825 
3154.000000	99.169117 
3153.000000	99.168804 
3152.000000	99.171188 
3151.000000	99.175367 
3150.000000	99.178480 
3149.000000	99.178107 
3148.000000	99.174670 
3147.000000	99.171070 
3146.000000	99.169706 
3145.000000	99.170144 
3144.000000	99.170189 
3143.000000	99.169031 
3142.000000	99.168594 
3141.000000	99.171294 
3140.000000	99.176753 
3139.000000	99.181492 
3138.000000	99.182260 
3137.000000	99.179356 
3136.000000	99.176131 
3135.000000	99.175358 
3134.000000	99.176665 
3133.000000	99.177745 
3132.000000	99.177504 
3131.000000	99.177250 
3130.000000	99.178525 
3129.000000	99.180475 
3128.000000	99.180337 
3127.000000	99.176731 
3126.000000	99.171715 
3125.000000	99.168961 
3124.000000	99.170211 
3123.000000	99.174010 
3122.000000	99.177708 
3121.000000	99.180107 
3120.000000	99.181981 
3119.000000	99.184454 
3118.000000	99.187252 
3117.000000	99.188509 
3116.000000	99.186388 
3115.000000	99.181077 
3114.000000	99.174855 
3113.000000	99.169845 
3112.000000	99.166172 
3111.000000	99.163073 
3110.000000	99.161180 
3109.000000	99.162163 
3108.000000	99.165878 
3107.000000	99.169373 
3106.000000	99.169671 
3105.000000	99.166841 
3104.000000	99.163645 
3103.000000	99.162852 
3102.000000	99.165626 
3101.000000	99.171530 
3100.000000	99.178588 
3099.000000	99.183639 
3098.000000	99.184450 
3097.000000	99.182081 
3096.000000	99.180180 
3095.000000	99.181382 
3094.000000	99.185073 
3093.000000	99.188810 
3092.000000	99.190770 
3091.000000	99.190361 
3090.000000	99.187700 
3089.000000	99.183829 
3088.000000	99.180988 
3087.000000	99.181323 
3086.000000	99.184883 
3085.000000	99.189472 
3084.000000	99.192725 
3083.000000	99.193951 
3082.000000	99.193916 
3081.000000	99.193420 
3080.000000	99.192617 
3079.000000	99.191478 
3078.000000	99.190167 
3077.000000	99.188570 
3076.000000	99.186028 
3075.000000	99.182316 
3074.000000	99.178737 
3073.000000	99.177499 
3072.000000	99.179722 
3071.000000	99.184499 
3070.000000	99.189841 
3069.000000	99.193728 
3068.000000	99.194167 
3067.000000	99.189742 
3066.000000	99.181384 
3065.000000	99.172861 
3064.000000	99.168032 
3063.000000	99.167541 
3062.000000	99.169101 
3061.000000	99.170680 
3060.000000	99.172283 
3059.000000	99.174730 
3058.000000	99.178011 
3057.000000	99.181240 
3056.000000	99.183457 
3055.000000	99.184263 
3054.000000	99.184213 
3053.000000	99.184476 
3052.000000	99.185410 
3051.000000	99.185769 
3050.000000	99.184322 
3049.000000	99.181881 
3048.000000	99.180223 
3047.000000	99.179079 
3046.000000	99.176106 
3045.000000	99.170444 
3044.000000	99.164570 
3043.000000	99.161501 
3042.000000	99.161369 
3041.000000	99.161803 
3040.000000	99.160782 
3039.000000	99.158002 
3038.000000	99.154199 
3037.000000	99.150421 
3036.000000	99.147648 
3035.000000	99.146011 
3034.000000	99.144355 
3033.000000	99.141157 
3032.000000	99.135765 
3031.000000	99.128448 
3030.000000	99.119622 
3029.000000	99.109569 
3028.000000	99.098722 
3027.000000	99.087845 
3026.000000	99.077911 
3025.000000	99.069700 
3024.000000	99.062938 
3023.000000	99.055739 
3022.000000	99.045767 
3021.000000	99.032537 
3020.000000	99.018222 
3019.000000	99.005796 
3018.000000	98.996785 
3017.000000	98.990914 
3016.000000	98.986898 
3015.000000	98.982855 
3014.000000	98.976578 
3013.000000	98.966336 
3012.000000	98.951376 
3011.000000	98.931651 
3010.000000	98.907976 
3009.000000	98.882935 
3008.000000	98.860637 
3007.000000	98.844345 
3006.000000	98.834215 
3005.000000	98.827463 
3004.000000	98.820135 
3003.000000	98.808756 
3002.000000	98.791910 
3001.000000	98.771803 
3000.000000	98.753461 
2999.000000	98.740544 
2998.000000	98.731997 
2997.000000	98.724181 
2996.000000	98.715892 
2995.000000	98.708949 
2994.000000	98.702896 
2993.000000	98.691566 
2992.000000	98.668036 
2991.000000	98.633328 
2990.000000	98.598277 
2989.000000	98.575328 
2988.000000	98.568744 
2987.000000	98.573360 
2986.000000	98.581638 
2985.000000	98.590094 
2984.000000	98.598859 
2983.000000	98.607599 
2982.000000	98.614235 
2981.000000	98.617282 
2980.000000	98.617619 
2979.000000	98.617257 
2978.000000	98.617259 
2977.000000	98.617293 
2976.000000	98.616471 
2975.000000	98.614131 
2974.000000	98.610365 
2973.000000	98.606294 
2972.000000	98.603535 
2971.000000	98.603149 
2970.000000	98.605460 
2969.000000	98.610810 
2968.000000	98.619646 
2967.000000	98.631507 
2966.000000	98.644666 
2965.000000	98.657380 
2964.000000	98.669137 
2963.000000	98.680295 
2962.000000	98.690963 
2961.000000	98.700613 
2960.000000	98.708479 
2959.000000	98.714169 
2958.000000	98.718426 
2957.000000	98.723320 
2956.000000	98.730587 
2955.000000	98.739314 
2954.000000	98.746455 
2953.000000	98.750831 
2952.000000	98.755723 
2951.000000	98.765771 
2950.000000	98.781232 
2949.000000	98.796735 
2948.000000	98.806327 
2947.000000	98.808853 
2946.000000	98.807894 
2945.000000	98.807391 
2944.000000	98.808471 
2943.000000	98.810182 
2942.000000	98.811812 
2941.000000	98.813540 
2940.000000	98.815240 
2939.000000	98.815725 
2938.000000	98.813749 
2937.000000	98.809685 
2936.000000	98.805960 
2935.000000	98.805673 
2934.000000	98.810338 
2933.000000	98.818387 
2932.000000	98.825667 
2931.000000	98.828037 
2930.000000	98.824266 
2929.000000	98.816693 
2928.000000	98.809108 
2927.000000	98.804043 
2926.000000	98.801842 
2925.000000	98.801334 
2924.000000	98.800919 
2923.000000	98.799706 
2922.000000	98.798375 
2921.000000	98.798509 
2920.000000	98.800392 
2919.000000	98.801935 
2918.000000	98.800577 
2917.000000	98.795879 
2916.000000	98.789528 
2915.000000	98.783359 
2914.000000	98.778460 
2913.000000	98.775713 
2912.000000	98.775493 
2911.000000	98.776489 
2910.000000	98.776134 
2909.000000	98.772941 
2908.000000	98.767663 
2907.000000	98.761770 
2906.000000	98.755542 
2905.000000	98.747981 
2904.000000	98.738046 
2903.000000	98.725999 
2902.000000	98.714670 
2901.000000	98.709306 
2900.000000	98.714501 
2899.000000	98.729812 
2898.000000	98.748716 
2897.000000	98.763416 
2896.000000	98.770698 
2895.000000	98.773228 
2894.000000	98.775810 
2893.000000	98.781028 
2892.000000	98.787935 
2891.000000	98.793827 
2890.000000	98.796947 
2889.000000	98.797828 
2888.000000	98.798270 
2887.000000	98.799414 
2886.000000	98.801349 
2885.000000	98.804372 
2884.000000	98.809507 
2883.000000	98.817223 
2882.000000	98.826442 
2881.000000	98.835674 
2880.000000	98.844831 
2879.000000	98.855339 
2878.000000	98.868534 
2877.000000	98.884093 
2876.000000	98.899559 
2875.000000	98.911168 
2874.000000	98.916033 
2873.000000	98.914623 
2872.000000	98.911115 
2871.000000	98.910601 
2870.000000	98.915596 
2869.000000	98.924971 
2868.000000	98.935823 
2867.000000	98.946162 
2866.000000	98.956350 
2865.000000	98.968337 
2864.000000	98.983142 
2863.000000	98.998815 
2862.000000	99.011428 
2861.000000	99.018682 
2860.000000	99.022305 
2859.000000	99.026417 
2858.000000	99.033706 
2857.000000	99.043536 
2856.000000	99.053346 
2855.000000	99.061338 
2854.000000	99.067821 
2853.000000	99.074295 
2852.000000	99.081534 
2851.000000	99.088874 
2850.000000	99.095569 
2849.000000	99.102267 
2848.000000	99.110238 
2847.000000	99.119233 
2846.000000	99.127062 
2845.000000	99.131611 
2844.000000	99.132695 
2843.000000	99.131866 
2842.000000	99.131331 
2841.000000	99.133155 
2840.000000	99.138220 
2839.000000	99.145022 
2838.000000	99.150230 
2837.000000	99.151423 
2836.000000	99.149200 
2835.000000	99.146366 
2834.000000	99.145624 
2833.000000	99.148262 
2832.000000	99.153966 
2831.000000	99.160940 
2830.000000	99.166763 
2829.000000	99.170161 
2828.000000	99.171917 
2827.000000	99.173555 
2826.000000	99.175498 
2825.000000	99.177025 
2824.000000	99.177627 
2823.000000	99.177785 
2822.000000	99.178623 
2821.000000	99.181147 
2820.000000	99.185393 
2819.000000	99.189920 
2818.000000	99.192749 
2817.000000	99.193443 
2816.000000	99.193747 
2815.000000	99.195597 
2814.000000	99.198970 
2813.000000	99.202267 
2812.000000	99.204204 
2811.000000	99.204483 
2810.000000	99.203276 
2809.000000	99.201198 
2808.000000	99.199588 
2807.000000	99.199638 
2806.000000	99.201021 
2805.000000	99.202171 
2804.000000	99.202192 
2803.000000	99.201948 
2802.000000	99.203074 
2801.000000	99.206159 
2800.000000	99.209947 
2799.000000	99.212145 
2798.000000	99.211254 
2797.000000	99.207910 
2796.000000	99.204307 
2795.000000	99.202159 
2794.000000	99.201563 
2793.000000	99.201848 
2792.000000	99.202632 
2791.000000	99.203591 
2790.000000	99.204163 
2789.000000	99.204459 
2788.000000	99.205843 
2787.000000	99.209482 
2786.000000	99.214629 
2785.000000	99.219285 
2784.000000	99.222230 
2783.000000	99.223419 
2782.000000	99.222842 
2781.000000	99.220453 
2780.000000	99.217313 
2779.000000	99.215391 
2778.000000	99.215700 
2777.000000	99.217519 
2776.000000	99.219667 
2775.000000	99.221559 
2774.000000	99.222679 
2773.000000	99.222261 
2772.000000	99.220351 
2771.000000	99.218436 
2770.000000	99.218186 
2769.000000	99.219989 
2768.000000	99.223220 
2767.000000	99.227180 
2766.000000	99.230956 
2765.000000	99.233000 
2764.000000	99.232144 
2763.000000	99.229126 
2762.000000	99.226315 
2761.000000	99.225792 
2760.000000	99.228117 
2759.000000	99.232647 
2758.000000	99.238044 
2757.000000	99.242343 
2756.000000	99.243634 
2755.000000	99.241527 
2754.000000	99.237544 
2753.000000	99.233562 
2752.000000	99.230275 
2751.000000	99.227647 
2750.000000	99.226212 
2749.000000	99.226722 
2748.000000	99.228467 
2747.000000	99.229144 
2746.000000	99.227152 
2745.000000	99.223578 
2744.000000	99.221286 
2743.000000	99.222228 
2742.000000	99.226083 
2741.000000	99.231142 
2740.000000	99.235794 
2739.000000	99.239161 
2738.000000	99.241033 
2737.000000	99.241729 
2736.000000	99.241859 
2735.000000	99.241879 
2734.000000	99.241770 
2733.000000	99.241192 
2732.000000	99.239961 
2731.000000	99.238482 
2730.000000	99.237715 
2729.000000	99.238517 
2728.000000	99.240861 
2727.000000	99.243797 
2726.000000	99.246223 
2725.000000	99.247549 
2724.000000	99.247731 
2723.000000	99.247177 
2722.000000	99.246843 
2721.000000	99.247808 
2720.000000	99.250154 
2719.000000	99.252455 
2718.000000	99.252873 
2717.000000	99.250779 
2716.000000	99.247253 
2715.000000	99.244386 
2714.000000	99.244234 
2713.000000	99.247593 
2712.000000	99.252978 
2711.000000	99.257310 
2710.000000	99.258559 
2709.000000	99.257556 
2708.000000	99.256490 
2707.000000	99.255975 
2706.000000	99.254626 
2705.000000	99.251443 
2704.000000	99.247434 
2703.000000	99.244535 
2702.000000	99.243742 
2701.000000	99.244587 
2700.000000	99.245778 
2699.000000	99.246016 
2698.000000	99.244798 
2697.000000	99.242888 
2696.000000	99.241774 
2695.000000	99.242540 
2694.000000	99.245326 
2693.000000	99.249413 
2692.000000	99.253180 
2691.000000	99.254523 
2690.000000	99.252589 
2689.000000	99.249262 
2688.000000	99.247796 
2687.000000	99.249563 
2686.000000	99.252880 
2685.000000	99.255253 
2684.000000	99.255895 
2683.000000	99.255716 
2682.000000	99.255841 
2681.000000	99.256744 
2680.000000	99.258123 
2679.000000	99.258948 
2678.000000	99.258114 
2677.000000	99.255673 
2676.000000	99.253191 
2675.000000	99.252516 
2674.000000	99.254323 
2673.000000	99.257755 
2672.000000	99.260930 
2671.000000	99.261819 
2670.000000	99.259416 
2669.000000	99.254497 
2668.000000	99.248958 
2667.000000	99.244464 
2666.000000	99.242109 
2665.000000	99.242797 
2664.000000	99.246658 
2663.000000	99.252066 
2662.000000	99.256532 
2661.000000	99.259027 
2660.000000	99.260397 
2659.000000	99.261212 
2658.000000	99.260596 
2657.000000	99.257999 
2656.000000	99.254957 
2655.000000	99.253851 
2654.000000	99.255328 
2653.000000	99.257749 
2652.000000	99.258915 
2651.000000	99.258002 
2650.000000	99.256304 
2649.000000	99.256173 
2648.000000	99.258409 
2647.000000	99.260619 
2646.000000	99.259408 
2645.000000	99.254595 
2644.000000	99.249828 
2643.000000	99.248432 
2642.000000	99.250227 
2641.000000	99.253338 
2640.000000	99.257383 
2639.000000	99.263132 
2638.000000	99.270086 
2637.000000	99.275977 
2636.000000	99.278181 
2635.000000	99.274885 
2634.000000	99.266336 
2633.000000	99.256265 
2632.000000	99.250380 
2631.000000	99.251176 
2630.000000	99.255120 
2629.000000	99.256884 
2628.000000	99.255437 
2627.000000	99.253858 
2626.000000	99.254209 
2625.000000	99.255527 
2624.000000	99.256571 
2623.000000	99.257590 
2622.000000	99.258814 
2621.000000	99.259663 
2620.000000	99.260270 
2619.000000	99.261656 
2618.000000	99.263543 
2617.000000	99.263867 
2616.000000	99.261502 
2615.000000	99.257922 
2614.000000	99.255226 
2613.000000	99.253989 
2612.000000	99.254062 
2611.000000	99.256010 
2610.000000	99.260250 
2609.000000	99.265483 
2608.000000	99.269301 
2607.000000	99.270344 
2606.000000	99.269442 
2605.000000	99.268852 
2604.000000	99.270259 
2603.000000	99.272876 
2602.000000	99.273743 
2601.000000	99.271010 
2600.000000	99.266842 
2599.000000	99.265603 
2598.000000	99.268880 
2597.000000	99.273701 
2596.000000	99.275967 
2595.000000	99.274039 
2594.000000	99.268563 
2593.000000	99.261067 
2592.000000	99.254377 
2591.000000	99.252627 
2590.000000	99.258270 
2589.000000	99.269070 
2588.000000	99.279482 
2587.000000	99.284908 
2586.000000	99.283740 
2585.000000	99.276411 
2584.000000	99.264890 
2583.000000	99.253389 
2582.000000	99.247125 
2581.000000	99.248315 
2580.000000	99.253694 
2579.000000	99.257150 
2578.000000	99.255108 
2577.000000	99.249241 
2576.000000	99.244429 
2575.000000	99.244619 
2574.000000	99.250134 
2573.000000	99.257827 
2572.000000	99.263392 
2571.000000	99.264180 
2570.000000	99.260620 
2569.000000	99.255292 
2568.000000	99.250710 
2567.000000	99.248018 
2566.000000	99.247407 
2565.000000	99.248836 
2564.000000	99.251764 
2563.000000	99.254613 
2562.000000	99.255446 
2561.000000	99.253682 
2560.000000	99.251004 
2559.000000	99.250133 
2558.000000	99.252213 
2557.000000	99.255238 
2556.000000	99.255744 
2555.000000	99.252927 
2554.000000	99.250657 
2553.000000	99.253849 
2552.000000	99.262546 
2551.000000	99.271214 
2550.000000	99.274753 
2549.000000	99.273471 
2548.000000	99.270781 
2547.000000	99.268021 
2546.000000	99.264417 
2545.000000	99.261110 
2544.000000	99.261492 
2543.000000	99.266646 
2542.000000	99.273191 
2541.000000	99.277069 
2540.000000	99.277529 
2539.000000	99.275943 
2538.000000	99.272346 
2537.000000	99.265062 
2536.000000	99.253335 
2535.000000	99.239362 
2534.000000	99.227920 
2533.000000	99.223745 
2532.000000	99.227824 
2531.000000	99.235940 
2530.000000	99.242434 
2529.000000	99.245858 
2528.000000	99.249331 
2527.000000	99.255158 
2526.000000	99.261848 
2525.000000	99.267680 
2524.000000	99.274246 
2523.000000	99.283505 
2522.000000	99.292918 
2521.000000	99.296857 
2520.000000	99.292965 
2519.000000	99.284909 
2518.000000	99.278549 
2517.000000	99.276819 
2516.000000	99.278357 
2515.000000	99.279803 
2514.000000	99.279031 
2513.000000	99.276649 
2512.000000	99.274299 
2511.000000	99.271845 
2510.000000	99.267865 
2509.000000	99.263445 
2508.000000	99.262914 
2507.000000	99.268463 
2506.000000	99.275651 
2505.000000	99.277372 
2504.000000	99.272026 
2503.000000	99.264991 
2502.000000	99.261817 
2501.000000	99.262831 
2500.000000	99.265420 
2499.000000	99.269015 
2498.000000	99.275390 
2497.000000	99.284760 
2496.000000	99.293569 
2495.000000	99.296636 
2494.000000	99.291001 
2493.000000	99.277871 
2492.000000	99.261737 
2491.000000	99.248138 
2490.000000	99.241572 
2489.000000	99.243662 
2488.000000	99.251656 
2487.000000	99.259223 
2486.000000	99.260993 
2485.000000	99.257580 
2484.000000	99.255023 
2483.000000	99.258157 
2482.000000	99.265421 
2481.000000	99.271121 
2480.000000	99.271780 
2479.000000	99.268776 
2478.000000	99.265489 
2477.000000	99.263741 
2476.000000	99.263149 
2475.000000	99.262606 
2474.000000	99.261814 
2473.000000	99.261806 
2472.000000	99.263996 
2471.000000	99.268411 
2470.000000	99.273193 
2469.000000	99.276115 
2468.000000	99.276052 
2467.000000	99.272858 
2466.000000	99.267147 
2465.000000	99.261094 
2464.000000	99.258017 
2463.000000	99.259338 
2462.000000	99.262378 
2461.000000	99.262696 
2460.000000	99.258660 
2459.000000	99.252850 
2458.000000	99.249261 
2457.000000	99.249974 
2456.000000	99.253867 
2455.000000	99.257318 
2454.000000	99.256566 
2453.000000	99.250814 
2452.000000	99.243149 
2451.000000	99.237593 
2450.000000	99.235500 
2449.000000	99.235517 
2448.000000	99.236267 
2447.000000	99.237737 
2446.000000	99.240470 
2445.000000	99.244793 
2444.000000	99.250624 
2443.000000	99.256737 
2442.000000	99.260468 
2441.000000	99.259673 
2440.000000	99.255210 
2439.000000	99.250419 
2438.000000	99.248099 
2437.000000	99.248805 
2436.000000	99.251486 
2435.000000	99.254193 
2434.000000	99.254348 
2433.000000	99.250350 
2432.000000	99.243763 
2431.000000	99.238656 
2430.000000	99.237913 
2429.000000	99.240920 
2428.000000	99.245312 
2427.000000	99.249919 
2426.000000	99.254866 
2425.000000	99.259253 
2424.000000	99.260232 
2423.000000	99.255400 
2422.000000	99.246048 
2421.000000	99.237212 
2420.000000	99.233656 
2419.000000	99.235893 
2418.000000	99.240702 
2417.000000	99.245069 
2416.000000	99.248192 
2415.000000	99.249674 
2414.000000	99.248052 
2413.000000	99.242741 
2412.000000	99.236138 
2411.000000	99.231878 
2410.000000	99.231407 
2409.000000	99.233558 
2408.000000	99.236836 
2407.000000	99.240496 
2406.000000	99.243764 
2405.000000	99.245843 
2404.000000	99.246959 
2403.000000	99.248047 
2402.000000	99.249159 
2401.000000	99.249261 
2400.000000	99.247799 
2399.000000	99.245498 
2398.000000	99.243480 
2397.000000	99.242424 
2396.000000	99.242616 
2395.000000	99.243951 
2394.000000	99.245810 
2393.000000	99.247721 
2392.000000	99.250069 
2391.000000	99.253408 
2390.000000	99.257274 
2389.000000	99.260630 
2388.000000	99.263292 
2387.000000	99.265813 
2386.000000	99.267989 
2385.000000	99.268783 
2384.000000	99.268080 
2383.000000	99.267439 
2382.000000	99.268505 
2381.000000	99.271225 
2380.000000	99.273860 
2379.000000	99.274202 
2378.000000	99.270774 
2377.000000	99.264102 
2376.000000	99.257385 
2375.000000	99.254704 
2374.000000	99.257474 
2373.000000	99.263229 
2372.000000	99.269029 
2371.000000	99.275378 
2370.000000	99.285015 
2369.000000	99.297708 
2368.000000	99.307768 
2367.000000	99.307930 
2366.000000	99.296165 
2365.000000	99.279128 
2364.000000	99.268142 
2363.000000	99.269444 
2362.000000	99.278804 
2361.000000	99.286741 
2360.000000	99.287574 
2359.000000	99.283417 
2358.000000	99.279589 
2357.000000	99.278922 
2356.000000	99.281572 
2355.000000	99.285844 
2354.000000	99.288738 
2353.000000	99.287791 
2352.000000	99.284260 
2351.000000	99.282097 
2350.000000	99.282368 
2349.000000	99.283271 
2348.000000	99.283221 
2347.000000	99.282044 
2346.000000	99.279371 
2345.000000	99.274083 
2344.000000	99.268350 
2343.000000	99.266931 
2342.000000	99.272812 
2341.000000	99.283448 
2340.000000	99.292004 
2339.000000	99.293452 
2338.000000	99.287960 
2337.000000	99.280379 
2336.000000	99.276082 
2335.000000	99.276913 
2334.000000	99.280385 
2333.000000	99.282711 
2332.000000	99.281996 
2331.000000	99.278552 
2330.000000	99.272777 
2329.000000	99.266393 
2328.000000	99.262326 
2327.000000	99.262159 
2326.000000	99.263831 
2325.000000	99.262902 
2324.000000	99.258641 
2323.000000	99.255227 
2322.000000	99.258369 
2321.000000	99.268881 
2320.000000	99.281443 
2319.000000	99.289535 
2318.000000	99.290394 
2317.000000	99.286111 
2316.000000	99.279943 
2315.000000	99.273788 
2314.000000	99.268121 
2313.000000	99.263828 
2312.000000	99.262495 
2311.000000	99.265609 
2310.000000	99.273707 
2309.000000	99.285350 
2308.000000	99.296151 
2307.000000	99.299824 
2306.000000	99.293011 
2305.000000	99.278737 
2304.000000	99.263871 
2303.000000	99.252691 
2302.000000	99.245078 
2301.000000	99.240084 
2300.000000	99.237865 
2299.000000	99.237172 
2298.000000	99.234786 
2297.000000	99.230255 
2296.000000	99.228479 
2295.000000	99.233751 
2294.000000	99.242581 
2293.000000	99.246092 
2292.000000	99.239924 
2291.000000	99.228383 
2290.000000	99.218705 
2289.000000	99.213878 
2288.000000	99.212240 
2287.000000	99.211154 
2286.000000	99.209175 
2285.000000	99.205859 
2284.000000	99.201410 
2283.000000	99.196281 
2282.000000	99.190372 
2281.000000	99.183125 
2280.000000	99.175092 
2279.000000	99.169061 
2278.000000	99.168818 
2277.000000	99.176238 
2276.000000	99.189034 
2275.000000	99.201413 
2274.000000	99.207638 
2273.000000	99.205737 
2272.000000	99.197559 
2271.000000	99.185635 
2270.000000	99.171922 
2269.000000	99.160134 
2268.000000	99.156436 
2267.000000	99.164804 
2266.000000	99.182024 
2265.000000	99.199213 
2264.000000	99.208655 
2263.000000	99.209111 
2262.000000	99.206123 
2261.000000	99.207918 
2260.000000	99.218212 
2259.000000	99.230574 
2258.000000	99.232467 
2257.000000	99.218421 
2256.000000	99.197375 
2255.000000	99.182978 
2254.000000	99.178237 
2253.000000	99.174902 
2252.000000	99.167401 
2251.000000	99.160959 
2250.000000	99.163681 
2249.000000	99.175423 
2248.000000	99.188149 
2247.000000	99.194690 
2246.000000	99.193817 
2245.000000	99.188128 
2244.000000	99.180199 
2243.000000	99.171356 
2242.000000	99.162610 
2241.000000	99.155541 
2240.000000	99.151610 
2239.000000	99.150349 
2238.000000	99.149057 
2237.000000	99.145146 
2236.000000	99.138060 
2235.000000	99.128153 
2234.000000	99.115581 
2233.000000	99.102772 
2232.000000	99.096538 
2231.000000	99.103849 
2230.000000	99.124524 
2229.000000	99.150281 
2228.000000	99.171859 
2227.000000	99.185264 
2226.000000	99.190727 
2225.000000	99.188874 
2224.000000	99.180403 
2223.000000	99.168344 
2222.000000	99.158401 
2221.000000	99.155850 
2220.000000	99.161456 
2219.000000	99.170400 
2218.000000	99.176331 
2217.000000	99.177399 
2216.000000	99.177468 
2215.000000	99.180509 
2214.000000	99.185085 
2213.000000	99.185792 
2212.000000	99.179240 
2211.000000	99.167610 
2210.000000	99.157641 
2209.000000	99.156716 
2208.000000	99.166973 
2207.000000	99.181097 
2206.000000	99.186340 
2205.000000	99.175836 
2204.000000	99.154990 
2203.000000	99.135085 
2202.000000	99.123216 
2201.000000	99.120102 
2200.000000	99.122904 
2199.000000	99.125527 
2198.000000	99.119773 
2197.000000	99.103137 
2196.000000	99.085097 
2195.000000	99.080097 
2194.000000	99.093722 
2193.000000	99.118773 
2192.000000	99.143424 
2191.000000	99.158956 
2190.000000	99.161372 
2189.000000	99.152620 
2188.000000	99.141450 
2187.000000	99.137611 
2186.000000	99.143520 
2185.000000	99.154457 
2184.000000	99.165690 
2183.000000	99.174476 
2182.000000	99.176461 
2181.000000	99.167919 
2180.000000	99.153032 
2179.000000	99.142019 
2178.000000	99.139717 
2177.000000	99.140815 
2176.000000	99.137717 
2175.000000	99.128518 
2174.000000	99.115752 
2173.000000	99.102056 
2172.000000	99.089207 
2171.000000	99.078101 
2170.000000	99.068951 
2169.000000	99.064554 
2168.000000	99.071816 
2167.000000	99.094097 
2166.000000	99.122108 
2165.000000	99.139552 
2164.000000	99.140028 
2163.000000	99.131598 
2162.000000	99.123123 
2161.000000	99.114810 
2160.000000	99.105277 
2159.000000	99.098563 
2158.000000	99.097925 
2157.000000	99.100783 
2156.000000	99.105929 
2155.000000	99.117057 
2154.000000	99.133434 
2153.000000	99.145078 
2152.000000	99.143690 
2151.000000	99.133617 
2150.000000	99.127031 
2149.000000	99.131995 
2148.000000	99.148093 
2147.000000	99.168313 
2146.000000	99.180948 
2145.000000	99.175792 
2144.000000	99.155282 
2143.000000	99.135569 
2142.000000	99.130894 
2141.000000	99.139916 
2140.000000	99.151949 
2139.000000	99.162082 
2138.000000	99.172288 
2137.000000	99.180576 
2136.000000	99.179648 
2135.000000	99.168848 
2134.000000	99.159557 
2133.000000	99.163112 
2132.000000	99.176725 
2131.000000	99.186031 
2130.000000	99.180521 
2129.000000	99.163877 
2128.000000	99.149236 
2127.000000	99.145605 
2126.000000	99.150080 
2125.000000	99.153606 
2124.000000	99.152989 
2123.000000	99.154425 
2122.000000	99.164205 
2121.000000	99.178952 
2120.000000	99.188282 
2119.000000	99.186063 
2118.000000	99.175827 
2117.000000	99.165383 
2116.000000	99.159356 
2115.000000	99.157877 
2114.000000	99.159539 
2113.000000	99.163012 
2112.000000	99.166721 
2111.000000	99.169135 
2110.000000	99.169761 
2109.000000	99.169195 
2108.000000	99.168159 
2107.000000	99.166542 
2106.000000	99.162783 
2105.000000	99.154157 
2104.000000	99.139107 
2103.000000	99.120647 
2102.000000	99.106511 
2101.000000	99.103449 
2100.000000	99.110312 
2099.000000	99.118497 
2098.000000	99.120995 
2097.000000	99.120041 
2096.000000	99.123464 
2095.000000	99.133176 
2094.000000	99.140258 
2093.000000	99.134085 
2092.000000	99.115135 
2091.000000	99.095956 
2090.000000	99.089159 
2089.000000	99.095803 
2088.000000	99.106106 
2087.000000	99.110624 
2086.000000	99.109218 
2085.000000	99.109128 
2084.000000	99.115535 
2083.000000	99.125295 
2082.000000	99.130356 
2081.000000	99.126405 
2080.000000	99.116876 
2079.000000	99.108602 
2078.000000	99.105754 
2077.000000	99.108991 
2076.000000	99.118009 
2075.000000	99.131708 
2074.000000	99.146100 
2073.000000	99.155356 
2072.000000	99.156414 
2071.000000	99.151248 
2070.000000	99.143900 
2069.000000	99.136590 
2068.000000	99.129204 
2067.000000	99.121202 
2066.000000	99.112895 
2065.000000	99.105356 
2064.000000	99.099937 
2063.000000	99.097939 
2062.000000	99.100348 
2061.000000	99.107247 
2060.000000	99.116915 
2059.000000	99.125842 
2058.000000	99.130769 
2057.000000	99.130982 
2056.000000	99.127554 
2055.000000	99.120395 
2054.000000	99.108497 
2053.000000	99.094270 
2052.000000	99.084632 
2051.000000	99.085043 
2050.000000	99.093545 
2049.000000	99.102278 
2048.000000	99.104308 
2047.000000	99.097676 
2046.000000	99.084562 
2045.000000	99.070264 
2044.000000	99.061835 
2043.000000	99.063034 
2042.000000	99.070174 
2041.000000	99.076028 
2040.000000	99.077905 
2039.000000	99.078383 
2038.000000	99.078526 
2037.000000	99.075574 
2036.000000	99.068696 
2035.000000	99.062427 
2034.000000	99.061317 
2033.000000	99.063571 
2032.000000	99.062642 
2031.000000	99.053796 
2030.000000	99.037810 
2029.000000	99.019854 
2028.000000	99.005605 
2027.000000	98.997653 
2026.000000	98.995756 
2025.000000	99.000354 
2024.000000	99.012292 
2023.000000	99.026867 
2022.000000	99.032356 
2021.000000	99.020870 
2020.000000	99.000278 
2019.000000	98.988687 
2018.000000	98.995562 
2017.000000	99.012300 
2016.000000	99.023204 
2015.000000	99.021490 
2014.000000	99.011703 
2013.000000	99.002359 
2012.000000	99.000674 
2011.000000	99.010488 
2010.000000	99.030581 
2009.000000	99.055123 
2008.000000	99.077947 
2007.000000	99.095712 
2006.000000	99.106372 
2005.000000	99.108332 
2004.000000	99.103171 
2003.000000	99.096324 
2002.000000	99.092654 
2001.000000	99.092348 
2000.000000	99.092194 
1999.000000	99.088904 
1998.000000	99.081478 
1997.000000	99.073026 
1996.000000	99.070068 
1995.000000	99.077208 
1994.000000	99.091511 
1993.000000	99.103556 
1992.000000	99.105310 
1991.000000	99.096667 
1990.000000	99.084036 
1989.000000	99.075016 
1988.000000	99.074118 
1987.000000	99.079339 
1986.000000	99.082299 
1985.000000	99.075937 
1984.000000	99.063218 
1983.000000	99.054582 
1982.000000	99.055355 
1981.000000	99.059018 
1980.000000	99.055277 
1979.000000	99.041658 
1978.000000	99.025259 
1977.000000	99.014858 
1976.000000	99.012706 
1975.000000	99.014033 
1974.000000	99.014287 
1973.000000	99.016726 
1972.000000	99.030254 
1971.000000	99.056469 
1970.000000	99.081252 
1969.000000	99.085517 
1968.000000	99.066092 
1967.000000	99.040874 
1966.000000	99.029622 
1965.000000	99.034832 
1964.000000	99.045632 
1963.000000	99.053407 
1962.000000	99.057091 
1961.000000	99.057945 
1960.000000	99.056663 
1959.000000	99.055530 
1958.000000	99.058307 
1957.000000	99.066162 
1956.000000	99.076374 
1955.000000	99.085766 
1954.000000	99.093141 
1953.000000	99.097599 
1952.000000	99.096427 
1951.000000	99.087514 
1950.000000	99.073598 
1949.000000	99.062246 
1948.000000	99.060140 
1947.000000	99.065986 
1946.000000	99.069829 
1945.000000	99.061526 
1944.000000	99.041022 
1943.000000	99.019809 
1942.000000	99.010834 
1941.000000	99.016732 
1940.000000	99.029774 
1939.000000	99.041875 
1938.000000	99.051658 
1937.000000	99.062768 
1936.000000	99.077155 
1935.000000	99.090848 
1934.000000	99.097758 
1933.000000	99.097698 
1932.000000	99.097891 
1931.000000	99.105035 
1930.000000	99.116532 
1929.000000	99.123187 
1928.000000	99.121035 
1927.000000	99.115646 
1926.000000	99.114679 
1925.000000	99.118998 
1924.000000	99.123754 
1923.000000	99.125813 
1922.000000	99.126033 
1921.000000	99.125532 
1920.000000	99.122901 
1919.000000	99.115659 
1918.000000	99.102958 
1917.000000	99.087293 
1916.000000	99.073857 
1915.000000	99.067068 
1914.000000	99.068267 
1913.000000	99.075922 
1912.000000	99.086400 
1911.000000	99.095455 
1910.000000	99.099455 
1909.000000	99.098193 
1908.000000	99.096874 
1907.000000	99.101325 
1906.000000	99.111739 
1905.000000	99.121920 
1904.000000	99.125778 
1903.000000	99.123022 
1902.000000	99.116708 
1901.000000	99.109756 
1900.000000	99.105023 
1899.000000	99.104741 
1898.000000	99.108586 
1897.000000	99.113457 
1896.000000	99.116738 
1895.000000	99.118677 
1894.000000	99.120052 
1893.000000	99.120576 
1892.000000	99.120600 
1891.000000	99.121074 
1890.000000	99.120375 
1889.000000	99.115064 
1888.000000	99.106274 
1887.000000	99.100369 
1886.000000	99.101687 
1885.000000	99.108568 
1884.000000	99.116906 
1883.000000	99.124847 
1882.000000	99.131515 
1881.000000	99.135035 
1880.000000	99.135523 
1879.000000	99.136541 
1878.000000	99.141513 
1877.000000	99.149980 
1876.000000	99.158467 
1875.000000	99.163951 
1874.000000	99.164371 
1873.000000	99.158124 
1872.000000	99.146464 
1871.000000	99.134385 
1870.000000	99.126273 
1869.000000	99.121009 
1868.000000	99.115736 
1867.000000	99.112420 
1866.000000	99.113917 
1865.000000	99.118103 
1864.000000	99.120067 
1863.000000	99.117524 
1862.000000	99.112654 
1861.000000	99.109767 
1860.000000	99.112926 
1859.000000	99.123890 
1858.000000	99.139242 
1857.000000	99.151262 
1856.000000	99.155033 
1855.000000	99.153557 
1854.000000	99.152625 
1853.000000	99.153007 
1852.000000	99.151997 
1851.000000	99.148797 
1850.000000	99.146364 
1849.000000	99.148287 
1848.000000	99.154845 
1847.000000	99.162976 
1846.000000	99.168606 
1845.000000	99.169303 
1844.000000	99.166200 
1843.000000	99.163953 
1842.000000	99.165086 
1841.000000	99.167313 
1840.000000	99.167829 
1839.000000	99.165691 
1838.000000	99.161740 
1837.000000	99.157451 
1836.000000	99.154490 
1835.000000	99.154208 
1834.000000	99.155893 
1833.000000	99.157536 
1832.000000	99.157981 
1831.000000	99.156777 
1830.000000	99.154101 
1829.000000	99.151678 
1828.000000	99.151131 
1827.000000	99.151814 
1826.000000	99.152404 
1825.000000	99.152459 
1824.000000	99.151712 
1823.000000	99.149610 
1822.000000	99.145221 
1821.000000	99.139286 
1820.000000	99.135614 
1819.000000	99.138317 
1818.000000	99.147290 
1817.000000	99.156168 
1816.000000	99.159201 
1815.000000	99.158548 
1814.000000	99.160010 
1813.000000	99.165227 
1812.000000	99.170334 
1811.000000	99.172973 
1810.000000	99.175351 
1809.000000	99.177643 
1808.000000	99.176895 
1807.000000	99.172810 
1806.000000	99.168415 
1805.000000	99.165008 
1804.000000	99.161063 
1803.000000	99.155964 
1802.000000	99.150787 
1801.000000	99.146497 
1800.000000	99.142906 
1799.000000	99.141152 
1798.000000	99.143426 
1797.000000	99.149371 
1796.000000	99.157078 
1795.000000	99.165158 
1794.000000	99.171838 
1793.000000	99.173628 
1792.000000	99.168274 
1791.000000	99.161034 
1790.000000	99.158719 
1789.000000	99.160277 
1788.000000	99.161675 
1787.000000	99.162871 
1786.000000	99.166836 
1785.000000	99.173225 
1784.000000	99.177777 
1783.000000	99.177657 
1782.000000	99.172736 
1781.000000	99.165915 
1780.000000	99.160539 
1779.000000	99.158370 
1778.000000	99.159427 
1777.000000	99.162291 
1776.000000	99.165772 
1775.000000	99.167905 
1774.000000	99.166911 
1773.000000	99.164218 
1772.000000	99.163007 
1771.000000	99.164530 
1770.000000	99.167356 
1769.000000	99.168599 
1768.000000	99.166681 
1767.000000	99.162787 
1766.000000	99.159695 
1765.000000	99.159338 
1764.000000	99.161221 
1763.000000	99.163460 
1762.000000	99.164240 
1761.000000	99.163957 
1760.000000	99.163197 
1759.000000	99.161828 
1758.000000	99.160981 
1757.000000	99.163828 
1756.000000	99.171475 
1755.000000	99.178716 
1754.000000	99.180183 
1753.000000	99.177299 
1752.000000	99.176023 
1751.000000	99.177565 
1750.000000	99.177820 
1749.000000	99.175287 
1748.000000	99.173420 
1747.000000	99.174106 
1746.000000	99.174778 
1745.000000	99.174422 
1744.000000	99.174660 
1743.000000	99.176356 
1742.000000	99.178097 
1741.000000	99.177764 
1740.000000	99.175349 
1739.000000	99.174435 
1738.000000	99.177268 
1737.000000	99.180868 
1736.000000	99.181656 
1735.000000	99.181818 
1734.000000	99.182638 
1733.000000	99.182390 
1732.000000	99.180691 
1731.000000	99.176518 
1730.000000	99.171311 
1729.000000	99.168859 
1728.000000	99.170656 
1727.000000	99.174114 
1726.000000	99.175955 
1725.000000	99.176267 
1724.000000	99.175849 
1723.000000	99.175522 
1722.000000	99.175860 
1721.000000	99.176050 
1720.000000	99.175923 
1719.000000	99.178928 
1718.000000	99.187917 
1717.000000	99.194690 
1716.000000	99.190444 
1715.000000	99.181221 
1714.000000	99.176527 
1713.000000	99.176382 
1712.000000	99.175842 
1711.000000	99.174506 
1710.000000	99.176188 
1709.000000	99.181786 
1708.000000	99.187265 
1707.000000	99.188536 
1706.000000	99.186341 
1705.000000	99.182752 
1704.000000	99.179051 
1703.000000	99.176088 
1702.000000	99.175763 
1701.000000	99.180041 
1700.000000	99.182238 
1699.000000	99.181744 
1698.000000	99.184904 
1697.000000	99.187245 
1696.000000	99.183027 
1695.000000	99.175576 
1694.000000	99.172231 
1693.000000	99.173245 
1692.000000	99.173957 
1691.000000	99.173690 
1690.000000	99.173629 
1689.000000	99.174854 
1688.000000	99.178452 
1687.000000	99.182864 
1686.000000	99.186630 
1685.000000	99.188207 
1684.000000	99.183888 
1683.000000	99.179096 
1682.000000	99.178273 
1681.000000	99.177304 
1680.000000	99.176686 
1679.000000	99.177657 
1678.000000	99.177717 
1677.000000	99.175808 
1676.000000	99.175404 
1675.000000	99.178428 
1674.000000	99.181851 
1673.000000	99.184650 
1672.000000	99.187334 
1671.000000	99.190087 
1670.000000	99.189749 
1669.000000	99.184293 
1668.000000	99.179909 
1667.000000	99.180156 
1666.000000	99.181606 
1665.000000	99.181327 
1664.000000	99.180507 
1663.000000	99.182046 
1662.000000	99.184290 
1661.000000	99.185025 
1660.000000	99.186813 
1659.000000	99.192046 
1658.000000	99.198874 
1657.000000	99.203189 
1656.000000	99.203383 
1655.000000	99.199841 
1654.000000	99.196603 
1653.000000	99.190618 
1652.000000	99.185651 
1651.000000	99.189486 
1650.000000	99.194042 
1649.000000	99.194278 
1648.000000	99.192610 
1647.000000	99.189677 
1646.000000	99.186313 
1645.000000	99.185284 
1644.000000	99.187606 
1643.000000	99.192070 
1642.000000	99.196043 
1641.000000	99.197501 
1640.000000	99.196775 
1639.000000	99.195330 
1638.000000	99.194358 
1637.000000	99.195229 
1636.000000	99.198404 
1635.000000	99.200922 
1634.000000	99.201085 
1633.000000	99.198208 
1632.000000	99.191832 
1631.000000	99.184499 
1630.000000	99.178731 
1629.000000	99.175546 
1628.000000	99.175729 
1627.000000	99.178999 
1626.000000	99.181921 
1625.000000	99.181423 
1624.000000	99.178904 
1623.000000	99.177955 
1622.000000	99.178947 
1621.000000	99.179788 
1620.000000	99.179558 
1619.000000	99.178458 
1618.000000	99.177566 
1617.000000	99.177209 
1616.000000	99.179079 
1615.000000	99.184085 
1614.000000	99.188354 
1613.000000	99.189250 
1612.000000	99.189793 
1611.000000	99.192702 
1610.000000	99.194526 
1609.000000	99.191776 
1608.000000	99.188078 
1607.000000	99.188508 
1606.000000	99.191108 
1605.000000	99.191931 
1604.000000	99.191630 
1603.000000	99.192093 
1602.000000	99.192886 
1601.000000	99.193303 
1600.000000	99.194737 
1599.000000	99.197833 
1598.000000	99.200454 
1597.000000	99.200758 
1596.000000	99.199539 
1595.000000	99.198190 
1594.000000	99.196263 
1593.000000	99.193759 
1592.000000	99.193327 
1591.000000	99.196910 
1590.000000	99.201975 
1589.000000	99.204703 
1588.000000	99.205218 
1587.000000	99.206397 
1586.000000	99.208828 
1585.000000	99.210666 
1584.000000	99.212354 
1583.000000	99.214690 
1582.000000	99.215933 
1581.000000	99.215041 
1580.000000	99.213601 
1579.000000	99.211637 
1578.000000	99.206889 
1577.000000	99.199848 
1576.000000	99.195099 
1575.000000	99.196251 
1574.000000	99.199953 
1573.000000	99.201595 
1572.000000	99.201174 
1571.000000	99.201632 
1570.000000	99.203065 
1569.000000	99.204482 
1568.000000	99.208517 
1567.000000	99.213605 
1566.000000	99.214729 
1565.000000	99.211009 
1564.000000	99.207391 
1563.000000	99.205212 
1562.000000	99.202477 
1561.000000	99.197633 
1560.000000	99.201214 
1559.000000	99.208462 
1558.000000	99.208082 
1557.000000	99.207831 
1556.000000	99.209500 
1555.000000	99.210700 
1554.000000	99.210708 
1553.000000	99.209496 
1552.000000	99.207617 
1551.000000	99.204652 
1550.000000	99.202410 
1549.000000	99.203126 
1548.000000	99.207293 
1547.000000	99.212244 
1546.000000	99.213563 
1545.000000	99.209109 
1544.000000	99.202346 
1543.000000	99.200637 
1542.000000	99.208518 
1541.000000	99.221156 
1540.000000	99.225773 
1539.000000	99.221380 
1538.000000	99.217943 
1537.000000	99.217562 
1536.000000	99.217601 
1535.000000	99.218290 
1534.000000	99.218020 
1533.000000	99.213637 
1532.000000	99.206910 
1531.000000	99.202698 
1530.000000	99.202137 
1529.000000	99.202227 
1528.000000	99.200603 
1527.000000	99.199630 
1526.000000	99.202906 
1525.000000	99.209534 
1524.000000	99.215560 
1523.000000	99.220278 
1522.000000	99.225822 
1521.000000	99.230065 
1520.000000	99.229522 
1519.000000	99.223851 
1518.000000	99.214579 
1517.000000	99.204905 
1516.000000	99.197678 
1515.000000	99.193536 
1514.000000	99.191509 
1513.000000	99.191420 
1512.000000	99.192398 
1511.000000	99.192022 
1510.000000	99.189560 
1509.000000	99.186041 
1508.000000	99.184826 
1507.000000	99.187223 
1506.000000	99.191717 
1505.000000	99.195117 
1504.000000	99.196188 
1503.000000	99.195917 
1502.000000	99.195747 
1501.000000	99.195460 
1500.000000	99.192488 
1499.000000	99.185166 
1498.000000	99.176874 
1497.000000	99.172322 
1496.000000	99.171158 
1495.000000	99.173290 
1494.000000	99.179946 
1493.000000	99.189382 
1492.000000	99.197976 
1491.000000	99.203200 
1490.000000	99.204133 
1489.000000	99.200388 
1488.000000	99.191975 
1487.000000	99.182893 
1486.000000	99.177115 
1485.000000	99.173313 
1484.000000	99.170232 
1483.000000	99.168356 
1482.000000	99.168699 
1481.000000	99.169902 
1480.000000	99.169022 
1479.000000	99.165792 
1478.000000	99.162757 
1477.000000	99.161502 
1476.000000	99.161235 
1475.000000	99.162634 
1474.000000	99.166659 
1473.000000	99.170919 
1472.000000	99.171544 
1471.000000	99.169914 
1470.000000	99.169626 
1469.000000	99.170250 
1468.000000	99.169927 
1467.000000	99.169152 
1466.000000	99.169512 
1465.000000	99.170716 
1464.000000	99.171380 
1463.000000	99.171241 
1462.000000	99.171622 
1461.000000	99.172691 
1460.000000	99.173123 
1459.000000	99.170063 
1458.000000	99.160893 
1457.000000	99.145143 
1456.000000	99.128914 
1455.000000	99.118791 
1454.000000	99.114430 
1453.000000	99.114981 
1452.000000	99.120199 
1451.000000	99.127554 
1450.000000	99.134162 
1449.000000	99.138619 
1448.000000	99.140333 
1447.000000	99.140486 
1446.000000	99.140541 
1445.000000	99.141930 
1444.000000	99.144827 
1443.000000	99.147745 
1442.000000	99.150219 
1441.000000	99.152772 
1440.000000	99.155028 
1439.000000	99.155268 
1438.000000	99.154829 
1437.000000	99.155995 
1436.000000	99.156816 
1435.000000	99.154406 
1434.000000	99.150072 
1433.000000	99.146298 
1432.000000	99.143856 
1431.000000	99.140807 
1430.000000	99.135848 
1429.000000	99.131024 
1428.000000	99.127915 
1427.000000	99.126010 
1426.000000	99.123599 
1425.000000	99.121770 
1424.000000	99.121976 
1423.000000	99.121130 
1422.000000	99.115395 
1421.000000	99.104410 
1420.000000	99.090485 
1419.000000	99.075022 
1418.000000	99.061360 
1417.000000	99.052079 
1416.000000	99.043414 
1415.000000	99.031051 
1414.000000	99.015241 
1413.000000	98.999869 
1412.000000	98.987906 
1411.000000	98.978011 
1410.000000	98.967961 
1409.000000	98.958051 
1408.000000	98.949896 
1407.000000	98.945461 
1406.000000	98.945424 
1405.000000	98.949827 
1404.000000	98.958318 
1403.000000	98.969394 
1402.000000	98.982333 
1401.000000	98.997517 
1400.000000	99.013861 
1399.000000	99.025495 
1398.000000	99.024567 
1397.000000	99.006468 
1396.000000	98.973065 
1395.000000	98.937514 
1394.000000	98.920784 
1393.000000	98.934189 
1392.000000	98.968209 
1391.000000	99.003674 
1390.000000	99.027120 
1389.000000	99.035187 
1388.000000	99.030976 
1387.000000	99.019931 
1386.000000	99.008003 
1385.000000	98.999655 
1384.000000	98.996014 
1383.000000	98.995255 
1382.000000	98.995476 
1381.000000	98.996391 
1380.000000	98.999137 
1379.000000	99.004577 
1378.000000	99.012269 
1377.000000	99.021165 
1376.000000	99.030292 
1375.000000	99.038552 
1374.000000	99.045573 
1373.000000	99.053682 
1372.000000	99.065349 
1371.000000	99.079435 
1370.000000	99.091526 
1369.000000	99.098863 
1368.000000	99.103039 
1367.000000	99.107034 
1366.000000	99.112202 
1365.000000	99.118432 
1364.000000	99.125299 
1363.000000	99.131792 
1362.000000	99.136484 
1361.000000	99.139050 
1360.000000	99.140814 
1359.000000	99.143646 
1358.000000	99.148824 
1357.000000	99.156578 
1356.000000	99.165596 
1355.000000	99.173404 
1354.000000	99.178855 
1353.000000	99.183373 
1352.000000	99.188286 
1351.000000	99.192684 
1350.000000	99.193984 
1349.000000	99.192187 
1348.000000	99.190451 
1347.000000	99.190695 
1346.000000	99.191874 
1345.000000	99.192730 
1344.000000	99.193556 
1343.000000	99.194487 
1342.000000	99.194817 
1341.000000	99.195045 
1340.000000	99.197198 
1339.000000	99.201481 
1338.000000	99.205337 
1337.000000	99.207412 
1336.000000	99.209216 
1335.000000	99.211639 
1334.000000	99.212841 
1333.000000	99.211181 
1332.000000	99.208150 
1331.000000	99.206449 
1330.000000	99.206562 
1329.000000	99.207288 
1328.000000	99.208068 
1327.000000	99.208802 
1326.000000	99.208403 
1325.000000	99.206296 
1324.000000	99.203982 
1323.000000	99.203274 
1322.000000	99.204310 
1321.000000	99.206444 
1320.000000	99.209804 
1319.000000	99.214270 
1318.000000	99.218007 
1317.000000	99.218797 
1316.000000	99.216455 
1315.000000	99.212703 
1314.000000	99.209137 
1313.000000	99.206176 
1312.000000	99.203572 
1311.000000	99.201229 
1310.000000	99.199623 
1309.000000	99.199718 
1308.000000	99.201930 
1307.000000	99.205217 
1306.000000	99.207739 
1305.000000	99.209106 
1304.000000	99.210592 
1303.000000	99.212676 
1302.000000	99.213859 
1301.000000	99.212701 
1300.000000	99.210078 
1299.000000	99.208382 
1298.000000	99.209098 
1297.000000	99.211715 
1296.000000	99.214567 
1295.000000	99.215977 
1294.000000	99.215056 
1293.000000	99.211975 
1292.000000	99.207383 
1291.000000	99.201830 
1290.000000	99.196235 
1289.000000	99.192358 
1288.000000	99.191432 
1287.000000	99.192224 
1286.000000	99.191889 
1285.000000	99.189187 
1284.000000	99.185502 
1283.000000	99.182322 
1282.000000	99.179244 
1281.000000	99.175218 
1280.000000	99.170541 
1279.000000	99.166281 
1278.000000	99.162774 
1277.000000	99.159854 
1276.000000	99.157758 
1275.000000	99.156421 
1274.000000	99.154418 
1273.000000	99.150104 
1272.000000	99.143628 
1271.000000	99.136769 
1270.000000	99.130736 
1269.000000	99.125013 
1268.000000	99.118342 
1267.000000	99.110032 
1266.000000	99.100478 
1265.000000	99.091001 
1264.000000	99.083002 
1263.000000	99.076704 
1262.000000	99.070814 
1261.000000	99.063865 
1260.000000	99.055790 
1259.000000	99.047500 
1258.000000	99.039459 
1257.000000	99.031700 
1256.000000	99.025134 
1255.000000	99.021489 
1254.000000	99.021105 
1253.000000	99.021578 
1252.000000	99.019941 
1251.000000	99.016388 
1250.000000	99.014954 
1249.000000	99.019847 
1248.000000	99.031313 
1247.000000	99.045103 
1246.000000	99.055075 
1245.000000	99.055864 
1244.000000	99.045102 
1243.000000	99.026465 
1242.000000	99.010409 
1241.000000	99.007684 
1240.000000	99.019444 
1239.000000	99.035330 
1238.000000	99.043457 
1237.000000	99.041166 
1236.000000	99.034294 
1235.000000	99.028381 
1234.000000	99.024214 
1233.000000	99.020680 
1232.000000	99.017315 
1231.000000	99.013055 
1230.000000	99.006192 
1229.000000	98.997683 
1228.000000	98.992132 
1227.000000	98.993334 
1226.000000	98.999929 
1225.000000	99.006959 
1224.000000	99.010736 
1223.000000	99.010997 
1222.000000	99.009418 
1221.000000	99.007772 
1220.000000	99.007397 
1219.000000	99.009280 
1218.000000	99.014036 
1217.000000	99.021474 
1216.000000	99.029822 
1215.000000	99.035915 
1214.000000	99.037306 
1213.000000	99.034230 
1212.000000	99.028761 
1211.000000	99.022645 
1210.000000	99.016984 
1209.000000	99.013107 
1208.000000	99.011781 
1207.000000	99.011736 
1206.000000	99.010802 
1205.000000	99.008503 
1204.000000	99.005899 
1203.000000	99.003209 
1202.000000	98.999786 
1201.000000	98.996386 
1200.000000	98.994911 
1199.000000	98.995305 
1198.000000	98.994992 
1197.000000	98.992018 
1196.000000	98.986543 
1195.000000	98.978832 
1194.000000	98.968506 
1193.000000	98.956889 
1192.000000	98.947285 
1191.000000	98.941080 
1190.000000	98.935738 
1189.000000	98.928615 
1188.000000	98.920806 
1187.000000	98.915101 
1186.000000	98.911793 
1185.000000	98.908779 
1184.000000	98.904560 
1183.000000	98.898962 
1182.000000	98.892001 
1181.000000	98.884256 
1180.000000	98.877605 
1179.000000	98.873475 
1178.000000	98.870868 
1177.000000	98.867869 
1176.000000	98.864189 
1175.000000	98.860130 
1174.000000	98.853830 
1173.000000	98.842401 
1172.000000	98.826205 
1171.000000	98.809912 
1170.000000	98.798415 
1169.000000	98.792573 
1168.000000	98.789184 
1167.000000	98.784273 
1166.000000	98.776515 
1165.000000	98.768425 
1164.000000	98.764222 
1163.000000	98.765910 
1162.000000	98.771753 
1161.000000	98.778946 
1160.000000	98.786555 
1159.000000	98.794430 
1158.000000	98.800226 
1157.000000	98.799604 
1156.000000	98.789883 
1155.000000	98.773009 
1154.000000	98.755138 
1153.000000	98.743211 
1152.000000	98.740284 
1151.000000	98.742765 
1150.000000	98.743102 
1149.000000	98.736750 
1148.000000	98.725991 
1147.000000	98.716035 
1146.000000	98.708652 
1145.000000	98.701233 
1144.000000	98.690996 
1143.000000	98.677946 
1142.000000	98.664268 
1141.000000	98.652977 
1140.000000	98.646861 
1139.000000	98.646238 
1138.000000	98.647126 
1137.000000	98.643655 
1136.000000	98.633409 
1135.000000	98.619427 
1134.000000	98.606249 
1133.000000	98.594791 
1132.000000	98.582001 
1131.000000	98.565417 
1130.000000	98.547417 
1129.000000	98.534033 
1128.000000	98.528516 
1127.000000	98.526372 
1126.000000	98.518823 
1125.000000	98.502292 
1124.000000	98.482688 
1123.000000	98.468600 
1122.000000	98.461767 
1121.000000	98.456472 
1120.000000	98.447165 
1119.000000	98.433618 
1118.000000	98.418770 
1117.000000	98.404591 
1116.000000	98.391301 
1115.000000	98.378634 
1114.000000	98.366294 
1113.000000	98.353863 
1112.000000	98.340941 
1111.000000	98.326841 
1110.000000	98.310228 
1109.000000	98.290411 
1108.000000	98.269123 
1107.000000	98.249837 
1106.000000	98.234456 
1105.000000	98.221361 
1104.000000	98.207521 
1103.000000	98.192215 
1102.000000	98.178045 
1101.000000	98.168259 
1100.000000	98.162840 
1099.000000	98.158315 
1098.000000	98.151495 
1097.000000	98.142993 
1096.000000	98.135612 
1095.000000	98.129229 
1094.000000	98.119392 
1093.000000	98.101566 
1092.000000	98.074964 
1091.000000	98.041594 
1090.000000	98.004070 
1089.000000	97.965851 
1088.000000	97.931164 
1087.000000	97.901866 
1086.000000	97.875469 
1085.000000	97.848595 
1084.000000	97.821337 
1083.000000	97.795934 
1082.000000	97.772444 
1081.000000	97.748629 
1080.000000	97.723520 
1079.000000	97.698428 
1078.000000	97.674894 
1077.000000	97.654270 
1076.000000	97.639012 
1075.000000	97.631771 
1074.000000	97.633052 
1073.000000	97.641044 
1072.000000	97.651806 
1071.000000	97.656761 
1070.000000	97.643026 
1069.000000	97.603072 
1068.000000	97.546223 
1067.000000	97.496612 
1066.000000	97.475730 
1065.000000	97.486539 
1064.000000	97.514241 
1063.000000	97.538916 
1062.000000	97.546201 
1061.000000	97.530736 
1060.000000	97.495927 
1059.000000	97.452731 
1058.000000	97.415533 
1057.000000	97.394457 
1056.000000	97.389242 
1055.000000	97.390695 
1054.000000	97.389282 
1053.000000	97.382910 
1052.000000	97.376205 
1051.000000	97.373149 
1050.000000	97.372526 
1049.000000	97.370528 
1048.000000	97.365107 
1047.000000	97.357171 
1046.000000	97.350041 
1045.000000	97.347865 
1044.000000	97.351623 
1043.000000	97.356412 
1042.000000	97.356096 
1041.000000	97.351467 
1040.000000	97.350332 
1039.000000	97.358619 
1038.000000	97.375270 
1037.000000	97.396922 
1036.000000	97.422594 
1035.000000	97.451269 
1034.000000	97.479494 
1033.000000	97.504159 
1032.000000	97.523158 
1031.000000	97.531328 
1030.000000	97.522876 
1029.000000	97.503139 
1028.000000	97.491618 
1027.000000	97.504958 
1026.000000	97.539017 
1025.000000	97.574499 
1024.000000	97.597847 
1023.000000	97.609700 
1022.000000	97.615783 
1021.000000	97.618998 
1020.000000	97.621629 
1019.000000	97.627293 
1018.000000	97.636812 
1017.000000	97.646600 
1016.000000	97.653885 
1015.000000	97.660412 
1014.000000	97.669222 
1013.000000	97.680452 
1012.000000	97.691667 
1011.000000	97.700225 
1010.000000	97.704978 
1009.000000	97.707896 
1008.000000	97.713886 
1007.000000	97.726394 
1006.000000	97.743298 
1005.000000	97.759679 
1004.000000	97.774046 
1003.000000	97.788780 
1002.000000	97.805117 
1001.000000	97.821250 
1000.000000	97.835258 
999.000000	 97.846374 
998.000000	 97.853428 
997.000000	 97.855937 
996.000000	 97.857506 
995.000000	 97.864448 
994.000000	 97.879308 
993.000000	 97.898102 
992.000000	 97.914987 
991.000000	 97.927322 
990.000000	 97.935524 
989.000000	 97.940758 
988.000000	 97.944517 
987.000000	 97.948965 
986.000000	 97.956095 
985.000000	 97.966731 
984.000000	 97.980243 
983.000000	 97.994511 
982.000000	 98.006946 
981.000000	 98.016948 
980.000000	 98.026708 
979.000000	 98.038443 
978.000000	 98.052187 
977.000000	 98.067755 
976.000000	 98.086683 
975.000000	 98.109304 
974.000000	 98.131583 
973.000000	 98.148582 
972.000000	 98.160494 
971.000000	 98.172045 
970.000000	 98.186464 
969.000000	 98.203331 
968.000000	 98.221842 
967.000000	 98.242124 
966.000000	 98.262637 
965.000000	 98.279802 
964.000000	 98.291702 
963.000000	 98.300204 
962.000000	 98.308817 
961.000000	 98.320159 
960.000000	 98.335277 
959.000000	 98.352876 
958.000000	 98.369086 
957.000000	 98.380590 
956.000000	 98.388480 
955.000000	 98.396883 
954.000000	 98.407687 
953.000000	 98.418890 
952.000000	 98.428184 
951.000000	 98.435470 
950.000000	 98.441370 
949.000000	 98.445771 
948.000000	 98.448643 
947.000000	 98.450306 
946.000000	 98.450360 
945.000000	 98.448294 
944.000000	 98.445687 
943.000000	 98.446024 
942.000000	 98.451727 
941.000000	 98.462307 
940.000000	 98.474811 
939.000000	 98.484565 
938.000000	 98.487097 
937.000000	 98.482544 
936.000000	 98.477592 
935.000000	 98.479695 
934.000000	 98.489090 
933.000000	 98.499470 
932.000000	 98.506471 
931.000000	 98.511858 
930.000000	 98.518676 
929.000000	 98.525968 
928.000000	 98.530177 
927.000000	 98.529357 
926.000000	 98.524593 
925.000000	 98.519263 
924.000000	 98.517866 
923.000000	 98.523224 
922.000000	 98.533315 
921.000000	 98.542554 
920.000000	 98.547046 
919.000000	 98.546889 
918.000000	 98.543244 
917.000000	 98.536134 
916.000000	 98.526443 
915.000000	 98.517398 
914.000000	 98.511859 
913.000000	 98.509714 
912.000000	 98.509639 
911.000000	 98.511871 
910.000000	 98.517421 
909.000000	 98.525668 
908.000000	 98.534497 
907.000000	 98.542301 
906.000000	 98.548648 
905.000000	 98.553410 
904.000000	 98.556361 
903.000000	 98.557974 
902.000000	 98.560434 
901.000000	 98.567248 
900.000000	 98.580433 
899.000000	 98.597271 
898.000000	 98.610950 
897.000000	 98.616009 
896.000000	 98.612481 
895.000000	 98.604202 
894.000000	 98.595236 
893.000000	 98.589665 
892.000000	 98.592271 
891.000000	 98.605447 
890.000000	 98.625853 
889.000000	 98.647124 
888.000000	 98.665428 
887.000000	 98.679910 
886.000000	 98.689540 
885.000000	 98.693785 
884.000000	 98.695649 
883.000000	 98.699233 
882.000000	 98.703677 
881.000000	 98.704151 
880.000000	 98.700289 
879.000000	 98.699184 
878.000000	 98.707538 
877.000000	 98.724220 
876.000000	 98.742760 
875.000000	 98.757765 
874.000000	 98.766557 
873.000000	 98.768104 
872.000000	 98.763843 
871.000000	 98.758037 
870.000000	 98.754977 
869.000000	 98.756939 
868.000000	 98.765493 
867.000000	 98.781391 
866.000000	 98.800916 
865.000000	 98.815838 
864.000000	 98.821021 
863.000000	 98.820738 
862.000000	 98.823780 
861.000000	 98.832894 
860.000000	 98.842791 
859.000000	 98.848796 
858.000000	 98.853423 
857.000000	 98.862353 
856.000000	 98.876718 
855.000000	 98.892290 
854.000000	 98.904734 
853.000000	 98.912554 
852.000000	 98.915577 
851.000000	 98.914474 
850.000000	 98.912900 
849.000000	 98.916380 
848.000000	 98.926125 
847.000000	 98.935996 
846.000000	 98.938760 
845.000000	 98.934355 
844.000000	 98.929146 
843.000000	 98.928300 
842.000000	 98.932297 
841.000000	 98.939705 
840.000000	 98.948382 
839.000000	 98.953596 
838.000000	 98.950426 
837.000000	 98.940328 
836.000000	 98.931106 
835.000000	 98.927770 
834.000000	 98.927163 
833.000000	 98.924451 
832.000000	 98.920564 
831.000000	 98.918567 
830.000000	 98.916154 
829.000000	 98.908378 
828.000000	 98.897394 
827.000000	 98.893297 
826.000000	 98.903056 
825.000000	 98.922141 
824.000000	 98.938871 
823.000000	 98.944865 
822.000000	 98.941005 
821.000000	 98.935288 
820.000000	 98.935085 
819.000000	 98.940503 
818.000000	 98.945816 
817.000000	 98.947517 
816.000000	 98.947967 
815.000000	 98.949297 
814.000000	 98.947548 
813.000000	 98.937257 
812.000000	 98.919395 
811.000000	 98.899254 
810.000000	 98.877242 
809.000000	 98.847561 
808.000000	 98.807293 
807.000000	 98.762176 
806.000000	 98.720842 
805.000000	 98.686170 
804.000000	 98.654842 
803.000000	 98.623687 
802.000000	 98.594171 
801.000000	 98.570813 
800.000000	 98.556156 
799.000000	 98.547999 
798.000000	 98.542510 
797.000000	 98.539635 
796.000000	 98.542562 
795.000000	 98.551134 
794.000000	 98.559743 
793.000000	 98.564297 
792.000000	 98.567670 
791.000000	 98.574633 
790.000000	 98.584341 
789.000000	 98.591642 
788.000000	 98.593029 
787.000000	 98.587172 
786.000000	 98.572425 
785.000000	 98.548928 
784.000000	 98.521655 
783.000000	 98.496749 
782.000000	 98.475920 
781.000000	 98.458388 
780.000000	 98.446279 
779.000000	 98.442892 
778.000000	 98.446976 
777.000000	 98.454051 
776.000000	 98.462610 
775.000000	 98.473941 
774.000000	 98.486724 
773.000000	 98.497327 
772.000000	 98.505693 
771.000000	 98.516357 
770.000000	 98.533158 
769.000000	 98.555901 
768.000000	 98.581090 
767.000000	 98.602770 
766.000000	 98.615254 
765.000000	 98.619764 
764.000000	 98.625811 
763.000000	 98.640135 
762.000000	 98.656099 
761.000000	 98.660601 
760.000000	 98.650785 
759.000000	 98.637461 
758.000000	 98.632019 
757.000000	 98.635859 
756.000000	 98.642639 
755.000000	 98.644796 
754.000000	 98.637681 
753.000000	 98.623684 
752.000000	 98.613557 
751.000000	 98.618447 
750.000000	 98.638902 
749.000000	 98.665087 
748.000000	 98.687137 
747.000000	 98.700787 
746.000000	 98.704853 
745.000000	 98.700466 
744.000000	 98.693515 
743.000000	 98.691552 
742.000000	 98.696723 
741.000000	 98.706442 
740.000000	 98.720577 
739.000000	 98.741446 
738.000000	 98.766083 
737.000000	 98.785048 
736.000000	 98.790925 
735.000000	 98.783863 
734.000000	 98.769068 
733.000000	 98.754171 
732.000000	 98.748386 
731.000000	 98.756644 
730.000000	 98.772739 
729.000000	 98.784661 
728.000000	 98.788073 
727.000000	 98.788509 
726.000000	 98.789897 
725.000000	 98.788208 
724.000000	 98.778855 
723.000000	 98.764190 
722.000000	 98.750867 
721.000000	 98.744641 
720.000000	 98.749141 
719.000000	 98.763966 
718.000000	 98.782048 
717.000000	 98.793995 
716.000000	 98.796480 
715.000000	 98.792719 
714.000000	 98.785756 
713.000000	 98.777274 
712.000000	 98.772221 
711.000000	 98.776214 
710.000000	 98.786628 
709.000000	 98.793647 
708.000000	 98.791913 
707.000000	 98.783959 
706.000000	 98.771402 
705.000000	 98.752133 
704.000000	 98.729931 
703.000000	 98.717703 
702.000000	 98.723825 
701.000000	 98.740003 
700.000000	 98.748177 
699.000000	 98.736452 
698.000000	 98.707126 
697.000000	 98.673717 
696.000000	 98.651532 
695.000000	 98.646451 
694.000000	 98.650776 
693.000000	 98.654050 
692.000000	 98.656754 
691.000000	 98.666302 
690.000000	 98.682535 
689.000000	 98.698105 
688.000000	 98.712857 
687.000000	 98.734279 
686.000000	 98.759997 
685.000000	 98.774640 
684.000000	 98.770108 
683.000000	 98.756061 
682.000000	 98.745518 
681.000000	 98.741289 
680.000000	 98.740357 
679.000000	 98.739642 
678.000000	 98.733167 
677.000000	 98.717434 
676.000000	 98.704834 
675.000000	 98.713065 
674.000000	 98.737465 
673.000000	 98.748966 
672.000000	 98.726493 
671.000000	 98.679202 
670.000000	 98.633975 
669.000000	 98.618409 
668.000000	 98.645462 
667.000000	 98.695740 
666.000000	 98.733811 
665.000000	 98.741555 
664.000000	 98.730625 
663.000000	 98.731344 
662.000000	 98.759033 
661.000000	 98.790616 
660.000000	 98.791131 
659.000000	 98.755043 
658.000000	 98.706538 
657.000000	 98.668344 
656.000000	 98.647390 
655.000000	 98.642080 
654.000000	 98.645951 
653.000000	 98.647903 
652.000000	 98.643417 
651.000000	 98.643417 
650.000000	 98.659114 

