4000.000000	101.287294 
3999.000000	101.286968 
3998.000000	101.286593 
3997.000000	101.286458 
3996.000000	101.286503 
3995.000000	101.286465 
3994.000000	101.286224 
3993.000000	101.285975 
3992.000000	101.286042 
3991.000000	101.286462 
3990.000000	101.286766 
3989.000000	101.286325 
3988.000000	101.285010 
3987.000000	101.283442 
3986.000000	101.282420 
3985.000000	101.282255 
3984.000000	101.282753 
3983.000000	101.283604 
3982.000000	101.284670 
3981.000000	101.285839 
3980.000000	101.286958 
3979.000000	101.287954 
3978.000000	101.288801 
3977.000000	101.289296 
3976.000000	101.289111 
3975.000000	101.288155 
3974.000000	101.286635 
3973.000000	101.284834 
3972.000000	101.283100 
3971.000000	101.281893 
3970.000000	101.281562 
3969.000000	101.281984 
3968.000000	101.282663 
3967.000000	101.283090 
3966.000000	101.283022 
3965.000000	101.282478 
3964.000000	101.281674 
3963.000000	101.280955 
3962.000000	101.280561 
3961.000000	101.280419 
3960.000000	101.280303 
3959.000000	101.280095 
3958.000000	101.279835 
3957.000000	101.279548 
3956.000000	101.279213 
3955.000000	101.278812 
3954.000000	101.278361 
3953.000000	101.277901 
3952.000000	101.277471 
3951.000000	101.277090 
3950.000000	101.276739 
3949.000000	101.276391 
3948.000000	101.276036 
3947.000000	101.275689 
3946.000000	101.275364 
3945.000000	101.275068 
3944.000000	101.274800 
3943.000000	101.274544 
3942.000000	101.274288 
3941.000000	101.274027 
3940.000000	101.273764 
3939.000000	101.273505 
3938.000000	101.273248 
3937.000000	101.272993 
3936.000000	101.272738 
3935.000000	101.272492 
3934.000000	101.272267 
3933.000000	101.272076 
3932.000000	101.271924 
3931.000000	101.271809 
3930.000000	101.271720 
3929.000000	101.271646 
3928.000000	101.271580 
3927.000000	101.271519 
3926.000000	101.271463 
3925.000000	101.271415 
3924.000000	101.271373 
3923.000000	101.271343 
3922.000000	101.271326 
3921.000000	101.271321 
3920.000000	101.271314 
3919.000000	101.271298 
3918.000000	101.271273 
3917.000000	101.271254 
3916.000000	101.271254 
3915.000000	101.271273 
3914.000000	101.271307 
3913.000000	101.271352 
3912.000000	101.271412 
3911.000000	101.271489 
3910.000000	101.271579 
3909.000000	101.271677 
3908.000000	101.271784 
3907.000000	101.271910 
3906.000000	101.272055 
3905.000000	101.272205 
3904.000000	101.272335 
3903.000000	101.272424 
3902.000000	101.272466 
3901.000000	101.272472 
3900.000000	101.272455 
3899.000000	101.272421 
3898.000000	101.272367 
3897.000000	101.272301 
3896.000000	101.272240 
3895.000000	101.272204 
3894.000000	101.272195 
3893.000000	101.272206 
3892.000000	101.272231 
3891.000000	101.272262 
3890.000000	101.272285 
3889.000000	101.272285 
3888.000000	101.272258 
3887.000000	101.272214 
3886.000000	101.272159 
3885.000000	101.272088 
3884.000000	101.271999 
3883.000000	101.271899 
3882.000000	101.271802 
3881.000000	101.271713 
3880.000000	101.271624 
3879.000000	101.271536 
3878.000000	101.271457 
3877.000000	101.271402 
3876.000000	101.271375 
3875.000000	101.271366 
3874.000000	101.271356 
3873.000000	101.271328 
3872.000000	101.271286 
3871.000000	101.271246 
3870.000000	101.271207 
3869.000000	101.271154 
3868.000000	101.271080 
3867.000000	101.270996 
3866.000000	101.270915 
3865.000000	101.270828 
3864.000000	101.270719 
3863.000000	101.270597 
3862.000000	101.270491 
3861.000000	101.270418 
3860.000000	101.270371 
3859.000000	101.270345 
3858.000000	101.270342 
3857.000000	101.270368 
3856.000000	101.270424 
3855.000000	101.270509 
3854.000000	101.270609 
3853.000000	101.270693 
3852.000000	101.270740 
3851.000000	101.270751 
3850.000000	101.270736 
3849.000000	101.270702 
3848.000000	101.270651 
3847.000000	101.270586 
3846.000000	101.270512 
3845.000000	101.270433 
3844.000000	101.270357 
3843.000000	101.270289 
3842.000000	101.270222 
3841.000000	101.270146 
3840.000000	101.270056 
3839.000000	101.269950 
3838.000000	101.269826 
3837.000000	101.269676 
3836.000000	101.269487 
3835.000000	101.269251 
3834.000000	101.268973 
3833.000000	101.268665 
3832.000000	101.268339 
3831.000000	101.267999 
3830.000000	101.267645 
3829.000000	101.267276 
3828.000000	101.266895 
3827.000000	101.266513 
3826.000000	101.266138 
3825.000000	101.265767 
3824.000000	101.265391 
3823.000000	101.265014 
3822.000000	101.264646 
3821.000000	101.264281 
3820.000000	101.263887 
3819.000000	101.263448 
3818.000000	101.262973 
3817.000000	101.262484 
3816.000000	101.261983 
3815.000000	101.261451 
3814.000000	101.260886 
3813.000000	101.260306 
3812.000000	101.259727 
3811.000000	101.259151 
3810.000000	101.258575 
3809.000000	101.258006 
3808.000000	101.257460 
3807.000000	101.256943 
3806.000000	101.256441 
3805.000000	101.255938 
3804.000000	101.255439 
3803.000000	101.254961 
3802.000000	101.254511 
3801.000000	101.254070 
3800.000000	101.253625 
3799.000000	101.253197 
3798.000000	101.252811 
3797.000000	101.252471 
3796.000000	101.252165 
3795.000000	101.251892 
3794.000000	101.251667 
3793.000000	101.251503 
3792.000000	101.251396 
3791.000000	101.251330 
3790.000000	101.251297 
3789.000000	101.251294 
3788.000000	101.251324 
3787.000000	101.251394 
3786.000000	101.251508 
3785.000000	101.251654 
3784.000000	101.251811 
3783.000000	101.251967 
3782.000000	101.252125 
3781.000000	101.252291 
3780.000000	101.252455 
3779.000000	101.252604 
3778.000000	101.252744 
3777.000000	101.252897 
3776.000000	101.253078 
3775.000000	101.253284 
3774.000000	101.253510 
3773.000000	101.253758 
3772.000000	101.254036 
3771.000000	101.254336 
3770.000000	101.254641 
3769.000000	101.254941 
3768.000000	101.255244 
3767.000000	101.255562 
3766.000000	101.255894 
3765.000000	101.256225 
3764.000000	101.256543 
3763.000000	101.256851 
3762.000000	101.257158 
3761.000000	101.257461 
3760.000000	101.257743 
3759.000000	101.257999 
3758.000000	101.258237 
3757.000000	101.258460 
3756.000000	101.258648 
3755.000000	101.258780 
3754.000000	101.258857 
3753.000000	101.258887 
3752.000000	101.258869 
3751.000000	101.258793 
3750.000000	101.258664 
3749.000000	101.258490 
3748.000000	101.258267 
3747.000000	101.257983 
3746.000000	101.257642 
3745.000000	101.257246 
3744.000000	101.256780 
3743.000000	101.256229 
3742.000000	101.255612 
3741.000000	101.254954 
3740.000000	101.254259 
3739.000000	101.253509 
3738.000000	101.252697 
3737.000000	101.251839 
3736.000000	101.250954 
3735.000000	101.250038 
3734.000000	101.249080 
3733.000000	101.248079 
3732.000000	101.247033 
3731.000000	101.245932 
3730.000000	101.244763 
3729.000000	101.243524 
3728.000000	101.242220 
3727.000000	101.240855 
3726.000000	101.239426 
3725.000000	101.237929 
3724.000000	101.236361 
3723.000000	101.234724 
3722.000000	101.233020 
3721.000000	101.231257 
3720.000000	101.229439 
3719.000000	101.227564 
3718.000000	101.225638 
3717.000000	101.223668 
3716.000000	101.221655 
3715.000000	101.219603 
3714.000000	101.217520 
3713.000000	101.215430 
3712.000000	101.213344 
3711.000000	101.211260 
3710.000000	101.209165 
3709.000000	101.207049 
3708.000000	101.204907 
3707.000000	101.202730 
3706.000000	101.200516 
3705.000000	101.198274 
3704.000000	101.196016 
3703.000000	101.193740 
3702.000000	101.191465 
3701.000000	101.189217 
3700.000000	101.186991 
3699.000000	101.184755 
3698.000000	101.182529 
3697.000000	101.180358 
3696.000000	101.178196 
3695.000000	101.176006 
3694.000000	101.173913 
3693.000000	101.172054 
3692.000000	101.170329 
3691.000000	101.168547 
3690.000000	101.166726 
3689.000000	101.164969 
3688.000000	101.163261 
3687.000000	101.161534 
3686.000000	101.159822 
3685.000000	101.158246 
3684.000000	101.156838 
3683.000000	101.155475 
3682.000000	101.154081 
3681.000000	101.152787 
3680.000000	101.151680 
3679.000000	101.150638 
3678.000000	101.149523 
3677.000000	101.148503 
3676.000000	101.147786 
3675.000000	101.147278 
3674.000000	101.146739 
3673.000000	101.146153 
3672.000000	101.145709 
3671.000000	101.145548 
3670.000000	101.145432 
3669.000000	101.145021 
3668.000000	101.144401 
3667.000000	101.143955 
3666.000000	101.143793 
3665.000000	101.143751 
3664.000000	101.143680 
3663.000000	101.143669 
3662.000000	101.143938 
3661.000000	101.144559 
3660.000000	101.145332 
3659.000000	101.146046 
3658.000000	101.146723 
3657.000000	101.147568 
3656.000000	101.148578 
3655.000000	101.149598 
3654.000000	101.150603 
3653.000000	101.151705 
3652.000000	101.152976 
3651.000000	101.154215 
3650.000000	101.155072 
3649.000000	101.155555 
3648.000000	101.156098 
3647.000000	101.156943 
3646.000000	101.157939 
3645.000000	101.158914 
3644.000000	101.159882 
3643.000000	101.160906 
3642.000000	101.161950 
3641.000000	101.162939 
3640.000000	101.163947 
3639.000000	101.165151 
3638.000000	101.166553 
3637.000000	101.167934 
3636.000000	101.169131 
3635.000000	101.170243 
3634.000000	101.171366 
3633.000000	101.172331 
3632.000000	101.173014 
3631.000000	101.173657 
3630.000000	101.174644 
3629.000000	101.175731 
3628.000000	101.176408 
3627.000000	101.176814 
3626.000000	101.177411 
3625.000000	101.178273 
3624.000000	101.179141 
3623.000000	101.179769 
3622.000000	101.180165 
3621.000000	101.180516 
3620.000000	101.180960 
3619.000000	101.181459 
3618.000000	101.181944 
3617.000000	101.182411 
3616.000000	101.182871 
3615.000000	101.183350 
3614.000000	101.183849 
3613.000000	101.184220 
3612.000000	101.184256 
3611.000000	101.183957 
3610.000000	101.183588 
3609.000000	101.183392 
3608.000000	101.183309 
3607.000000	101.183161 
3606.000000	101.183013 
3605.000000	101.183002 
3604.000000	101.183024 
3603.000000	101.182848 
3602.000000	101.182520 
3601.000000	101.182409 
3600.000000	101.182678 
3599.000000	101.183204 
3598.000000	101.183764 
3597.000000	101.184108 
3596.000000	101.183979 
3595.000000	101.183476 
3594.000000	101.182992 
3593.000000	101.182919 
3592.000000	101.183327 
3591.000000	101.183853 
3590.000000	101.184024 
3589.000000	101.183579 
3588.000000	101.182463 
3587.000000	101.180857 
3586.000000	101.179350 
3585.000000	101.178463 
3584.000000	101.178148 
3583.000000	101.177941 
3582.000000	101.177418 
3581.000000	101.176566 
3580.000000	101.175607 
3579.000000	101.174735 
3578.000000	101.173991 
3577.000000	101.173354 
3576.000000	101.172814 
3575.000000	101.172380 
3574.000000	101.172056 
3573.000000	101.171789 
3572.000000	101.171491 
3571.000000	101.171053 
3570.000000	101.170432 
3569.000000	101.169701 
3568.000000	101.168982 
3567.000000	101.168372 
3566.000000	101.167889 
3565.000000	101.167474 
3564.000000	101.167041 
3563.000000	101.166540 
3562.000000	101.165985 
3561.000000	101.165409 
3560.000000	101.164835 
3559.000000	101.164269 
3558.000000	101.163711 
3557.000000	101.163161 
3556.000000	101.162621 
3555.000000	101.162101 
3554.000000	101.161605 
3553.000000	101.161136 
3552.000000	101.160685 
3551.000000	101.160241 
3550.000000	101.159798 
3549.000000	101.159361 
3548.000000	101.158941 
3547.000000	101.158550 
3546.000000	101.158194 
3545.000000	101.157868 
3544.000000	101.157562 
3543.000000	101.157263 
3542.000000	101.156963 
3541.000000	101.156665 
3540.000000	101.156373 
3539.000000	101.156091 
3538.000000	101.155814 
3537.000000	101.155537 
3536.000000	101.155250 
3535.000000	101.154949 
3534.000000	101.154632 
3533.000000	101.154303 
3532.000000	101.153966 
3531.000000	101.153623 
3530.000000	101.153281 
3529.000000	101.152944 
3528.000000	101.152614 
3527.000000	101.152289 
3526.000000	101.151966 
3525.000000	101.151638 
3524.000000	101.151302 
3523.000000	101.150957 
3522.000000	101.150607 
3521.000000	101.150257 
3520.000000	101.149915 
3519.000000	101.149580 
3518.000000	101.149249 
3517.000000	101.148912 
3516.000000	101.148563 
3515.000000	101.148196 
3514.000000	101.147810 
3513.000000	101.147404 
3512.000000	101.146977 
3511.000000	101.146531 
3510.000000	101.146066 
3509.000000	101.145590 
3508.000000	101.145109 
3507.000000	101.144623 
3506.000000	101.144128 
3505.000000	101.143617 
3504.000000	101.143084 
3503.000000	101.142533 
3502.000000	101.141971 
3501.000000	101.141407 
3500.000000	101.140843 
3499.000000	101.140271 
3498.000000	101.139686 
3497.000000	101.139084 
3496.000000	101.138470 
3495.000000	101.137852 
3494.000000	101.137236 
3493.000000	101.136624 
3492.000000	101.136014 
3491.000000	101.135406 
3490.000000	101.134803 
3489.000000	101.134207 
3488.000000	101.133619 
3487.000000	101.133034 
3486.000000	101.132453 
3485.000000	101.131875 
3484.000000	101.131303 
3483.000000	101.130736 
3482.000000	101.130172 
3481.000000	101.129603 
3480.000000	101.129027 
3479.000000	101.128444 
3478.000000	101.127858 
3477.000000	101.127273 
3476.000000	101.126694 
3475.000000	101.126100 
3474.000000	101.125459 
3473.000000	101.124790 
3472.000000	101.124188 
3471.000000	101.123731 
3470.000000	101.123391 
3469.000000	101.123052 
3468.000000	101.122624 
3467.000000	101.122067 
3466.000000	101.121351 
3465.000000	101.120481 
3464.000000	101.119565 
3463.000000	101.118737 
3462.000000	101.117976 
3461.000000	101.117121 
3460.000000	101.116118 
3459.000000	101.115206 
3458.000000	101.114724 
3457.000000	101.114721 
3456.000000	101.114871 
3455.000000	101.114750 
3454.000000	101.114235 
3453.000000	101.113706 
3452.000000	101.113596 
3451.000000	101.113894 
3450.000000	101.114323 
3449.000000	101.114801 
3448.000000	101.115328 
3447.000000	101.115571 
3446.000000	101.115174 
3445.000000	101.114458 
3444.000000	101.114220 
3443.000000	101.114638 
3442.000000	101.114861 
3441.000000	101.114051 
3440.000000	101.112420 
3439.000000	101.110980 
3438.000000	101.110379 
3437.000000	101.110342 
3436.000000	101.110199 
3435.000000	101.109690 
3434.000000	101.109152 
3433.000000	101.109053 
3432.000000	101.109343 
3431.000000	101.109455 
3430.000000	101.108945 
3429.000000	101.107897 
3428.000000	101.106706 
3427.000000	101.105647 
3426.000000	101.104840 
3425.000000	101.104409 
3424.000000	101.104384 
3423.000000	101.104547 
3422.000000	101.104539 
3421.000000	101.104157 
3420.000000	101.103483 
3419.000000	101.102801 
3418.000000	101.102406 
3417.000000	101.102405 
3416.000000	101.102621 
3415.000000	101.102741 
3414.000000	101.102627 
3413.000000	101.102430 
3412.000000	101.102354 
3411.000000	101.102413 
3410.000000	101.102490 
3409.000000	101.102494 
3408.000000	101.102373 
3407.000000	101.102079 
3406.000000	101.101617 
3405.000000	101.101136 
3404.000000	101.100872 
3403.000000	101.100995 
3402.000000	101.101493 
3401.000000	101.102137 
3400.000000	101.102573 
3399.000000	101.102581 
3398.000000	101.102222 
3397.000000	101.101781 
3396.000000	101.101487 
3395.000000	101.101326 
3394.000000	101.101190 
3393.000000	101.101073 
3392.000000	101.101050 
3391.000000	101.101103 
3390.000000	101.101091 
3389.000000	101.100942 
3388.000000	101.100776 
3387.000000	101.100777 
3386.000000	101.100944 
3385.000000	101.101050 
3384.000000	101.100902 
3383.000000	101.100596 
3382.000000	101.100397 
3381.000000	101.100346 
3380.000000	101.100144 
3379.000000	101.099535 
3378.000000	101.098732 
3377.000000	101.098305 
3376.000000	101.098626 
3375.000000	101.099570 
3374.000000	101.100684 
3373.000000	101.101600 
3372.000000	101.102217 
3371.000000	101.102528 
3370.000000	101.102435 
3369.000000	101.101891 
3368.000000	101.101133 
3367.000000	101.100580 
3366.000000	101.100417 
3365.000000	101.100355 
3364.000000	101.099948 
3363.000000	101.099123 
3362.000000	101.098319 
3361.000000	101.098009 
3360.000000	101.098169 
3359.000000	101.098353 
3358.000000	101.098253 
3357.000000	101.098054 
3356.000000	101.098123 
3355.000000	101.098486 
3354.000000	101.098773 
3353.000000	101.098657 
3352.000000	101.098235 
3351.000000	101.097926 
3350.000000	101.098050 
3349.000000	101.098614 
3348.000000	101.099435 
3347.000000	101.100339 
3346.000000	101.101191 
3345.000000	101.101839 
3344.000000	101.102123 
3343.000000	101.101990 
3342.000000	101.101555 
3341.000000	101.101046 
3340.000000	101.100715 
3339.000000	101.100725 
3338.000000	101.100999 
3337.000000	101.101222 
3336.000000	101.101126 
3335.000000	101.100812 
3334.000000	101.100686 
3333.000000	101.101024 
3332.000000	101.101659 
3331.000000	101.102161 
3330.000000	101.102295 
3329.000000	101.102245 
3328.000000	101.102396 
3327.000000	101.102951 
3326.000000	101.103766 
3325.000000	101.104495 
3324.000000	101.104910 
3323.000000	101.105084 
3322.000000	101.105242 
3321.000000	101.105441 
3320.000000	101.105481 
3319.000000	101.105159 
3318.000000	101.104562 
3317.000000	101.104076 
3316.000000	101.104054 
3315.000000	101.104542 
3314.000000	101.105295 
3313.000000	101.106005 
3312.000000	101.106559 
3311.000000	101.107058 
3310.000000	101.107629 
3309.000000	101.108257 
3308.000000	101.108808 
3307.000000	101.109181 
3306.000000	101.109371 
3305.000000	101.109382 
3304.000000	101.109164 
3303.000000	101.108725 
3302.000000	101.108256 
3301.000000	101.108061 
3300.000000	101.108308 
3299.000000	101.108920 
3298.000000	101.109608 
3297.000000	101.110063 
3296.000000	101.110168 
3295.000000	101.110043 
3294.000000	101.109947 
3293.000000	101.110068 
3292.000000	101.110382 
3291.000000	101.110707 
3290.000000	101.110870 
3289.000000	101.110841 
3288.000000	101.110700 
3287.000000	101.110555 
3286.000000	101.110457 
3285.000000	101.110375 
3284.000000	101.110243 
3283.000000	101.110057 
3282.000000	101.109911 
3281.000000	101.109900 
3280.000000	101.110007 
3279.000000	101.110125 
3278.000000	101.110188 
3277.000000	101.110234 
3276.000000	101.110340 
3275.000000	101.110538 
3274.000000	101.110798 
3273.000000	101.111047 
3272.000000	101.111179 
3271.000000	101.111106 
3270.000000	101.110822 
3269.000000	101.110456 
3268.000000	101.110214 
3267.000000	101.110225 
3266.000000	101.110484 
3265.000000	101.110868 
3264.000000	101.111220 
3263.000000	101.111451 
3262.000000	101.111578 
3261.000000	101.111664 
3260.000000	101.111724 
3259.000000	101.111686 
3258.000000	101.111478 
3257.000000	101.111141 
3256.000000	101.110783 
3255.000000	101.110466 
3254.000000	101.110211 
3253.000000	101.110087 
3252.000000	101.110203 
3251.000000	101.110551 
3250.000000	101.110911 
3249.000000	101.111015 
3248.000000	101.110829 
3247.000000	101.110567 
3246.000000	101.110434 
3245.000000	101.110390 
3244.000000	101.110261 
3243.000000	101.110057 
3242.000000	101.110048 
3241.000000	101.110502 
3240.000000	101.111365 
3239.000000	101.112173 
3238.000000	101.112385 
3237.000000	101.111836 
3236.000000	101.110925 
3235.000000	101.110285 
3234.000000	101.110183 
3233.000000	101.110366 
3232.000000	101.110455 
3231.000000	101.110396 
3230.000000	101.110372 
3229.000000	101.110375 
3228.000000	101.110080 
3227.000000	101.109172 
3226.000000	101.107709 
3225.000000	101.106186 
3224.000000	101.105292 
3223.000000	101.105492 
3222.000000	101.106699 
3221.000000	101.108256 
3220.000000	101.109418 
3219.000000	101.109912 
3218.000000	101.109883 
3217.000000	101.109453 
3216.000000	101.108600 
3215.000000	101.107469 
3214.000000	101.106525 
3213.000000	101.106233 
3212.000000	101.106697 
3211.000000	101.107736 
3210.000000	101.109217 
3209.000000	101.111076 
3208.000000	101.112998 
3207.000000	101.114338 
3206.000000	101.114562 
3205.000000	101.113788 
3204.000000	101.112813 
3203.000000	101.112504 
3202.000000	101.113146 
3201.000000	101.114447 
3200.000000	101.115990 
3199.000000	101.117403 
3198.000000	101.118175 
3197.000000	101.117843 
3196.000000	101.116625 
3195.000000	101.115538 
3194.000000	101.115395 
3193.000000	101.115812 
3192.000000	101.115700 
3191.000000	101.114671 
3190.000000	101.113480 
3189.000000	101.113088 
3188.000000	101.113706 
3187.000000	101.114850 
3186.000000	101.115869 
3185.000000	101.116245 
3184.000000	101.115728 
3183.000000	101.114435 
3182.000000	101.112766 
3181.000000	101.111109 
3180.000000	101.109732 
3179.000000	101.108925 
3178.000000	101.108920 
3177.000000	101.109411 
3176.000000	101.109487 
3175.000000	101.108559 
3174.000000	101.107309 
3173.000000	101.107219 
3172.000000	101.109025 
3171.000000	101.111898 
3170.000000	101.114197 
3169.000000	101.115098 
3168.000000	101.115240 
3167.000000	101.115771 
3166.000000	101.117014 
3165.000000	101.118279 
3164.000000	101.118849 
3163.000000	101.118782 
3162.000000	101.118652 
3161.000000	101.118851 
3160.000000	101.119384 
3159.000000	101.120139 
3158.000000	101.120980 
3157.000000	101.121567 
3156.000000	101.121454 
3155.000000	101.120577 
3154.000000	101.119512 
3153.000000	101.119072 
3152.000000	101.119616 
3151.000000	101.120801 
3150.000000	101.121892 
3149.000000	101.122365 
3148.000000	101.122310 
3147.000000	101.122313 
3146.000000	101.122836 
3145.000000	101.123670 
3144.000000	101.124122 
3143.000000	101.123843 
3142.000000	101.123263 
3141.000000	101.123064 
3140.000000	101.123297 
3139.000000	101.123321 
3138.000000	101.122594 
3137.000000	101.121298 
3136.000000	101.120161 
3135.000000	101.119746 
3134.000000	101.120020 
3133.000000	101.120527 
3132.000000	101.120843 
3131.000000	101.120838 
3130.000000	101.120536 
3129.000000	101.119950 
3128.000000	101.119168 
3127.000000	101.118468 
3126.000000	101.118203 
3125.000000	101.118492 
3124.000000	101.119137 
3123.000000	101.119785 
3122.000000	101.120206 
3121.000000	101.120377 
3120.000000	101.120418 
3119.000000	101.120496 
3118.000000	101.120666 
3117.000000	101.120762 
3116.000000	101.120549 
3115.000000	101.120030 
3114.000000	101.119461 
3113.000000	101.119011 
3112.000000	101.118559 
3111.000000	101.117964 
3110.000000	101.117404 
3109.000000	101.117197 
3108.000000	101.117288 
3107.000000	101.117201 
3106.000000	101.116598 
3105.000000	101.115707 
3104.000000	101.115068 
3103.000000	101.114998 
3102.000000	101.115445 
3101.000000	101.116158 
3100.000000	101.116791 
3099.000000	101.117009 
3098.000000	101.116690 
3097.000000	101.116083 
3096.000000	101.115686 
3095.000000	101.115821 
3094.000000	101.116385 
3093.000000	101.116980 
3092.000000	101.117256 
3091.000000	101.117114 
3090.000000	101.116675 
3089.000000	101.116205 
3088.000000	101.116059 
3087.000000	101.116520 
3086.000000	101.117525 
3085.000000	101.118551 
3084.000000	101.118997 
3083.000000	101.118736 
3082.000000	101.118228 
3081.000000	101.118003 
3080.000000	101.118080 
3079.000000	101.118003 
3078.000000	101.117291 
3077.000000	101.115783 
3076.000000	101.113717 
3075.000000	101.111701 
3074.000000	101.110446 
3073.000000	101.110288 
3072.000000	101.110944 
3071.000000	101.112017 
3070.000000	101.113516 
3069.000000	101.115274 
3068.000000	101.116035 
3067.000000	101.114127 
3066.000000	101.109520 
3065.000000	101.104583 
3064.000000	101.102014 
3063.000000	101.102315 
3062.000000	101.103735 
3061.000000	101.104358 
3060.000000	101.103894 
3059.000000	101.103577 
3058.000000	101.104565 
3057.000000	101.106511 
3056.000000	101.107843 
3055.000000	101.107644 
3054.000000	101.106775 
3053.000000	101.106587 
3052.000000	101.106919 
3051.000000	101.106381 
3050.000000	101.104447 
3049.000000	101.101973 
3048.000000	101.099437 
3047.000000	101.095921 
3046.000000	101.090627 
3045.000000	101.084540 
3044.000000	101.079700 
3043.000000	101.077194 
3042.000000	101.076461 
3041.000000	101.076241 
3040.000000	101.075737 
3039.000000	101.075030 
3038.000000	101.074814 
3037.000000	101.075524 
3036.000000	101.076459 
3035.000000	101.076108 
3034.000000	101.073490 
3033.000000	101.068796 
3032.000000	101.062701 
3031.000000	101.055778 
3030.000000	101.048609 
3029.000000	101.041689 
3028.000000	101.034867 
3027.000000	101.027461 
3026.000000	101.019409 
3025.000000	101.011842 
3024.000000	101.005769 
3023.000000	101.000427 
3022.000000	100.993747 
3021.000000	100.984474 
3020.000000	100.973426 
3019.000000	100.962764 
3018.000000	100.954372 
3017.000000	100.948636 
3016.000000	100.944209 
3015.000000	100.938920 
3014.000000	100.931251 
3013.000000	100.921051 
3012.000000	100.908945 
3011.000000	100.895482 
3010.000000	100.881172 
3009.000000	100.867022 
3008.000000	100.854398 
3007.000000	100.844225 
3006.000000	100.836431 
3005.000000	100.830014 
3004.000000	100.823360 
3003.000000	100.814797 
3002.000000	100.803561 
3001.000000	100.790585 
3000.000000	100.778065 
2999.000000	100.767866 
2998.000000	100.760257 
2997.000000	100.754365 
2996.000000	100.749607 
2995.000000	100.745827 
2994.000000	100.741495 
2993.000000	100.732789 
2992.000000	100.716380 
2991.000000	100.693852 
2990.000000	100.672114 
2989.000000	100.657818 
2988.000000	100.652007 
2987.000000	100.651041 
2986.000000	100.651715 
2985.000000	100.653932 
2984.000000	100.658262 
2983.000000	100.663060 
2982.000000	100.665410 
2981.000000	100.664040 
2980.000000	100.660224 
2979.000000	100.656231 
2978.000000	100.653640 
2977.000000	100.652626 
2976.000000	100.651935 
2975.000000	100.649685 
2974.000000	100.644899 
2973.000000	100.638314 
2972.000000	100.631504 
2971.000000	100.625574 
2970.000000	100.621009 
2969.000000	100.618262 
2968.000000	100.617825 
2967.000000	100.619883 
2966.000000	100.624234 
2965.000000	100.630291 
2964.000000	100.636936 
2963.000000	100.642880 
2962.000000	100.647661 
2961.000000	100.651885 
2960.000000	100.656089 
2959.000000	100.659920 
2958.000000	100.663071 
2957.000000	100.666320 
2956.000000	100.670484 
2955.000000	100.674536 
2954.000000	100.676190 
2953.000000	100.675035 
2952.000000	100.674256 
2951.000000	100.678113 
2950.000000	100.687484 
2949.000000	100.698391 
2948.000000	100.705386 
2947.000000	100.706189 
2946.000000	100.702936 
2945.000000	100.699362 
2944.000000	100.697237 
2943.000000	100.695846 
2942.000000	100.694013 
2941.000000	100.691240 
2940.000000	100.686948 
2939.000000	100.680147 
2938.000000	100.670657 
2937.000000	100.659895 
2936.000000	100.649794 
2935.000000	100.641400 
2934.000000	100.634800 
2933.000000	100.629593 
2932.000000	100.624657 
2931.000000	100.618090 
2930.000000	100.608403 
2929.000000	100.595884 
2928.000000	100.582499 
2927.000000	100.570731 
2926.000000	100.562650 
2925.000000	100.559193 
2924.000000	100.559593 
2923.000000	100.562001 
2922.000000	100.565402 
2921.000000	100.570446 
2920.000000	100.577774 
2919.000000	100.586296 
2918.000000	100.594046 
2917.000000	100.600208 
2916.000000	100.605337 
2915.000000	100.610077 
2914.000000	100.614842 
2913.000000	100.620416 
2912.000000	100.627413 
2911.000000	100.634891 
2910.000000	100.640623 
2909.000000	100.643249 
2908.000000	100.643533 
2907.000000	100.643127 
2906.000000	100.642657 
2905.000000	100.641407 
2904.000000	100.638525 
2903.000000	100.634216 
2902.000000	100.630444 
2901.000000	100.630604 
2900.000000	100.637438 
2899.000000	100.650591 
2898.000000	100.665978 
2897.000000	100.678397 
2896.000000	100.685409 
2895.000000	100.688668 
2894.000000	100.691642 
2893.000000	100.696215 
2892.000000	100.701488 
2891.000000	100.705534 
2890.000000	100.707811 
2889.000000	100.709543 
2888.000000	100.712094 
2887.000000	100.715637 
2886.000000	100.719656 
2885.000000	100.724130 
2884.000000	100.729565 
2883.000000	100.736034 
2882.000000	100.742814 
2881.000000	100.749116 
2880.000000	100.754864 
2879.000000	100.760684 
2878.000000	100.767310 
2877.000000	100.774905 
2876.000000	100.782595 
2875.000000	100.788688 
2874.000000	100.791822 
2873.000000	100.792246 
2872.000000	100.791950 
2871.000000	100.793245 
2870.000000	100.797136 
2869.000000	100.802996 
2868.000000	100.809467 
2867.000000	100.815524 
2866.000000	100.821009 
2865.000000	100.826469 
2864.000000	100.832334 
2863.000000	100.837903 
2862.000000	100.841267 
2861.000000	100.840810 
2860.000000	100.837116 
2859.000000	100.833097 
2858.000000	100.831649 
2857.000000	100.833216 
2856.000000	100.836004 
2855.000000	100.838632 
2854.000000	100.841974 
2853.000000	100.847839 
2852.000000	100.856535 
2851.000000	100.866599 
2850.000000	100.876769 
2849.000000	100.887271 
2848.000000	100.898768 
2847.000000	100.910734 
2846.000000	100.921588 
2845.000000	100.930194 
2844.000000	100.936770 
2843.000000	100.942534 
2842.000000	100.948877 
2841.000000	100.956623 
2840.000000	100.965409 
2839.000000	100.973662 
2838.000000	100.979551 
2837.000000	100.982182 
2836.000000	100.982035 
2835.000000	100.980727 
2834.000000	100.980563 
2833.000000	100.983601 
2832.000000	100.990138 
2831.000000	100.998062 
2830.000000	101.004434 
2829.000000	101.008038 
2828.000000	101.010067 
2827.000000	101.012376 
2826.000000	101.015525 
2825.000000	101.018672 
2824.000000	101.020914 
2823.000000	101.022362 
2822.000000	101.024081 
2821.000000	101.027083 
2820.000000	101.031202 
2819.000000	101.035057 
2818.000000	101.037473 
2817.000000	101.038800 
2816.000000	101.040247 
2815.000000	101.042053 
2814.000000	101.043151 
2813.000000	101.042814 
2812.000000	101.041779 
2811.000000	101.041217 
2810.000000	101.041219 
2809.000000	101.041132 
2808.000000	101.040969 
2807.000000	101.041491 
2806.000000	101.042882 
2805.000000	101.044238 
2804.000000	101.044791 
2803.000000	101.045033 
2802.000000	101.046046 
2801.000000	101.047915 
2800.000000	101.049435 
2799.000000	101.049503 
2798.000000	101.048404 
2797.000000	101.047463 
2796.000000	101.047592 
2795.000000	101.048527 
2794.000000	101.049459 
2793.000000	101.049967 
2792.000000	101.050113 
2791.000000	101.049960 
2790.000000	101.049564 
2789.000000	101.049357 
2788.000000	101.049982 
2787.000000	101.051512 
2786.000000	101.053179 
2785.000000	101.054164 
2784.000000	101.054432 
2783.000000	101.054528 
2782.000000	101.054784 
2781.000000	101.055057 
2780.000000	101.055169 
2779.000000	101.055231 
2778.000000	101.055470 
2777.000000	101.055939 
2776.000000	101.056514 
2775.000000	101.057014 
2774.000000	101.057262 
2773.000000	101.057119 
2772.000000	101.056611 
2771.000000	101.056013 
2770.000000	101.055729 
2769.000000	101.056029 
2768.000000	101.056947 
2767.000000	101.058303 
2766.000000	101.059720 
2765.000000	101.060705 
2764.000000	101.060933 
2763.000000	101.060555 
2762.000000	101.060159 
2761.000000	101.060230 
2760.000000	101.060748 
2759.000000	101.061404 
2758.000000	101.061983 
2757.000000	101.062372 
2756.000000	101.062431 
2755.000000	101.062169 
2754.000000	101.061916 
2753.000000	101.061988 
2752.000000	101.062235 
2751.000000	101.062233 
2750.000000	101.061908 
2749.000000	101.061605 
2748.000000	101.061479 
2747.000000	101.061178 
2746.000000	101.060322 
2745.000000	101.059054 
2744.000000	101.057940 
2743.000000	101.057447 
2742.000000	101.057704 
2741.000000	101.058559 
2740.000000	101.059692 
2739.000000	101.060797 
2738.000000	101.061777 
2737.000000	101.062722 
2736.000000	101.063636 
2735.000000	101.064292 
2734.000000	101.064417 
2733.000000	101.063949 
2732.000000	101.063090 
2731.000000	101.062197 
2730.000000	101.061651 
2729.000000	101.061644 
2728.000000	101.062049 
2727.000000	101.062577 
2726.000000	101.063027 
2725.000000	101.063352 
2724.000000	101.063530 
2723.000000	101.063579 
2722.000000	101.063669 
2721.000000	101.063996 
2720.000000	101.064480 
2719.000000	101.064772 
2718.000000	101.064624 
2717.000000	101.064124 
2716.000000	101.063575 
2715.000000	101.063290 
2714.000000	101.063478 
2713.000000	101.064134 
2712.000000	101.064898 
2711.000000	101.065253 
2710.000000	101.065043 
2709.000000	101.064647 
2708.000000	101.064545 
2707.000000	101.064739 
2706.000000	101.064799 
2705.000000	101.064407 
2704.000000	101.063680 
2703.000000	101.062998 
2702.000000	101.062621 
2701.000000	101.062500 
2700.000000	101.062405 
2699.000000	101.062171 
2698.000000	101.061846 
2697.000000	101.061593 
2696.000000	101.061477 
2695.000000	101.061452 
2694.000000	101.061520 
2693.000000	101.061731 
2692.000000	101.061980 
2691.000000	101.061980 
2690.000000	101.061595 
2689.000000	101.061092 
2688.000000	101.060921 
2687.000000	101.061240 
2686.000000	101.061810 
2685.000000	101.062264 
2684.000000	101.062449 
2683.000000	101.062442 
2682.000000	101.062389 
2681.000000	101.062379 
2680.000000	101.062397 
2679.000000	101.062344 
2678.000000	101.062143 
2677.000000	101.061839 
2676.000000	101.061588 
2675.000000	101.061509 
2674.000000	101.061589 
2673.000000	101.061745 
2672.000000	101.061917 
2671.000000	101.062089 
2670.000000	101.062213 
2669.000000	101.062190 
2668.000000	101.061947 
2667.000000	101.061585 
2666.000000	101.061397 
2665.000000	101.061647 
2664.000000	101.062323 
2663.000000	101.063161 
2662.000000	101.063927 
2661.000000	101.064581 
2660.000000	101.065129 
2659.000000	101.065461 
2658.000000	101.065477 
2657.000000	101.065291 
2656.000000	101.065193 
2655.000000	101.065378 
2654.000000	101.065797 
2653.000000	101.066238 
2652.000000	101.066482 
2651.000000	101.066446 
2650.000000	101.066265 
2649.000000	101.066227 
2648.000000	101.066514 
2647.000000	101.067007 
2646.000000	101.067460 
2645.000000	101.067855 
2644.000000	101.068360 
2643.000000	101.068976 
2642.000000	101.069445 
2641.000000	101.069618 
2640.000000	101.069722 
2639.000000	101.070085 
2638.000000	101.070731 
2637.000000	101.071385 
2636.000000	101.071787 
2635.000000	101.071861 
2634.000000	101.071661 
2633.000000	101.071346 
2632.000000	101.071148 
2631.000000	101.071205 
2630.000000	101.071452 
2629.000000	101.071734 
2628.000000	101.071978 
2627.000000	101.072206 
2626.000000	101.072420 
2625.000000	101.072588 
2624.000000	101.072756 
2623.000000	101.073038 
2622.000000	101.073469 
2621.000000	101.073917 
2620.000000	101.074183 
2619.000000	101.074161 
2618.000000	101.073875 
2617.000000	101.073431 
2616.000000	101.072978 
2615.000000	101.072686 
2614.000000	101.072686 
2613.000000	101.072960 
2612.000000	101.073317 
2611.000000	101.073553 
2610.000000	101.073630 
2609.000000	101.073649 
2608.000000	101.073689 
2607.000000	101.073733 
2606.000000	101.073771 
2605.000000	101.073890 
2604.000000	101.074149 
2603.000000	101.074392 
2602.000000	101.074344 
2601.000000	101.073919 
2600.000000	101.073359 
2599.000000	101.073007 
2598.000000	101.072979 
2597.000000	101.073120 
2596.000000	101.073172 
2595.000000	101.072947 
2594.000000	101.072401 
2593.000000	101.071634 
2592.000000	101.070892 
2591.000000	101.070426 
2590.000000	101.070298 
2589.000000	101.070359 
2588.000000	101.070372 
2587.000000	101.070208 
2586.000000	101.069862 
2585.000000	101.069332 
2584.000000	101.068615 
2583.000000	101.067802 
2582.000000	101.067087 
2581.000000	101.066602 
2580.000000	101.066301 
2579.000000	101.066026 
2578.000000	101.065674 
2577.000000	101.065271 
2576.000000	101.064896 
2575.000000	101.064589 
2574.000000	101.064337 
2573.000000	101.064089 
2572.000000	101.063773 
2571.000000	101.063337 
2570.000000	101.062789 
2569.000000	101.062202 
2568.000000	101.061667 
2567.000000	101.061236 
2566.000000	101.060901 
2565.000000	101.060620 
2564.000000	101.060349 
2563.000000	101.060064 
2562.000000	101.059785 
2561.000000	101.059545 
2560.000000	101.059357 
2559.000000	101.059208 
2558.000000	101.059076 
2557.000000	101.058886 
2556.000000	101.058466 
2555.000000	101.057725 
2554.000000	101.056956 
2553.000000	101.056689 
2552.000000	101.057128 
2551.000000	101.057821 
2550.000000	101.058145 
2549.000000	101.058021 
2548.000000	101.057760 
2547.000000	101.057371 
2546.000000	101.056566 
2545.000000	101.055476 
2544.000000	101.054774 
2543.000000	101.054919 
2542.000000	101.055641 
2541.000000	101.056325 
2540.000000	101.056654 
2539.000000	101.056665 
2538.000000	101.056399 
2537.000000	101.055679 
2536.000000	101.054145 
2535.000000	101.051611 
2534.000000	101.048654 
2533.000000	101.046645 
2532.000000	101.046633 
2531.000000	101.048231 
2530.000000	101.049911 
2529.000000	101.050616 
2528.000000	101.050680 
2527.000000	101.051084 
2526.000000	101.052375 
2525.000000	101.054422 
2524.000000	101.056712 
2523.000000	101.058598 
2522.000000	101.059599 
2521.000000	101.059684 
2520.000000	101.059128 
2519.000000	101.058061 
2518.000000	101.056453 
2517.000000	101.054535 
2516.000000	101.052842 
2515.000000	101.051722 
2514.000000	101.051115 
2513.000000	101.050810 
2512.000000	101.050515 
2511.000000	101.049615 
2510.000000	101.047409 
2509.000000	101.044013 
2508.000000	101.040763 
2507.000000	101.039259 
2506.000000	101.039847 
2505.000000	101.041209 
2504.000000	101.041518 
2503.000000	101.040098 
2502.000000	101.037914 
2501.000000	101.036543 
2500.000000	101.036793 
2499.000000	101.038424 
2498.000000	101.040822 
2497.000000	101.043460 
2496.000000	101.045746 
2495.000000	101.046983 
2494.000000	101.046792 
2493.000000	101.045390 
2492.000000	101.043336 
2491.000000	101.041175 
2490.000000	101.039378 
2489.000000	101.038274 
2488.000000	101.037785 
2487.000000	101.037510 
2486.000000	101.037295 
2485.000000	101.037506 
2484.000000	101.038484 
2483.000000	101.039925 
2482.000000	101.041049 
2481.000000	101.041317 
2480.000000	101.040768 
2479.000000	101.039818 
2478.000000	101.038924 
2477.000000	101.038325 
2476.000000	101.037979 
2475.000000	101.037728 
2474.000000	101.037561 
2473.000000	101.037657 
2472.000000	101.038111 
2471.000000	101.038742 
2470.000000	101.039227 
2469.000000	101.039354 
2468.000000	101.039089 
2467.000000	101.038515 
2466.000000	101.037841 
2465.000000	101.037354 
2464.000000	101.037197 
2463.000000	101.037252 
2462.000000	101.037269 
2461.000000	101.037099 
2460.000000	101.036782 
2459.000000	101.036442 
2458.000000	101.036168 
2457.000000	101.035978 
2456.000000	101.035832 
2455.000000	101.035654 
2454.000000	101.035381 
2453.000000	101.035011 
2452.000000	101.034592 
2451.000000	101.034178 
2450.000000	101.033799 
2449.000000	101.033465 
2448.000000	101.033166 
2447.000000	101.032872 
2446.000000	101.032565 
2445.000000	101.032266 
2444.000000	101.032002 
2443.000000	101.031763 
2442.000000	101.031484 
2441.000000	101.031095 
2440.000000	101.030585 
2439.000000	101.030000 
2438.000000	101.029412 
2437.000000	101.028874 
2436.000000	101.028398 
2435.000000	101.027938 
2434.000000	101.027408 
2433.000000	101.026753 
2432.000000	101.025995 
2431.000000	101.025235 
2430.000000	101.024577 
2429.000000	101.024061 
2428.000000	101.023672 
2427.000000	101.023391 
2426.000000	101.023199 
2425.000000	101.023021 
2424.000000	101.022697 
2423.000000	101.022102 
2422.000000	101.021270 
2421.000000	101.020472 
2420.000000	101.019971 
2419.000000	101.019789 
2418.000000	101.019748 
2417.000000	101.019677 
2416.000000	101.019533 
2415.000000	101.019287 
2414.000000	101.018879 
2413.000000	101.018354 
2412.000000	101.017907 
2411.000000	101.017686 
2410.000000	101.017615 
2409.000000	101.017470 
2408.000000	101.017166 
2407.000000	101.016894 
2406.000000	101.016925 
2405.000000	101.017309 
2404.000000	101.017779 
2403.000000	101.017938 
2402.000000	101.017582 
2401.000000	101.016824 
2400.000000	101.015938 
2399.000000	101.015148 
2398.000000	101.014602 
2397.000000	101.014447 
2396.000000	101.014760 
2395.000000	101.015438 
2394.000000	101.016248 
2393.000000	101.017007 
2392.000000	101.017662 
2391.000000	101.018239 
2390.000000	101.018804 
2389.000000	101.019442 
2388.000000	101.020145 
2387.000000	101.020789 
2386.000000	101.021263 
2385.000000	101.021591 
2384.000000	101.021907 
2383.000000	101.022314 
2382.000000	101.022838 
2381.000000	101.023464 
2380.000000	101.024118 
2379.000000	101.024659 
2378.000000	101.024977 
2377.000000	101.025125 
2376.000000	101.025324 
2375.000000	101.025776 
2374.000000	101.026504 
2373.000000	101.027387 
2372.000000	101.028286 
2371.000000	101.029149 
2370.000000	101.029987 
2369.000000	101.030764 
2368.000000	101.031323 
2367.000000	101.031533 
2366.000000	101.031493 
2365.000000	101.031489 
2364.000000	101.031742 
2363.000000	101.032274 
2362.000000	101.032907 
2361.000000	101.033420 
2360.000000	101.033748 
2359.000000	101.033960 
2358.000000	101.034213 
2357.000000	101.034569 
2356.000000	101.034993 
2355.000000	101.035423 
2354.000000	101.035833 
2353.000000	101.036228 
2352.000000	101.036531 
2351.000000	101.036740 
2350.000000	101.036969 
2349.000000	101.037370 
2348.000000	101.038066 
2347.000000	101.038822 
2346.000000	101.039243 
2345.000000	101.039120 
2344.000000	101.038747 
2343.000000	101.038539 
2342.000000	101.038504 
2341.000000	101.038542 
2340.000000	101.038517 
2339.000000	101.038342 
2338.000000	101.037958 
2337.000000	101.037563 
2336.000000	101.037343 
2335.000000	101.037320 
2334.000000	101.037224 
2333.000000	101.037044 
2332.000000	101.036698 
2331.000000	101.036218 
2330.000000	101.035549 
2329.000000	101.034890 
2328.000000	101.034719 
2327.000000	101.035187 
2326.000000	101.036137 
2325.000000	101.036947 
2324.000000	101.037152 
2323.000000	101.036831 
2322.000000	101.036535 
2321.000000	101.036887 
2320.000000	101.037652 
2319.000000	101.038239 
2318.000000	101.038192 
2317.000000	101.037833 
2316.000000	101.037451 
2315.000000	101.037167 
2314.000000	101.036905 
2313.000000	101.036920 
2312.000000	101.037357 
2311.000000	101.038144 
2310.000000	101.039065 
2309.000000	101.040054 
2308.000000	101.040881 
2307.000000	101.041093 
2306.000000	101.040461 
2305.000000	101.039427 
2304.000000	101.038482 
2303.000000	101.037735 
2302.000000	101.037129 
2301.000000	101.036986 
2300.000000	101.037495 
2299.000000	101.038206 
2298.000000	101.038552 
2297.000000	101.038862 
2296.000000	101.039924 
2295.000000	101.041750 
2294.000000	101.043462 
2293.000000	101.044364 
2292.000000	101.044679 
2291.000000	101.045022 
2290.000000	101.045738 
2289.000000	101.046803 
2288.000000	101.048067 
2287.000000	101.049283 
2286.000000	101.050206 
2285.000000	101.050777 
2284.000000	101.051179 
2283.000000	101.051614 
2282.000000	101.052133 
2281.000000	101.052704 
2280.000000	101.053296 
2279.000000	101.053969 
2278.000000	101.054930 
2277.000000	101.056392 
2276.000000	101.058220 
2275.000000	101.059856 
2274.000000	101.060798 
2273.000000	101.061091 
2272.000000	101.061116 
2271.000000	101.060883 
2270.000000	101.060175 
2269.000000	101.059532 
2268.000000	101.060122 
2267.000000	101.062358 
2266.000000	101.065399 
2265.000000	101.068168 
2264.000000	101.070297 
2263.000000	101.071749 
2262.000000	101.072675 
2261.000000	101.073914 
2260.000000	101.076477 
2259.000000	101.079925 
2258.000000	101.082295 
2257.000000	101.082509 
2256.000000	101.081782 
2255.000000	101.082027 
2254.000000	101.083335 
2253.000000	101.084265 
2252.000000	101.084110 
2251.000000	101.083866 
2250.000000	101.085023 
2249.000000	101.088093 
2248.000000	101.092195 
2247.000000	101.095748 
2246.000000	101.097767 
2245.000000	101.098504 
2244.000000	101.098665 
2243.000000	101.098406 
2242.000000	101.097861 
2241.000000	101.098053 
2240.000000	101.099865 
2239.000000	101.102213 
2238.000000	101.102809 
2237.000000	101.100943 
2236.000000	101.098030 
2235.000000	101.095280 
2234.000000	101.092810 
2233.000000	101.091522 
2232.000000	101.093443 
2231.000000	101.099215 
2230.000000	101.106966 
2229.000000	101.114477 
2228.000000	101.121183 
2227.000000	101.127205 
2226.000000	101.132061 
2225.000000	101.135158 
2224.000000	101.136322 
2223.000000	101.135454 
2222.000000	101.133051 
2221.000000	101.131215 
2220.000000	101.132175 
2219.000000	101.135684 
2218.000000	101.139654 
2217.000000	101.143581 
2216.000000	101.149108 
2215.000000	101.156548 
2214.000000	101.163196 
2213.000000	101.166319 
2212.000000	101.166042 
2211.000000	101.164517 
2210.000000	101.163905 
2209.000000	101.165700 
2208.000000	101.170151 
2207.000000	101.175265 
2206.000000	101.177961 
2205.000000	101.177184 
2204.000000	101.174752 
2203.000000	101.172609 
2202.000000	101.170696 
2201.000000	101.168571 
2200.000000	101.167185 
2199.000000	101.167306 
2198.000000	101.167783 
2197.000000	101.167719 
2196.000000	101.169149 
2195.000000	101.175000 
2194.000000	101.185174 
2193.000000	101.196324 
2192.000000	101.204762 
2191.000000	101.208358 
2190.000000	101.206954 
2189.000000	101.203055 
2188.000000	101.201121 
2187.000000	101.204128 
2186.000000	101.211513 
2185.000000	101.221002 
2184.000000	101.230634 
2183.000000	101.237993 
2182.000000	101.240341 
2181.000000	101.238339 
2180.000000	101.237495 
2179.000000	101.242294 
2178.000000	101.250137 
2177.000000	101.253997 
2176.000000	101.250317 
2175.000000	101.241928 
2174.000000	101.234193 
2173.000000	101.230500 
2172.000000	101.230804 
2171.000000	101.232366 
2170.000000	101.232609 
2169.000000	101.233123 
2168.000000	101.239507 
2167.000000	101.254649 
2166.000000	101.273149 
2165.000000	101.285831 
2164.000000	101.289981 
2163.000000	101.291419 
2162.000000	101.296072 
2161.000000	101.302339 
2160.000000	101.303279 
2159.000000	101.294102 
2158.000000	101.276201 
2157.000000	101.255875 
2156.000000	101.239743 
2155.000000	101.230337 
2154.000000	101.225303 
2153.000000	101.220331 
2152.000000	101.213190 
2151.000000	101.205351 
2150.000000	101.200257 
2149.000000	101.200269 
2148.000000	101.204491 
2147.000000	101.208731 
2146.000000	101.208063 
2145.000000	101.200530 
2144.000000	101.188807 
2143.000000	101.178082 
2142.000000	101.172034 
2141.000000	101.170693 
2140.000000	101.171370 
2139.000000	101.170983 
2138.000000	101.167554 
2137.000000	101.160279 
2136.000000	101.149521 
2135.000000	101.137552 
2134.000000	101.128482 
2133.000000	101.125506 
2132.000000	101.127404 
2131.000000	101.128856 
2130.000000	101.125277 
2129.000000	101.117166 
2128.000000	101.109048 
2127.000000	101.104446 
2126.000000	101.102749 
2125.000000	101.101017 
2124.000000	101.098017 
2123.000000	101.095792 
2122.000000	101.097011 
2121.000000	101.101253 
2120.000000	101.104750 
2119.000000	101.104242 
2118.000000	101.100390 
2117.000000	101.096770 
2116.000000	101.095890 
2115.000000	101.097080 
2114.000000	101.098371 
2113.000000	101.099058 
2112.000000	101.099488 
2111.000000	101.099418 
2110.000000	101.098176 
2109.000000	101.096062 
2108.000000	101.094159 
2107.000000	101.092725 
2106.000000	101.090813 
2105.000000	101.087458 
2104.000000	101.082690 
2103.000000	101.077828 
2102.000000	101.075390 
2101.000000	101.077670 
2100.000000	101.084241 
2099.000000	101.091336 
2098.000000	101.095122 
2097.000000	101.095306 
2096.000000	101.094155 
2095.000000	101.092660 
2094.000000	101.089522 
2093.000000	101.083940 
2092.000000	101.077849 
2091.000000	101.074857 
2090.000000	101.077335 
2089.000000	101.084232 
2088.000000	101.091174 
2087.000000	101.093983 
2086.000000	101.093145 
2085.000000	101.093449 
2084.000000	101.098265 
2083.000000	101.105790 
2082.000000	101.112085 
2081.000000	101.116191 
2080.000000	101.120066 
2079.000000	101.124821 
2078.000000	101.129931 
2077.000000	101.135720 
2076.000000	101.143606 
2075.000000	101.153199 
2074.000000	101.161524 
2073.000000	101.166065 
2072.000000	101.167138 
2071.000000	101.166677 
2070.000000	101.166071 
2069.000000	101.165804 
2068.000000	101.165944 
2067.000000	101.166313 
2066.000000	101.166925 
2065.000000	101.168402 
2064.000000	101.171247 
2063.000000	101.174903 
2062.000000	101.178626 
2061.000000	101.182757 
2060.000000	101.188023 
2059.000000	101.194334 
2058.000000	101.201162 
2057.000000	101.208078 
2056.000000	101.213926 
2055.000000	101.216853 
2054.000000	101.217046 
2053.000000	101.218214 
2052.000000	101.224018 
2051.000000	101.233708 
2050.000000	101.242735 
2049.000000	101.247590 
2048.000000	101.248556 
2047.000000	101.247847 
2046.000000	101.247293 
2045.000000	101.248278 
2044.000000	101.251681 
2043.000000	101.256710 
2042.000000	101.261381 
2041.000000	101.264979 
2040.000000	101.268787 
2039.000000	101.273939 
2038.000000	101.280005 
2037.000000	101.285889 
2036.000000	101.290478 
2035.000000	101.292362 
2034.000000	101.290863 
2033.000000	101.287621 
2032.000000	101.285172 
2031.000000	101.283812 
2030.000000	101.282270 
2029.000000	101.280694 
2028.000000	101.280421 
2027.000000	101.281294 
2026.000000	101.282024 
2025.000000	101.282936 
2024.000000	101.285594 
2023.000000	101.289394 
2022.000000	101.291111 
2021.000000	101.288973 
2020.000000	101.285208 
2019.000000	101.283651 
2018.000000	101.285705 
2017.000000	101.289565 
2016.000000	101.292227 
2015.000000	101.291788 
2014.000000	101.288446 
2013.000000	101.284295 
2012.000000	101.281653 
2011.000000	101.281011 
2010.000000	101.281257 
2009.000000	101.281830 
2008.000000	101.283412 
2007.000000	101.286150 
2006.000000	101.288653 
2005.000000	101.289448 
2004.000000	101.288469 
2003.000000	101.286552 
2002.000000	101.284292 
2001.000000	101.281955 
2000.000000	101.279403 
1999.000000	101.276144 
1998.000000	101.272387 
1997.000000	101.269736 
1996.000000	101.269862 
1995.000000	101.272752 
1994.000000	101.277068 
1993.000000	101.281562 
1992.000000	101.285262 
1991.000000	101.286869 
1990.000000	101.285607 
1989.000000	101.282783 
1988.000000	101.281216 
1987.000000	101.282377 
1986.000000	101.284958 
1985.000000	101.286634 
1984.000000	101.286604 
1983.000000	101.286214 
1982.000000	101.287462 
1981.000000	101.290845 
1980.000000	101.293791 
1979.000000	101.292407 
1978.000000	101.285911 
1977.000000	101.278268 
1976.000000	101.273572 
1975.000000	101.271202 
1974.000000	101.268703 
1973.000000	101.267214 
1972.000000	101.270176 
1971.000000	101.277122 
1970.000000	101.282340 
1969.000000	101.280917 
1968.000000	101.273564 
1967.000000	101.265164 
1966.000000	101.259720 
1965.000000	101.257474 
1964.000000	101.256109 
1963.000000	101.253347 
1962.000000	101.248806 
1961.000000	101.243757 
1960.000000	101.238991 
1959.000000	101.233971 
1958.000000	101.228774 
1957.000000	101.225108 
1956.000000	101.223833 
1955.000000	101.222878 
1954.000000	101.219730 
1953.000000	101.214694 
1952.000000	101.209911 
1951.000000	101.205740 
1950.000000	101.200713 
1949.000000	101.194992 
1948.000000	101.190446 
1947.000000	101.186935 
1946.000000	101.181539 
1945.000000	101.172361 
1944.000000	101.161366 
1943.000000	101.152701 
1942.000000	101.149318 
1941.000000	101.151171 
1940.000000	101.155091 
1939.000000	101.157052 
1938.000000	101.156107 
1937.000000	101.155280 
1936.000000	101.157211 
1935.000000	101.159915 
1934.000000	101.159367 
1933.000000	101.155270 
1932.000000	101.151772 
1931.000000	101.151622 
1930.000000	101.152659 
1929.000000	101.151638 
1928.000000	101.147906 
1927.000000	101.143137 
1926.000000	101.138846 
1925.000000	101.135997 
1924.000000	101.135292 
1923.000000	101.136038 
1922.000000	101.136439 
1921.000000	101.135633 
1920.000000	101.133869 
1919.000000	101.131252 
1918.000000	101.127433 
1917.000000	101.123234 
1916.000000	101.120337 
1915.000000	101.118838 
1914.000000	101.117743 
1913.000000	101.116807 
1912.000000	101.116405 
1911.000000	101.116011 
1910.000000	101.114553 
1909.000000	101.112408 
1908.000000	101.111015 
1907.000000	101.111012 
1906.000000	101.111636 
1905.000000	101.112042 
1904.000000	101.112021 
1903.000000	101.111451 
1902.000000	101.110413 
1901.000000	101.109354 
1900.000000	101.108490 
1899.000000	101.107712 
1898.000000	101.106925 
1897.000000	101.106139 
1896.000000	101.105385 
1895.000000	101.104656 
1894.000000	101.103916 
1893.000000	101.103155 
1892.000000	101.102413 
1891.000000	101.101744 
1890.000000	101.101142 
1889.000000	101.100561 
1888.000000	101.099984 
1887.000000	101.099425 
1886.000000	101.098902 
1885.000000	101.098442 
1884.000000	101.098067 
1883.000000	101.097765 
1882.000000	101.097490 
1881.000000	101.097216 
1880.000000	101.096953 
1879.000000	101.096712 
1878.000000	101.096501 
1877.000000	101.096353 
1876.000000	101.096291 
1875.000000	101.096224 
1874.000000	101.095989 
1873.000000	101.095522 
1872.000000	101.094951 
1871.000000	101.094479 
1870.000000	101.094199 
1869.000000	101.094079 
1868.000000	101.094049 
1867.000000	101.094037 
1866.000000	101.093933 
1865.000000	101.093685 
1864.000000	101.093336 
1863.000000	101.092844 
1862.000000	101.092107 
1861.000000	101.091354 
1860.000000	101.091124 
1859.000000	101.091640 
1858.000000	101.092540 
1857.000000	101.093315 
1856.000000	101.093772 
1855.000000	101.093875 
1854.000000	101.093551 
1853.000000	101.093030 
1852.000000	101.092574 
1851.000000	101.092164 
1850.000000	101.091868 
1849.000000	101.092120 
1848.000000	101.093246 
1847.000000	101.094669 
1846.000000	101.095401 
1845.000000	101.095266 
1844.000000	101.094967 
1843.000000	101.095102 
1842.000000	101.095412 
1841.000000	101.095396 
1840.000000	101.094980 
1839.000000	101.094358 
1838.000000	101.093359 
1837.000000	101.091961 
1836.000000	101.090726 
1835.000000	101.089951 
1834.000000	101.089374 
1833.000000	101.088781 
1832.000000	101.088105 
1831.000000	101.087743 
1830.000000	101.088091 
1829.000000	101.089114 
1828.000000	101.090608 
1827.000000	101.091831 
1826.000000	101.092262 
1825.000000	101.092136 
1824.000000	101.092144 
1823.000000	101.092261 
1822.000000	101.091379 
1821.000000	101.089078 
1820.000000	101.086641 
1819.000000	101.085701 
1818.000000	101.085987 
1817.000000	101.086186 
1816.000000	101.086215 
1815.000000	101.086511 
1814.000000	101.086947 
1813.000000	101.087150 
1812.000000	101.087776 
1811.000000	101.089734 
1810.000000	101.092089 
1809.000000	101.093491 
1808.000000	101.093999 
1807.000000	101.093787 
1806.000000	101.092325 
1805.000000	101.089816 
1804.000000	101.087919 
1803.000000	101.087303 
1802.000000	101.087030 
1801.000000	101.086025 
1800.000000	101.085067 
1799.000000	101.085455 
1798.000000	101.086807 
1797.000000	101.088394 
1796.000000	101.090307 
1795.000000	101.092181 
1794.000000	101.093183 
1793.000000	101.092948 
1792.000000	101.092414 
1791.000000	101.092757 
1790.000000	101.093340 
1789.000000	101.093145 
1788.000000	101.092727 
1787.000000	101.093052 
1786.000000	101.093816 
1785.000000	101.094225 
1784.000000	101.094616 
1783.000000	101.094762 
1782.000000	101.094360 
1781.000000	101.093276 
1780.000000	101.091785 
1779.000000	101.090501 
1778.000000	101.089331 
1777.000000	101.088528 
1776.000000	101.088343 
1775.000000	101.088507 
1774.000000	101.089189 
1773.000000	101.090531 
1772.000000	101.091380 
1771.000000	101.092074 
1770.000000	101.092897 
1769.000000	101.092156 
1768.000000	101.089567 
1767.000000	101.086825 
1766.000000	101.085434 
1765.000000	101.084664 
1764.000000	101.083670 
1763.000000	101.082937 
1762.000000	101.082971 
1761.000000	101.082770 
1760.000000	101.082265 
1759.000000	101.081808 
1758.000000	101.081599 
1757.000000	101.082085 
1756.000000	101.082735 
1755.000000	101.083466 
1754.000000	101.083862 
1753.000000	101.082939 
1752.000000	101.080103 
1751.000000	101.076197 
1750.000000	101.072497 
1749.000000	101.069532 
1748.000000	101.067338 
1747.000000	101.066149 
1746.000000	101.066623 
1745.000000	101.067636 
1744.000000	101.067619 
1743.000000	101.066945 
1742.000000	101.066669 
1741.000000	101.066500 
1740.000000	101.066050 
1739.000000	101.065877 
1738.000000	101.066725 
1737.000000	101.067651 
1736.000000	101.067822 
1735.000000	101.068070 
1734.000000	101.068021 
1733.000000	101.067790 
1732.000000	101.068139 
1731.000000	101.068103 
1730.000000	101.067292 
1729.000000	101.066539 
1728.000000	101.066380 
1727.000000	101.066623 
1726.000000	101.067085 
1725.000000	101.067607 
1724.000000	101.068195 
1723.000000	101.068827 
1722.000000	101.069305 
1721.000000	101.069655 
1720.000000	101.070163 
1719.000000	101.071053 
1718.000000	101.071997 
1717.000000	101.072572 
1716.000000	101.073017 
1715.000000	101.073543 
1714.000000	101.074061 
1713.000000	101.074579 
1712.000000	101.075172 
1711.000000	101.075832 
1710.000000	101.076528 
1709.000000	101.077261 
1708.000000	101.078030 
1707.000000	101.078820 
1706.000000	101.079623 
1705.000000	101.080428 
1704.000000	101.081228 
1703.000000	101.082018 
1702.000000	101.082798 
1701.000000	101.083573 
1700.000000	101.084350 
1699.000000	101.085138 
1698.000000	101.085929 
1697.000000	101.086705 
1696.000000	101.087464 
1695.000000	101.088213 
1694.000000	101.088955 
1693.000000	101.089695 
1692.000000	101.090435 
1691.000000	101.091179 
1690.000000	101.091924 
1689.000000	101.092669 
1688.000000	101.093410 
1687.000000	101.094141 
1686.000000	101.094860 
1685.000000	101.095566 
1684.000000	101.096247 
1683.000000	101.096895 
1682.000000	101.097509 
1681.000000	101.098091 
1680.000000	101.098642 
1679.000000	101.099167 
1678.000000	101.099677 
1677.000000	101.100176 
1676.000000	101.100667 
1675.000000	101.101159 
1674.000000	101.101663 
1673.000000	101.102176 
1672.000000	101.102687 
1671.000000	101.103184 
1670.000000	101.103664 
1669.000000	101.104124 
1668.000000	101.104565 
1667.000000	101.104986 
1666.000000	101.105388 
1665.000000	101.105771 
1664.000000	101.106137 
1663.000000	101.106496 
1662.000000	101.106852 
1661.000000	101.107211 
1660.000000	101.107575 
1659.000000	101.107942 
1658.000000	101.108318 
1657.000000	101.108704 
1656.000000	101.109088 
1655.000000	101.109476 
1654.000000	101.109899 
1653.000000	101.110326 
1652.000000	101.110741 
1651.000000	101.111183 
1650.000000	101.111632 
1649.000000	101.112045 
1648.000000	101.112431 
1647.000000	101.112806 
1646.000000	101.113144 
1645.000000	101.113469 
1644.000000	101.113830 
1643.000000	101.114205 
1642.000000	101.114550 
1641.000000	101.114868 
1640.000000	101.115162 
1639.000000	101.115453 
1638.000000	101.115759 
1637.000000	101.116191 
1636.000000	101.116784 
1635.000000	101.117307 
1634.000000	101.117729 
1633.000000	101.118111 
1632.000000	101.118394 
1631.000000	101.118491 
1630.000000	101.118468 
1629.000000	101.118588 
1628.000000	101.119054 
1627.000000	101.119653 
1626.000000	101.120131 
1625.000000	101.120559 
1624.000000	101.121155 
1623.000000	101.121789 
1622.000000	101.122473 
1621.000000	101.123586 
1620.000000	101.124762 
1619.000000	101.125432 
1618.000000	101.125866 
1617.000000	101.126806 
1616.000000	101.128067 
1615.000000	101.129168 
1614.000000	101.130004 
1613.000000	101.130766 
1612.000000	101.131729 
1611.000000	101.132499 
1610.000000	101.132799 
1609.000000	101.133013 
1608.000000	101.133294 
1607.000000	101.133128 
1606.000000	101.132808 
1605.000000	101.133115 
1604.000000	101.133813 
1603.000000	101.134467 
1602.000000	101.135292 
1601.000000	101.136661 
1600.000000	101.138175 
1599.000000	101.139266 
1598.000000	101.140056 
1597.000000	101.140850 
1596.000000	101.141611 
1595.000000	101.142159 
1594.000000	101.142627 
1593.000000	101.143294 
1592.000000	101.144164 
1591.000000	101.145035 
1590.000000	101.145840 
1589.000000	101.146629 
1588.000000	101.147377 
1587.000000	101.148040 
1586.000000	101.148637 
1585.000000	101.149224 
1584.000000	101.149800 
1583.000000	101.150378 
1582.000000	101.150957 
1581.000000	101.151528 
1580.000000	101.152089 
1579.000000	101.152641 
1578.000000	101.153186 
1577.000000	101.153731 
1576.000000	101.154274 
1575.000000	101.154809 
1574.000000	101.155337 
1573.000000	101.155858 
1572.000000	101.156372 
1571.000000	101.156879 
1570.000000	101.157382 
1569.000000	101.157885 
1568.000000	101.158386 
1567.000000	101.158884 
1566.000000	101.159383 
1565.000000	101.159891 
1564.000000	101.160414 
1563.000000	101.160954 
1562.000000	101.161512 
1561.000000	101.162093 
1560.000000	101.162698 
1559.000000	101.163310 
1558.000000	101.163913 
1557.000000	101.164517 
1556.000000	101.165117 
1555.000000	101.165703 
1554.000000	101.166269 
1553.000000	101.166820 
1552.000000	101.167360 
1551.000000	101.167894 
1550.000000	101.168424 
1549.000000	101.168957 
1548.000000	101.169495 
1547.000000	101.170031 
1546.000000	101.170563 
1545.000000	101.171101 
1544.000000	101.171659 
1543.000000	101.172248 
1542.000000	101.172865 
1541.000000	101.173498 
1540.000000	101.174125 
1539.000000	101.174735 
1538.000000	101.175328 
1537.000000	101.175902 
1536.000000	101.176451 
1535.000000	101.176974 
1534.000000	101.177471 
1533.000000	101.177915 
1532.000000	101.178314 
1531.000000	101.178734 
1530.000000	101.179130 
1529.000000	101.179382 
1528.000000	101.179547 
1527.000000	101.179808 
1526.000000	101.180324 
1525.000000	101.181158 
1524.000000	101.182233 
1523.000000	101.183513 
1522.000000	101.184735 
1521.000000	101.185105 
1520.000000	101.184722 
1519.000000	101.184086 
1518.000000	101.182936 
1517.000000	101.181334 
1516.000000	101.180241 
1515.000000	101.180327 
1514.000000	101.180875 
1513.000000	101.180575 
1512.000000	101.179767 
1511.000000	101.179828 
1510.000000	101.180487 
1509.000000	101.180354 
1508.000000	101.180469 
1507.000000	101.182356 
1506.000000	101.182290 
1505.000000	101.181273 
1504.000000	101.182039 
1503.000000	101.183910 
1502.000000	101.185845 
1501.000000	101.186792 
1500.000000	101.186135 
1499.000000	101.184772 
1498.000000	101.183419 
1497.000000	101.179802 
1496.000000	101.173953 
1495.000000	101.169565 
1494.000000	101.167811 
1493.000000	101.166596 
1492.000000	101.164911 
1491.000000	101.163548 
1490.000000	101.162418 
1489.000000	101.160460 
1488.000000	101.158746 
1487.000000	101.158173 
1486.000000	101.157141 
1485.000000	101.155653 
1484.000000	101.154319 
1483.000000	101.153183 
1482.000000	101.152235 
1481.000000	101.151599 
1480.000000	101.151694 
1479.000000	101.152094 
1478.000000	101.151758 
1477.000000	101.150244 
1476.000000	101.148815 
1475.000000	101.148152 
1474.000000	101.147572 
1473.000000	101.145839 
1472.000000	101.142684 
1471.000000	101.139879 
1470.000000	101.137968 
1469.000000	101.135847 
1468.000000	101.133527 
1467.000000	101.131776 
1466.000000	101.130870 
1465.000000	101.130418 
1464.000000	101.129772 
1463.000000	101.129788 
1462.000000	101.130434 
1461.000000	101.130618 
1460.000000	101.129649 
1459.000000	101.128216 
1458.000000	101.126638 
1457.000000	101.121805 
1456.000000	101.114606 
1455.000000	101.111151 
1454.000000	101.111650 
1453.000000	101.112453 
1452.000000	101.112196 
1451.000000	101.111854 
1450.000000	101.111800 
1449.000000	101.110211 
1448.000000	101.107321 
1447.000000	101.105639 
1446.000000	101.107398 
1445.000000	101.111068 
1444.000000	101.113176 
1443.000000	101.113903 
1442.000000	101.114888 
1441.000000	101.116032 
1440.000000	101.115846 
1439.000000	101.115108 
1438.000000	101.115296 
1437.000000	101.114371 
1436.000000	101.110244 
1435.000000	101.107674 
1434.000000	101.108881 
1433.000000	101.109636 
1432.000000	101.107479 
1431.000000	101.104533 
1430.000000	101.103599 
1429.000000	101.103507 
1428.000000	101.102794 
1427.000000	101.101312 
1426.000000	101.099787 
1425.000000	101.098046 
1424.000000	101.094749 
1423.000000	101.091446 
1422.000000	101.089176 
1421.000000	101.085183 
1420.000000	101.076562 
1419.000000	101.066681 
1418.000000	101.062084 
1417.000000	101.061807 
1416.000000	101.059883 
1415.000000	101.054769 
1414.000000	101.049102 
1413.000000	101.044125 
1412.000000	101.038892 
1411.000000	101.033930 
1410.000000	101.030669 
1409.000000	101.028005 
1408.000000	101.024889 
1407.000000	101.022315 
1406.000000	101.021924 
1405.000000	101.023208 
1404.000000	101.024170 
1403.000000	101.025887 
1402.000000	101.030308 
1401.000000	101.036663 
1400.000000	101.042438 
1399.000000	101.045987 
1398.000000	101.046821 
1397.000000	101.043487 
1396.000000	101.034926 
1395.000000	101.024586 
1394.000000	101.020343 
1393.000000	101.025833 
1392.000000	101.036948 
1391.000000	101.047752 
1390.000000	101.055280 
1389.000000	101.058976 
1388.000000	101.059300 
1387.000000	101.057637 
1386.000000	101.056100 
1385.000000	101.055679 
1384.000000	101.055451 
1383.000000	101.054993 
1382.000000	101.054991 
1381.000000	101.056072 
1380.000000	101.058414 
1379.000000	101.062033 
1378.000000	101.066925 
1377.000000	101.072398 
1376.000000	101.077181 
1375.000000	101.080679 
1374.000000	101.084313 
1373.000000	101.089938 
1372.000000	101.097447 
1371.000000	101.104634 
1370.000000	101.109947 
1369.000000	101.113746 
1368.000000	101.116916 
1367.000000	101.120382 
1366.000000	101.124737 
1365.000000	101.129840 
1364.000000	101.135159 
1363.000000	101.140291 
1362.000000	101.145083 
1361.000000	101.149476 
1360.000000	101.153315 
1359.000000	101.156742 
1358.000000	101.160933 
1357.000000	101.167028 
1356.000000	101.174274 
1355.000000	101.180459 
1354.000000	101.184434 
1353.000000	101.186853 
1352.000000	101.189461 
1351.000000	101.192361 
1350.000000	101.194779 
1349.000000	101.196995 
1348.000000	101.199028 
1347.000000	101.200534 
1346.000000	101.201741 
1345.000000	101.203562 
1344.000000	101.206047 
1343.000000	101.207857 
1342.000000	101.208070 
1341.000000	101.207934 
1340.000000	101.209617 
1339.000000	101.213373 
1338.000000	101.217289 
1337.000000	101.219704 
1336.000000	101.220904 
1335.000000	101.222230 
1334.000000	101.224054 
1333.000000	101.225264 
1332.000000	101.224935 
1331.000000	101.223667 
1330.000000	101.223057 
1329.000000	101.223850 
1328.000000	101.225359 
1327.000000	101.226373 
1326.000000	101.226596 
1325.000000	101.226608 
1324.000000	101.226721 
1323.000000	101.227090 
1322.000000	101.227978 
1321.000000	101.229441 
1320.000000	101.231235 
1319.000000	101.233377 
1318.000000	101.235949 
1317.000000	101.238196 
1316.000000	101.238804 
1315.000000	101.237406 
1314.000000	101.235036 
1313.000000	101.232745 
1312.000000	101.230792 
1311.000000	101.229428 
1310.000000	101.229347 
1309.000000	101.230495 
1308.000000	101.231660 
1307.000000	101.231669 
1306.000000	101.230812 
1305.000000	101.230316 
1304.000000	101.230733 
1303.000000	101.231774 
1302.000000	101.232895 
1301.000000	101.233515 
1300.000000	101.233203 
1299.000000	101.232438 
1298.000000	101.232494 
1297.000000	101.233982 
1296.000000	101.235856 
1295.000000	101.236419 
1294.000000	101.234970 
1293.000000	101.231983 
1292.000000	101.228407 
1291.000000	101.225388 
1290.000000	101.224037 
1289.000000	101.224630 
1288.000000	101.226120 
1287.000000	101.226872 
1286.000000	101.225915 
1285.000000	101.223302 
1284.000000	101.219579 
1283.000000	101.215408 
1282.000000	101.211152 
1281.000000	101.206885 
1280.000000	101.203042 
1279.000000	101.200528 
1278.000000	101.199590 
1277.000000	101.199071 
1276.000000	101.197572 
1275.000000	101.194948 
1274.000000	101.191916 
1273.000000	101.188559 
1272.000000	101.184423 
1271.000000	101.179961 
1270.000000	101.176503 
1269.000000	101.174462 
1268.000000	101.172609 
1267.000000	101.169591 
1266.000000	101.165240 
1265.000000	101.160095 
1264.000000	101.154707 
1263.000000	101.149761 
1262.000000	101.145816 
1261.000000	101.142576 
1260.000000	101.139189 
1259.000000	101.135620 
1258.000000	101.132746 
1257.000000	101.130805 
1256.000000	101.129007 
1255.000000	101.127115 
1254.000000	101.126162 
1253.000000	101.126807 
1252.000000	101.128058 
1251.000000	101.128511 
1250.000000	101.128199 
1249.000000	101.128261 
1248.000000	101.129266 
1247.000000	101.130691 
1246.000000	101.131508 
1245.000000	101.130501 
1244.000000	101.126735 
1243.000000	101.120829 
1242.000000	101.115628 
1241.000000	101.114165 
1240.000000	101.116808 
1239.000000	101.120781 
1238.000000	101.122748 
1237.000000	101.121836 
1236.000000	101.119557 
1235.000000	101.117575 
1234.000000	101.116173 
1233.000000	101.114701 
1232.000000	101.112630 
1231.000000	101.109788 
1230.000000	101.106157 
1229.000000	101.102132 
1228.000000	101.098854 
1227.000000	101.097525 
1226.000000	101.098063 
1225.000000	101.098930 
1224.000000	101.098798 
1223.000000	101.098023 
1222.000000	101.097903 
1221.000000	101.098882 
1220.000000	101.100205 
1219.000000	101.101143 
1218.000000	101.101614 
1217.000000	101.101513 
1216.000000	101.100416 
1215.000000	101.098306 
1214.000000	101.095780 
1213.000000	101.092959 
1212.000000	101.089057 
1211.000000	101.083797 
1210.000000	101.078574 
1209.000000	101.075331 
1208.000000	101.074393 
1207.000000	101.074045 
1206.000000	101.072264 
1205.000000	101.068554 
1204.000000	101.064125 
1203.000000	101.060557 
1202.000000	101.058357 
1201.000000	101.056718 
1200.000000	101.054544 
1199.000000	101.051451 
1198.000000	101.047650 
1197.000000	101.043164 
1196.000000	101.037516 
1195.000000	101.030374 
1194.000000	101.022313 
1193.000000	101.014601 
1192.000000	101.008246 
1191.000000	101.003123 
1190.000000	100.997926 
1189.000000	100.991501 
1188.000000	100.984482 
1187.000000	100.979023 
1186.000000	100.976409 
1185.000000	100.975470 
1184.000000	100.973954 
1183.000000	100.970956 
1182.000000	100.967208 
1181.000000	100.963482 
1180.000000	100.959731 
1179.000000	100.955652 
1178.000000	100.951206 
1177.000000	100.946549 
1176.000000	100.942027 
1175.000000	100.937912 
1174.000000	100.933444 
1173.000000	100.926684 
1172.000000	100.916491 
1171.000000	100.904566 
1170.000000	100.894281 
1169.000000	100.887226 
1168.000000	100.881846 
1167.000000	100.875660 
1166.000000	100.868062 
1165.000000	100.860755 
1164.000000	100.856329 
1163.000000	100.856572 
1162.000000	100.861122 
1161.000000	100.867328 
1160.000000	100.872204 
1159.000000	100.874690 
1158.000000	100.875340 
1157.000000	100.873942 
1156.000000	100.868869 
1155.000000	100.859509 
1154.000000	100.848395 
1153.000000	100.839731 
1152.000000	100.835725 
1151.000000	100.834760 
1150.000000	100.833072 
1149.000000	100.828084 
1148.000000	100.820340 
1147.000000	100.812375 
1146.000000	100.805613 
1145.000000	100.798696 
1144.000000	100.789295 
1143.000000	100.777155 
1142.000000	100.764702 
1141.000000	100.754791 
1140.000000	100.748515 
1139.000000	100.744864 
1138.000000	100.741437 
1137.000000	100.735575 
1136.000000	100.726057 
1135.000000	100.714147 
1134.000000	100.702209 
1133.000000	100.690930 
1132.000000	100.678922 
1131.000000	100.665570 
1130.000000	100.653104 
1129.000000	100.644483 
1128.000000	100.639302 
1127.000000	100.632986 
1126.000000	100.620802 
1125.000000	100.602395 
1124.000000	100.582064 
1123.000000	100.564692 
1122.000000	100.551590 
1121.000000	100.540467 
1120.000000	100.528562 
1119.000000	100.514852 
1118.000000	100.499735 
1117.000000	100.484088 
1116.000000	100.468974 
1115.000000	100.455035 
1114.000000	100.441580 
1113.000000	100.427248 
1112.000000	100.412033 
1111.000000	100.397261 
1110.000000	100.382952 
1109.000000	100.366885 
1108.000000	100.347761 
1107.000000	100.327899 
1106.000000	100.310805 
1105.000000	100.296952 
1104.000000	100.283573 
1103.000000	100.268226 
1102.000000	100.251345 
1101.000000	100.235067 
1100.000000	100.221141 
1099.000000	100.210063 
1098.000000	100.201020 
1097.000000	100.192412 
1096.000000	100.182666 
1095.000000	100.170948 
1094.000000	100.156976 
1093.000000	100.140435 
1092.000000	100.121000 
1091.000000	100.098885 
1090.000000	100.075063 
1089.000000	100.051011 
1088.000000	100.028428 
1087.000000	100.008738 
1086.000000	99.992256  
1085.000000	99.977982  
1084.000000	99.964589  
1083.000000	99.951296  
1082.000000	99.937479  
1081.000000	99.922163  
1080.000000	99.904777  
1079.000000	99.886199  
1078.000000	99.868437  
1077.000000	99.853401  
1076.000000	99.842360  
1075.000000	99.836061  
1074.000000	99.834517  
1073.000000	99.836502  
1072.000000	99.839144  
1071.000000	99.837719  
1070.000000	99.826747  
1069.000000	99.803634  
1068.000000	99.772804  
1067.000000	99.745163  
1066.000000	99.730651  
1065.000000	99.730769  
1064.000000	99.738583  
1063.000000	99.745003  
1062.000000	99.744459  
1061.000000	99.735439  
1060.000000	99.718778  
1059.000000	99.697605  
1058.000000	99.677520  
1057.000000	99.663928  
1056.000000	99.658125  
1055.000000	99.656578  
1054.000000	99.654531  
1053.000000	99.650146  
1052.000000	99.644856  
1051.000000	99.640342  
1050.000000	99.636354  
1049.000000	99.631516  
1048.000000	99.625176  
1047.000000	99.618227  
1046.000000	99.612897  
1045.000000	99.611506  
1044.000000	99.614055  
1043.000000	99.617125  
1042.000000	99.617082  
1041.000000	99.614905  
1040.000000	99.615708  
1039.000000	99.622650  
1038.000000	99.633613  
1037.000000	99.645109  
1036.000000	99.657038  
1035.000000	99.671244  
1034.000000	99.687407  
1033.000000	99.702953  
1032.000000	99.715471  
1031.000000	99.722836  
1030.000000	99.723191  
1029.000000	99.718616  
1028.000000	99.717463  
1027.000000	99.728185  
1026.000000	99.749989  
1025.000000	99.772832  
1024.000000	99.787664  
1023.000000	99.793896  
1022.000000	99.796575  
1021.000000	99.799881  
1020.000000	99.805122  
1019.000000	99.812232  
1018.000000	99.820439  
1017.000000	99.828622  
1016.000000	99.836736  
1015.000000	99.846055  
1014.000000	99.857081  
1013.000000	99.868242  
1012.000000	99.877431  
1011.000000	99.883896  
1010.000000	99.888317  
1009.000000	99.892349  
1008.000000	99.898450  
1007.000000	99.908562  
1006.000000	99.922048  
1005.000000	99.935984  
1004.000000	99.948240  
1003.000000	99.959404  
1002.000000	99.971252  
1001.000000	99.984414  
1000.000000	99.998045  
999.000000	 100.010743 
998.000000	 100.021312 
997.000000	 100.029662 
996.000000	 100.037698 
995.000000	 100.048355 
994.000000	 100.062705 
993.000000	 100.078484 
992.000000	 100.092296 
991.000000	 100.102840 
990.000000	 100.111119 
989.000000	 100.118181 
988.000000	 100.124084 
987.000000	 100.129176 
986.000000	 100.135279 
985.000000	 100.144994 
984.000000	 100.159637 
983.000000	 100.177574 
982.000000	 100.195109 
981.000000	 100.209520 
980.000000	 100.221299 
979.000000	 100.233295 
978.000000	 100.247996 
977.000000	 100.266105 
976.000000	 100.286775 
975.000000	 100.307756 
974.000000	 100.325966 
973.000000	 100.340058 
972.000000	 100.352571 
971.000000	 100.367816 
970.000000	 100.387204 
969.000000	 100.408045 
968.000000	 100.427086 
967.000000	 100.443494 
966.000000	 100.458125 
965.000000	 100.471904 
964.000000	 100.485792 
963.000000	 100.500777 
962.000000	 100.516844 
961.000000	 100.532921 
960.000000	 100.548317 
959.000000	 100.563013 
958.000000	 100.576389 
957.000000	 100.587363 
956.000000	 100.596328 
955.000000	 100.605441 
954.000000	 100.616326 
953.000000	 100.628808 
952.000000	 100.642139 
951.000000	 100.655516 
950.000000	 100.666851 
949.000000	 100.673475 
948.000000	 100.675451 
947.000000	 100.676226 
946.000000	 100.678364 
945.000000	 100.680422 
944.000000	 100.680186 
943.000000	 100.679338 
942.000000	 100.682281 
941.000000	 100.690680 
940.000000	 100.701214 
939.000000	 100.708829 
938.000000	 100.711108 
937.000000	 100.709744 
936.000000	 100.709124 
935.000000	 100.713375 
934.000000	 100.723515 
933.000000	 100.736914 
932.000000	 100.749772 
931.000000	 100.760083 
930.000000	 100.768050 
929.000000	 100.774259 
928.000000	 100.778309 
927.000000	 100.779367 
926.000000	 100.777766 
925.000000	 100.775889 
924.000000	 100.777112 
923.000000	 100.783192 
922.000000	 100.792532 
921.000000	 100.801442 
920.000000	 100.807105 
919.000000	 100.808921 
918.000000	 100.807618 
917.000000	 100.804524 
916.000000	 100.801693 
915.000000	 100.801104 
914.000000	 100.802877 
913.000000	 100.805193 
912.000000	 100.806737 
911.000000	 100.808539 
910.000000	 100.812803 
909.000000	 100.820601 
908.000000	 100.831158 
907.000000	 100.842448 
906.000000	 100.851944 
905.000000	 100.857794 
904.000000	 100.860235 
903.000000	 100.861742 
902.000000	 100.865230 
901.000000	 100.871963 
900.000000	 100.881226 
899.000000	 100.891147 
898.000000	 100.899596 
897.000000	 100.905302 
896.000000	 100.908630 
895.000000	 100.911092 
894.000000	 100.913877 
893.000000	 100.917358 
892.000000	 100.922045 
891.000000	 100.928821 
890.000000	 100.937716 
889.000000	 100.947506 
888.000000	 100.957071 
887.000000	 100.966291 
886.000000	 100.975243 
885.000000	 100.983608 
884.000000	 100.991498 
883.000000	 100.999597 
882.000000	 101.007523 
881.000000	 101.013372 
880.000000	 101.016300 
879.000000	 101.018512 
878.000000	 101.023017 
877.000000	 101.030194 
876.000000	 101.038067 
875.000000	 101.045042 
874.000000	 101.050698 
873.000000	 101.054825 
872.000000	 101.057747 
871.000000	 101.061087 
870.000000	 101.066337 
869.000000	 101.073131 
868.000000	 101.080578 
867.000000	 101.089346 
866.000000	 101.100256 
865.000000	 101.111528 
864.000000	 101.120263 
863.000000	 101.126636 
862.000000	 101.133651 
861.000000	 101.141897 
860.000000	 101.147651 
859.000000	 101.147981 
858.000000	 101.145366 
857.000000	 101.145200 
856.000000	 101.150133 
855.000000	 101.159066 
854.000000	 101.169950 
853.000000	 101.180717 
852.000000	 101.188285 
851.000000	 101.190217 
850.000000	 101.188324 
849.000000	 101.188053 
848.000000	 101.192734 
847.000000	 101.200128 
846.000000	 101.205761 
845.000000	 101.207844 
844.000000	 101.207525 
843.000000	 101.206294 
842.000000	 101.205544 
841.000000	 101.207403 
840.000000	 101.212661 
839.000000	 101.217578 
838.000000	 101.216060 
837.000000	 101.206751 
836.000000	 101.195840 
835.000000	 101.190593 
834.000000	 101.191516 
833.000000	 101.193792 
832.000000	 101.195187 
831.000000	 101.198253 
830.000000	 101.203796 
829.000000	 101.206556 
828.000000	 101.201143 
827.000000	 101.190226 
826.000000	 101.182392 
825.000000	 101.181443 
824.000000	 101.182166 
823.000000	 101.178612 
822.000000	 101.172619 
821.000000	 101.170612 
820.000000	 101.174257 
819.000000	 101.178526 
818.000000	 101.179049 
817.000000	 101.178119 
816.000000	 101.181316 
815.000000	 101.189247 
814.000000	 101.195486 
813.000000	 101.193578 
812.000000	 101.183581 
811.000000	 101.169762 
810.000000	 101.153523 
809.000000	 101.131633 
808.000000	 101.101482 
807.000000	 101.065240 
806.000000	 101.027632 
805.000000	 100.991515 
804.000000	 100.957413 
803.000000	 100.926296 
802.000000	 100.900696 
801.000000	 100.882978 
800.000000	 100.873510 
799.000000	 100.870625 
798.000000	 100.872221 
797.000000	 100.877343 
796.000000	 100.885606 
795.000000	 100.895068 
794.000000	 100.902282 
793.000000	 100.905647 
792.000000	 100.907446 
791.000000	 100.910920 
790.000000	 100.916371 
789.000000	 100.921724 
788.000000	 100.925381 
787.000000	 100.926086 
786.000000	 100.921311 
785.000000	 100.909268 
784.000000	 100.892464 
783.000000	 100.876321 
782.000000	 100.863727 
781.000000	 100.853222 
780.000000	 100.842682 
779.000000	 100.832274 
778.000000	 100.823779 
777.000000	 100.819941 
776.000000	 100.824694 
775.000000	 100.840350 
774.000000	 100.863056 
773.000000	 100.884321 
772.000000	 100.899384 
771.000000	 100.911671 
770.000000	 100.927114 
769.000000	 100.946195 
768.000000	 100.963590 
767.000000	 100.974463 
766.000000	 100.979421 
765.000000	 100.983834 
764.000000	 100.993186 
763.000000	 101.008273 
762.000000	 101.023964 
761.000000	 101.033429 
760.000000	 101.034299 
759.000000	 101.030502 
758.000000	 101.028366 
757.000000	 101.031183 
756.000000	 101.037004 
755.000000	 101.040644 
754.000000	 101.038253 
753.000000	 101.031493 
752.000000	 101.027121 
751.000000	 101.030959 
750.000000	 101.042200 
749.000000	 101.054478 
748.000000	 101.062451 
747.000000	 101.066130 
746.000000	 101.069104 
745.000000	 101.074448 
744.000000	 101.082647 
743.000000	 101.091930 
742.000000	 101.099860 
741.000000	 101.105462 
740.000000	 101.110099 
739.000000	 101.115596 
738.000000	 101.121732 
737.000000	 101.126384 
736.000000	 101.127847 
735.000000	 101.126224 
734.000000	 101.123168 
733.000000	 101.121249 
732.000000	 101.123132 
731.000000	 101.129942 
730.000000	 101.139815 
729.000000	 101.149031 
728.000000	 101.155342 
727.000000	 101.159164 
726.000000	 101.161454 
725.000000	 101.161941 
724.000000	 101.160303 
723.000000	 101.157656 
722.000000	 101.155734 
721.000000	 101.155766 
720.000000	 101.158715 
719.000000	 101.165194 
718.000000	 101.174178 
717.000000	 101.182842 
716.000000	 101.188551 
715.000000	 101.190238 
714.000000	 101.188189 
713.000000	 101.184062 
712.000000	 101.181490 
711.000000	 101.184408 
710.000000	 101.192893 
709.000000	 101.201986 
708.000000	 101.206043 
707.000000	 101.203273 
706.000000	 101.195266 
705.000000	 101.184435 
704.000000	 101.173536 
703.000000	 101.165947 
702.000000	 101.164049 
701.000000	 101.166759 
700.000000	 101.169884 
699.000000	 101.169490 
698.000000	 101.165071 
697.000000	 101.159661 
696.000000	 101.156920 
695.000000	 101.157869 
694.000000	 101.160666 
693.000000	 101.163715 
692.000000	 101.167767 
691.000000	 101.173875 
690.000000	 101.180759 
689.000000	 101.186061 
688.000000	 101.189513 
687.000000	 101.192581 
686.000000	 101.195404 
685.000000	 101.196641 
684.000000	 101.196229 
683.000000	 101.196146 
682.000000	 101.198099 
681.000000	 101.201869 
680.000000	 101.206042 
679.000000	 101.209399 
678.000000	 101.211586 
677.000000	 101.213097 
676.000000	 101.214813 
675.000000	 101.217120 
674.000000	 101.219704 
673.000000	 101.222151 
672.000000	 101.224482 
671.000000	 101.226942 
670.000000	 101.229640 
669.000000	 101.232476 
668.000000	 101.235343 
667.000000	 101.238239 
666.000000	 101.241170 
665.000000	 101.244145 
664.000000	 101.247179 
663.000000	 101.250292 
662.000000	 101.253480 
661.000000	 101.256706 
660.000000	 101.259909 
659.000000	 101.263049 
658.000000	 101.266123 
657.000000	 101.269158 
656.000000	 101.272187 
655.000000	 101.275232 
654.000000	 101.278295 
653.000000	 101.281370 
652.000000	 101.284449 
651.000000	 101.287536 
650.000000	 101.290631 

