4000.000000	100.499770 
3999.000000	100.496828 
3998.000000	100.492598 
3997.000000	100.489684 
3996.000000	100.489489 
3995.000000	100.490968 
3994.000000	100.491801 
3993.000000	100.490831 
3992.000000	100.489226 
3991.000000	100.488884 
3990.000000	100.489798 
3989.000000	100.489846 
3988.000000	100.487612 
3987.000000	100.484464 
3986.000000	100.483061 
3985.000000	100.484530 
3984.000000	100.487979 
3983.000000	100.492350 
3982.000000	100.497462 
3981.000000	100.503219 
3980.000000	100.508847 
3979.000000	100.513371 
3978.000000	100.516192 
3977.000000	100.516955 
3976.000000	100.515593 
3975.000000	100.512847 
3974.000000	100.509834 
3973.000000	100.506814 
3972.000000	100.503522 
3971.000000	100.500711 
3970.000000	100.500313 
3969.000000	100.503303 
3968.000000	100.508547 
3967.000000	100.513830 
3966.000000	100.517228 
3965.000000	100.517691 
3964.000000	100.515526 
3963.000000	100.512746 
3962.000000	100.511776 
3961.000000	100.512829 
3960.000000	100.513790 
3959.000000	100.512786 
3958.000000	100.510152 
3957.000000	100.507332 
3956.000000	100.505588 
3955.000000	100.505624 
3954.000000	100.507025 
3953.000000	100.508477 
3952.000000	100.508854 
3951.000000	100.508591 
3950.000000	100.508932 
3949.000000	100.510206 
3948.000000	100.511528 
3947.000000	100.511632 
3946.000000	100.510060 
3945.000000	100.507927 
3944.000000	100.507001 
3943.000000	100.507218 
3942.000000	100.506042 
3941.000000	100.501784 
3940.000000	100.496725 
3939.000000	100.495053 
3938.000000	100.498263 
3937.000000	100.503030 
3936.000000	100.505396 
3935.000000	100.506101 
3934.000000	100.508793 
3933.000000	100.514314 
3932.000000	100.519082 
3931.000000	100.520966 
3930.000000	100.522012 
3929.000000	100.523083 
3928.000000	100.520646 
3927.000000	100.512072 
3926.000000	100.502316 
3925.000000	100.498915 
3924.000000	100.502006 
3923.000000	100.506361 
3922.000000	100.510290 
3921.000000	100.515200 
3920.000000	100.519444 
3919.000000	100.518694 
3918.000000	100.513691 
3917.000000	100.509879 
3916.000000	100.509387 
3915.000000	100.509006 
3914.000000	100.507418 
3913.000000	100.506311 
3912.000000	100.506402 
3911.000000	100.505234 
3910.000000	100.502802 
3909.000000	100.502136 
3908.000000	100.505587 
3907.000000	100.512771 
3906.000000	100.523024 
3905.000000	100.537535 
3904.000000	100.553378 
3903.000000	100.562059 
3902.000000	100.558273 
3901.000000	100.546892 
3900.000000	100.537415 
3899.000000	100.532111 
3898.000000	100.525883 
3897.000000	100.516758 
3896.000000	100.509361 
3895.000000	100.506465 
3894.000000	100.506425 
3893.000000	100.507375 
3892.000000	100.514047 
3891.000000	100.529333 
3890.000000	100.545325 
3889.000000	100.550224 
3888.000000	100.542755 
3887.000000	100.535667 
3886.000000	100.538590 
3885.000000	100.543368 
3884.000000	100.538903 
3883.000000	100.528704 
3882.000000	100.524127 
3881.000000	100.528302 
3880.000000	100.532768 
3879.000000	100.531131 
3878.000000	100.525905 
3877.000000	100.521438 
3876.000000	100.521012 
3875.000000	100.527404 
3874.000000	100.536181 
3873.000000	100.535151 
3872.000000	100.520969 
3871.000000	100.509964 
3870.000000	100.516695 
3869.000000	100.528730 
3868.000000	100.528102 
3867.000000	100.519582 
3866.000000	100.522088 
3865.000000	100.537021 
3864.000000	100.544975 
3863.000000	100.537569 
3862.000000	100.529043 
3861.000000	100.527084 
3860.000000	100.525484 
3859.000000	100.518486 
3858.000000	100.509780 
3857.000000	100.504120 
3856.000000	100.503101 
3855.000000	100.514334 
3854.000000	100.542876 
3853.000000	100.566218 
3852.000000	100.566333 
3851.000000	100.554679 
3850.000000	100.548669 
3849.000000	100.550753 
3848.000000	100.551062 
3847.000000	100.542157 
3846.000000	100.529628 
3845.000000	100.522769 
3844.000000	100.524734 
3843.000000	100.530835 
3842.000000	100.534715 
3841.000000	100.534548 
3840.000000	100.536852 
3839.000000	100.545329 
3838.000000	100.555368 
3837.000000	100.560938 
3836.000000	100.560283 
3835.000000	100.554379 
3834.000000	100.545480 
3833.000000	100.537998 
3832.000000	100.535392 
3831.000000	100.534914 
3830.000000	100.531330 
3829.000000	100.522963 
3828.000000	100.514927 
3827.000000	100.515227 
3826.000000	100.525492 
3825.000000	100.536089 
3824.000000	100.538348 
3823.000000	100.536145 
3822.000000	100.542876 
3821.000000	100.559029 
3820.000000	100.567987 
3819.000000	100.561778 
3818.000000	100.549750 
3817.000000	100.548074 
3816.000000	100.555463 
3815.000000	100.552309 
3814.000000	100.533573 
3813.000000	100.516916 
3812.000000	100.515719 
3811.000000	100.522290 
3810.000000	100.520762 
3809.000000	100.510608 
3808.000000	100.510608 
3807.000000	100.530885 
3806.000000	100.555165 
3805.000000	100.562623 
3804.000000	100.552228 
3803.000000	100.540419 
3802.000000	100.541572 
3801.000000	100.545595 
3800.000000	100.537003 
3799.000000	100.521659 
3798.000000	100.513850 
3797.000000	100.516895 
3796.000000	100.519567 
3795.000000	100.512754 
3794.000000	100.501875 
3793.000000	100.497916 
3792.000000	100.501588 
3791.000000	100.504570 
3790.000000	100.502651 
3789.000000	100.499934 
3788.000000	100.500567 
3787.000000	100.504510 
3786.000000	100.511689 
3785.000000	100.523485 
3784.000000	100.537327 
3783.000000	100.545653 
3782.000000	100.544997 
3781.000000	100.540077 
3780.000000	100.537302 
3779.000000	100.535147 
3778.000000	100.528270 
3777.000000	100.516742 
3776.000000	100.507792 
3775.000000	100.506915 
3774.000000	100.510882 
3773.000000	100.512200 
3772.000000	100.510790 
3771.000000	100.514253 
3770.000000	100.524476 
3769.000000	100.533115 
3768.000000	100.534687 
3767.000000	100.533392 
3766.000000	100.535807 
3765.000000	100.541124 
3764.000000	100.541988 
3763.000000	100.536255 
3762.000000	100.532586 
3761.000000	100.538072 
3760.000000	100.546717 
3759.000000	100.548361 
3758.000000	100.547808 
3757.000000	100.554277 
3756.000000	100.563662 
3755.000000	100.566739 
3754.000000	100.565289 
3753.000000	100.569929 
3752.000000	100.581066 
3751.000000	100.588886 
3750.000000	100.595404 
3749.000000	100.608684 
3748.000000	100.618911 
3747.000000	100.609712 
3746.000000	100.588226 
3745.000000	100.580984 
3744.000000	100.583607 
3743.000000	100.572777 
3742.000000	100.554279 
3741.000000	100.548431 
3740.000000	100.558205 
3739.000000	100.565189 
3738.000000	100.558651 
3737.000000	100.552820 
3736.000000	100.560447 
3735.000000	100.570254 
3734.000000	100.568425 
3733.000000	100.563459 
3732.000000	100.567215 
3731.000000	100.574471 
3730.000000	100.573815 
3729.000000	100.564468 
3728.000000	100.555647 
3727.000000	100.553619 
3726.000000	100.553456 
3725.000000	100.550423 
3724.000000	100.548677 
3723.000000	100.551515 
3722.000000	100.554285 
3721.000000	100.552009 
3720.000000	100.547573 
3719.000000	100.546018 
3718.000000	100.549222 
3717.000000	100.552884 
3716.000000	100.549513 
3715.000000	100.537476 
3714.000000	100.522936 
3713.000000	100.512929 
3712.000000	100.508792 
3711.000000	100.507657 
3710.000000	100.508052 
3709.000000	100.508050 
3708.000000	100.504965 
3707.000000	100.497656 
3706.000000	100.486306 
3705.000000	100.472480 
3704.000000	100.459374 
3703.000000	100.450394 
3702.000000	100.446973 
3701.000000	100.447204 
3700.000000	100.446772 
3699.000000	100.442008 
3698.000000	100.433816 
3697.000000	100.425966 
3696.000000	100.418350 
3695.000000	100.409523 
3694.000000	100.402791 
3693.000000	100.401654 
3692.000000	100.403191 
3691.000000	100.401845 
3690.000000	100.399676 
3689.000000	100.402169 
3688.000000	100.407345 
3687.000000	100.407873 
3686.000000	100.401583 
3685.000000	100.394872 
3684.000000	100.393146 
3683.000000	100.392675 
3682.000000	100.387688 
3681.000000	100.382977 
3680.000000	100.384829 
3679.000000	100.385145 
3678.000000	100.369157 
3677.000000	100.345358 
3676.000000	100.341355 
3675.000000	100.359226 
3674.000000	100.377604 
3673.000000	100.385182 
3672.000000	100.388629 
3671.000000	100.396877 
3670.000000	100.402498 
3669.000000	100.392368 
3668.000000	100.372674 
3667.000000	100.357218 
3666.000000	100.348298 
3665.000000	100.340937 
3664.000000	100.332793 
3663.000000	100.326564 
3662.000000	100.326749 
3661.000000	100.334604 
3660.000000	100.345067 
3659.000000	100.352392 
3658.000000	100.355817 
3657.000000	100.361673 
3656.000000	100.373038 
3655.000000	100.385868 
3654.000000	100.397309 
3653.000000	100.409929 
3652.000000	100.427882 
3651.000000	100.447577 
3650.000000	100.455275 
3649.000000	100.445381 
3648.000000	100.431288 
3647.000000	100.424357 
3646.000000	100.421803 
3645.000000	100.418185 
3644.000000	100.414106 
3643.000000	100.411970 
3642.000000	100.410930 
3641.000000	100.408144 
3640.000000	100.405370 
3639.000000	100.409424 
3638.000000	100.422193 
3637.000000	100.436515 
3636.000000	100.444861 
3635.000000	100.449174 
3634.000000	100.455454 
3633.000000	100.463224 
3632.000000	100.467742 
3631.000000	100.470895 
3630.000000	100.481934 
3629.000000	100.497187 
3628.000000	100.499709 
3627.000000	100.488726 
3626.000000	100.478736 
3625.000000	100.477370 
3624.000000	100.479763 
3623.000000	100.476857 
3622.000000	100.467101 
3621.000000	100.458939 
3620.000000	100.460243 
3619.000000	100.469688 
3618.000000	100.482147 
3617.000000	100.494249 
3616.000000	100.502682 
3615.000000	100.505877 
3614.000000	100.505052 
3613.000000	100.501482 
3612.000000	100.495295 
3611.000000	100.487705 
3610.000000	100.481444 
3609.000000	100.478270 
3608.000000	100.477143 
3607.000000	100.476579 
3606.000000	100.477539 
3605.000000	100.480464 
3604.000000	100.482486 
3603.000000	100.480276 
3602.000000	100.474599 
3601.000000	100.471241 
3600.000000	100.474048 
3599.000000	100.482301 
3598.000000	100.492502 
3597.000000	100.500336 
3596.000000	100.501388 
3595.000000	100.496346 
3594.000000	100.490912 
3593.000000	100.491817 
3592.000000	100.501597 
3591.000000	100.516714 
3590.000000	100.530462 
3589.000000	100.537593 
3588.000000	100.536212 
3587.000000	100.527984 
3586.000000	100.517748 
3585.000000	100.509886 
3584.000000	100.504337 
3583.000000	100.497993 
3582.000000	100.488134 
3581.000000	100.475513 
3580.000000	100.463134 
3579.000000	100.453533 
3578.000000	100.447266 
3577.000000	100.443778 
3576.000000	100.442785 
3575.000000	100.444689 
3574.000000	100.450349 
3573.000000	100.459834 
3572.000000	100.472207 
3571.000000	100.484571 
3570.000000	100.492861 
3569.000000	100.494580 
3568.000000	100.490552 
3567.000000	100.484330 
3566.000000	100.481135 
3565.000000	100.483965 
3564.000000	100.490106 
3563.000000	100.493297 
3562.000000	100.489697 
3561.000000	100.481088 
3560.000000	100.472798 
3559.000000	100.467987 
3558.000000	100.465652 
3557.000000	100.463256 
3556.000000	100.459972 
3555.000000	100.457040 
3554.000000	100.456772 
3553.000000	100.460549 
3552.000000	100.467090 
3551.000000	100.473242 
3550.000000	100.476654 
3549.000000	100.477249 
3548.000000	100.476010 
3547.000000	100.473569 
3546.000000	100.470767 
3545.000000	100.469007 
3544.000000	100.468785 
3543.000000	100.468900 
3542.000000	100.468029 
3541.000000	100.466032 
3540.000000	100.463588 
3539.000000	100.461380 
3538.000000	100.459801 
3537.000000	100.458823 
3536.000000	100.457527 
3535.000000	100.455267 
3534.000000	100.452597 
3533.000000	100.451117 
3532.000000	100.451570 
3531.000000	100.453273 
3530.000000	100.455511 
3529.000000	100.458775 
3528.000000	100.463689 
3527.000000	100.469284 
3526.000000	100.473269 
3525.000000	100.473660 
3524.000000	100.469878 
3523.000000	100.463118 
3522.000000	100.455980 
3521.000000	100.450851 
3520.000000	100.448175 
3519.000000	100.446821 
3518.000000	100.445375 
3517.000000	100.443286 
3516.000000	100.441078 
3515.000000	100.440425 
3514.000000	100.442861 
3513.000000	100.448116 
3512.000000	100.453586 
3511.000000	100.455958 
3510.000000	100.453976 
3509.000000	100.449851 
3508.000000	100.447357 
3507.000000	100.448425 
3506.000000	100.451528 
3505.000000	100.452901 
3504.000000	100.449473 
3503.000000	100.442258 
3502.000000	100.436686 
3501.000000	100.438097 
3500.000000	100.446179 
3499.000000	100.454736 
3498.000000	100.456993 
3497.000000	100.451118 
3496.000000	100.441446 
3495.000000	100.434810 
3494.000000	100.435151 
3493.000000	100.440626 
3492.000000	100.445568 
3491.000000	100.445407 
3490.000000	100.440115 
3489.000000	100.433522 
3488.000000	100.429497 
3487.000000	100.428960 
3486.000000	100.430295 
3485.000000	100.431865 
3484.000000	100.433618 
3483.000000	100.436496 
3482.000000	100.440301 
3481.000000	100.442603 
3480.000000	100.440706 
3479.000000	100.434948 
3478.000000	100.429040 
3477.000000	100.426256 
3476.000000	100.425913 
3475.000000	100.424613 
3474.000000	100.420915 
3473.000000	100.417117 
3472.000000	100.416293 
3471.000000	100.418983 
3470.000000	100.423385 
3469.000000	100.427666 
3468.000000	100.430989 
3467.000000	100.432606 
3466.000000	100.431396 
3465.000000	100.426972 
3464.000000	100.420636 
3463.000000	100.414623 
3462.000000	100.410347 
3461.000000	100.407614 
3460.000000	100.405438 
3459.000000	100.403439 
3458.000000	100.402216 
3457.000000	100.402484 
3456.000000	100.403785 
3455.000000	100.404670 
3454.000000	100.404359 
3453.000000	100.404117 
3452.000000	100.405806 
3451.000000	100.409580 
3450.000000	100.413989 
3449.000000	100.417915 
3448.000000	100.421036 
3447.000000	100.422475 
3446.000000	100.421120 
3445.000000	100.417755 
3444.000000	100.415137 
3443.000000	100.415060 
3442.000000	100.416386 
3441.000000	100.416952 
3440.000000	100.416531 
3439.000000	100.416667 
3438.000000	100.417890 
3437.000000	100.418645 
3436.000000	100.417194 
3435.000000	100.413924 
3434.000000	100.411270 
3433.000000	100.411588 
3432.000000	100.414689 
3431.000000	100.417717 
3430.000000	100.417700 
3429.000000	100.413938 
3428.000000	100.407971 
3427.000000	100.401815 
3426.000000	100.396858 
3425.000000	100.393819 
3424.000000	100.392955 
3423.000000	100.394258 
3422.000000	100.397486 
3421.000000	100.401764 
3420.000000	100.405252 
3419.000000	100.406259 
3418.000000	100.405019 
3417.000000	100.403583 
3416.000000	100.403411 
3415.000000	100.403735 
3414.000000	100.402973 
3413.000000	100.401072 
3412.000000	100.399580 
3411.000000	100.399812 
3410.000000	100.401783 
3409.000000	100.404466 
3408.000000	100.406221 
3407.000000	100.405400 
3406.000000	100.401608 
3405.000000	100.396598 
3404.000000	100.393384 
3403.000000	100.394203 
3402.000000	100.398881 
3401.000000	100.404964 
3400.000000	100.409571 
3399.000000	100.411679 
3398.000000	100.412693 
3397.000000	100.414413 
3396.000000	100.416739 
3395.000000	100.417987 
3394.000000	100.417349 
3393.000000	100.415921 
3392.000000	100.414958 
3391.000000	100.414086 
3390.000000	100.412120 
3389.000000	100.409042 
3388.000000	100.406176 
3387.000000	100.404637 
3386.000000	100.404364 
3385.000000	100.404760 
3384.000000	100.405601 
3383.000000	100.407081 
3382.000000	100.409048 
3381.000000	100.410497 
3380.000000	100.409949 
3379.000000	100.406760 
3378.000000	100.402310 
3377.000000	100.399600 
3376.000000	100.401193 
3375.000000	100.407224 
3374.000000	100.415488 
3373.000000	100.423295 
3372.000000	100.429025 
3371.000000	100.432071 
3370.000000	100.432150 
3369.000000	100.429453 
3368.000000	100.425133 
3367.000000	100.420712 
3366.000000	100.416738 
3365.000000	100.412666 
3364.000000	100.408355 
3363.000000	100.405149 
3362.000000	100.404819 
3361.000000	100.407396 
3360.000000	100.410560 
3359.000000	100.411601 
3358.000000	100.410071 
3357.000000	100.408328 
3356.000000	100.409290 
3355.000000	100.413565 
3354.000000	100.418836 
3353.000000	100.422045 
3352.000000	100.422067 
3351.000000	100.420363 
3350.000000	100.419418 
3349.000000	100.420849 
3348.000000	100.424665 
3347.000000	100.429621 
3346.000000	100.433994 
3345.000000	100.436443 
3344.000000	100.436512 
3343.000000	100.434492 
3342.000000	100.430946 
3341.000000	100.426816 
3340.000000	100.423900 
3339.000000	100.424108 
3338.000000	100.427391 
3337.000000	100.430881 
3336.000000	100.431226 
3335.000000	100.428124 
3334.000000	100.424880 
3333.000000	100.425189 
3332.000000	100.429643 
3331.000000	100.435461 
3330.000000	100.439313 
3329.000000	100.440202 
3328.000000	100.439823 
3327.000000	100.440414 
3326.000000	100.442347 
3325.000000	100.444066 
3324.000000	100.444372 
3323.000000	100.444236 
3322.000000	100.445469 
3321.000000	100.447883 
3320.000000	100.448892 
3319.000000	100.446389 
3318.000000	100.441354 
3317.000000	100.437118 
3316.000000	100.436407 
3315.000000	100.439324 
3314.000000	100.443597 
3313.000000	100.446436 
3312.000000	100.446706 
3311.000000	100.445853 
3310.000000	100.446425 
3309.000000	100.449406 
3308.000000	100.453447 
3307.000000	100.456816 
3306.000000	100.459100 
3305.000000	100.460247 
3304.000000	100.459123 
3303.000000	100.454668 
3302.000000	100.448354 
3301.000000	100.444043 
3300.000000	100.444578 
3299.000000	100.449056 
3298.000000	100.453727 
3297.000000	100.455302 
3296.000000	100.453383 
3295.000000	100.450297 
3294.000000	100.448915 
3293.000000	100.450413 
3292.000000	100.453803 
3291.000000	100.457300 
3290.000000	100.459795 
3289.000000	100.461063 
3288.000000	100.461363 
3287.000000	100.461442 
3286.000000	100.462351 
3285.000000	100.464248 
3284.000000	100.465745 
3283.000000	100.465392 
3282.000000	100.463552 
3281.000000	100.461724 
3280.000000	100.460262 
3279.000000	100.458039 
3278.000000	100.454575 
3277.000000	100.451373 
3276.000000	100.450490 
3275.000000	100.452470 
3274.000000	100.456123 
3273.000000	100.459623 
3272.000000	100.461299 
3271.000000	100.460127 
3270.000000	100.456460 
3269.000000	100.452281 
3268.000000	100.450159 
3267.000000	100.451748 
3266.000000	100.457110 
3265.000000	100.464847 
3264.000000	100.472765 
3263.000000	100.479015 
3262.000000	100.483026 
3261.000000	100.485213 
3260.000000	100.485896 
3259.000000	100.484762 
3258.000000	100.481462 
3257.000000	100.476458 
3256.000000	100.471045 
3255.000000	100.466911 
3254.000000	100.465720 
3253.000000	100.468368 
3252.000000	100.473857 
3251.000000	100.479171 
3250.000000	100.481098 
3249.000000	100.478725 
3248.000000	100.474159 
3247.000000	100.470591 
3246.000000	100.469539 
3245.000000	100.469898 
3244.000000	100.469807 
3243.000000	100.469429 
3242.000000	100.471348 
3241.000000	100.477616 
3240.000000	100.486488 
3239.000000	100.492776 
3238.000000	100.492281 
3237.000000	100.485978 
3236.000000	100.479278 
3235.000000	100.476941 
3234.000000	100.479124 
3233.000000	100.482602 
3232.000000	100.485020 
3231.000000	100.486979 
3230.000000	100.489886 
3229.000000	100.492959 
3228.000000	100.493310 
3227.000000	100.488769 
3226.000000	100.480112 
3225.000000	100.470626 
3224.000000	100.463992 
3223.000000	100.462437 
3222.000000	100.465947 
3221.000000	100.472598 
3220.000000	100.479809 
3219.000000	100.485516 
3218.000000	100.488389 
3217.000000	100.487724 
3216.000000	100.484047 
3215.000000	100.479618 
3214.000000	100.477347 
3213.000000	100.478749 
3212.000000	100.483202 
3211.000000	100.489234 
3210.000000	100.495888 
3209.000000	100.502514 
3208.000000	100.507979 
3207.000000	100.510992 
3206.000000	100.511313 
3205.000000	100.510167 
3204.000000	100.509350 
3203.000000	100.509959 
3202.000000	100.511902 
3201.000000	100.514345 
3200.000000	100.516546 
3199.000000	100.518097 
3198.000000	100.518522 
3197.000000	100.517251 
3196.000000	100.514501 
3195.000000	100.511767 
3194.000000	100.510516 
3193.000000	100.510416 
3192.000000	100.509783 
3191.000000	100.508060 
3190.000000	100.506842 
3189.000000	100.507728 
3188.000000	100.510040 
3187.000000	100.511621 
3186.000000	100.511428 
3185.000000	100.510326 
3184.000000	100.509582 
3183.000000	100.509486 
3182.000000	100.509584 
3181.000000	100.509489 
3180.000000	100.509055 
3179.000000	100.508248 
3178.000000	100.507121 
3177.000000	100.505568 
3176.000000	100.503154 
3175.000000	100.499955 
3174.000000	100.497726 
3173.000000	100.499186 
3172.000000	100.505143 
3171.000000	100.512744 
3170.000000	100.517579 
3169.000000	100.517782 
3168.000000	100.515584 
3167.000000	100.514725 
3166.000000	100.516861 
3165.000000	100.520723 
3164.000000	100.524078 
3163.000000	100.525792 
3162.000000	100.526345 
3161.000000	100.527220 
3160.000000	100.529768 
3159.000000	100.533925 
3158.000000	100.537690 
3157.000000	100.538453 
3156.000000	100.535497 
3155.000000	100.531138 
3154.000000	100.528932 
3153.000000	100.530570 
3152.000000	100.534578 
3151.000000	100.537901 
3150.000000	100.538479 
3149.000000	100.536545 
3148.000000	100.534105 
3147.000000	100.533303 
3146.000000	100.534663 
3145.000000	100.536535 
3144.000000	100.536740 
3143.000000	100.535270 
3142.000000	100.534842 
3141.000000	100.538013 
3140.000000	100.543957 
3139.000000	100.548878 
3138.000000	100.549612 
3137.000000	100.546429 
3136.000000	100.542346 
3135.000000	100.540198 
3134.000000	100.540518 
3133.000000	100.541962 
3132.000000	100.543405 
3131.000000	100.545217 
3130.000000	100.548190 
3129.000000	100.551580 
3128.000000	100.553094 
3127.000000	100.551311 
3126.000000	100.547723 
3125.000000	100.545543 
3124.000000	100.546290 
3123.000000	100.548198 
3122.000000	100.548424 
3121.000000	100.546251 
3120.000000	100.543648 
3119.000000	100.543052 
3118.000000	100.544895 
3117.000000	100.547249 
3116.000000	100.547746 
3115.000000	100.545775 
3114.000000	100.542722 
3113.000000	100.540128 
3112.000000	100.538044 
3111.000000	100.535677 
3110.000000	100.533269 
3109.000000	100.532294 
3108.000000	100.533428 
3107.000000	100.535228 
3106.000000	100.535738 
3105.000000	100.534955 
3104.000000	100.534890 
3103.000000	100.537589 
3102.000000	100.543751 
3101.000000	100.552356 
3100.000000	100.560689 
3099.000000	100.565347 
3098.000000	100.564617 
3097.000000	100.560178 
3096.000000	100.555795 
3095.000000	100.554058 
3094.000000	100.554688 
3093.000000	100.555818 
3092.000000	100.556032 
3091.000000	100.554979 
3090.000000	100.552940 
3089.000000	100.550697 
3088.000000	100.549657 
3087.000000	100.551255 
3086.000000	100.555536 
3085.000000	100.560372 
3084.000000	100.562796 
3083.000000	100.561713 
3082.000000	100.559186 
3081.000000	100.558392 
3080.000000	100.560233 
3079.000000	100.562456 
3078.000000	100.562060 
3077.000000	100.558110 
3076.000000	100.552235 
3075.000000	100.547150 
3074.000000	100.545000 
3073.000000	100.546471 
3072.000000	100.550712 
3071.000000	100.556162 
3070.000000	100.561436 
3069.000000	100.565052 
3068.000000	100.564904 
3067.000000	100.559586 
3066.000000	100.550772 
3065.000000	100.542969 
3064.000000	100.539790 
3063.000000	100.541087 
3062.000000	100.544247 
3061.000000	100.547228 
3060.000000	100.549561 
3059.000000	100.551501 
3058.000000	100.553496 
3057.000000	100.556070 
3056.000000	100.559161 
3055.000000	100.561853 
3054.000000	100.563391 
3053.000000	100.563915 
3052.000000	100.563370 
3051.000000	100.560614 
3050.000000	100.554984 
3049.000000	100.548184 
3048.000000	100.543050 
3047.000000	100.540353 
3046.000000	100.538164 
3045.000000	100.534680 
3044.000000	100.530518 
3043.000000	100.527581 
3042.000000	100.526409 
3041.000000	100.525403 
3040.000000	100.522562 
3039.000000	100.517568 
3038.000000	100.512202 
3037.000000	100.508654 
3036.000000	100.507208 
3035.000000	100.505809 
3034.000000	100.502148 
3033.000000	100.495966 
3032.000000	100.488848 
3031.000000	100.481884 
3030.000000	100.474252 
3029.000000	100.464304 
3028.000000	100.451482 
3027.000000	100.436966 
3026.000000	100.422890 
3025.000000	100.411018 
3024.000000	100.401531 
3023.000000	100.392706 
3022.000000	100.382198 
3021.000000	100.369028 
3020.000000	100.354241 
3019.000000	100.339680 
3018.000000	100.326420 
3017.000000	100.314256 
3016.000000	100.302100 
3015.000000	100.288664 
3014.000000	100.273147 
3013.000000	100.255534 
3012.000000	100.236119 
3011.000000	100.214819 
3010.000000	100.191500 
3009.000000	100.167211 
3008.000000	100.144594 
3007.000000	100.126413 
3006.000000	100.113414 
3005.000000	100.103529 
3004.000000	100.092997 
3003.000000	100.078448 
3002.000000	100.058788 
3001.000000	100.035906 
3000.000000	100.013501 
2999.000000	99.994532  
2998.000000	99.979482  
2997.000000	99.967383  
2996.000000	99.958121  
2995.000000	99.951978  
2994.000000	99.945859  
2993.000000	99.931864  
2992.000000	99.903099  
2991.000000	99.862210  
2990.000000	99.822184  
2989.000000	99.796576  
2988.000000	99.789146  
2987.000000	99.793782  
2986.000000	99.802715  
2985.000000	99.812424  
2984.000000	99.822313  
2983.000000	99.831282  
2982.000000	99.837522  
2981.000000	99.840276  
2980.000000	99.840246  
2979.000000	99.838709  
2978.000000	99.836932  
2977.000000	99.835639  
2976.000000	99.834137  
2975.000000	99.830638  
2974.000000	99.824446  
2973.000000	99.817469  
2972.000000	99.812829  
2971.000000	99.812281  
2970.000000	99.815556  
2969.000000	99.821684  
2968.000000	99.830111  
2967.000000	99.840747  
2966.000000	99.853605  
2965.000000	99.868341  
2964.000000	99.883769  
2963.000000	99.898092  
2962.000000	99.910103  
2961.000000	99.920028  
2960.000000	99.928897  
2959.000000	99.937524  
2958.000000	99.946405  
2957.000000	99.955897  
2956.000000	99.965594  
2955.000000	99.973981  
2954.000000	99.979960  
2953.000000	99.985022  
2952.000000	99.992977  
2951.000000	100.006587 
2950.000000	100.024310 
2949.000000	100.040682 
2948.000000	100.050403 
2947.000000	100.052485 
2946.000000	100.050630 
2945.000000	100.049518 
2944.000000	100.050998 
2943.000000	100.053996 
2942.000000	100.057129 
2941.000000	100.059879 
2940.000000	100.061218 
2939.000000	100.059041 
2938.000000	100.052412 
2937.000000	100.043683 
2936.000000	100.037009 
2935.000000	100.034701 
2934.000000	100.035550 
2933.000000	100.036338 
2932.000000	100.034313 
2931.000000	100.028640 
2930.000000	100.020468 
2929.000000	100.011839 
2928.000000	100.004244 
2927.000000	99.998214  
2926.000000	99.994001  
2925.000000	99.991627  
2924.000000	99.989979  
2923.000000	99.987210  
2922.000000	99.983110  
2921.000000	99.980246  
2920.000000	99.981478  
2919.000000	99.986714  
2918.000000	99.992972  
2917.000000	99.997118  
2916.000000	99.997639  
2915.000000	99.994518  
2914.000000	99.989036  
2913.000000	99.983754  
2912.000000	99.981110  
2911.000000	99.981217  
2910.000000	99.981690  
2909.000000	99.980092  
2908.000000	99.976239  
2907.000000	99.971794  
2906.000000	99.967647  
2905.000000	99.962015  
2904.000000	99.951599  
2903.000000	99.935773  
2902.000000	99.919802  
2901.000000	99.913158  
2900.000000	99.922569  
2899.000000	99.945980  
2898.000000	99.973812  
2897.000000	99.996108  
2896.000000	100.008888 
2895.000000	100.014870 
2894.000000	100.019449 
2893.000000	100.025974 
2892.000000	100.033812 
2891.000000	100.040108 
2890.000000	100.043146 
2889.000000	100.043795 
2888.000000	100.043926 
2887.000000	100.044589 
2886.000000	100.046430 
2885.000000	100.050831 
2884.000000	100.059095 
2883.000000	100.070649 
2882.000000	100.083281 
2881.000000	100.095424 
2880.000000	100.107458 
2879.000000	100.120796 
2878.000000	100.136358 
2877.000000	100.153687 
2876.000000	100.170565 
2875.000000	100.183578 
2874.000000	100.190311 
2873.000000	100.191728 
2872.000000	100.191989 
2871.000000	100.195579 
2870.000000	100.204528 
2869.000000	100.217664 
2868.000000	100.231725 
2867.000000	100.243676 
2866.000000	100.253281 
2865.000000	100.263448 
2864.000000	100.276837 
2863.000000	100.291963 
2862.000000	100.303941 
2861.000000	100.309593 
2860.000000	100.310865 
2859.000000	100.312663 
2858.000000	100.318247 
2857.000000	100.327374 
2856.000000	100.337877 
2855.000000	100.348025 
2854.000000	100.357548 
2853.000000	100.367181 
2852.000000	100.377553 
2851.000000	100.388585 
2850.000000	100.400004 
2849.000000	100.411958 
2848.000000	100.424582 
2847.000000	100.437219 
2846.000000	100.448759 
2845.000000	100.458548 
2844.000000	100.466299 
2843.000000	100.471578 
2842.000000	100.474608 
2841.000000	100.477463 
2840.000000	100.482858 
2839.000000	100.491066 
2838.000000	100.499005 
2837.000000	100.503120 
2836.000000	100.502682 
2835.000000	100.500159 
2834.000000	100.499287 
2833.000000	100.502980 
2832.000000	100.511626 
2831.000000	100.522357 
2830.000000	100.530821 
2829.000000	100.534879 
2828.000000	100.536317 
2827.000000	100.538305 
2826.000000	100.541783 
2825.000000	100.545172 
2824.000000	100.547036 
2823.000000	100.547819 
2822.000000	100.548976 
2821.000000	100.551357 
2820.000000	100.554717 
2819.000000	100.558226 
2818.000000	100.561138 
2817.000000	100.563219 
2816.000000	100.564668 
2815.000000	100.565689 
2814.000000	100.566355 
2813.000000	100.566909 
2812.000000	100.567710 
2811.000000	100.568550 
2810.000000	100.568490 
2809.000000	100.566982 
2808.000000	100.564933 
2807.000000	100.564126 
2806.000000	100.565542 
2805.000000	100.568623 
2804.000000	100.572151 
2803.000000	100.575547 
2802.000000	100.579135 
2801.000000	100.583222 
2800.000000	100.587093 
2799.000000	100.589237 
2798.000000	100.588868 
2797.000000	100.587024 
2796.000000	100.585624 
2795.000000	100.585455 
2794.000000	100.585640 
2793.000000	100.585106 
2792.000000	100.583828 
2791.000000	100.582435 
2790.000000	100.581491 
2789.000000	100.581647 
2788.000000	100.583627 
2787.000000	100.587212 
2786.000000	100.590814 
2785.000000	100.593053 
2784.000000	100.594453 
2783.000000	100.596578 
2782.000000	100.599646 
2781.000000	100.602036 
2780.000000	100.602342 
2779.000000	100.601012 
2778.000000	100.599586 
2777.000000	100.599059 
2776.000000	100.599365 
2775.000000	100.599837 
2774.000000	100.599668 
2773.000000	100.598397 
2772.000000	100.596519 
2771.000000	100.595320 
2770.000000	100.595708 
2769.000000	100.597475 
2768.000000	100.600012 
2767.000000	100.603103 
2766.000000	100.606311 
2765.000000	100.608140 
2764.000000	100.607188 
2763.000000	100.604410 
2762.000000	100.603149 
2761.000000	100.606113 
2760.000000	100.612665 
2759.000000	100.619476 
2758.000000	100.623421 
2757.000000	100.623579 
2756.000000	100.621260 
2755.000000	100.618917 
2754.000000	100.618528 
2753.000000	100.619942 
2752.000000	100.620828 
2751.000000	100.619093 
2750.000000	100.615320 
2749.000000	100.612095 
2748.000000	100.610997 
2747.000000	100.611248 
2746.000000	100.611372 
2745.000000	100.611028 
2744.000000	100.610737 
2743.000000	100.610867 
2742.000000	100.611725 
2741.000000	100.613896 
2740.000000	100.617474 
2739.000000	100.621284 
2738.000000	100.623771 
2737.000000	100.624618 
2736.000000	100.624877 
2735.000000	100.625548 
2734.000000	100.626513 
2733.000000	100.626842 
2732.000000	100.625840 
2731.000000	100.623888 
2730.000000	100.622469 
2729.000000	100.623136 
2728.000000	100.626105 
2727.000000	100.630039 
2726.000000	100.633288 
2725.000000	100.635051 
2724.000000	100.635407 
2723.000000	100.634984 
2722.000000	100.634956 
2721.000000	100.636490 
2720.000000	100.639406 
2719.000000	100.641830 
2718.000000	100.641890 
2717.000000	100.639595 
2716.000000	100.636799 
2715.000000	100.635835 
2714.000000	100.638349 
2713.000000	100.644278 
2712.000000	100.651004 
2711.000000	100.654548 
2710.000000	100.653213 
2709.000000	100.649734 
2708.000000	100.648400 
2707.000000	100.650130 
2706.000000	100.651661 
2705.000000	100.649733 
2704.000000	100.644737 
2703.000000	100.639811 
2702.000000	100.637476 
2701.000000	100.637792 
2700.000000	100.639097 
2699.000000	100.639737 
2698.000000	100.639265 
2697.000000	100.638390 
2696.000000	100.637931 
2695.000000	100.638093 
2694.000000	100.638898 
2693.000000	100.640577 
2692.000000	100.642693 
2691.000000	100.643464 
2690.000000	100.641376 
2689.000000	100.637669 
2688.000000	100.635931 
2687.000000	100.638536 
2686.000000	100.644186 
2685.000000	100.649463 
2684.000000	100.652231 
2683.000000	100.653024 
2682.000000	100.653588 
2681.000000	100.654779 
2680.000000	100.655881 
2679.000000	100.655680 
2678.000000	100.654079 
2677.000000	100.652438 
2676.000000	100.652085 
2675.000000	100.652754 
2674.000000	100.652966 
2673.000000	100.651806 
2672.000000	100.649763 
2671.000000	100.647888 
2670.000000	100.646695 
2669.000000	100.645957 
2668.000000	100.645131 
2667.000000	100.643948 
2666.000000	100.642903 
2665.000000	100.643027 
2664.000000	100.644827 
2663.000000	100.647803 
2662.000000	100.651432 
2661.000000	100.655992 
2660.000000	100.661477 
2659.000000	100.666165 
2658.000000	100.667715 
2657.000000	100.666000 
2656.000000	100.663810 
2655.000000	100.664261 
2654.000000	100.667940 
2653.000000	100.672541 
2652.000000	100.674655 
2651.000000	100.672193 
2650.000000	100.666305 
2649.000000	100.661056 
2648.000000	100.660058 
2647.000000	100.663043 
2646.000000	100.666574 
2645.000000	100.668111 
2644.000000	100.668116 
2643.000000	100.668058 
2642.000000	100.668180 
2641.000000	100.668148 
2640.000000	100.668571 
2639.000000	100.670547 
2638.000000	100.674295 
2637.000000	100.678934 
2636.000000	100.682894 
2635.000000	100.684176 
2634.000000	100.681592 
2633.000000	100.676710 
2632.000000	100.673391 
2631.000000	100.674056 
2630.000000	100.677082 
2629.000000	100.678925 
2628.000000	100.678050 
2627.000000	100.675765 
2626.000000	100.674222 
2625.000000	100.675056 
2624.000000	100.679023 
2623.000000	100.685002 
2622.000000	100.689527 
2621.000000	100.689340 
2620.000000	100.684959 
2619.000000	100.680500 
2618.000000	100.679449 
2617.000000	100.681457 
2616.000000	100.683590 
2615.000000	100.683753 
2614.000000	100.682315 
2613.000000	100.681077 
2612.000000	100.681392 
2611.000000	100.683249 
2610.000000	100.685819 
2609.000000	100.688589 
2608.000000	100.691711 
2607.000000	100.695448 
2606.000000	100.699884 
2605.000000	100.705184 
2604.000000	100.711007 
2603.000000	100.715238 
2602.000000	100.714762 
2601.000000	100.709017 
2600.000000	100.702027 
2599.000000	100.699153 
2598.000000	100.701811 
2597.000000	100.706653 
2596.000000	100.709579 
2595.000000	100.708905 
2594.000000	100.704793 
2593.000000	100.698197 
2592.000000	100.691628 
2591.000000	100.688990 
2590.000000	100.692402 
2589.000000	100.699690 
2588.000000	100.706530 
2587.000000	100.710522 
2586.000000	100.711622 
2585.000000	100.709408 
2584.000000	100.702759 
2583.000000	100.693138 
2582.000000	100.685764 
2581.000000	100.685222 
2580.000000	100.690482 
2579.000000	100.695926 
2578.000000	100.697086 
2577.000000	100.694199 
2576.000000	100.690622 
2575.000000	100.689513 
2574.000000	100.692176 
2573.000000	100.697700 
2572.000000	100.703125 
2571.000000	100.705094 
2570.000000	100.702596 
2569.000000	100.697796 
2568.000000	100.693687 
2567.000000	100.691527 
2566.000000	100.690937 
2565.000000	100.691381 
2564.000000	100.692435 
2563.000000	100.693163 
2562.000000	100.692549 
2561.000000	100.690846 
2560.000000	100.690029 
2559.000000	100.692504 
2558.000000	100.698792 
2557.000000	100.705927 
2556.000000	100.708952 
2555.000000	100.705771 
2554.000000	100.700515 
2553.000000	100.699926 
2552.000000	100.705656 
2551.000000	100.712316 
2550.000000	100.714406 
2549.000000	100.712715 
2548.000000	100.711618 
2547.000000	100.712259 
2546.000000	100.711991 
2545.000000	100.709743 
2544.000000	100.708134 
2543.000000	100.709591 
2542.000000	100.713257 
2541.000000	100.716836 
2540.000000	100.719275 
2539.000000	100.720293 
2538.000000	100.718828 
2537.000000	100.713450 
2536.000000	100.704018 
2535.000000	100.692722 
2534.000000	100.684001 
2533.000000	100.682529 
2532.000000	100.689185 
2531.000000	100.699003 
2530.000000	100.705194 
2529.000000	100.705771 
2528.000000	100.704598 
2527.000000	100.705823 
2526.000000	100.709651 
2525.000000	100.714289 
2524.000000	100.719223 
2523.000000	100.724486 
2522.000000	100.728440 
2521.000000	100.728828 
2520.000000	100.725718 
2519.000000	100.721677 
2518.000000	100.718982 
2517.000000	100.717655 
2516.000000	100.716263 
2515.000000	100.714067 
2514.000000	100.712182 
2513.000000	100.712309 
2512.000000	100.713885 
2511.000000	100.713386 
2510.000000	100.708245 
2509.000000	100.701299 
2508.000000	100.698808 
2507.000000	100.703016 
2506.000000	100.708741 
2505.000000	100.709026 
2504.000000	100.702740 
2503.000000	100.694824 
2502.000000	100.690356 
2501.000000	100.690762 
2500.000000	100.695267 
2499.000000	100.703311 
2498.000000	100.714386 
2497.000000	100.726727 
2496.000000	100.737271 
2495.000000	100.742777 
2494.000000	100.741126 
2493.000000	100.732450 
2492.000000	100.719530 
2491.000000	100.706715 
2490.000000	100.697698 
2489.000000	100.693725 
2488.000000	100.693543 
2487.000000	100.695090 
2486.000000	100.697534 
2485.000000	100.701634 
2484.000000	100.707911 
2483.000000	100.714927 
2482.000000	100.720142 
2481.000000	100.722323 
2480.000000	100.722182 
2479.000000	100.720664 
2478.000000	100.717839 
2477.000000	100.713919 
2476.000000	100.710271 
2475.000000	100.708651 
2474.000000	100.710020 
2473.000000	100.714540 
2472.000000	100.721879 
2471.000000	100.730808 
2470.000000	100.738998 
2469.000000	100.743915 
2468.000000	100.743870 
2467.000000	100.738427 
2466.000000	100.728882 
2465.000000	100.718695 
2464.000000	100.712033 
2463.000000	100.710558 
2462.000000	100.711987 
2461.000000	100.712675 
2460.000000	100.711473 
2459.000000	100.710644 
2458.000000	100.713409 
2457.000000	100.720872 
2456.000000	100.730519 
2455.000000	100.737113 
2454.000000	100.736058 
2453.000000	100.727320 
2452.000000	100.716051 
2451.000000	100.708511 
2450.000000	100.707250 
2449.000000	100.710430 
2448.000000	100.714980 
2447.000000	100.719252 
2446.000000	100.722854 
2445.000000	100.725391 
2444.000000	100.726292 
2443.000000	100.725545 
2442.000000	100.724168 
2441.000000	100.723822 
2440.000000	100.725779 
2439.000000	100.729943 
2438.000000	100.734858 
2437.000000	100.738746 
2436.000000	100.740321 
2435.000000	100.738581 
2434.000000	100.732622 
2433.000000	100.722729 
2432.000000	100.711601 
2431.000000	100.703378 
2430.000000	100.700751 
2429.000000	100.703286 
2428.000000	100.708931 
2427.000000	100.716355 
2426.000000	100.724621 
2425.000000	100.730816 
2424.000000	100.730190 
2423.000000	100.720532 
2422.000000	100.705956 
2421.000000	100.694555 
2420.000000	100.691619 
2419.000000	100.696037 
2418.000000	100.703210 
2417.000000	100.709676 
2416.000000	100.714045 
2415.000000	100.715483 
2414.000000	100.713816 
2413.000000	100.710787 
2412.000000	100.709031 
2411.000000	100.709263 
2410.000000	100.709794 
2409.000000	100.709208 
2408.000000	100.708242 
2407.000000	100.708403 
2406.000000	100.709894 
2405.000000	100.711787 
2404.000000	100.713477 
2403.000000	100.714943 
2402.000000	100.715837 
2401.000000	100.715174 
2400.000000	100.712155 
2399.000000	100.707138 
2398.000000	100.701756 
2397.000000	100.698043 
2396.000000	100.697111 
2395.000000	100.698568 
2394.000000	100.701218 
2393.000000	100.704060 
2392.000000	100.706417 
2391.000000	100.707742 
2390.000000	100.708155 
2389.000000	100.708890 
2388.000000	100.711115 
2387.000000	100.714198 
2386.000000	100.716176 
2385.000000	100.716280 
2384.000000	100.716079 
2383.000000	100.717473 
2382.000000	100.720274 
2381.000000	100.722481 
2380.000000	100.722365 
2379.000000	100.719403 
2378.000000	100.713688 
2377.000000	100.706127 
2376.000000	100.699547 
2375.000000	100.697970 
2374.000000	100.703274 
2373.000000	100.713368 
2372.000000	100.724945 
2371.000000	100.737108 
2370.000000	100.750420 
2369.000000	100.762804 
2368.000000	100.768526 
2367.000000	100.762436 
2366.000000	100.745478 
2365.000000	100.726305 
2364.000000	100.715926 
2363.000000	100.719415 
2362.000000	100.732546 
2361.000000	100.745560 
2360.000000	100.751709 
2359.000000	100.751145 
2358.000000	100.747355 
2357.000000	100.743828 
2356.000000	100.743019 
2355.000000	100.745271 
2354.000000	100.747913 
2353.000000	100.747952 
2352.000000	100.745904 
2351.000000	100.745087 
2350.000000	100.747757 
2349.000000	100.751848 
2348.000000	100.753269 
2347.000000	100.751608 
2346.000000	100.749808 
2345.000000	100.749728 
2344.000000	100.750594 
2343.000000	100.752798 
2342.000000	100.758546 
2341.000000	100.767349 
2340.000000	100.774946 
2339.000000	100.776145 
2338.000000	100.769864 
2337.000000	100.760891 
2336.000000	100.755375 
2335.000000	100.754850 
2334.000000	100.756333 
2333.000000	100.757121 
2332.000000	100.756667 
2331.000000	100.754000 
2330.000000	100.748723 
2329.000000	100.743673 
2328.000000	100.743095 
2327.000000	100.748583 
2326.000000	100.757054 
2325.000000	100.764173 
2324.000000	100.766854 
2323.000000	100.765713 
2322.000000	100.765682 
2321.000000	100.771491 
2320.000000	100.781510 
2319.000000	100.788009 
2318.000000	100.786362 
2317.000000	100.779998 
2316.000000	100.775308 
2315.000000	100.774105 
2314.000000	100.774260 
2313.000000	100.774518 
2312.000000	100.775684 
2311.000000	100.778465 
2310.000000	100.783193 
2309.000000	100.789913 
2308.000000	100.795897 
2307.000000	100.795692 
2306.000000	100.787033 
2305.000000	100.775052 
2304.000000	100.766711 
2303.000000	100.762931 
2302.000000	100.760044 
2301.000000	100.756936 
2300.000000	100.755524 
2299.000000	100.755295 
2298.000000	100.753231 
2297.000000	100.750209 
2296.000000	100.751883 
2295.000000	100.760750 
2294.000000	100.771091 
2293.000000	100.774907 
2292.000000	100.770619 
2291.000000	100.763732 
2290.000000	100.760697 
2289.000000	100.763694 
2288.000000	100.769748 
2287.000000	100.773358 
2286.000000	100.771283 
2285.000000	100.765757 
2284.000000	100.761923 
2283.000000	100.761612 
2282.000000	100.761072 
2281.000000	100.755435 
2280.000000	100.744636 
2279.000000	100.735034 
2278.000000	100.735598 
2277.000000	100.750462 
2276.000000	100.773100 
2275.000000	100.789964 
2274.000000	100.793176 
2273.000000	100.788159 
2272.000000	100.785235 
2271.000000	100.786145 
2270.000000	100.784692 
2269.000000	100.779253 
2268.000000	100.777040 
2267.000000	100.784179 
2266.000000	100.797803 
2265.000000	100.810471 
2264.000000	100.817583 
2263.000000	100.818424 
2262.000000	100.815189 
2261.000000	100.813853 
2260.000000	100.820701 
2259.000000	100.834183 
2258.000000	100.844172 
2257.000000	100.843080 
2256.000000	100.834482 
2255.000000	100.827330 
2254.000000	100.825266 
2253.000000	100.825962 
2252.000000	100.828091 
2251.000000	100.833637 
2250.000000	100.843498 
2249.000000	100.854655 
2248.000000	100.862264 
2247.000000	100.863354 
2246.000000	100.858686 
2245.000000	100.851415 
2244.000000	100.843753 
2243.000000	100.835524 
2242.000000	100.827213 
2241.000000	100.822306 
2240.000000	100.823051 
2239.000000	100.825247 
2238.000000	100.822084 
2237.000000	100.813034 
2236.000000	100.804118 
2235.000000	100.799252 
2234.000000	100.796950 
2233.000000	100.796374 
2232.000000	100.800281 
2231.000000	100.809737 
2230.000000	100.821752 
2229.000000	100.835126 
2228.000000	100.853046 
2227.000000	100.875784 
2226.000000	100.895363 
2225.000000	100.902234 
2224.000000	100.894850 
2223.000000	100.879847 
2222.000000	100.866213 
2221.000000	100.861533 
2220.000000	100.868880 
2219.000000	100.883389 
2218.000000	100.895739 
2217.000000	100.902935 
2216.000000	100.912082 
2215.000000	100.929302 
2214.000000	100.948439 
2213.000000	100.955965 
2212.000000	100.945804 
2211.000000	100.925703 
2210.000000	100.910202 
2209.000000	100.909464 
2208.000000	100.922201 
2207.000000	100.936730 
2206.000000	100.940696 
2205.000000	100.931583 
2204.000000	100.916341 
2203.000000	100.901547 
2202.000000	100.889122 
2201.000000	100.881665 
2200.000000	100.883685 
2199.000000	100.893440 
2198.000000	100.900253 
2197.000000	100.896179 
2196.000000	100.886556 
2195.000000	100.883766 
2194.000000	100.893956 
2193.000000	100.913920 
2192.000000	100.936407 
2191.000000	100.953089 
2190.000000	100.956496 
2189.000000	100.946532 
2188.000000	100.933839 
2187.000000	100.930942 
2186.000000	100.940644 
2185.000000	100.956012 
2184.000000	100.968594 
2183.000000	100.972806 
2182.000000	100.966742 
2181.000000	100.955482 
2180.000000	100.950566 
2179.000000	100.959023 
2178.000000	100.974307 
2177.000000	100.983497 
2176.000000	100.982001 
2175.000000	100.975835 
2174.000000	100.970975 
2173.000000	100.967305 
2172.000000	100.963223 
2171.000000	100.960074 
2170.000000	100.960492 
2169.000000	100.966147 
2168.000000	100.977639 
2167.000000	100.993145 
2166.000000	101.007022 
2165.000000	101.013964 
2164.000000	101.016111 
2163.000000	101.022769 
2162.000000	101.040868 
2161.000000	101.066117 
2160.000000	101.083684 
2159.000000	101.078906 
2158.000000	101.051212 
2157.000000	101.017858 
2156.000000	100.998948 
2155.000000	100.997999 
2154.000000	101.000537 
2153.000000	100.991177 
2152.000000	100.968888 
2151.000000	100.945138 
2150.000000	100.931923 
2149.000000	100.934509 
2148.000000	100.950579 
2147.000000	100.970573 
2146.000000	100.980875 
2145.000000	100.973213 
2144.000000	100.952347 
2143.000000	100.931029 
2142.000000	100.917494 
2141.000000	100.910753 
2140.000000	100.906800 
2139.000000	100.904300 
2138.000000	100.902206 
2137.000000	100.896085 
2136.000000	100.881779 
2135.000000	100.862539 
2134.000000	100.848706 
2133.000000	100.847757 
2132.000000	100.855558 
2131.000000	100.859455 
2130.000000	100.850105 
2129.000000	100.829571 
2128.000000	100.808096 
2127.000000	100.794193 
2126.000000	100.788945 
2125.000000	100.789030 
2124.000000	100.792993 
2123.000000	100.802759 
2122.000000	100.818749 
2121.000000	100.835173 
2120.000000	100.843040 
2119.000000	100.839195 
2118.000000	100.830595 
2117.000000	100.827268 
2116.000000	100.831826 
2115.000000	100.838683 
2114.000000	100.843028 
2113.000000	100.846113 
2112.000000	100.850184 
2111.000000	100.852726 
2110.000000	100.849738 
2109.000000	100.842250 
2108.000000	100.835209 
2107.000000	100.830685 
2106.000000	100.825757 
2105.000000	100.817005 
2104.000000	100.804749 
2103.000000	100.793375 
2102.000000	100.789125 
2101.000000	100.795649 
2100.000000	100.809107 
2099.000000	100.819969 
2098.000000	100.822908 
2097.000000	100.822995 
2096.000000	100.827922 
2095.000000	100.835645 
2094.000000	100.835444 
2093.000000	100.821487 
2092.000000	100.800480 
2091.000000	100.784937 
2090.000000	100.782362 
2089.000000	100.790967 
2088.000000	100.802442 
2087.000000	100.808587 
2086.000000	100.807954 
2085.000000	100.806652 
2084.000000	100.811022 
2083.000000	100.820683 
2082.000000	100.831389 
2081.000000	100.842348 
2080.000000	100.855647 
2079.000000	100.869522 
2078.000000	100.878580 
2077.000000	100.882238 
2076.000000	100.887195 
2075.000000	100.898325 
2074.000000	100.911430 
2073.000000	100.917974 
2072.000000	100.914285 
2071.000000	100.903800 
2070.000000	100.892661 
2069.000000	100.885565 
2068.000000	100.883833 
2067.000000	100.885557 
2066.000000	100.888215 
2065.000000	100.891147 
2064.000000	100.894530 
2063.000000	100.897510 
2062.000000	100.900218 
2061.000000	100.906070 
2060.000000	100.917856 
2059.000000	100.932328 
2058.000000	100.942988 
2057.000000	100.947728 
2056.000000	100.949486 
2055.000000	100.950382 
2054.000000	100.950867 
2053.000000	100.954128 
2052.000000	100.964536 
2051.000000	100.980421 
2050.000000	100.993706 
2049.000000	100.998629 
2048.000000	100.996565 
2047.000000	100.990426 
2046.000000	100.980688 
2045.000000	100.970503 
2044.000000	100.967716 
2043.000000	100.976879 
2042.000000	100.993647 
2041.000000	101.010417 
2040.000000	101.023674 
2039.000000	101.033328 
2038.000000	101.039590 
2037.000000	101.043612 
2036.000000	101.047054 
2035.000000	101.048843 
2034.000000	101.046856 
2033.000000	101.043840 
2032.000000	101.045325 
2031.000000	101.050294 
2030.000000	101.051054 
2029.000000	101.043622 
2028.000000	101.031418 
2027.000000	101.017975 
2026.000000	101.005050 
2025.000000	100.999069 
2024.000000	101.007752 
2023.000000	101.025795 
2022.000000	101.033536 
2021.000000	101.018015 
2020.000000	100.989961 
2019.000000	100.973104 
2018.000000	100.980512 
2017.000000	101.004898 
2016.000000	101.027802 
2015.000000	101.034875 
2014.000000	101.025367 
2013.000000	101.011397 
2012.000000	101.006527 
2011.000000	101.013244 
2010.000000	101.024540 
2009.000000	101.035913 
2008.000000	101.048228 
2007.000000	101.058463 
2006.000000	101.058425 
2005.000000	101.046927 
2004.000000	101.033663 
2003.000000	101.026074 
2002.000000	101.019967 
2001.000000	101.008310 
2000.000000	100.991524 
1999.000000	100.974709 
1998.000000	100.961731 
1997.000000	100.956064 
1996.000000	100.961579 
1995.000000	100.977082 
1994.000000	100.993811 
1993.000000	101.002618 
1992.000000	101.001956 
1991.000000	100.995443 
1990.000000	100.985243 
1989.000000	100.973370 
1988.000000	100.965833 
1987.000000	100.968793 
1986.000000	100.981350 
1985.000000	100.996534 
1984.000000	101.009097 
1983.000000	101.019468 
1982.000000	101.030236 
1981.000000	101.041170 
1980.000000	101.047096 
1979.000000	101.041598 
1978.000000	101.025479 
1977.000000	101.009395 
1976.000000	101.003212 
1975.000000	101.004448 
1974.000000	101.004377 
1973.000000	101.003374 
1972.000000	101.011094 
1971.000000	101.029792 
1970.000000	101.046064 
1969.000000	101.044373 
1968.000000	101.024897 
1967.000000	101.002996 
1966.000000	100.992404 
1965.000000	100.993783 
1964.000000	100.998664 
1963.000000	100.998965 
1962.000000	100.991832 
1961.000000	100.979184 
1960.000000	100.965122 
1959.000000	100.953779 
1958.000000	100.948092 
1957.000000	100.948069 
1956.000000	100.949584 
1955.000000	100.947148 
1954.000000	100.939626 
1953.000000	100.930841 
1952.000000	100.923440 
1951.000000	100.914833 
1950.000000	100.902099 
1949.000000	100.889191 
1948.000000	100.883075 
1947.000000	100.883064 
1946.000000	100.879676 
1945.000000	100.865422 
1944.000000	100.843888 
1943.000000	100.827096 
1942.000000	100.824589 
1941.000000	100.834444 
1940.000000	100.844781 
1939.000000	100.845232 
1938.000000	100.837570 
1937.000000	100.833397 
1936.000000	100.839427 
1935.000000	100.848695 
1934.000000	100.850712 
1933.000000	100.846052 
1932.000000	100.845066 
1931.000000	100.852696 
1930.000000	100.861900 
1929.000000	100.864806 
1928.000000	100.861274 
1927.000000	100.855454 
1926.000000	100.849123 
1925.000000	100.842421 
1924.000000	100.837948 
1923.000000	100.838027 
1922.000000	100.841718 
1921.000000	100.846444 
1920.000000	100.849267 
1919.000000	100.846268 
1918.000000	100.834621 
1917.000000	100.818126 
1916.000000	100.805138 
1915.000000	100.798713 
1914.000000	100.796648 
1913.000000	100.798243 
1912.000000	100.804478 
1911.000000	100.812321 
1910.000000	100.815145 
1909.000000	100.812167 
1908.000000	100.810361 
1907.000000	100.815522 
1906.000000	100.825195 
1905.000000	100.832883 
1904.000000	100.835440 
1903.000000	100.832229 
1902.000000	100.824040 
1901.000000	100.814702 
1900.000000	100.807702 
1899.000000	100.802017 
1898.000000	100.795467 
1897.000000	100.791224 
1896.000000	100.795642 
1895.000000	100.806913 
1894.000000	100.814103 
1893.000000	100.810611 
1892.000000	100.800967 
1891.000000	100.792792 
1890.000000	100.788468 
1889.000000	100.786551 
1888.000000	100.786430 
1887.000000	100.787404 
1886.000000	100.788230 
1885.000000	100.790439 
1884.000000	100.796918 
1883.000000	100.805526 
1882.000000	100.810164 
1881.000000	100.810162 
1880.000000	100.811621 
1879.000000	100.818707 
1878.000000	100.828606 
1877.000000	100.835989 
1876.000000	100.839118 
1875.000000	100.838135 
1874.000000	100.831335 
1873.000000	100.818542 
1872.000000	100.804168 
1871.000000	100.793412 
1870.000000	100.787739 
1869.000000	100.785320 
1868.000000	100.784929 
1867.000000	100.786202 
1866.000000	100.787655 
1865.000000	100.788140 
1864.000000	100.786928 
1863.000000	100.781315 
1862.000000	100.769297 
1861.000000	100.755929 
1860.000000	100.751369 
1859.000000	100.759670 
1858.000000	100.774265 
1857.000000	100.786361 
1856.000000	100.792888 
1855.000000	100.795088 
1854.000000	100.794525 
1853.000000	100.793858 
1852.000000	100.794515 
1851.000000	100.794639 
1850.000000	100.793715 
1849.000000	100.794941 
1848.000000	100.801126 
1847.000000	100.808500 
1846.000000	100.810705 
1845.000000	100.807354 
1844.000000	100.804091 
1843.000000	100.804314 
1842.000000	100.805813 
1841.000000	100.805740 
1840.000000	100.803591 
1839.000000	100.800383 
1838.000000	100.796438 
1837.000000	100.792605 
1836.000000	100.790926 
1835.000000	100.791102 
1834.000000	100.791045 
1833.000000	100.789737 
1832.000000	100.786441 
1831.000000	100.781495 
1830.000000	100.777583 
1829.000000	100.777811 
1828.000000	100.782660 
1827.000000	100.787589 
1826.000000	100.788192 
1825.000000	100.786365 
1824.000000	100.787435 
1823.000000	100.791006 
1822.000000	100.789391 
1821.000000	100.779118 
1820.000000	100.767839 
1819.000000	100.766005 
1818.000000	100.773232 
1817.000000	100.780213 
1816.000000	100.782458 
1815.000000	100.782221 
1814.000000	100.782264 
1813.000000	100.783090 
1812.000000	100.785772 
1811.000000	100.791608 
1810.000000	100.796788 
1809.000000	100.797219 
1808.000000	100.794720 
1807.000000	100.791438 
1806.000000	100.785282 
1805.000000	100.775763 
1804.000000	100.768532 
1803.000000	100.767938 
1802.000000	100.771402 
1801.000000	100.773312 
1800.000000	100.773075 
1799.000000	100.774348 
1798.000000	100.776860 
1797.000000	100.779315 
1796.000000	100.783192 
1795.000000	100.788256 
1794.000000	100.791226 
1793.000000	100.790155 
1792.000000	100.788496 
1791.000000	100.790565 
1790.000000	100.793597 
1789.000000	100.793411 
1788.000000	100.791381 
1787.000000	100.790967 
1786.000000	100.791754 
1785.000000	100.791730 
1784.000000	100.791882 
1783.000000	100.791988 
1782.000000	100.790420 
1781.000000	100.786825 
1780.000000	100.782194 
1779.000000	100.778054 
1778.000000	100.773823 
1777.000000	100.770903 
1776.000000	100.771845 
1775.000000	100.775287 
1774.000000	100.777556 
1773.000000	100.776656 
1772.000000	100.774450 
1771.000000	100.777055 
1770.000000	100.785012 
1769.000000	100.789727 
1768.000000	100.786867 
1767.000000	100.781438 
1766.000000	100.779329 
1765.000000	100.779553 
1764.000000	100.778609 
1763.000000	100.777429 
1762.000000	100.778413 
1761.000000	100.779820 
1760.000000	100.779671 
1759.000000	100.778548 
1758.000000	100.777565 
1757.000000	100.779158 
1756.000000	100.783208 
1755.000000	100.789150 
1754.000000	100.795053 
1753.000000	100.796562 
1752.000000	100.790742 
1751.000000	100.780503 
1750.000000	100.772031 
1749.000000	100.767684 
1748.000000	100.766079 
1747.000000	100.765922 
1746.000000	100.768377 
1745.000000	100.771026 
1744.000000	100.769634 
1743.000000	100.765853 
1742.000000	100.764177 
1741.000000	100.764678 
1740.000000	100.765072 
1739.000000	100.766031 
1738.000000	100.770895 
1737.000000	100.777224 
1736.000000	100.779462 
1735.000000	100.777636 
1734.000000	100.773119 
1733.000000	100.769908 
1732.000000	100.772078 
1731.000000	100.774545 
1730.000000	100.771952 
1729.000000	100.767801 
1728.000000	100.765153 
1727.000000	100.763449 
1726.000000	100.761152 
1725.000000	100.758400 
1724.000000	100.756756 
1723.000000	100.757133 
1722.000000	100.756405 
1721.000000	100.752812 
1720.000000	100.749198 
1719.000000	100.753038 
1718.000000	100.763637 
1717.000000	100.768961 
1716.000000	100.769919 
1715.000000	100.773960 
1714.000000	100.776612 
1713.000000	100.774734 
1712.000000	100.772665 
1711.000000	100.771947 
1710.000000	100.769198 
1709.000000	100.764682 
1708.000000	100.762803 
1707.000000	100.765397 
1706.000000	100.767502 
1705.000000	100.764592 
1704.000000	100.763534 
1703.000000	100.765549 
1702.000000	100.762953 
1701.000000	100.751813 
1700.000000	100.741758 
1699.000000	100.749886 
1698.000000	100.768759 
1697.000000	100.778269 
1696.000000	100.775343 
1695.000000	100.769930 
1694.000000	100.769539 
1693.000000	100.771966 
1692.000000	100.771890 
1691.000000	100.769601 
1690.000000	100.766860 
1689.000000	100.765692 
1688.000000	100.766483 
1687.000000	100.766948 
1686.000000	100.766185 
1685.000000	100.766320 
1684.000000	100.766096 
1683.000000	100.764083 
1682.000000	100.764831 
1681.000000	100.766550 
1680.000000	100.763309 
1679.000000	100.758050 
1678.000000	100.754491 
1677.000000	100.753519 
1676.000000	100.751385 
1675.000000	100.747397 
1674.000000	100.748324 
1673.000000	100.756320 
1672.000000	100.763526 
1671.000000	100.765637 
1670.000000	100.764773 
1669.000000	100.764567 
1668.000000	100.764542 
1667.000000	100.762939 
1666.000000	100.759732 
1665.000000	100.754848 
1664.000000	100.749919 
1663.000000	100.746659 
1662.000000	100.745981 
1661.000000	100.748986 
1660.000000	100.750465 
1659.000000	100.747405 
1658.000000	100.742918 
1657.000000	100.743437 
1656.000000	100.744221 
1655.000000	100.741939 
1654.000000	100.744311 
1653.000000	100.745186 
1652.000000	100.742687 
1651.000000	100.749106 
1650.000000	100.758091 
1649.000000	100.757182 
1648.000000	100.752974 
1647.000000	100.749059 
1646.000000	100.745878 
1645.000000	100.743220 
1644.000000	100.745594 
1643.000000	100.748871 
1642.000000	100.748619 
1641.000000	100.744718 
1640.000000	100.740517 
1639.000000	100.739553 
1638.000000	100.741366 
1637.000000	100.746574 
1636.000000	100.754022 
1635.000000	100.756729 
1634.000000	100.754939 
1633.000000	100.751778 
1632.000000	100.746488 
1631.000000	100.738819 
1630.000000	100.731137 
1629.000000	100.728119 
1628.000000	100.731517 
1627.000000	100.736816 
1626.000000	100.739360 
1625.000000	100.738739 
1624.000000	100.736744 
1623.000000	100.733975 
1622.000000	100.732338 
1621.000000	100.736052 
1620.000000	100.742481 
1619.000000	100.745111 
1618.000000	100.743063 
1617.000000	100.742501 
1616.000000	100.747488 
1615.000000	100.755404 
1614.000000	100.762984 
1613.000000	100.768604 
1612.000000	100.772425 
1611.000000	100.773085 
1610.000000	100.770307 
1609.000000	100.767110 
1608.000000	100.765138 
1607.000000	100.762435 
1606.000000	100.758957 
1605.000000	100.757333 
1604.000000	100.757057 
1603.000000	100.757046 
1602.000000	100.758726 
1601.000000	100.763393 
1600.000000	100.768633 
1599.000000	100.771167 
1598.000000	100.771884 
1597.000000	100.773618 
1596.000000	100.776309 
1595.000000	100.777063 
1594.000000	100.775033 
1593.000000	100.773627 
1592.000000	100.775930 
1591.000000	100.780982 
1590.000000	100.786031 
1589.000000	100.789910 
1588.000000	100.792299 
1587.000000	100.792761 
1586.000000	100.792230 
1585.000000	100.793944 
1584.000000	100.797562 
1583.000000	100.798574 
1582.000000	100.796481 
1581.000000	100.794554 
1580.000000	100.793470 
1579.000000	100.790327 
1578.000000	100.785529 
1577.000000	100.783121 
1576.000000	100.782420 
1575.000000	100.780147 
1574.000000	100.780634 
1573.000000	100.784935 
1572.000000	100.786658 
1571.000000	100.784331 
1570.000000	100.782756 
1569.000000	100.788053 
1568.000000	100.796565 
1567.000000	100.801333 
1566.000000	100.800548 
1565.000000	100.798114 
1564.000000	100.794619 
1563.000000	100.789395 
1562.000000	100.782024 
1561.000000	100.775340 
1560.000000	100.777643 
1559.000000	100.782307 
1558.000000	100.779554 
1557.000000	100.785858 
1556.000000	100.803124 
1555.000000	100.810081 
1554.000000	100.809435 
1553.000000	100.804759 
1552.000000	100.800321 
1551.000000	100.795411 
1550.000000	100.793516 
1549.000000	100.797224 
1548.000000	100.803852 
1547.000000	100.804516 
1546.000000	100.794464 
1545.000000	100.778276 
1544.000000	100.766367 
1543.000000	100.766857 
1542.000000	100.779596 
1541.000000	100.797493 
1540.000000	100.807434 
1539.000000	100.801325 
1538.000000	100.793647 
1537.000000	100.795762 
1536.000000	100.801236 
1535.000000	100.803954 
1534.000000	100.801819 
1533.000000	100.796423 
1532.000000	100.792643 
1531.000000	100.794776 
1530.000000	100.797498 
1529.000000	100.795457 
1528.000000	100.789627 
1527.000000	100.783504 
1526.000000	100.780767 
1525.000000	100.784165 
1524.000000	100.792562 
1523.000000	100.802017 
1522.000000	100.806642 
1521.000000	100.802085 
1520.000000	100.794118 
1519.000000	100.788781 
1518.000000	100.783531 
1517.000000	100.776962 
1516.000000	100.773872 
1515.000000	100.777184 
1514.000000	100.782385 
1513.000000	100.781986 
1512.000000	100.776602 
1511.000000	100.773160 
1510.000000	100.773399 
1509.000000	100.772532 
1508.000000	100.773122 
1507.000000	100.781652 
1506.000000	100.785251 
1505.000000	100.781228 
1504.000000	100.782016 
1503.000000	100.786840 
1502.000000	100.792176 
1501.000000	100.793686 
1500.000000	100.791067 
1499.000000	100.788354 
1498.000000	100.787947 
1497.000000	100.782174 
1496.000000	100.767363 
1495.000000	100.753664 
1494.000000	100.747880 
1493.000000	100.746029 
1492.000000	100.743573 
1491.000000	100.741232 
1490.000000	100.739317 
1489.000000	100.734916 
1488.000000	100.729933 
1487.000000	100.727806 
1486.000000	100.724781 
1485.000000	100.720313 
1484.000000	100.716713 
1483.000000	100.714672 
1482.000000	100.714581 
1481.000000	100.716203 
1480.000000	100.719571 
1479.000000	100.722136 
1478.000000	100.720386 
1477.000000	100.714442 
1476.000000	100.711356 
1475.000000	100.715476 
1474.000000	100.722467 
1473.000000	100.724318 
1472.000000	100.718126 
1471.000000	100.711213 
1470.000000	100.707806 
1469.000000	100.704842 
1468.000000	100.701120 
1467.000000	100.699083 
1466.000000	100.700499 
1465.000000	100.704586 
1464.000000	100.708020 
1463.000000	100.710609 
1462.000000	100.711897 
1461.000000	100.710173 
1460.000000	100.706397 
1459.000000	100.704182 
1458.000000	100.705289 
1457.000000	100.698215 
1456.000000	100.678387 
1455.000000	100.662049 
1454.000000	100.656825 
1453.000000	100.654703 
1452.000000	100.651923 
1451.000000	100.650018 
1450.000000	100.650043 
1449.000000	100.647804 
1448.000000	100.643170 
1447.000000	100.641660 
1446.000000	100.646736 
1445.000000	100.654604 
1444.000000	100.659202 
1443.000000	100.661927 
1442.000000	100.666030 
1441.000000	100.670521 
1440.000000	100.672210 
1439.000000	100.671683 
1438.000000	100.671787 
1437.000000	100.670738 
1436.000000	100.665907 
1435.000000	100.662729 
1434.000000	100.664719 
1433.000000	100.665206 
1432.000000	100.659745 
1431.000000	100.651961 
1430.000000	100.647632 
1429.000000	100.645633 
1428.000000	100.643148 
1427.000000	100.640642 
1426.000000	100.639595 
1425.000000	100.639208 
1424.000000	100.636025 
1423.000000	100.631622 
1422.000000	100.627758 
1421.000000	100.618772 
1420.000000	100.597741 
1419.000000	100.571601 
1418.000000	100.555720 
1417.000000	100.549196 
1416.000000	100.539867 
1415.000000	100.523686 
1414.000000	100.506178 
1413.000000	100.490758 
1412.000000	100.475701 
1411.000000	100.461003 
1410.000000	100.449256 
1409.000000	100.439405 
1408.000000	100.430138 
1407.000000	100.424246 
1406.000000	100.425441 
1405.000000	100.432782 
1404.000000	100.441553 
1403.000000	100.452939 
1402.000000	100.470419 
1401.000000	100.491259 
1400.000000	100.508675 
1399.000000	100.518402 
1398.000000	100.518357 
1397.000000	100.501942 
1396.000000	100.463647 
1395.000000	100.416406 
1394.000000	100.393006 
1393.000000	100.412429 
1392.000000	100.459576 
1391.000000	100.508068 
1390.000000	100.541844 
1389.000000	100.556779 
1388.000000	100.555027 
1387.000000	100.542384 
1386.000000	100.527225 
1385.000000	100.515721 
1384.000000	100.508112 
1383.000000	100.503139 
1382.000000	100.501171 
1381.000000	100.502731 
1380.000000	100.507736 
1379.000000	100.515501 
1378.000000	100.525618 
1377.000000	100.537498 
1376.000000	100.550023 
1375.000000	100.562303 
1374.000000	100.575268 
1373.000000	100.590262 
1372.000000	100.606409 
1371.000000	100.620446 
1370.000000	100.630188 
1369.000000	100.637285 
1368.000000	100.643964 
1367.000000	100.651509 
1366.000000	100.660118 
1365.000000	100.669250 
1364.000000	100.678364 
1363.000000	100.687095 
1362.000000	100.694646 
1361.000000	100.700701 
1360.000000	100.706148 
1359.000000	100.712227 
1358.000000	100.720116 
1357.000000	100.730116 
1356.000000	100.740536 
1355.000000	100.749006 
1354.000000	100.754657 
1353.000000	100.758030 
1352.000000	100.760335 
1351.000000	100.761941 
1350.000000	100.762979 
1349.000000	100.764928 
1348.000000	100.767805 
1347.000000	100.769737 
1346.000000	100.769223 
1345.000000	100.767526 
1344.000000	100.766711 
1343.000000	100.766889 
1342.000000	100.766694 
1341.000000	100.766402 
1340.000000	100.768211 
1339.000000	100.773071 
1338.000000	100.779298 
1337.000000	100.784840 
1336.000000	100.789188 
1335.000000	100.792656 
1334.000000	100.794891 
1333.000000	100.795152 
1332.000000	100.793772 
1331.000000	100.792161 
1330.000000	100.791478 
1329.000000	100.791902 
1328.000000	100.793038 
1327.000000	100.794035 
1326.000000	100.793789 
1325.000000	100.791965 
1324.000000	100.789376 
1323.000000	100.787990 
1322.000000	100.789230 
1321.000000	100.792560 
1320.000000	100.796460 
1319.000000	100.800453 
1318.000000	100.804576 
1317.000000	100.807310 
1316.000000	100.806368 
1315.000000	100.801912 
1314.000000	100.797046 
1313.000000	100.794115 
1312.000000	100.792353 
1311.000000	100.790199 
1310.000000	100.788134 
1309.000000	100.787573 
1308.000000	100.788470 
1307.000000	100.789301 
1306.000000	100.789039 
1305.000000	100.788219 
1304.000000	100.787869 
1303.000000	100.788955 
1302.000000	100.791821 
1301.000000	100.795501 
1300.000000	100.798041 
1299.000000	100.798573 
1298.000000	100.798325 
1297.000000	100.798946 
1296.000000	100.800467 
1295.000000	100.801461 
1294.000000	100.800676 
1293.000000	100.797641 
1292.000000	100.792642 
1291.000000	100.787061 
1290.000000	100.783066 
1289.000000	100.781915 
1288.000000	100.782653 
1287.000000	100.782937 
1286.000000	100.780956 
1285.000000	100.776381 
1284.000000	100.770065 
1283.000000	100.763305 
1282.000000	100.756826 
1281.000000	100.750421 
1280.000000	100.743922 
1279.000000	100.738144 
1278.000000	100.734131 
1277.000000	100.731543 
1276.000000	100.728893 
1275.000000	100.725092 
1274.000000	100.719927 
1273.000000	100.713220 
1272.000000	100.704999 
1271.000000	100.696444 
1270.000000	100.689111 
1269.000000	100.682885 
1268.000000	100.675955 
1267.000000	100.667136 
1266.000000	100.656899 
1265.000000	100.645846 
1264.000000	100.633925 
1263.000000	100.621433 
1262.000000	100.609065 
1261.000000	100.596880 
1260.000000	100.584908 
1259.000000	100.574696 
1258.000000	100.568156 
1257.000000	100.564605 
1256.000000	100.561577 
1255.000000	100.558664 
1254.000000	100.557595 
1253.000000	100.557883 
1252.000000	100.556129 
1251.000000	100.551537 
1250.000000	100.548963 
1249.000000	100.553525 
1248.000000	100.564187 
1247.000000	100.575109 
1246.000000	100.581014 
1245.000000	100.578519 
1244.000000	100.565661 
1243.000000	100.545530 
1242.000000	100.529098 
1241.000000	100.528151 
1240.000000	100.543354 
1239.000000	100.562524 
1238.000000	100.572407 
1237.000000	100.570008 
1236.000000	100.561264 
1235.000000	100.552045 
1234.000000	100.543473 
1233.000000	100.534190 
1232.000000	100.523498 
1231.000000	100.511702 
1230.000000	100.499604 
1229.000000	100.488979 
1228.000000	100.482580 
1227.000000	100.481974 
1226.000000	100.485056 
1225.000000	100.486961 
1224.000000	100.484479 
1223.000000	100.479155 
1222.000000	100.475153 
1221.000000	100.474443 
1220.000000	100.475226 
1219.000000	100.474860 
1218.000000	100.472572 
1217.000000	100.468657 
1216.000000	100.462689 
1215.000000	100.454024 
1214.000000	100.443128 
1213.000000	100.430948 
1212.000000	100.417642 
1211.000000	100.403384 
1210.000000	100.389766 
1209.000000	100.378676 
1208.000000	100.369781 
1207.000000	100.360450 
1206.000000	100.348476 
1205.000000	100.334094 
1204.000000	100.319237 
1203.000000	100.305663 
1202.000000	100.294015 
1201.000000	100.283839 
1200.000000	100.273953 
1199.000000	100.263133 
1198.000000	100.250840 
1197.000000	100.236958 
1196.000000	100.220940 
1195.000000	100.202010 
1194.000000	100.180791 
1193.000000	100.160101 
1192.000000	100.143006 
1191.000000	100.129846 
1190.000000	100.117883 
1189.000000	100.104224 
1188.000000	100.088526 
1187.000000	100.072542 
1186.000000	100.057873 
1185.000000	100.044882 
1184.000000	100.032982 
1183.000000	100.020706 
1182.000000	100.006006 
1181.000000	99.988064  
1180.000000	99.968665  
1179.000000	99.950253  
1178.000000	99.932760  
1177.000000	99.914070  
1176.000000	99.893583  
1175.000000	99.872877  
1174.000000	99.852189  
1173.000000	99.828902  
1172.000000	99.801317  
1171.000000	99.772089  
1170.000000	99.745699  
1169.000000	99.723523  
1168.000000	99.703393  
1167.000000	99.683425  
1166.000000	99.664619  
1165.000000	99.650185  
1164.000000	99.643722  
1163.000000	99.647382  
1162.000000	99.660114  
1161.000000	99.677717  
1160.000000	99.695269  
1159.000000	99.708927  
1158.000000	99.715177  
1157.000000	99.710291  
1156.000000	99.692886  
1155.000000	99.666997  
1154.000000	99.640681  
1153.000000	99.620367  
1152.000000	99.606528  
1151.000000	99.594339  
1150.000000	99.578009  
1149.000000	99.555276  
1148.000000	99.528833  
1147.000000	99.503407  
1146.000000	99.481091  
1145.000000	99.459914  
1144.000000	99.437013  
1143.000000	99.411955  
1142.000000	99.386518  
1141.000000	99.362768  
1140.000000	99.342359  
1139.000000	99.326059  
1138.000000	99.312122  
1137.000000	99.296136  
1136.000000	99.274405  
1135.000000	99.247291  
1134.000000	99.217984  
1133.000000	99.188479  
1132.000000	99.158354  
1131.000000	99.127334  
1130.000000	99.097300  
1129.000000	99.070711  
1128.000000	99.047317  
1127.000000	99.023199  
1126.000000	98.994107  
1125.000000	98.960390  
1124.000000	98.927522  
1123.000000	98.900110  
1122.000000	98.876121  
1121.000000	98.849310  
1120.000000	98.817035  
1119.000000	98.782647  
1118.000000	98.749842  
1117.000000	98.718153  
1116.000000	98.685686  
1115.000000	98.653146  
1114.000000	98.622485  
1113.000000	98.593482  
1112.000000	98.564119  
1111.000000	98.532933  
1110.000000	98.499308  
1109.000000	98.463016  
1108.000000	98.425483  
1107.000000	98.390291  
1106.000000	98.359942  
1105.000000	98.333039  
1104.000000	98.306370  
1103.000000	98.278697  
1102.000000	98.251383  
1101.000000	98.226226  
1100.000000	98.204218  
1099.000000	98.185740  
1098.000000	98.169737  
1097.000000	98.154509  
1096.000000	98.139239  
1095.000000	98.123464  
1094.000000	98.104456  
1093.000000	98.077362  
1092.000000	98.039208  
1091.000000	97.991608  
1090.000000	97.939115  
1089.000000	97.886753  
1088.000000	97.839376  
1087.000000	97.800359  
1086.000000	97.768993  
1085.000000	97.741046  
1084.000000	97.712954  
1083.000000	97.683604  
1082.000000	97.652013  
1081.000000	97.616753  
1080.000000	97.578985  
1079.000000	97.543015  
1078.000000	97.512352  
1077.000000	97.487910  
1076.000000	97.470940  
1075.000000	97.463865  
1074.000000	97.466297  
1073.000000	97.473098  
1072.000000	97.476898  
1071.000000	97.468562  
1070.000000	97.435826  
1069.000000	97.370046  
1068.000000	97.280089  
1067.000000	97.194743  
1066.000000	97.143220  
1065.000000	97.132260  
1064.000000	97.144793  
1063.000000	97.156900  
1062.000000	97.151045  
1061.000000	97.118163  
1060.000000	97.058571  
1059.000000	96.985471  
1058.000000	96.921043  
1057.000000	96.881494  
1056.000000	96.865047  
1055.000000	96.856093  
1054.000000	96.840385  
1053.000000	96.815248  
1052.000000	96.786538  
1051.000000	96.759210  
1050.000000	96.732992  
1049.000000	96.705504  
1048.000000	96.675931  
1047.000000	96.645163  
1046.000000	96.615314  
1045.000000	96.589772  
1044.000000	96.570767  
1043.000000	96.555622  
1042.000000	96.538305  
1041.000000	96.516591  
1040.000000	96.495239  
1039.000000	96.480534  
1038.000000	96.474939  
1037.000000	96.479116  
1036.000000	96.494736  
1035.000000	96.520991  
1034.000000	96.551371  
1033.000000	96.577861  
1032.000000	96.595337  
1031.000000	96.599142  
1030.000000	96.584983  
1029.000000	96.558613  
1028.000000	96.540992  
1027.000000	96.553085  
1026.000000	96.594102  
1025.000000	96.641794  
1024.000000	96.674829  
1023.000000	96.688786  
1022.000000	96.691477  
1021.000000	96.691493  
1020.000000	96.694097  
1019.000000	96.701443  
1018.000000	96.712001  
1017.000000	96.722534  
1016.000000	96.732621  
1015.000000	96.744520  
1014.000000	96.758328  
1013.000000	96.771197  
1012.000000	96.781750  
1011.000000	96.791205  
1010.000000	96.800007  
1009.000000	96.808020  
1008.000000	96.818434  
1007.000000	96.836154  
1006.000000	96.860730  
1005.000000	96.885473  
1004.000000	96.905340  
1003.000000	96.921963  
1002.000000	96.939698  
1001.000000	96.960638  
1000.000000	96.984692  
999.000000	 97.010556  
998.000000	 97.035184  
997.000000	 97.055993  
996.000000	 97.075004  
995.000000	 97.097379  
994.000000	 97.124797  
993.000000	 97.153702  
992.000000	 97.180803  
991.000000	 97.206198  
990.000000	 97.230021  
989.000000	 97.250633  
988.000000	 97.268616  
987.000000	 97.289125  
986.000000	 97.317493  
985.000000	 97.354319  
984.000000	 97.396160  
983.000000	 97.438766  
982.000000	 97.478839  
981.000000	 97.515488  
980.000000	 97.551327  
979.000000	 97.590253  
978.000000	 97.633574  
977.000000	 97.680156  
976.000000	 97.729693  
975.000000	 97.782484  
974.000000	 97.836149  
973.000000	 97.886609  
972.000000	 97.933259  
971.000000	 97.979784  
970.000000	 98.028797  
969.000000	 98.078704  
968.000000	 98.126917  
967.000000	 98.173108  
966.000000	 98.217992  
965.000000	 98.261432  
964.000000	 98.303096  
963.000000	 98.343075  
962.000000	 98.381169  
961.000000	 98.417488  
960.000000	 98.453743  
959.000000	 98.491343  
958.000000	 98.528075  
957.000000	 98.559834  
956.000000	 98.586350  
955.000000	 98.612216  
954.000000	 98.641207  
953.000000	 98.672258  
952.000000	 98.701986  
951.000000	 98.728308  
950.000000	 98.750310  
949.000000	 98.767343  
948.000000	 98.780057  
947.000000	 98.790532  
946.000000	 98.800182  
945.000000	 98.809353  
944.000000	 98.819649  
943.000000	 98.834134  
942.000000	 98.853733  
941.000000	 98.875253  
940.000000	 98.894021  
939.000000	 98.907020  
938.000000	 98.913633  
937.000000	 98.916124  
936.000000	 98.920066  
935.000000	 98.931125  
934.000000	 98.949627  
933.000000	 98.970471  
932.000000	 98.989592  
931.000000	 99.007894  
930.000000	 99.027295  
929.000000	 99.045571  
928.000000	 99.057610  
927.000000	 99.060680  
926.000000	 99.057044  
925.000000	 99.052542  
924.000000	 99.053521  
923.000000	 99.063286  
922.000000	 99.079665  
921.000000	 99.096729  
920.000000	 99.109546  
919.000000	 99.116446  
918.000000	 99.117411  
917.000000	 99.113137  
916.000000	 99.106334  
915.000000	 99.101108  
914.000000	 99.099376  
913.000000	 99.099852  
912.000000	 99.101847  
911.000000	 99.107859  
910.000000	 99.120863  
909.000000	 99.140941  
908.000000	 99.165975  
907.000000	 99.193609  
906.000000	 99.220998  
905.000000	 99.244777  
904.000000	 99.263627  
903.000000	 99.280189  
902.000000	 99.298981  
901.000000	 99.322564  
900.000000	 99.350122  
899.000000	 99.378600  
898.000000	 99.404397  
897.000000	 99.425033  
896.000000	 99.439881  
895.000000	 99.449669  
894.000000	 99.456381  
893.000000	 99.464448  
892.000000	 99.480192  
891.000000	 99.507232  
890.000000	 99.542386  
889.000000	 99.577978  
888.000000	 99.607796  
887.000000	 99.629495  
886.000000	 99.643475  
885.000000	 99.652848  
884.000000	 99.663046  
883.000000	 99.677021  
882.000000	 99.691062  
881.000000	 99.699974  
880.000000	 99.706498  
879.000000	 99.720077  
878.000000	 99.744610  
877.000000	 99.772723  
876.000000	 99.794795  
875.000000	 99.808739  
874.000000	 99.817854  
873.000000	 99.823907  
872.000000	 99.826994  
871.000000	 99.829368  
870.000000	 99.835056  
869.000000	 99.847159  
868.000000	 99.867878  
867.000000	 99.898145  
866.000000	 99.933881  
865.000000	 99.965723  
864.000000	 99.987140  
863.000000	 100.001609 
862.000000	 100.017689 
861.000000	 100.037791 
860.000000	 100.056327 
859.000000	 100.068926 
858.000000	 100.078357 
857.000000	 100.089283 
856.000000	 100.101414 
855.000000	 100.111587 
854.000000	 100.120163 
853.000000	 100.130932 
852.000000	 100.145031 
851.000000	 100.158883 
850.000000	 100.169372 
849.000000	 100.177999 
848.000000	 100.187650 
847.000000	 100.197260 
846.000000	 100.202603 
845.000000	 100.201749 
844.000000	 100.197262 
843.000000	 100.193307 
842.000000	 100.192913 
841.000000	 100.197381 
840.000000	 100.204819 
839.000000	 100.208850 
838.000000	 100.203067 
837.000000	 100.188939 
836.000000	 100.175650 
835.000000	 100.169187 
834.000000	 100.164964 
833.000000	 100.155342 
832.000000	 100.141479 
831.000000	 100.131815 
830.000000	 100.129784 
829.000000	 100.129830 
828.000000	 100.127287 
827.000000	 100.125925 
826.000000	 100.131688 
825.000000	 100.143421 
824.000000	 100.154799 
823.000000	 100.162596 
822.000000	 100.168068 
821.000000	 100.171696 
820.000000	 100.171272 
819.000000	 100.165740 
818.000000	 100.158405 
817.000000	 100.155005 
816.000000	 100.158114 
815.000000	 100.162963 
814.000000	 100.159621 
813.000000	 100.140611 
812.000000	 100.105714 
811.000000	 100.058074 
810.000000	 99.997359  
809.000000	 99.920058  
808.000000	 99.826331  
807.000000	 99.722836  
806.000000	 99.617155  
805.000000	 99.512280  
804.000000	 99.408799  
803.000000	 99.310122  
802.000000	 99.222804  
801.000000	 99.152682  
800.000000	 99.102557  
799.000000	 99.072681  
798.000000	 99.062012  
797.000000	 99.069018  
796.000000	 99.090820  
795.000000	 99.121300  
794.000000	 99.152638  
793.000000	 99.181073  
792.000000	 99.208877  
791.000000	 99.237972  
790.000000	 99.263992  
789.000000	 99.279690  
788.000000	 99.281421  
787.000000	 99.268617  
786.000000	 99.240169  
785.000000	 99.196961  
784.000000	 99.146456  
783.000000	 99.098953  
782.000000	 99.059126  
781.000000	 99.025536  
780.000000	 98.997711  
779.000000	 98.978592  
778.000000	 98.970557  
777.000000	 98.974656  
776.000000	 98.993784  
775.000000	 99.030723  
774.000000	 99.082089  
773.000000	 99.139043  
772.000000	 99.194526  
771.000000	 99.245897  
770.000000	 99.291427  
769.000000	 99.329153  
768.000000	 99.358863  
767.000000	 99.381003  
766.000000	 99.394791  
765.000000	 99.402067  
764.000000	 99.410827  
763.000000	 99.427977  
762.000000	 99.448759  
761.000000	 99.460439  
760.000000	 99.457833  
759.000000	 99.449716  
758.000000	 99.449088  
757.000000	 99.461791  
756.000000	 99.484047  
755.000000	 99.504836  
754.000000	 99.511438  
753.000000	 99.500773  
752.000000	 99.486797  
751.000000	 99.489830  
750.000000	 99.515928  
749.000000	 99.551646  
748.000000	 99.579958  
747.000000	 99.595307  
746.000000	 99.602654  
745.000000	 99.609661  
744.000000	 99.622791  
743.000000	 99.644543  
742.000000	 99.670835  
741.000000	 99.695617  
740.000000	 99.719214  
739.000000	 99.746163  
738.000000	 99.773790  
737.000000	 99.790651  
736.000000	 99.789758  
735.000000	 99.777472  
734.000000	 99.766304  
733.000000	 99.764617  
732.000000	 99.775903  
731.000000	 99.800450  
730.000000	 99.832086  
729.000000	 99.858884  
728.000000	 99.872440  
727.000000	 99.874295  
726.000000	 99.870728  
725.000000	 99.864225  
724.000000	 99.853548  
723.000000	 99.839790  
722.000000	 99.829180  
721.000000	 99.830586  
720.000000	 99.849693  
719.000000	 99.882331  
718.000000	 99.914333  
717.000000	 99.931988  
716.000000	 99.932574  
715.000000	 99.922558  
714.000000	 99.908927  
713.000000	 99.898286  
712.000000	 99.901035  
711.000000	 99.925199  
710.000000	 99.963200  
709.000000	 99.993823  
708.000000	 100.001362 
707.000000	 99.987438  
706.000000	 99.963115  
705.000000	 99.936165  
704.000000	 99.909665  
703.000000	 99.886371  
702.000000	 99.867311  
701.000000	 99.848802  
700.000000	 99.824221  
699.000000	 99.786261  
698.000000	 99.730830  
697.000000	 99.664656  
696.000000	 99.607592  
695.000000	 99.579348  
694.000000	 99.581553  
693.000000	 99.601208  
692.000000	 99.630022  
691.000000	 99.668023  
690.000000	 99.710543  
689.000000	 99.746176  
688.000000	 99.771594  
687.000000	 99.794042  
686.000000	 99.812625  
685.000000	 99.814778  
684.000000	 99.798589  
683.000000	 99.781460  
682.000000	 99.779405  
681.000000	 99.791068  
680.000000	 99.807889  
679.000000	 99.825036  
678.000000	 99.836789  
677.000000	 99.839407  
676.000000	 99.843162  
675.000000	 99.862534  
674.000000	 99.892791  
673.000000	 99.908780  
672.000000	 99.892190  
671.000000	 99.848778  
670.000000	 99.796209  
669.000000	 99.762752  
668.000000	 99.780414  
667.000000	 99.836615  
666.000000	 99.891474  
665.000000	 99.929396  
664.000000	 99.949131  
663.000000	 99.968688  
662.000000	 100.000306 
661.000000	 100.027521 
660.000000	 100.024127 
659.000000	 99.991462  
658.000000	 99.955373  
657.000000	 99.931827  
656.000000	 99.914621  
655.000000	 99.895706  
654.000000	 99.881048  
653.000000	 99.878032  
652.000000	 99.884813  
651.000000	 99.900715  
650.000000	 99.928738  

