4000.000000	99.239870 
3999.000000	99.239147 
3998.000000	99.238600 
3997.000000	99.238545 
3996.000000	99.238943 
3995.000000	99.239397 
3994.000000	99.239574 
3993.000000	99.239508 
3992.000000	99.239393 
3991.000000	99.239264 
3990.000000	99.238949 
3989.000000	99.238310 
3988.000000	99.237449 
3987.000000	99.236696 
3986.000000	99.236398 
3985.000000	99.236687 
3984.000000	99.237395 
3983.000000	99.238225 
3982.000000	99.239020 
3981.000000	99.239799 
3980.000000	99.240537 
3979.000000	99.241025 
3978.000000	99.241066 
3977.000000	99.240705 
3976.000000	99.240160 
3975.000000	99.239551 
3974.000000	99.238840 
3973.000000	99.238012 
3972.000000	99.237210 
3971.000000	99.236685 
3970.000000	99.236635 
3969.000000	99.237054 
3968.000000	99.237691 
3967.000000	99.238182 
3966.000000	99.238300 
3965.000000	99.238071 
3964.000000	99.237687 
3963.000000	99.237370 
3962.000000	99.237249 
3961.000000	99.237308 
3960.000000	99.237376 
3959.000000	99.237256 
3958.000000	99.236918 
3957.000000	99.236537 
3956.000000	99.236332 
3955.000000	99.236357 
3954.000000	99.236490 
3953.000000	99.236542 
3952.000000	99.236396 
3951.000000	99.236051 
3950.000000	99.235579 
3949.000000	99.235082 
3948.000000	99.234660 
3947.000000	99.234397 
3946.000000	99.234308 
3945.000000	99.234304 
3944.000000	99.234227 
3943.000000	99.233961 
3942.000000	99.233537 
3941.000000	99.233104 
3940.000000	99.232732 
3939.000000	99.232352 
3938.000000	99.231976 
3937.000000	99.231737 
3936.000000	99.231728 
3935.000000	99.231834 
3934.000000	99.231910 
3933.000000	99.232012 
3932.000000	99.232257 
3931.000000	99.232554 
3930.000000	99.232618 
3929.000000	99.232339 
3928.000000	99.231895 
3927.000000	99.231325 
3926.000000	99.230481 
3925.000000	99.229480 
3924.000000	99.228869 
3923.000000	99.228846 
3922.000000	99.228807 
3921.000000	99.228283 
3920.000000	99.227694 
3919.000000	99.227542 
3918.000000	99.227549 
3917.000000	99.227180 
3916.000000	99.226587 
3915.000000	99.226315 
3914.000000	99.226480 
3913.000000	99.226784 
3912.000000	99.227011 
3911.000000	99.227094 
3910.000000	99.227055 
3909.000000	99.226960 
3908.000000	99.226949 
3907.000000	99.227057 
3906.000000	99.227183 
3905.000000	99.227190 
3904.000000	99.227047 
3903.000000	99.226829 
3902.000000	99.226576 
3901.000000	99.226280 
3900.000000	99.225982 
3899.000000	99.225730 
3898.000000	99.225514 
3897.000000	99.225307 
3896.000000	99.225098 
3895.000000	99.224887 
3894.000000	99.224674 
3893.000000	99.224465 
3892.000000	99.224262 
3891.000000	99.224063 
3890.000000	99.223868 
3889.000000	99.223677 
3888.000000	99.223481 
3887.000000	99.223272 
3886.000000	99.223048 
3885.000000	99.222815 
3884.000000	99.222580 
3883.000000	99.222344 
3882.000000	99.222106 
3881.000000	99.221871 
3880.000000	99.221651 
3879.000000	99.221456 
3878.000000	99.221283 
3877.000000	99.221116 
3876.000000	99.220944 
3875.000000	99.220762 
3874.000000	99.220572 
3873.000000	99.220376 
3872.000000	99.220168 
3871.000000	99.219946 
3870.000000	99.219718 
3869.000000	99.219499 
3868.000000	99.219300 
3867.000000	99.219113 
3866.000000	99.218929 
3865.000000	99.218749 
3864.000000	99.218585 
3863.000000	99.218438 
3862.000000	99.218303 
3861.000000	99.218183 
3860.000000	99.218085 
3859.000000	99.218010 
3858.000000	99.217952 
3857.000000	99.217912 
3856.000000	99.217895 
3855.000000	99.217903 
3854.000000	99.217926 
3853.000000	99.217947 
3852.000000	99.217974 
3851.000000	99.218013 
3850.000000	99.218059 
3849.000000	99.218104 
3848.000000	99.218148 
3847.000000	99.218197 
3846.000000	99.218255 
3845.000000	99.218323 
3844.000000	99.218397 
3843.000000	99.218468 
3842.000000	99.218528 
3841.000000	99.218574 
3840.000000	99.218600 
3839.000000	99.218602 
3838.000000	99.218573 
3837.000000	99.218511 
3836.000000	99.218420 
3835.000000	99.218309 
3834.000000	99.218189 
3833.000000	99.218070 
3832.000000	99.217961 
3831.000000	99.217864 
3830.000000	99.217778 
3829.000000	99.217699 
3828.000000	99.217622 
3827.000000	99.217545 
3826.000000	99.217468 
3825.000000	99.217400 
3824.000000	99.217345 
3823.000000	99.217297 
3822.000000	99.217243 
3821.000000	99.217174 
3820.000000	99.217097 
3819.000000	99.217017 
3818.000000	99.216925 
3817.000000	99.216815 
3816.000000	99.216696 
3815.000000	99.216583 
3814.000000	99.216483 
3813.000000	99.216383 
3812.000000	99.216277 
3811.000000	99.216174 
3810.000000	99.216085 
3809.000000	99.216008 
3808.000000	99.215932 
3807.000000	99.215854 
3806.000000	99.215777 
3805.000000	99.215703 
3804.000000	99.215626 
3803.000000	99.215543 
3802.000000	99.215464 
3801.000000	99.215411 
3800.000000	99.215402 
3799.000000	99.215436 
3798.000000	99.215501 
3797.000000	99.215580 
3796.000000	99.215671 
3795.000000	99.215814 
3794.000000	99.216037 
3793.000000	99.216309 
3792.000000	99.216603 
3791.000000	99.216928 
3790.000000	99.217267 
3789.000000	99.217567 
3788.000000	99.217817 
3787.000000	99.218085 
3786.000000	99.218422 
3785.000000	99.218820 
3784.000000	99.219288 
3783.000000	99.219833 
3782.000000	99.220307 
3781.000000	99.220472 
3780.000000	99.220282 
3779.000000	99.219936 
3778.000000	99.219723 
3777.000000	99.219686 
3776.000000	99.219689 
3775.000000	99.219699 
3774.000000	99.219830 
3773.000000	99.220095 
3772.000000	99.220341 
3771.000000	99.220443 
3770.000000	99.220453 
3769.000000	99.220499 
3768.000000	99.220611 
3767.000000	99.220712 
3766.000000	99.220758 
3765.000000	99.220782 
3764.000000	99.220831 
3763.000000	99.220904 
3762.000000	99.220964 
3761.000000	99.221000 
3760.000000	99.221030 
3759.000000	99.221039 
3758.000000	99.220991 
3757.000000	99.220875 
3756.000000	99.220714 
3755.000000	99.220524 
3754.000000	99.220304 
3753.000000	99.220055 
3752.000000	99.219774 
3751.000000	99.219442 
3750.000000	99.219038 
3749.000000	99.218584 
3748.000000	99.218128 
3747.000000	99.217665 
3746.000000	99.217157 
3745.000000	99.216590 
3744.000000	99.216011 
3743.000000	99.215530 
3742.000000	99.215138 
3741.000000	99.214616 
3740.000000	99.213895 
3739.000000	99.213154 
3738.000000	99.212592 
3737.000000	99.212147 
3736.000000	99.211596 
3735.000000	99.210905 
3734.000000	99.210128 
3733.000000	99.209079 
3732.000000	99.207724 
3731.000000	99.206607 
3730.000000	99.206107 
3729.000000	99.205739 
3728.000000	99.204818 
3727.000000	99.203519 
3726.000000	99.202643 
3725.000000	99.202348 
3724.000000	99.201610 
3723.000000	99.199614 
3722.000000	99.196773 
3721.000000	99.194198 
3720.000000	99.192558 
3719.000000	99.191554 
3718.000000	99.190522 
3717.000000	99.189016 
3716.000000	99.186929 
3715.000000	99.184145 
3714.000000	99.180846 
3713.000000	99.177762 
3712.000000	99.174985 
3711.000000	99.171885 
3710.000000	99.168807 
3709.000000	99.166516 
3708.000000	99.164858 
3707.000000	99.163118 
3706.000000	99.160807 
3705.000000	99.157776 
3704.000000	99.154180 
3703.000000	99.150488 
3702.000000	99.147152 
3701.000000	99.144582 
3700.000000	99.143102 
3699.000000	99.141534 
3698.000000	99.137693 
3697.000000	99.131393 
3696.000000	99.125096 
3695.000000	99.121107 
3694.000000	99.119221 
3693.000000	99.118072 
3692.000000	99.117054 
3691.000000	99.115758 
3690.000000	99.112803 
3689.000000	99.107241 
3688.000000	99.101602 
3687.000000	99.099211 
3686.000000	99.099107 
3685.000000	99.098016 
3684.000000	99.095536 
3683.000000	99.093786 
3682.000000	99.093478 
3681.000000	99.092564 
3680.000000	99.089380 
3679.000000	99.085271 
3678.000000	99.081772 
3677.000000	99.078361 
3676.000000	99.073610 
3675.000000	99.069942 
3674.000000	99.072927 
3673.000000	99.080482 
3672.000000	99.084871 
3671.000000	99.084917 
3670.000000	99.083832 
3669.000000	99.083417 
3668.000000	99.083646 
3667.000000	99.082694 
3666.000000	99.080125 
3665.000000	99.078123 
3664.000000	99.078511 
3663.000000	99.081012 
3662.000000	99.084316 
3661.000000	99.087647 
3660.000000	99.091147 
3659.000000	99.094946 
3658.000000	99.098267 
3657.000000	99.100129 
3656.000000	99.100923 
3655.000000	99.103138 
3654.000000	99.107683 
3653.000000	99.112766 
3652.000000	99.117537 
3651.000000	99.122580 
3650.000000	99.126228 
3649.000000	99.125397 
3648.000000	99.121200 
3647.000000	99.118510 
3646.000000	99.119901 
3645.000000	99.124098 
3644.000000	99.128646 
3643.000000	99.132328 
3642.000000	99.135614 
3641.000000	99.139243 
3640.000000	99.143331 
3639.000000	99.147672 
3638.000000	99.152453 
3637.000000	99.157729 
3636.000000	99.162303 
3635.000000	99.164569 
3634.000000	99.164573 
3633.000000	99.164330 
3632.000000	99.165496 
3631.000000	99.168169 
3630.000000	99.171452 
3629.000000	99.173480 
3628.000000	99.174103 
3627.000000	99.175630 
3626.000000	99.177564 
3625.000000	99.178527 
3624.000000	99.179558 
3623.000000	99.181832 
3622.000000	99.184861 
3621.000000	99.187370 
3620.000000	99.188715 
3619.000000	99.189127 
3618.000000	99.189740 
3617.000000	99.191544 
3616.000000	99.193985 
3615.000000	99.195809 
3614.000000	99.196438 
3613.000000	99.196273 
3612.000000	99.196092 
3611.000000	99.196080 
3610.000000	99.195812 
3609.000000	99.195325 
3608.000000	99.195109 
3607.000000	99.195416 
3606.000000	99.195993 
3605.000000	99.196500 
3604.000000	99.197333 
3603.000000	99.198981 
3602.000000	99.200893 
3601.000000	99.202292 
3600.000000	99.203516 
3599.000000	99.205388 
3598.000000	99.207725 
3597.000000	99.209687 
3596.000000	99.210493 
3595.000000	99.209996 
3594.000000	99.208800 
3593.000000	99.208325 
3592.000000	99.209747 
3591.000000	99.213213 
3590.000000	99.217640 
3589.000000	99.220979 
3588.000000	99.221072 
3587.000000	99.217724 
3586.000000	99.213360 
3585.000000	99.209935 
3584.000000	99.207301 
3583.000000	99.205221 
3582.000000	99.204078 
3581.000000	99.204011 
3580.000000	99.204387 
3579.000000	99.204315 
3578.000000	99.203270 
3577.000000	99.201624 
3576.000000	99.200334 
3575.000000	99.200185 
3574.000000	99.201251 
3573.000000	99.202995 
3572.000000	99.204832 
3571.000000	99.206361 
3570.000000	99.207278 
3569.000000	99.207252 
3568.000000	99.206114 
3567.000000	99.204294 
3566.000000	99.203100 
3565.000000	99.203385 
3564.000000	99.204386 
3563.000000	99.205012 
3562.000000	99.205039 
3561.000000	99.204821 
3560.000000	99.204694 
3559.000000	99.204780 
3558.000000	99.204977 
3557.000000	99.205121 
3556.000000	99.205253 
3555.000000	99.205500 
3554.000000	99.205767 
3553.000000	99.205716 
3552.000000	99.205211 
3551.000000	99.204468 
3550.000000	99.203686 
3549.000000	99.202924 
3548.000000	99.202412 
3547.000000	99.202411 
3546.000000	99.202825 
3545.000000	99.203377 
3544.000000	99.203922 
3543.000000	99.204414 
3542.000000	99.204771 
3541.000000	99.204899 
3540.000000	99.204832 
3539.000000	99.204727 
3538.000000	99.204674 
3537.000000	99.204649 
3536.000000	99.204623 
3535.000000	99.204601 
3534.000000	99.204590 
3533.000000	99.204579 
3532.000000	99.204556 
3531.000000	99.204524 
3530.000000	99.204486 
3529.000000	99.204446 
3528.000000	99.204407 
3527.000000	99.204373 
3526.000000	99.204343 
3525.000000	99.204311 
3524.000000	99.204271 
3523.000000	99.204221 
3522.000000	99.204160 
3521.000000	99.204094 
3520.000000	99.204026 
3519.000000	99.203959 
3518.000000	99.203896 
3517.000000	99.203842 
3516.000000	99.203795 
3515.000000	99.203753 
3514.000000	99.203710 
3513.000000	99.203662 
3512.000000	99.203606 
3511.000000	99.203542 
3510.000000	99.203471 
3509.000000	99.203399 
3508.000000	99.203328 
3507.000000	99.203255 
3506.000000	99.203172 
3505.000000	99.203070 
3504.000000	99.202947 
3503.000000	99.202809 
3502.000000	99.202667 
3501.000000	99.202530 
3500.000000	99.202402 
3499.000000	99.202273 
3498.000000	99.202136 
3497.000000	99.201986 
3496.000000	99.201830 
3495.000000	99.201680 
3494.000000	99.201544 
3493.000000	99.201423 
3492.000000	99.201309 
3491.000000	99.201199 
3490.000000	99.201092 
3489.000000	99.200991 
3488.000000	99.200893 
3487.000000	99.200795 
3486.000000	99.200693 
3485.000000	99.200584 
3484.000000	99.200468 
3483.000000	99.200351 
3482.000000	99.200235 
3481.000000	99.200124 
3480.000000	99.200015 
3479.000000	99.199909 
3478.000000	99.199801 
3477.000000	99.199690 
3476.000000	99.199569 
3475.000000	99.199436 
3474.000000	99.199291 
3473.000000	99.199141 
3472.000000	99.198995 
3471.000000	99.198857 
3470.000000	99.198726 
3469.000000	99.198597 
3468.000000	99.198470 
3467.000000	99.198340 
3466.000000	99.198207 
3465.000000	99.198071 
3464.000000	99.197937 
3463.000000	99.197806 
3462.000000	99.197681 
3461.000000	99.197562 
3460.000000	99.197446 
3459.000000	99.197331 
3458.000000	99.197219 
3457.000000	99.197111 
3456.000000	99.197012 
3455.000000	99.196923 
3454.000000	99.196840 
3453.000000	99.196758 
3452.000000	99.196672 
3451.000000	99.196580 
3450.000000	99.196483 
3449.000000	99.196379 
3448.000000	99.196268 
3447.000000	99.196149 
3446.000000	99.196022 
3445.000000	99.195892 
3444.000000	99.195766 
3443.000000	99.195647 
3442.000000	99.195538 
3441.000000	99.195435 
3440.000000	99.195337 
3439.000000	99.195242 
3438.000000	99.195151 
3437.000000	99.195065 
3436.000000	99.194986 
3435.000000	99.194917 
3434.000000	99.194863 
3433.000000	99.194827 
3432.000000	99.194811 
3431.000000	99.194810 
3430.000000	99.194811 
3429.000000	99.194797 
3428.000000	99.194763 
3427.000000	99.194718 
3426.000000	99.194684 
3425.000000	99.194680 
3424.000000	99.194712 
3423.000000	99.194764 
3422.000000	99.194804 
3421.000000	99.194793 
3420.000000	99.194704 
3419.000000	99.194537 
3418.000000	99.194355 
3417.000000	99.194273 
3416.000000	99.194365 
3415.000000	99.194548 
3414.000000	99.194615 
3413.000000	99.194471 
3412.000000	99.194276 
3411.000000	99.194256 
3410.000000	99.194432 
3409.000000	99.194664 
3408.000000	99.194917 
3407.000000	99.195234 
3406.000000	99.195486 
3405.000000	99.195412 
3404.000000	99.195000 
3403.000000	99.194646 
3402.000000	99.194808 
3401.000000	99.195608 
3400.000000	99.196783 
3399.000000	99.197967 
3398.000000	99.198963 
3397.000000	99.199781 
3396.000000	99.200426 
3395.000000	99.200746 
3394.000000	99.200597 
3393.000000	99.200135 
3392.000000	99.199682 
3391.000000	99.199274 
3390.000000	99.198619 
3389.000000	99.197627 
3388.000000	99.196682 
3387.000000	99.196197 
3386.000000	99.196092 
3385.000000	99.195971 
3384.000000	99.195699 
3383.000000	99.195564 
3382.000000	99.195860 
3381.000000	99.196502 
3380.000000	99.197053 
3379.000000	99.197106 
3378.000000	99.196680 
3377.000000	99.196302 
3376.000000	99.196575 
3375.000000	99.197657 
3374.000000	99.199184 
3373.000000	99.200596 
3372.000000	99.201501 
3371.000000	99.201750 
3370.000000	99.201427 
3369.000000	99.200896 
3368.000000	99.200626 
3367.000000	99.200766 
3366.000000	99.200958 
3365.000000	99.200741 
3364.000000	99.200088 
3363.000000	99.199448 
3362.000000	99.199282 
3361.000000	99.199611 
3360.000000	99.200061 
3359.000000	99.200248 
3358.000000	99.200111 
3357.000000	99.199896 
3356.000000	99.199852 
3355.000000	99.199991 
3354.000000	99.200146 
3353.000000	99.200206 
3352.000000	99.200216 
3351.000000	99.200272 
3350.000000	99.200409 
3349.000000	99.200616 
3348.000000	99.200887 
3347.000000	99.201193 
3346.000000	99.201446 
3345.000000	99.201563 
3344.000000	99.201549 
3343.000000	99.201468 
3342.000000	99.201372 
3341.000000	99.201297 
3340.000000	99.201271 
3339.000000	99.201305 
3338.000000	99.201374 
3337.000000	99.201441 
3336.000000	99.201490 
3335.000000	99.201530 
3334.000000	99.201573 
3333.000000	99.201620 
3332.000000	99.201673 
3331.000000	99.201734 
3330.000000	99.201803 
3329.000000	99.201882 
3328.000000	99.201972 
3327.000000	99.202071 
3326.000000	99.202178 
3325.000000	99.202289 
3324.000000	99.202403 
3323.000000	99.202520 
3322.000000	99.202639 
3321.000000	99.202752 
3320.000000	99.202850 
3319.000000	99.202929 
3318.000000	99.202994 
3317.000000	99.203057 
3316.000000	99.203129 
3315.000000	99.203215 
3314.000000	99.203312 
3313.000000	99.203413 
3312.000000	99.203513 
3311.000000	99.203605 
3310.000000	99.203689 
3309.000000	99.203765 
3308.000000	99.203839 
3307.000000	99.203913 
3306.000000	99.203987 
3305.000000	99.204059 
3304.000000	99.204128 
3303.000000	99.204197 
3302.000000	99.204271 
3301.000000	99.204359 
3300.000000	99.204465 
3299.000000	99.204584 
3298.000000	99.204706 
3297.000000	99.204818 
3296.000000	99.204915 
3295.000000	99.204994 
3294.000000	99.205061 
3293.000000	99.205120 
3292.000000	99.205173 
3291.000000	99.205217 
3290.000000	99.205246 
3289.000000	99.205257 
3288.000000	99.205251 
3287.000000	99.205229 
3286.000000	99.205193 
3285.000000	99.205147 
3284.000000	99.205099 
3283.000000	99.205054 
3282.000000	99.205010 
3281.000000	99.204961 
3280.000000	99.204896 
3279.000000	99.204802 
3278.000000	99.204677 
3277.000000	99.204566 
3276.000000	99.204540 
3275.000000	99.204626 
3274.000000	99.204784 
3273.000000	99.204926 
3272.000000	99.204975 
3271.000000	99.204881 
3270.000000	99.204625 
3269.000000	99.204277 
3268.000000	99.204002 
3267.000000	99.203960 
3266.000000	99.204203 
3265.000000	99.204656 
3264.000000	99.205171 
3263.000000	99.205609 
3262.000000	99.205922 
3261.000000	99.206168 
3260.000000	99.206375 
3259.000000	99.206383 
3258.000000	99.205967 
3257.000000	99.205168 
3256.000000	99.204329 
3255.000000	99.203719 
3254.000000	99.203326 
3253.000000	99.203071 
3252.000000	99.203012 
3251.000000	99.203185 
3250.000000	99.203388 
3249.000000	99.203348 
3248.000000	99.203034 
3247.000000	99.202640 
3246.000000	99.202312 
3245.000000	99.202021 
3244.000000	99.201716 
3243.000000	99.201499 
3242.000000	99.201678 
3241.000000	99.202588 
3240.000000	99.204177 
3239.000000	99.205704 
3238.000000	99.206192 
3237.000000	99.205375 
3236.000000	99.204053 
3235.000000	99.203312 
3234.000000	99.203418 
3233.000000	99.203848 
3232.000000	99.204205 
3231.000000	99.204658 
3230.000000	99.205449 
3229.000000	99.206332 
3228.000000	99.206700 
3227.000000	99.206062 
3226.000000	99.204287 
3225.000000	99.201722 
3224.000000	99.199193 
3223.000000	99.197545 
3222.000000	99.196992 
3221.000000	99.197048 
3220.000000	99.197167 
3219.000000	99.197365 
3218.000000	99.197970 
3217.000000	99.198910 
3216.000000	99.199572 
3215.000000	99.199424 
3214.000000	99.198623 
3213.000000	99.197866 
3212.000000	99.197712 
3211.000000	99.198183 
3210.000000	99.199009 
3209.000000	99.200013 
3208.000000	99.201092 
3207.000000	99.201953 
3206.000000	99.202211 
3205.000000	99.201890 
3204.000000	99.201575 
3203.000000	99.201843 
3202.000000	99.202679 
3201.000000	99.203642 
3200.000000	99.204443 
3199.000000	99.205035 
3198.000000	99.205251 
3197.000000	99.204865 
3196.000000	99.204164 
3195.000000	99.203969 
3194.000000	99.204689 
3193.000000	99.205649 
3192.000000	99.205816 
3191.000000	99.205108 
3190.000000	99.204522 
3189.000000	99.204936 
3188.000000	99.206131 
3187.000000	99.207148 
3186.000000	99.207313 
3185.000000	99.206612 
3184.000000	99.205332 
3183.000000	99.203752 
3182.000000	99.202207 
3181.000000	99.201135 
3180.000000	99.200833 
3179.000000	99.201219 
3178.000000	99.201927 
3177.000000	99.202576 
3176.000000	99.202956 
3175.000000	99.203114 
3174.000000	99.203391 
3173.000000	99.204222 
3172.000000	99.205685 
3171.000000	99.207242 
3170.000000	99.208143 
3169.000000	99.208164 
3168.000000	99.207816 
3167.000000	99.207827 
3166.000000	99.208481 
3165.000000	99.209516 
3164.000000	99.210505 
3163.000000	99.211196 
3162.000000	99.211540 
3161.000000	99.211613 
3160.000000	99.211595 
3159.000000	99.211681 
3158.000000	99.211887 
3157.000000	99.212024 
3156.000000	99.211926 
3155.000000	99.211685 
3154.000000	99.211575 
3153.000000	99.211786 
3152.000000	99.212246 
3151.000000	99.212673 
3150.000000	99.212783 
3149.000000	99.212532 
3148.000000	99.212189 
3147.000000	99.212126 
3146.000000	99.212465 
3145.000000	99.212976 
3144.000000	99.213354 
3143.000000	99.213573 
3142.000000	99.213852 
3141.000000	99.214321 
3140.000000	99.214814 
3139.000000	99.215060 
3138.000000	99.215000 
3137.000000	99.214804 
3136.000000	99.214679 
3135.000000	99.214684 
3134.000000	99.214765 
3133.000000	99.214869 
3132.000000	99.214991 
3131.000000	99.215134 
3130.000000	99.215262 
3129.000000	99.215318 
3128.000000	99.215297 
3127.000000	99.215264 
3126.000000	99.215309 
3125.000000	99.215468 
3124.000000	99.215710 
3123.000000	99.215963 
3122.000000	99.216161 
3121.000000	99.216287 
3120.000000	99.216399 
3119.000000	99.216600 
3118.000000	99.216914 
3117.000000	99.217175 
3116.000000	99.217122 
3115.000000	99.216671 
3114.000000	99.216046 
3113.000000	99.215575 
3112.000000	99.215387 
3111.000000	99.215416 
3110.000000	99.215606 
3109.000000	99.215957 
3108.000000	99.216341 
3107.000000	99.216469 
3106.000000	99.216176 
3105.000000	99.215666 
3104.000000	99.215341 
3103.000000	99.215414 
3102.000000	99.215779 
3101.000000	99.216223 
3100.000000	99.216617 
3099.000000	99.216875 
3098.000000	99.216894 
3097.000000	99.216653 
3096.000000	99.216324 
3095.000000	99.216196 
3094.000000	99.216459 
3093.000000	99.217070 
3092.000000	99.217742 
3091.000000	99.218058 
3090.000000	99.217692 
3089.000000	99.216753 
3088.000000	99.215987 
3087.000000	99.216350 
3086.000000	99.218123 
3085.000000	99.220464 
3084.000000	99.222124 
3083.000000	99.222622 
3082.000000	99.222548 
3081.000000	99.222718 
3080.000000	99.223230 
3079.000000	99.223453 
3078.000000	99.222710 
3077.000000	99.220682 
3076.000000	99.217418 
3075.000000	99.213510 
3074.000000	99.210246 
3073.000000	99.209054 
3072.000000	99.210407 
3071.000000	99.213426 
3070.000000	99.216656 
3069.000000	99.218861 
3068.000000	99.218930 
3067.000000	99.215823 
3066.000000	99.209679 
3065.000000	99.202828 
3064.000000	99.198530 
3063.000000	99.198151 
3062.000000	99.200165 
3061.000000	99.202157 
3060.000000	99.203285 
3059.000000	99.204397 
3058.000000	99.206335 
3057.000000	99.208859 
3056.000000	99.211075 
3055.000000	99.212385 
3054.000000	99.212838 
3053.000000	99.212801 
3052.000000	99.212480 
3051.000000	99.211806 
3050.000000	99.210800 
3049.000000	99.209718 
3048.000000	99.208409 
3047.000000	99.205785 
3046.000000	99.200807 
3045.000000	99.194168 
3044.000000	99.188194 
3043.000000	99.184470 
3042.000000	99.182137 
3041.000000	99.179195 
3040.000000	99.175076 
3039.000000	99.171079 
3038.000000	99.168407 
3037.000000	99.166599 
3036.000000	99.164155 
3035.000000	99.160151 
3034.000000	99.154899 
3033.000000	99.149175 
3032.000000	99.143193 
3031.000000	99.136649 
3030.000000	99.129274 
3029.000000	99.120840 
3028.000000	99.110954 
3027.000000	99.099469 
3026.000000	99.087197 
3025.000000	99.075690 
3024.000000	99.065766 
3023.000000	99.056383 
3022.000000	99.045464 
3021.000000	99.031914 
3020.000000	99.016664 
3019.000000	99.001908 
3018.000000	98.989635 
3017.000000	98.980605 
3016.000000	98.973869 
3015.000000	98.967075 
3014.000000	98.957901 
3013.000000	98.945543 
3012.000000	98.930573 
3011.000000	98.913474 
3010.000000	98.894232 
3009.000000	98.873606 
3008.000000	98.853824 
3007.000000	98.837143 
3006.000000	98.824013 
3005.000000	98.813101 
3004.000000	98.802524 
3003.000000	98.790495 
3002.000000	98.775626 
3001.000000	98.758060 
3000.000000	98.740209 
2999.000000	98.725029 
2998.000000	98.713325 
2997.000000	98.703796 
2996.000000	98.695679 
2995.000000	98.689475 
2994.000000	98.683782 
2993.000000	98.673193 
2992.000000	98.652313 
2991.000000	98.622533 
2990.000000	98.592999 
2989.000000	98.573244 
2988.000000	98.565666 
2987.000000	98.565793 
2986.000000	98.568313 
2985.000000	98.571541 
2984.000000	98.576158 
2983.000000	98.581799 
2982.000000	98.586356 
2981.000000	98.587966 
2980.000000	98.586606 
2979.000000	98.583741 
2978.000000	98.580948 
2977.000000	98.578815 
2976.000000	98.576719 
2975.000000	98.573585 
2974.000000	98.569110 
2973.000000	98.564217 
2972.000000	98.560280 
2971.000000	98.558154 
2970.000000	98.558116 
2969.000000	98.560301 
2968.000000	98.564713 
2967.000000	98.570986 
2966.000000	98.578561 
2965.000000	98.587016 
2964.000000	98.595957 
2963.000000	98.604746 
2962.000000	98.612736 
2961.000000	98.619662 
2960.000000	98.625631 
2959.000000	98.631068 
2958.000000	98.636938 
2957.000000	98.644364 
2956.000000	98.653114 
2955.000000	98.660750 
2954.000000	98.664640 
2953.000000	98.665453 
2952.000000	98.667871 
2951.000000	98.676662 
2950.000000	98.691633 
2949.000000	98.706927 
2948.000000	98.715833 
2947.000000	98.716153 
2946.000000	98.711042 
2945.000000	98.705331 
2944.000000	98.701319 
2943.000000	98.698331 
2942.000000	98.695382 
2941.000000	98.692545 
2940.000000	98.689611 
2939.000000	98.685120 
2938.000000	98.677884 
2937.000000	98.668770 
2936.000000	98.659963 
2935.000000	98.652789 
2934.000000	98.647065 
2933.000000	98.642070 
2932.000000	98.637022 
2931.000000	98.630802 
2930.000000	98.622440 
2929.000000	98.612235 
2928.000000	98.601774 
2927.000000	98.592757 
2926.000000	98.586351 
2925.000000	98.583321 
2924.000000	98.583754 
2923.000000	98.586584 
2922.000000	98.590324 
2921.000000	98.594481 
2920.000000	98.599491 
2919.000000	98.605333 
2918.000000	98.611263 
2917.000000	98.617020 
2916.000000	98.623162 
2915.000000	98.629797 
2914.000000	98.635999 
2913.000000	98.641032 
2912.000000	98.645254 
2911.000000	98.649109 
2910.000000	98.651970 
2909.000000	98.652927 
2908.000000	98.652236 
2907.000000	98.651070 
2906.000000	98.649910 
2905.000000	98.647829 
2904.000000	98.643615 
2903.000000	98.637578 
2902.000000	98.632541 
2901.000000	98.632727 
2900.000000	98.640917 
2899.000000	98.656010 
2898.000000	98.673108 
2897.000000	98.687025 
2896.000000	98.695995 
2895.000000	98.701940 
2894.000000	98.707676 
2893.000000	98.714304 
2892.000000	98.720917 
2891.000000	98.726063 
2890.000000	98.729294 
2889.000000	98.731650 
2888.000000	98.734826 
2887.000000	98.739775 
2886.000000	98.746121 
2885.000000	98.752883 
2884.000000	98.759542 
2883.000000	98.766281 
2882.000000	98.773449 
2881.000000	98.781187 
2880.000000	98.789512 
2879.000000	98.798529 
2878.000000	98.808398 
2877.000000	98.818982 
2876.000000	98.829382 
2875.000000	98.837927 
2874.000000	98.843126 
2873.000000	98.845075 
2872.000000	98.845898 
2871.000000	98.848433 
2870.000000	98.854213 
2869.000000	98.862644 
2868.000000	98.871880 
2867.000000	98.880454 
2866.000000	98.888381 
2865.000000	98.896831 
2864.000000	98.906536 
2863.000000	98.916371 
2862.000000	98.923872 
2861.000000	98.927498 
2860.000000	98.928189 
2859.000000	98.928438 
2858.000000	98.930004 
2857.000000	98.932922 
2856.000000	98.936526 
2855.000000	98.940903 
2854.000000	98.947080 
2853.000000	98.955903 
2852.000000	98.967017 
2851.000000	98.979059 
2850.000000	98.990963 
2849.000000	99.003025 
2848.000000	99.016344 
2847.000000	99.031128 
2846.000000	99.045833 
2845.000000	99.058232 
2844.000000	99.067234 
2843.000000	99.073683 
2842.000000	99.079757 
2841.000000	99.087495 
2840.000000	99.097231 
2839.000000	99.107092 
2838.000000	99.114444 
2837.000000	99.118215 
2836.000000	99.119624 
2835.000000	99.120731 
2834.000000	99.122763 
2833.000000	99.125966 
2832.000000	99.130203 
2831.000000	99.134984 
2830.000000	99.139514 
2829.000000	99.143525 
2828.000000	99.147785 
2827.000000	99.152989 
2826.000000	99.158270 
2825.000000	99.161657 
2824.000000	99.162182 
2823.000000	99.161102 
2822.000000	99.160846 
2821.000000	99.162915 
2820.000000	99.166766 
2819.000000	99.170614 
2818.000000	99.173380 
2817.000000	99.175788 
2816.000000	99.179192 
2815.000000	99.183405 
2814.000000	99.186519 
2813.000000	99.187191 
2812.000000	99.186282 
2811.000000	99.185553 
2810.000000	99.185475 
2809.000000	99.185330 
2808.000000	99.185003 
2807.000000	99.185356 
2806.000000	99.186734 
2805.000000	99.188243 
2804.000000	99.189019 
2803.000000	99.189504 
2802.000000	99.190900 
2801.000000	99.193588 
2800.000000	99.196447 
2799.000000	99.197761 
2798.000000	99.196832 
2797.000000	99.194803 
2796.000000	99.193693 
2795.000000	99.194397 
2794.000000	99.195918 
2793.000000	99.196743 
2792.000000	99.196572 
2791.000000	99.196305 
2790.000000	99.196774 
2789.000000	99.198079 
2788.000000	99.199895 
2787.000000	99.201754 
2786.000000	99.203101 
2785.000000	99.203697 
2784.000000	99.203990 
2783.000000	99.204639 
2782.000000	99.205644 
2781.000000	99.206367 
2780.000000	99.206463 
2779.000000	99.206408 
2778.000000	99.206919 
2777.000000	99.208111 
2776.000000	99.209472 
2775.000000	99.210469 
2774.000000	99.210964 
2773.000000	99.211122 
2772.000000	99.211183 
2771.000000	99.211343 
2770.000000	99.211753 
2769.000000	99.212538 
2768.000000	99.213818 
2767.000000	99.215606 
2766.000000	99.217570 
2765.000000	99.219015 
2764.000000	99.219402 
2763.000000	99.218848 
2762.000000	99.218069 
2761.000000	99.217696 
2760.000000	99.217863 
2759.000000	99.218469 
2758.000000	99.219490 
2757.000000	99.220831 
2756.000000	99.222135 
2755.000000	99.223084 
2754.000000	99.223749 
2753.000000	99.224335 
2752.000000	99.224715 
2751.000000	99.224529 
2750.000000	99.223727 
2749.000000	99.222692 
2748.000000	99.221767 
2747.000000	99.220976 
2746.000000	99.220300 
2745.000000	99.219945 
2744.000000	99.220131 
2743.000000	99.220795 
2742.000000	99.221694 
2741.000000	99.222666 
2740.000000	99.223660 
2739.000000	99.224613 
2738.000000	99.225489 
2737.000000	99.226364 
2736.000000	99.227322 
2735.000000	99.228296 
2734.000000	99.229083 
2733.000000	99.229485 
2732.000000	99.229396 
2731.000000	99.228889 
2730.000000	99.228305 
2729.000000	99.228143 
2728.000000	99.228693 
2727.000000	99.229806 
2726.000000	99.231019 
2725.000000	99.231912 
2724.000000	99.232384 
2723.000000	99.232663 
2722.000000	99.233124 
2721.000000	99.233972 
2720.000000	99.235012 
2719.000000	99.235783 
2718.000000	99.235986 
2717.000000	99.235705 
2716.000000	99.235263 
2715.000000	99.234984 
2714.000000	99.235083 
2713.000000	99.235608 
2712.000000	99.236344 
2711.000000	99.236916 
2710.000000	99.237153 
2709.000000	99.237243 
2708.000000	99.237468 
2707.000000	99.237834 
2706.000000	99.238093 
2705.000000	99.238103 
2704.000000	99.237990 
2703.000000	99.237958 
2702.000000	99.238044 
2701.000000	99.238155 
2700.000000	99.238236 
2699.000000	99.238334 
2698.000000	99.238520 
2697.000000	99.238787 
2696.000000	99.239040 
2695.000000	99.239180 
2694.000000	99.239224 
2693.000000	99.239293 
2692.000000	99.239441 
2691.000000	99.239524 
2690.000000	99.239371 
2689.000000	99.239091 
2688.000000	99.239041 
2687.000000	99.239416 
2686.000000	99.239973 
2685.000000	99.240283 
2684.000000	99.240217 
2683.000000	99.239988 
2682.000000	99.239799 
2681.000000	99.239627 
2680.000000	99.239388 
2679.000000	99.239100 
2678.000000	99.238838 
2677.000000	99.238648 
2676.000000	99.238549 
2675.000000	99.238547 
2674.000000	99.238619 
2673.000000	99.238735 
2672.000000	99.238845 
2671.000000	99.238820 
2670.000000	99.238466 
2669.000000	99.237685 
2668.000000	99.236616 
2667.000000	99.235593 
2666.000000	99.234989 
2665.000000	99.235071 
2664.000000	99.235829 
2663.000000	99.236891 
2662.000000	99.237783 
2661.000000	99.238364 
2660.000000	99.238812 
2659.000000	99.239140 
2658.000000	99.239034 
2657.000000	99.238321 
2656.000000	99.237367 
2655.000000	99.236743 
2654.000000	99.236602 
2653.000000	99.236660 
2652.000000	99.236656 
2651.000000	99.236590 
2650.000000	99.236543 
2649.000000	99.236531 
2648.000000	99.236548 
2647.000000	99.236570 
2646.000000	99.236565 
2645.000000	99.236678 
2644.000000	99.237228 
2643.000000	99.238309 
2642.000000	99.239470 
2641.000000	99.240082 
2640.000000	99.240043 
2639.000000	99.239764 
2638.000000	99.239663 
2637.000000	99.239833 
2636.000000	99.240097 
2635.000000	99.240169 
2634.000000	99.239836 
2633.000000	99.239221 
2632.000000	99.238797 
2631.000000	99.238827 
2630.000000	99.239071 
2629.000000	99.239159 
2628.000000	99.239050 
2627.000000	99.238981 
2626.000000	99.239075 
2625.000000	99.239239 
2624.000000	99.239368 
2623.000000	99.239462 
2622.000000	99.239532 
2621.000000	99.239561 
2620.000000	99.239582 
2619.000000	99.239655 
2618.000000	99.239753 
2617.000000	99.239760 
2616.000000	99.239623 
2615.000000	99.239436 
2614.000000	99.239335 
2613.000000	99.239351 
2612.000000	99.239415 
2611.000000	99.239470 
2610.000000	99.239519 
2609.000000	99.239595 
2608.000000	99.239707 
2607.000000	99.239828 
2606.000000	99.239918 
2605.000000	99.239960 
2604.000000	99.239956 
2603.000000	99.239895 
2602.000000	99.239757 
2601.000000	99.239563 
2600.000000	99.239395 
2599.000000	99.239327 
2598.000000	99.239351 
2597.000000	99.239373 
2596.000000	99.239303 
2595.000000	99.239115 
2594.000000	99.238835 
2593.000000	99.238503 
2592.000000	99.238182 
2591.000000	99.237942 
2590.000000	99.237811 
2589.000000	99.237764 
2588.000000	99.237738 
2587.000000	99.237670 
2586.000000	99.237519 
2585.000000	99.237264 
2584.000000	99.236917 
2583.000000	99.236534 
2582.000000	99.236187 
2581.000000	99.235904 
2580.000000	99.235673 
2579.000000	99.235453 
2578.000000	99.235215 
2577.000000	99.234959 
2576.000000	99.234702 
2575.000000	99.234460 
2574.000000	99.234234 
2573.000000	99.234013 
2572.000000	99.233780 
2571.000000	99.233522 
2570.000000	99.233240 
2569.000000	99.232942 
2568.000000	99.232651 
2567.000000	99.232385 
2566.000000	99.232152 
2565.000000	99.231944 
2564.000000	99.231749 
2563.000000	99.231565 
2562.000000	99.231394 
2561.000000	99.231242 
2560.000000	99.231116 
2559.000000	99.231033 
2558.000000	99.231022 
2557.000000	99.231075 
2556.000000	99.231111 
2555.000000	99.231071 
2554.000000	99.231035 
2553.000000	99.231149 
2552.000000	99.231397 
2551.000000	99.231543 
2550.000000	99.231416 
2549.000000	99.231169 
2548.000000	99.231098 
2547.000000	99.231204 
2546.000000	99.231192 
2545.000000	99.230932 
2544.000000	99.230653 
2543.000000	99.230637 
2542.000000	99.230915 
2541.000000	99.231338 
2540.000000	99.231804 
2539.000000	99.232266 
2538.000000	99.232591 
2537.000000	99.232577 
2536.000000	99.232112 
2535.000000	99.231301 
2534.000000	99.230534 
2533.000000	99.230358 
2532.000000	99.231078 
2531.000000	99.232389 
2530.000000	99.233490 
2529.000000	99.233855 
2528.000000	99.233726 
2527.000000	99.233762 
2526.000000	99.234321 
2525.000000	99.235283 
2524.000000	99.236437 
2523.000000	99.237660 
2522.000000	99.238720 
2521.000000	99.239251 
2520.000000	99.239106 
2519.000000	99.238525 
2518.000000	99.237820 
2517.000000	99.237051 
2516.000000	99.236159 
2515.000000	99.235270 
2514.000000	99.234718 
2513.000000	99.234740 
2512.000000	99.235161 
2511.000000	99.235465 
2510.000000	99.235297 
2509.000000	99.234924 
2508.000000	99.234980 
2507.000000	99.235682 
2506.000000	99.236478 
2505.000000	99.236649 
2504.000000	99.236099 
2503.000000	99.235327 
2502.000000	99.234797 
2501.000000	99.234555 
2500.000000	99.234543 
2499.000000	99.234894 
2498.000000	99.235706 
2497.000000	99.236719 
2496.000000	99.237443 
2495.000000	99.237604 
2494.000000	99.237271 
2493.000000	99.236680 
2492.000000	99.236062 
2491.000000	99.235592 
2490.000000	99.235363 
2489.000000	99.235322 
2488.000000	99.235289 
2487.000000	99.235127 
2486.000000	99.234875 
2485.000000	99.234691 
2484.000000	99.234680 
2483.000000	99.234797 
2482.000000	99.234896 
2481.000000	99.234885 
2480.000000	99.234789 
2479.000000	99.234689 
2478.000000	99.234607 
2477.000000	99.234479 
2476.000000	99.234244 
2475.000000	99.233934 
2474.000000	99.233670 
2473.000000	99.233560 
2472.000000	99.233621 
2471.000000	99.233794 
2470.000000	99.234007 
2469.000000	99.234173 
2468.000000	99.234145 
2467.000000	99.233766 
2466.000000	99.233036 
2465.000000	99.232219 
2464.000000	99.231646 
2463.000000	99.231413 
2462.000000	99.231309 
2461.000000	99.231049 
2460.000000	99.230600 
2459.000000	99.230191 
2458.000000	99.230064 
2457.000000	99.230261 
2456.000000	99.230603 
2455.000000	99.230801 
2454.000000	99.230658 
2453.000000	99.230189 
2452.000000	99.229589 
2451.000000	99.229069 
2450.000000	99.228691 
2449.000000	99.228403 
2448.000000	99.228151 
2447.000000	99.227935 
2446.000000	99.227788 
2445.000000	99.227783 
2444.000000	99.227996 
2443.000000	99.228409 
2442.000000	99.228839 
2441.000000	99.229028 
2440.000000	99.228848 
2439.000000	99.228371 
2438.000000	99.227784 
2437.000000	99.227279 
2436.000000	99.226959 
2435.000000	99.226778 
2434.000000	99.226562 
2433.000000	99.226173 
2432.000000	99.225705 
2431.000000	99.225414 
2430.000000	99.225443 
2429.000000	99.225690 
2428.000000	99.225981 
2427.000000	99.226289 
2426.000000	99.226654 
2425.000000	99.226980 
2424.000000	99.227033 
2423.000000	99.226677 
2422.000000	99.226053 
2421.000000	99.225573 
2420.000000	99.225566 
2419.000000	99.226037 
2418.000000	99.226730 
2417.000000	99.227367 
2416.000000	99.227842 
2415.000000	99.228140 
2414.000000	99.228237 
2413.000000	99.228182 
2412.000000	99.228182 
2411.000000	99.228444 
2410.000000	99.228976 
2409.000000	99.229588 
2408.000000	99.230136 
2407.000000	99.230664 
2406.000000	99.231254 
2405.000000	99.231880 
2404.000000	99.232457 
2403.000000	99.232934 
2402.000000	99.233319 
2401.000000	99.233671 
2400.000000	99.234082 
2399.000000	99.234617 
2398.000000	99.235254 
2397.000000	99.235918 
2396.000000	99.236573 
2395.000000	99.237251 
2394.000000	99.238000 
2393.000000	99.238821 
2392.000000	99.239675 
2391.000000	99.240524 
2390.000000	99.241368 
2389.000000	99.242213 
2388.000000	99.243054 
2387.000000	99.243884 
2386.000000	99.244697 
2385.000000	99.245498 
2384.000000	99.246291 
2383.000000	99.247081 
2382.000000	99.247876 
2381.000000	99.248678 
2380.000000	99.249483 
2379.000000	99.250281 
2378.000000	99.251062 
2377.000000	99.251826 
2376.000000	99.252582 
2375.000000	99.253341 
2374.000000	99.254107 
2373.000000	99.254873 
2372.000000	99.255629 
2371.000000	99.256368 
2370.000000	99.257085 
2369.000000	99.257775 
2368.000000	99.258427 
2367.000000	99.259036 
2366.000000	99.259602 
2365.000000	99.260138 
2364.000000	99.260658 
2363.000000	99.261170 
2362.000000	99.261675 
2361.000000	99.262165 
2360.000000	99.262635 
2359.000000	99.263083 
2358.000000	99.263510 
2357.000000	99.263917 
2356.000000	99.264300 
2355.000000	99.264653 
2354.000000	99.264965 
2353.000000	99.265229 
2352.000000	99.265447 
2351.000000	99.265630 
2350.000000	99.265792 
2349.000000	99.265939 
2348.000000	99.266069 
2347.000000	99.266171 
2346.000000	99.266241 
2345.000000	99.266283 
2344.000000	99.266303 
2343.000000	99.266309 
2342.000000	99.266300 
2341.000000	99.266268 
2340.000000	99.266199 
2339.000000	99.266077 
2338.000000	99.265894 
2337.000000	99.265652 
2336.000000	99.265365 
2335.000000	99.265045 
2334.000000	99.264694 
2333.000000	99.264307 
2332.000000	99.263876 
2331.000000	99.263395 
2330.000000	99.262863 
2329.000000	99.262293 
2328.000000	99.261714 
2327.000000	99.261138 
2326.000000	99.260537 
2325.000000	99.259822 
2324.000000	99.258935 
2323.000000	99.257979 
2322.000000	99.257181 
2321.000000	99.256736 
2320.000000	99.256569 
2319.000000	99.256361 
2318.000000	99.255776 
2317.000000	99.254726 
2316.000000	99.253397 
2315.000000	99.252032 
2314.000000	99.250719 
2313.000000	99.249398 
2312.000000	99.248067 
2311.000000	99.246832 
2310.000000	99.245951 
2309.000000	99.245550 
2308.000000	99.245393 
2307.000000	99.244758 
2306.000000	99.243107 
2305.000000	99.240634 
2304.000000	99.238071 
2303.000000	99.235868 
2302.000000	99.233918 
2301.000000	99.232028 
2300.000000	99.230220 
2299.000000	99.228330 
2298.000000	99.225939 
2297.000000	99.223031 
2296.000000	99.220522 
2295.000000	99.219326 
2294.000000	99.219285 
2293.000000	99.219210 
2292.000000	99.218221 
2291.000000	99.216502 
2290.000000	99.214716 
2289.000000	99.213054 
2288.000000	99.211222 
2287.000000	99.209000 
2286.000000	99.206488 
2285.000000	99.204015 
2284.000000	99.202061 
2283.000000	99.201025 
2282.000000	99.200662 
2281.000000	99.199980 
2280.000000	99.198054 
2279.000000	99.195036 
2278.000000	99.192150 
2277.000000	99.190646 
2276.000000	99.190714 
2275.000000	99.191299 
2274.000000	99.191052 
2273.000000	99.189539 
2272.000000	99.187238 
2271.000000	99.184339 
2270.000000	99.180452 
2269.000000	99.176124 
2268.000000	99.173700 
2267.000000	99.175266 
2266.000000	99.180028 
2265.000000	99.184554 
2264.000000	99.185893 
2263.000000	99.183779 
2262.000000	99.180301 
2261.000000	99.178382 
2260.000000	99.179956 
2259.000000	99.184262 
2258.000000	99.187905 
2257.000000	99.188173 
2256.000000	99.186212 
2255.000000	99.185679 
2254.000000	99.188105 
2253.000000	99.191242 
2252.000000	99.192364 
2251.000000	99.191339 
2250.000000	99.189741 
2249.000000	99.188427 
2248.000000	99.187065 
2247.000000	99.184932 
2246.000000	99.181462 
2245.000000	99.176686 
2244.000000	99.171479 
2243.000000	99.166892 
2242.000000	99.163307 
2241.000000	99.160767 
2240.000000	99.159516 
2239.000000	99.159135 
2238.000000	99.157641 
2237.000000	99.152995 
2236.000000	99.145497 
2235.000000	99.137436 
2234.000000	99.130559 
2233.000000	99.125377 
2232.000000	99.122740 
2231.000000	99.124096 
2230.000000	99.129649 
2229.000000	99.137641 
2228.000000	99.145888 
2227.000000	99.152930 
2226.000000	99.157472 
2225.000000	99.158369 
2224.000000	99.155774 
2223.000000	99.151247 
2222.000000	99.146353 
2221.000000	99.142098 
2220.000000	99.139568 
2219.000000	99.139576 
2218.000000	99.141550 
2217.000000	99.144053 
2216.000000	99.146682 
2215.000000	99.149971 
2214.000000	99.153042 
2213.000000	99.153160 
2212.000000	99.148625 
2211.000000	99.141076 
2210.000000	99.134427 
2209.000000	99.131559 
2208.000000	99.132435 
2207.000000	99.134878 
2206.000000	99.136634 
2205.000000	99.136977 
2204.000000	99.136340 
2203.000000	99.134677 
2202.000000	99.131176 
2201.000000	99.126037 
2200.000000	99.121311 
2199.000000	99.118613 
2198.000000	99.117028 
2197.000000	99.114886 
2196.000000	99.112920 
2195.000000	99.113443 
2194.000000	99.116787 
2193.000000	99.120792 
2192.000000	99.123541 
2191.000000	99.124852 
2190.000000	99.125011 
2189.000000	99.124165 
2188.000000	99.123229 
2187.000000	99.123565 
2186.000000	99.125346 
2185.000000	99.127487 
2184.000000	99.129303 
2183.000000	99.130894 
2182.000000	99.131775 
2181.000000	99.130986 
2180.000000	99.129022 
2179.000000	99.127919 
2178.000000	99.128707 
2177.000000	99.130059 
2176.000000	99.130086 
2175.000000	99.128344 
2174.000000	99.125584 
2173.000000	99.122831 
2172.000000	99.121203 
2171.000000	99.121429 
2170.000000	99.123008 
2169.000000	99.124543 
2168.000000	99.125468 
2167.000000	99.126558 
2166.000000	99.128246 
2165.000000	99.129699 
2164.000000	99.130204 
2163.000000	99.130387 
2162.000000	99.131268 
2161.000000	99.132898 
2160.000000	99.134600 
2159.000000	99.135986 
2158.000000	99.137197 
2157.000000	99.138457 
2156.000000	99.139839 
2155.000000	99.141238 
2154.000000	99.142398 
2153.000000	99.143123 
2152.000000	99.143503 
2151.000000	99.143926 
2150.000000	99.144773 
2149.000000	99.146150 
2148.000000	99.147930 
2147.000000	99.149807 
2146.000000	99.151359 
2145.000000	99.152288 
2144.000000	99.152663 
2143.000000	99.152922 
2142.000000	99.153369 
2141.000000	99.153897 
2140.000000	99.154349 
2139.000000	99.154825 
2138.000000	99.155467 
2137.000000	99.156131 
2136.000000	99.156543 
2135.000000	99.156719 
2134.000000	99.157013 
2133.000000	99.157698 
2132.000000	99.158704 
2131.000000	99.159698 
2130.000000	99.160350 
2129.000000	99.160535 
2128.000000	99.160404 
2127.000000	99.160274 
2126.000000	99.160299 
2125.000000	99.160319 
2124.000000	99.160175 
2123.000000	99.160133 
2122.000000	99.160680 
2121.000000	99.161827 
2120.000000	99.162881 
2119.000000	99.163152 
2118.000000	99.162589 
2117.000000	99.161656 
2116.000000	99.160833 
2115.000000	99.160461 
2114.000000	99.160802 
2113.000000	99.161815 
2112.000000	99.162930 
2111.000000	99.163348 
2110.000000	99.162602 
2109.000000	99.160878 
2108.000000	99.158886 
2107.000000	99.157353 
2106.000000	99.156320 
2105.000000	99.154875 
2104.000000	99.152061 
2103.000000	99.148176 
2102.000000	99.144870 
2101.000000	99.143622 
2100.000000	99.144532 
2099.000000	99.146434 
2098.000000	99.147881 
2097.000000	99.148263 
2096.000000	99.148066 
2095.000000	99.147968 
2094.000000	99.147556 
2093.000000	99.145501 
2092.000000	99.141601 
2091.000000	99.138022 
2090.000000	99.137316 
2089.000000	99.139342 
2088.000000	99.141273 
2087.000000	99.140868 
2086.000000	99.138773 
2085.000000	99.137110 
2084.000000	99.136847 
2083.000000	99.137286 
2082.000000	99.137515 
2081.000000	99.137512 
2080.000000	99.137827 
2079.000000	99.138650 
2078.000000	99.139507 
2077.000000	99.140032 
2076.000000	99.140877 
2075.000000	99.143112 
2074.000000	99.146378 
2073.000000	99.148569 
2072.000000	99.148210 
2071.000000	99.146295 
2070.000000	99.144789 
2069.000000	99.143904 
2068.000000	99.142294 
2067.000000	99.139464 
2066.000000	99.136286 
2065.000000	99.133199 
2064.000000	99.129703 
2063.000000	99.126080 
2062.000000	99.123991 
2061.000000	99.124646 
2060.000000	99.127392 
2059.000000	99.130684 
2058.000000	99.133401 
2057.000000	99.134827 
2056.000000	99.134441 
2055.000000	99.132264 
2054.000000	99.128863 
2053.000000	99.124817 
2052.000000	99.120808 
2051.000000	99.118091 
2050.000000	99.117535 
2049.000000	99.117813 
2048.000000	99.116066 
2047.000000	99.111367 
2046.000000	99.106129 
2045.000000	99.103081 
2044.000000	99.102080 
2043.000000	99.100958 
2042.000000	99.098514 
2041.000000	99.095484 
2040.000000	99.093237 
2039.000000	99.092703 
2038.000000	99.094177 
2037.000000	99.096989 
2036.000000	99.099411 
2035.000000	99.099787 
2034.000000	99.097767 
2033.000000	99.094087 
2032.000000	99.089498 
2031.000000	99.084442 
2030.000000	99.079563 
2029.000000	99.075755 
2028.000000	99.073591 
2027.000000	99.073217 
2026.000000	99.074690 
2025.000000	99.077886 
2024.000000	99.081905 
2023.000000	99.085026 
2022.000000	99.085715 
2021.000000	99.083811 
2020.000000	99.080913 
2019.000000	99.079430 
2018.000000	99.080710 
2017.000000	99.083969 
2016.000000	99.086945 
2015.000000	99.087981 
2014.000000	99.087246 
2013.000000	99.086004 
2012.000000	99.085144 
2011.000000	99.084705 
2010.000000	99.084643 
2009.000000	99.085387 
2008.000000	99.087202 
2007.000000	99.089404 
2006.000000	99.090896 
2005.000000	99.091545 
2004.000000	99.092335 
2003.000000	99.093843 
2002.000000	99.095154 
2001.000000	99.094850 
2000.000000	99.092757 
1999.000000	99.090035 
1998.000000	99.087913 
1997.000000	99.087035 
1996.000000	99.087800 
1995.000000	99.090414 
1994.000000	99.094276 
1993.000000	99.097791 
1992.000000	99.099527 
1991.000000	99.099407 
1990.000000	99.098371 
1989.000000	99.097338 
1988.000000	99.096850 
1987.000000	99.097172 
1986.000000	99.098048 
1985.000000	99.098634 
1984.000000	99.098246 
1983.000000	99.097150 
1982.000000	99.096190 
1981.000000	99.095639 
1980.000000	99.094862 
1979.000000	99.093253 
1978.000000	99.091197 
1977.000000	99.089715 
1976.000000	99.089205 
1975.000000	99.089135 
1974.000000	99.089230 
1973.000000	99.090419 
1972.000000	99.093785 
1971.000000	99.098850 
1970.000000	99.103284 
1969.000000	99.104933 
1968.000000	99.103782 
1967.000000	99.101856 
1966.000000	99.101278 
1965.000000	99.102149 
1964.000000	99.103172 
1963.000000	99.103612 
1962.000000	99.104005 
1961.000000	99.105129 
1960.000000	99.106925 
1959.000000	99.108640 
1958.000000	99.109699 
1957.000000	99.110130 
1956.000000	99.110354 
1955.000000	99.110782 
1954.000000	99.111609 
1953.000000	99.112818 
1952.000000	99.114196 
1951.000000	99.115437 
1950.000000	99.116268 
1949.000000	99.116627 
1948.000000	99.116830 
1947.000000	99.117245 
1946.000000	99.117692 
1945.000000	99.117461 
1944.000000	99.116224 
1943.000000	99.114871 
1942.000000	99.114926 
1941.000000	99.116900 
1940.000000	99.119743 
1939.000000	99.122050 
1938.000000	99.123594 
1937.000000	99.125304 
1936.000000	99.127869 
1935.000000	99.130679 
1934.000000	99.132470 
1933.000000	99.132979 
1932.000000	99.133445 
1931.000000	99.135352 
1930.000000	99.138675 
1929.000000	99.141745 
1928.000000	99.143349 
1927.000000	99.144004 
1926.000000	99.144790 
1925.000000	99.145566 
1924.000000	99.145431 
1923.000000	99.144569 
1922.000000	99.144354 
1921.000000	99.145509 
1920.000000	99.147304 
1919.000000	99.148503 
1918.000000	99.148439 
1917.000000	99.147399 
1916.000000	99.146325 
1915.000000	99.145993 
1914.000000	99.146591 
1913.000000	99.147908 
1912.000000	99.149561 
1911.000000	99.151175 
1910.000000	99.152336 
1909.000000	99.152847 
1908.000000	99.153212 
1907.000000	99.154222 
1906.000000	99.156100 
1905.000000	99.158132 
1904.000000	99.159396 
1903.000000	99.159714 
1902.000000	99.159449 
1901.000000	99.159021 
1900.000000	99.158797 
1899.000000	99.159080 
1898.000000	99.159956 
1897.000000	99.161146 
1896.000000	99.162290 
1895.000000	99.163287 
1894.000000	99.164027 
1893.000000	99.164244 
1892.000000	99.164033 
1891.000000	99.164049 
1890.000000	99.164620 
1889.000000	99.165157 
1888.000000	99.165206 
1887.000000	99.165294 
1886.000000	99.166033 
1885.000000	99.167253 
1884.000000	99.168495 
1883.000000	99.169882 
1882.000000	99.171544 
1881.000000	99.172905 
1880.000000	99.173561 
1879.000000	99.174183 
1878.000000	99.175886 
1877.000000	99.178803 
1876.000000	99.181748 
1875.000000	99.183405 
1874.000000	99.183211 
1873.000000	99.181404 
1872.000000	99.179173 
1871.000000	99.178115 
1870.000000	99.178528 
1869.000000	99.178444 
1868.000000	99.176285 
1867.000000	99.173593 
1866.000000	99.172718 
1865.000000	99.173676 
1864.000000	99.174661 
1863.000000	99.174312 
1862.000000	99.172941 
1861.000000	99.171744 
1860.000000	99.171779 
1859.000000	99.173673 
1858.000000	99.177268 
1857.000000	99.181321 
1856.000000	99.184353 
1855.000000	99.185984 
1854.000000	99.186761 
1853.000000	99.187048 
1852.000000	99.186926 
1851.000000	99.186503 
1850.000000	99.186199 
1849.000000	99.186594 
1848.000000	99.187851 
1847.000000	99.189463 
1846.000000	99.190495 
1845.000000	99.190312 
1844.000000	99.189256 
1843.000000	99.188613 
1842.000000	99.189041 
1841.000000	99.190009 
1840.000000	99.190868 
1839.000000	99.191370 
1838.000000	99.191535 
1837.000000	99.191418 
1836.000000	99.191192 
1835.000000	99.191238 
1834.000000	99.191802 
1833.000000	99.192762 
1832.000000	99.193715 
1831.000000	99.194191 
1830.000000	99.194063 
1829.000000	99.193797 
1828.000000	99.193917 
1827.000000	99.194345 
1826.000000	99.194704 
1825.000000	99.194826 
1824.000000	99.194876 
1823.000000	99.195065 
1822.000000	99.195338 
1821.000000	99.195552 
1820.000000	99.195783 
1819.000000	99.196238 
1818.000000	99.196953 
1817.000000	99.197649 
1816.000000	99.198038 
1815.000000	99.198207 
1814.000000	99.198460 
1813.000000	99.198934 
1812.000000	99.199446 
1811.000000	99.199855 
1810.000000	99.200309 
1809.000000	99.200855 
1808.000000	99.201269 
1807.000000	99.201409 
1806.000000	99.201377 
1805.000000	99.201311 
1804.000000	99.201276 
1803.000000	99.201311 
1802.000000	99.201320 
1801.000000	99.201108 
1800.000000	99.200662 
1799.000000	99.200379 
1798.000000	99.200604 
1797.000000	99.201234 
1796.000000	99.201927 
1795.000000	99.202476 
1794.000000	99.202854 
1793.000000	99.202975 
1792.000000	99.202710 
1791.000000	99.202292 
1790.000000	99.202094 
1789.000000	99.202089 
1788.000000	99.202096 
1787.000000	99.202123 
1786.000000	99.202304 
1785.000000	99.202556 
1784.000000	99.202590 
1783.000000	99.202324 
1782.000000	99.201891 
1781.000000	99.201501 
1780.000000	99.201141 
1779.000000	99.200668 
1778.000000	99.200172 
1777.000000	99.199894 
1776.000000	99.199998 
1775.000000	99.200203 
1774.000000	99.200081 
1773.000000	99.199733 
1772.000000	99.199531 
1771.000000	99.199519 
1770.000000	99.199353 
1769.000000	99.198625 
1768.000000	99.197378 
1767.000000	99.196111 
1766.000000	99.195247 
1765.000000	99.194846 
1764.000000	99.194676 
1763.000000	99.194535 
1762.000000	99.194267 
1761.000000	99.194006 
1760.000000	99.193681 
1759.000000	99.193086 
1758.000000	99.192563 
1757.000000	99.192959 
1756.000000	99.194553 
1755.000000	99.196070 
1754.000000	99.196357 
1753.000000	99.195924 
1752.000000	99.195723 
1751.000000	99.194593 
1750.000000	99.190879 
1749.000000	99.185561 
1748.000000	99.181642 
1747.000000	99.180591 
1746.000000	99.181207 
1745.000000	99.182029 
1744.000000	99.182610 
1743.000000	99.183031 
1742.000000	99.183299 
1741.000000	99.183224 
1740.000000	99.182934 
1739.000000	99.183456 
1738.000000	99.185384 
1737.000000	99.187741 
1736.000000	99.189511 
1735.000000	99.191113 
1734.000000	99.191952 
1733.000000	99.191575 
1732.000000	99.190921 
1731.000000	99.190125 
1730.000000	99.189486 
1729.000000	99.189670 
1728.000000	99.190778 
1727.000000	99.192292 
1726.000000	99.193711 
1725.000000	99.195019 
1724.000000	99.195914 
1723.000000	99.196261 
1722.000000	99.196436 
1721.000000	99.196712 
1720.000000	99.197211 
1719.000000	99.198353 
1718.000000	99.200351 
1717.000000	99.202060 
1716.000000	99.202520 
1715.000000	99.202409 
1714.000000	99.202626 
1713.000000	99.203073 
1712.000000	99.203368 
1711.000000	99.203702 
1710.000000	99.204442 
1709.000000	99.205486 
1708.000000	99.206410 
1707.000000	99.207018 
1706.000000	99.207534 
1705.000000	99.208095 
1704.000000	99.208657 
1703.000000	99.209193 
1702.000000	99.209748 
1701.000000	99.210335 
1700.000000	99.210878 
1699.000000	99.211389 
1698.000000	99.211897 
1697.000000	99.212385 
1696.000000	99.212846 
1695.000000	99.213284 
1694.000000	99.213711 
1693.000000	99.214127 
1692.000000	99.214529 
1691.000000	99.214937 
1690.000000	99.215364 
1689.000000	99.215804 
1688.000000	99.216242 
1687.000000	99.216663 
1686.000000	99.217074 
1685.000000	99.217481 
1684.000000	99.217847 
1683.000000	99.218171 
1682.000000	99.218478 
1681.000000	99.218763 
1680.000000	99.219050 
1679.000000	99.219360 
1678.000000	99.219671 
1677.000000	99.219964 
1676.000000	99.220263 
1675.000000	99.220595 
1674.000000	99.220944 
1673.000000	99.221303 
1672.000000	99.221666 
1671.000000	99.222032 
1670.000000	99.222369 
1669.000000	99.222650 
1668.000000	99.222917 
1667.000000	99.223199 
1666.000000	99.223464 
1665.000000	99.223699 
1664.000000	99.223933 
1663.000000	99.224204 
1662.000000	99.224493 
1661.000000	99.224771 
1660.000000	99.225055 
1659.000000	99.225365 
1658.000000	99.225688 
1657.000000	99.225984 
1656.000000	99.226238 
1655.000000	99.226460 
1654.000000	99.226705 
1653.000000	99.226862 
1652.000000	99.227028 
1651.000000	99.227389 
1650.000000	99.227788 
1649.000000	99.228082 
1648.000000	99.228321 
1647.000000	99.228524 
1646.000000	99.228718 
1645.000000	99.229007 
1644.000000	99.229382 
1643.000000	99.229751 
1642.000000	99.229996 
1641.000000	99.230074 
1640.000000	99.230088 
1639.000000	99.230134 
1638.000000	99.230228 
1637.000000	99.230418 
1636.000000	99.230709 
1635.000000	99.230962 
1634.000000	99.231193 
1633.000000	99.231231 
1632.000000	99.230880 
1631.000000	99.230405 
1630.000000	99.230068 
1629.000000	99.229891 
1628.000000	99.229900 
1627.000000	99.230197 
1626.000000	99.230557 
1625.000000	99.230607 
1624.000000	99.230330 
1623.000000	99.230056 
1622.000000	99.230002 
1621.000000	99.230084 
1620.000000	99.230139 
1619.000000	99.230064 
1618.000000	99.229987 
1617.000000	99.229784 
1616.000000	99.229767 
1615.000000	99.230485 
1614.000000	99.231416 
1613.000000	99.232023 
1612.000000	99.232835 
1611.000000	99.234188 
1610.000000	99.235076 
1609.000000	99.234653 
1608.000000	99.233669 
1607.000000	99.233288 
1606.000000	99.233202 
1605.000000	99.232839 
1604.000000	99.232553 
1603.000000	99.232678 
1602.000000	99.232916 
1601.000000	99.232993 
1600.000000	99.233166 
1599.000000	99.233604 
1598.000000	99.234052 
1597.000000	99.234342 
1596.000000	99.234599 
1595.000000	99.234855 
1594.000000	99.234840 
1593.000000	99.234515 
1592.000000	99.234298 
1591.000000	99.234466 
1590.000000	99.234753 
1589.000000	99.234895 
1588.000000	99.235113 
1587.000000	99.235647 
1586.000000	99.236198 
1585.000000	99.236320 
1584.000000	99.236224 
1583.000000	99.236166 
1582.000000	99.235954 
1581.000000	99.235511 
1580.000000	99.235075 
1579.000000	99.234694 
1578.000000	99.234243 
1577.000000	99.233817 
1576.000000	99.233642 
1575.000000	99.233806 
1574.000000	99.234011 
1573.000000	99.233979 
1572.000000	99.233818 
1571.000000	99.233801 
1570.000000	99.233906 
1569.000000	99.233970 
1568.000000	99.234089 
1567.000000	99.234219 
1566.000000	99.234215 
1565.000000	99.234102 
1564.000000	99.234054 
1563.000000	99.234016 
1562.000000	99.233867 
1561.000000	99.233613 
1560.000000	99.233825 
1559.000000	99.234097 
1558.000000	99.233933 
1557.000000	99.234001 
1556.000000	99.234294 
1555.000000	99.234647 
1554.000000	99.234983 
1553.000000	99.235191 
1552.000000	99.235237 
1551.000000	99.235111 
1550.000000	99.235007 
1549.000000	99.235099 
1548.000000	99.235392 
1547.000000	99.235708 
1546.000000	99.235837 
1545.000000	99.235740 
1544.000000	99.235633 
1543.000000	99.235881 
1542.000000	99.236719 
1541.000000	99.237879 
1540.000000	99.238500 
1539.000000	99.238671 
1538.000000	99.239116 
1537.000000	99.239651 
1536.000000	99.239937 
1535.000000	99.240193 
1534.000000	99.240274 
1533.000000	99.239677 
1532.000000	99.238659 
1531.000000	99.237979 
1530.000000	99.237904 
1529.000000	99.238093 
1528.000000	99.238118 
1527.000000	99.238179 
1526.000000	99.238721 
1525.000000	99.239590 
1524.000000	99.240147 
1523.000000	99.240353 
1522.000000	99.240716 
1521.000000	99.240987 
1520.000000	99.240662 
1519.000000	99.239585 
1518.000000	99.237965 
1517.000000	99.236514 
1516.000000	99.235727 
1515.000000	99.235446 
1514.000000	99.235181 
1513.000000	99.234854 
1512.000000	99.234483 
1511.000000	99.233857 
1510.000000	99.233074 
1509.000000	99.232427 
1508.000000	99.232496 
1507.000000	99.232867 
1506.000000	99.232894 
1505.000000	99.232293 
1504.000000	99.231005 
1503.000000	99.229462 
1502.000000	99.228292 
1501.000000	99.227625 
1500.000000	99.226860 
1499.000000	99.225376 
1498.000000	99.223500 
1497.000000	99.221802 
1496.000000	99.220097 
1495.000000	99.218726 
1494.000000	99.218434 
1493.000000	99.219232 
1492.000000	99.220416 
1491.000000	99.221074 
1490.000000	99.220498 
1489.000000	99.218555 
1488.000000	99.215574 
1487.000000	99.212708 
1486.000000	99.210785 
1485.000000	99.209017 
1484.000000	99.206745 
1483.000000	99.204134 
1482.000000	99.201956 
1481.000000	99.200506 
1480.000000	99.199237 
1479.000000	99.197800 
1478.000000	99.196474 
1477.000000	99.195347 
1476.000000	99.194016 
1475.000000	99.193130 
1474.000000	99.193708 
1473.000000	99.194776 
1472.000000	99.193753 
1471.000000	99.190566 
1470.000000	99.187178 
1469.000000	99.184152 
1468.000000	99.181107 
1467.000000	99.178440 
1466.000000	99.177047 
1465.000000	99.176941 
1464.000000	99.177436 
1463.000000	99.177912 
1462.000000	99.178408 
1461.000000	99.178640 
1460.000000	99.178137 
1459.000000	99.176176 
1458.000000	99.172164 
1457.000000	99.164388 
1456.000000	99.154044 
1455.000000	99.144952 
1454.000000	99.138488 
1453.000000	99.136043 
1452.000000	99.138340 
1451.000000	99.143205 
1450.000000	99.147828 
1449.000000	99.150947 
1448.000000	99.152062 
1447.000000	99.152105 
1446.000000	99.152262 
1445.000000	99.153658 
1444.000000	99.156022 
1443.000000	99.157566 
1442.000000	99.158000 
1441.000000	99.158318 
1440.000000	99.158540 
1439.000000	99.157301 
1438.000000	99.156521 
1437.000000	99.158954 
1436.000000	99.162522 
1435.000000	99.163218 
1434.000000	99.160756 
1433.000000	99.156954 
1432.000000	99.153240 
1431.000000	99.149278 
1430.000000	99.144883 
1429.000000	99.141351 
1428.000000	99.138752 
1427.000000	99.136049 
1426.000000	99.132202 
1425.000000	99.128360 
1424.000000	99.125440 
1423.000000	99.121356 
1422.000000	99.114403 
1421.000000	99.105533 
1420.000000	99.096570 
1419.000000	99.086833 
1418.000000	99.077091 
1417.000000	99.069310 
1416.000000	99.061749 
1415.000000	99.052054 
1414.000000	99.040454 
1413.000000	99.029234 
1412.000000	99.020282 
1411.000000	99.013307 
1410.000000	99.007578 
1409.000000	99.003155 
1408.000000	99.000035 
1407.000000	98.998429 
1406.000000	98.998447 
1405.000000	99.000378 
1404.000000	99.004306 
1403.000000	99.009513 
1402.000000	99.015785 
1401.000000	99.023461 
1400.000000	99.031726 
1399.000000	99.037163 
1398.000000	99.036060 
1397.000000	99.026846 
1396.000000	99.010735 
1395.000000	98.993931 
1394.000000	98.986123 
1393.000000	98.992366 
1392.000000	99.008381 
1391.000000	99.025301 
1390.000000	99.036981 
1389.000000	99.042147 
1388.000000	99.042104 
1387.000000	99.038787 
1386.000000	99.034641 
1385.000000	99.031974 
1384.000000	99.031529 
1383.000000	99.032242 
1382.000000	99.032943 
1381.000000	99.033777 
1380.000000	99.036067 
1379.000000	99.040706 
1378.000000	99.047109 
1377.000000	99.054007 
1376.000000	99.060632 
1375.000000	99.066815 
1374.000000	99.072707 
1373.000000	99.079094 
1372.000000	99.086435 
1371.000000	99.094112 
1370.000000	99.100936 
1369.000000	99.106704 
1368.000000	99.112289 
1367.000000	99.118090 
1366.000000	99.123856 
1365.000000	99.129795 
1364.000000	99.136665 
1363.000000	99.144277 
1362.000000	99.150964 
1361.000000	99.155398 
1360.000000	99.158169 
1359.000000	99.161039 
1358.000000	99.165259 
1357.000000	99.170908 
1356.000000	99.177114 
1355.000000	99.182646 
1354.000000	99.187069 
1353.000000	99.191186 
1352.000000	99.195592 
1351.000000	99.199762 
1350.000000	99.202277 
1349.000000	99.203432 
1348.000000	99.204957 
1347.000000	99.207333 
1346.000000	99.209470 
1345.000000	99.210658 
1344.000000	99.211380 
1343.000000	99.212033 
1342.000000	99.212666 
1341.000000	99.214119 
1340.000000	99.217544 
1339.000000	99.222087 
1338.000000	99.225325 
1337.000000	99.226672 
1336.000000	99.227962 
1335.000000	99.230316 
1334.000000	99.232531 
1333.000000	99.233262 
1332.000000	99.233106 
1331.000000	99.233462 
1330.000000	99.234501 
1329.000000	99.235578 
1328.000000	99.236397 
1327.000000	99.236644 
1326.000000	99.235337 
1325.000000	99.232388 
1324.000000	99.229639 
1323.000000	99.229094 
1322.000000	99.230991 
1321.000000	99.234190 
1320.000000	99.237648 
1319.000000	99.240655 
1318.000000	99.242369 
1317.000000	99.242028 
1316.000000	99.239618 
1315.000000	99.236026 
1314.000000	99.232658 
1313.000000	99.230741 
1312.000000	99.230520 
1311.000000	99.231111 
1310.000000	99.231481 
1309.000000	99.231502 
1308.000000	99.231576 
1307.000000	99.231665 
1306.000000	99.231253 
1305.000000	99.230586 
1304.000000	99.230777 
1303.000000	99.232299 
1302.000000	99.234205 
1301.000000	99.235196 
1300.000000	99.235015 
1299.000000	99.234511 
1298.000000	99.234783 
1297.000000	99.236195 
1296.000000	99.237906 
1295.000000	99.238321 
1294.000000	99.236512 
1293.000000	99.233079 
1292.000000	99.229208 
1291.000000	99.225440 
1290.000000	99.222063 
1289.000000	99.220109 
1288.000000	99.220574 
1287.000000	99.222582 
1286.000000	99.223686 
1285.000000	99.222293 
1284.000000	99.218612 
1283.000000	99.213483 
1282.000000	99.207460 
1281.000000	99.201282 
1280.000000	99.196381 
1279.000000	99.193636 
1278.000000	99.192243 
1277.000000	99.190642 
1276.000000	99.188108 
1275.000000	99.184856 
1274.000000	99.181121 
1273.000000	99.176862 
1272.000000	99.172141 
1271.000000	99.167222 
1270.000000	99.162232 
1269.000000	99.157001 
1268.000000	99.151170 
1267.000000	99.144339 
1266.000000	99.136444 
1265.000000	99.128129 
1264.000000	99.120433 
1263.000000	99.113883 
1262.000000	99.108046 
1261.000000	99.102187 
1260.000000	99.096296 
1259.000000	99.091045 
1258.000000	99.086893 
1257.000000	99.083641 
1256.000000	99.080964 
1255.000000	99.078941 
1254.000000	99.077610 
1253.000000	99.076250 
1252.000000	99.073936 
1251.000000	99.071088 
1250.000000	99.069755 
1249.000000	99.071670 
1248.000000	99.076351 
1247.000000	99.081497 
1246.000000	99.084749 
1245.000000	99.084413 
1244.000000	99.079552 
1243.000000	99.071536 
1242.000000	99.065309 
1241.000000	99.066251 
1240.000000	99.074718 
1239.000000	99.084804 
1238.000000	99.089940 
1237.000000	99.089129 
1236.000000	99.086027 
1235.000000	99.083579 
1234.000000	99.081644 
1233.000000	99.079210 
1232.000000	99.076235 
1231.000000	99.072847 
1230.000000	99.068922 
1229.000000	99.065437 
1228.000000	99.064642 
1227.000000	99.067788 
1226.000000	99.073563 
1225.000000	99.079562 
1224.000000	99.084639 
1223.000000	99.089116 
1222.000000	99.093458 
1221.000000	99.097736 
1220.000000	99.102122 
1219.000000	99.107156 
1218.000000	99.113369 
1217.000000	99.120711 
1216.000000	99.128206 
1215.000000	99.134333 
1214.000000	99.138065 
1213.000000	99.139489 
1212.000000	99.139318 
1211.000000	99.138426 
1210.000000	99.138224 
1209.000000	99.140517 
1208.000000	99.145807 
1207.000000	99.152100 
1206.000000	99.156611 
1205.000000	99.158621 
1204.000000	99.159707 
1203.000000	99.161417 
1202.000000	99.163809 
1201.000000	99.166194 
1200.000000	99.168100 
1199.000000	99.169324 
1198.000000	99.170138 
1197.000000	99.171431 
1196.000000	99.173388 
1195.000000	99.174452 
1194.000000	99.173044 
1193.000000	99.169811 
1192.000000	99.166841 
1191.000000	99.164947 
1190.000000	99.163079 
1189.000000	99.160553 
1188.000000	99.158273 
1187.000000	99.157388 
1186.000000	99.158010 
1185.000000	99.159644 
1184.000000	99.161736 
1183.000000	99.163396 
1182.000000	99.163684 
1181.000000	99.162706 
1180.000000	99.161591 
1179.000000	99.161002 
1178.000000	99.160536 
1177.000000	99.159900 
1176.000000	99.159590 
1175.000000	99.159812 
1174.000000	99.159555 
1173.000000	99.157620 
1172.000000	99.154146 
1171.000000	99.150511 
1170.000000	99.147935 
1169.000000	99.146545 
1168.000000	99.145591 
1167.000000	99.144256 
1166.000000	99.142464 
1165.000000	99.140999 
1164.000000	99.140540 
1163.000000	99.140730 
1162.000000	99.140739 
1161.000000	99.140734 
1160.000000	99.141929 
1159.000000	99.144735 
1158.000000	99.147480 
1157.000000	99.147640 
1156.000000	99.144037 
1155.000000	99.137654 
1154.000000	99.130989 
1153.000000	99.126701 
1152.000000	99.126026 
1151.000000	99.127664 
1150.000000	99.128616 
1149.000000	99.127014 
1148.000000	99.123874 
1147.000000	99.121457 
1146.000000	99.120327 
1145.000000	99.118878 
1144.000000	99.115466 
1143.000000	99.110052 
1142.000000	99.103917 
1141.000000	99.098760 
1140.000000	99.096229 
1139.000000	99.097150 
1138.000000	99.100340 
1137.000000	99.102692 
1136.000000	99.101470 
1135.000000	99.096717 
1134.000000	99.090924 
1133.000000	99.086009 
1132.000000	99.081206 
1131.000000	99.074726 
1130.000000	99.067040 
1129.000000	99.061092 
1128.000000	99.058570 
1127.000000	99.057059 
1126.000000	99.052267 
1125.000000	99.042886 
1124.000000	99.032165 
1123.000000	99.024533 
1122.000000	99.021389 
1121.000000	99.020417 
1120.000000	99.018186 
1119.000000	99.012856 
1118.000000	99.004945 
1117.000000	98.996138 
1116.000000	98.987441 
1115.000000	98.978447 
1114.000000	98.968454 
1113.000000	98.957862 
1112.000000	98.947745 
1111.000000	98.937962 
1110.000000	98.926416 
1109.000000	98.911097 
1108.000000	98.892750 
1107.000000	98.874789 
1106.000000	98.860188 
1105.000000	98.848837 
1104.000000	98.838149 
1103.000000	98.826374 
1102.000000	98.814858 
1101.000000	98.806553 
1100.000000	98.802235 
1099.000000	98.799601 
1098.000000	98.795855 
1097.000000	98.790183 
1096.000000	98.783064 
1095.000000	98.774137 
1094.000000	98.761985 
1093.000000	98.745283 
1092.000000	98.723081 
1091.000000	98.694759 
1090.000000	98.661426 
1089.000000	98.627011 
1088.000000	98.596107 
1087.000000	98.570254 
1086.000000	98.547472 
1085.000000	98.525600 
1084.000000	98.504564 
1083.000000	98.484766 
1082.000000	98.464927 
1081.000000	98.443051 
1080.000000	98.418845 
1079.000000	98.394164 
1078.000000	98.371723 
1077.000000	98.354230 
1076.000000	98.343890 
1075.000000	98.341296 
1074.000000	98.344950 
1073.000000	98.352355 
1072.000000	98.360333 
1071.000000	98.363282 
1070.000000	98.353531 
1069.000000	98.327404 
1068.000000	98.292092 
1067.000000	98.263940 
1066.000000	98.256809 
1065.000000	98.271992 
1064.000000	98.299005 
1063.000000	98.324204 
1062.000000	98.338193 
1061.000000	98.337129 
1060.000000	98.321670 
1059.000000	98.297581 
1058.000000	98.275046 
1057.000000	98.263023 
1056.000000	98.263013 
1055.000000	98.269355 
1054.000000	98.275717 
1053.000000	98.280166 
1052.000000	98.283840 
1051.000000	98.287218 
1050.000000	98.289835 
1049.000000	98.292105 
1048.000000	98.295050 
1047.000000	98.299165 
1046.000000	98.305271 
1045.000000	98.315043 
1044.000000	98.328590 
1043.000000	98.342715 
1042.000000	98.354105 
1041.000000	98.363708 
1040.000000	98.375607 
1039.000000	98.392140 
1038.000000	98.412593 
1037.000000	98.435996 
1036.000000	98.462013 
1035.000000	98.488969 
1034.000000	98.514156 
1033.000000	98.536476 
1032.000000	98.555687 
1031.000000	98.568915 
1030.000000	98.572337 
1029.000000	98.568472 
1028.000000	98.568225 
1027.000000	98.581643 
1026.000000	98.607598 
1025.000000	98.635221 
1024.000000	98.654640 
1023.000000	98.664142 
1022.000000	98.668475 
1021.000000	98.673251 
1020.000000	98.681290 
1019.000000	98.692175 
1018.000000	98.703666 
1017.000000	98.713992 
1016.000000	98.723346 
1015.000000	98.733290 
1014.000000	98.745098 
1013.000000	98.758711 
1012.000000	98.772551 
1011.000000	98.784128 
1010.000000	98.791879 
1009.000000	98.797029 
1008.000000	98.802980 
1007.000000	98.812312 
1006.000000	98.824838 
1005.000000	98.838685 
1004.000000	98.852276 
1003.000000	98.864826 
1002.000000	98.876038 
1001.000000	98.886205 
1000.000000	98.895927 
999.000000	 98.905031 
998.000000	 98.912392 
997.000000	 98.917602 
996.000000	 98.922291 
995.000000	 98.928916 
994.000000	 98.938319 
993.000000	 98.948975 
992.000000	 98.958343 
991.000000	 98.964583 
990.000000	 98.967582 
989.000000	 98.968998 
988.000000	 98.970988 
987.000000	 98.974457 
986.000000	 98.978903 
985.000000	 98.983965 
984.000000	 98.990059 
983.000000	 98.997007 
982.000000	 99.003260 
981.000000	 99.007437 
980.000000	 99.009892 
979.000000	 99.011992 
978.000000	 99.014848 
977.000000	 99.019421 
976.000000	 99.026467 
975.000000	 99.035165 
974.000000	 99.042752 
973.000000	 99.047035 
972.000000	 99.048951 
971.000000	 99.051636 
970.000000	 99.057132 
969.000000	 99.064738 
968.000000	 99.072272 
967.000000	 99.078041 
966.000000	 99.081648 
965.000000	 99.083646 
964.000000	 99.084794 
963.000000	 99.085684 
962.000000	 99.087147 
961.000000	 99.090520 
960.000000	 99.096472 
959.000000	 99.103405 
958.000000	 99.108267 
957.000000	 99.109747 
956.000000	 99.109859 
955.000000	 99.111738 
954.000000	 99.116283 
953.000000	 99.121681 
952.000000	 99.125696 
951.000000	 99.127565 
950.000000	 99.127926 
949.000000	 99.127748 
948.000000	 99.127443 
947.000000	 99.126682 
946.000000	 99.125001 
945.000000	 99.122480 
944.000000	 99.119615 
943.000000	 99.116857 
942.000000	 99.114988 
941.000000	 99.115492 
940.000000	 99.119147 
939.000000	 99.124062 
938.000000	 99.126731 
937.000000	 99.125977 
936.000000	 99.124548 
935.000000	 99.125924 
934.000000	 99.130403 
933.000000	 99.135377 
932.000000	 99.138627 
931.000000	 99.140002 
930.000000	 99.140367 
929.000000	 99.140228 
928.000000	 99.139393 
927.000000	 99.137281 
926.000000	 99.133670 
925.000000	 99.129588 
924.000000	 99.127081 
923.000000	 99.127427 
922.000000	 99.129786 
921.000000	 99.131974 
920.000000	 99.132181 
919.000000	 99.129664 
918.000000	 99.124795 
917.000000	 99.119208 
916.000000	 99.114929 
915.000000	 99.112421 
914.000000	 99.109955 
913.000000	 99.105697 
912.000000	 99.100001 
911.000000	 99.094986 
910.000000	 99.092337 
909.000000	 99.092355 
908.000000	 99.094490 
907.000000	 99.097600 
906.000000	 99.099870 
905.000000	 99.099669 
904.000000	 99.096821 
903.000000	 99.092736 
902.000000	 99.089400 
901.000000	 99.088363 
900.000000	 99.090028 
899.000000	 99.093100 
898.000000	 99.095028 
897.000000	 99.093856 
896.000000	 99.089559 
895.000000	 99.083568 
894.000000	 99.077754 
893.000000	 99.074138 
892.000000	 99.074503 
891.000000	 99.079115 
890.000000	 99.086206 
889.000000	 99.093526 
888.000000	 99.099926 
887.000000	 99.104972 
886.000000	 99.108179 
885.000000	 99.109765 
884.000000	 99.111113 
883.000000	 99.113039 
882.000000	 99.114256 
881.000000	 99.113231 
880.000000	 99.111252 
879.000000	 99.111775 
878.000000	 99.116351 
877.000000	 99.122578 
876.000000	 99.126469 
875.000000	 99.126083 
874.000000	 99.122677 
873.000000	 99.119448 
872.000000	 99.119230 
871.000000	 99.122540 
870.000000	 99.127449 
869.000000	 99.132027 
868.000000	 99.136751 
867.000000	 99.143403 
866.000000	 99.151981 
865.000000	 99.160280 
864.000000	 99.166811 
863.000000	 99.172426 
862.000000	 99.178077 
861.000000	 99.182398 
860.000000	 99.183325 
859.000000	 99.181621 
858.000000	 99.181022 
857.000000	 99.184240 
856.000000	 99.190159 
855.000000	 99.195780 
854.000000	 99.199846 
853.000000	 99.203175 
852.000000	 99.206091 
851.000000	 99.207712 
850.000000	 99.208236 
849.000000	 99.209838 
848.000000	 99.213885 
847.000000	 99.218663 
846.000000	 99.221666 
845.000000	 99.223116 
844.000000	 99.225187 
843.000000	 99.228338 
842.000000	 99.230816 
841.000000	 99.231750 
840.000000	 99.232173 
839.000000	 99.232576 
838.000000	 99.231962 
837.000000	 99.230156 
836.000000	 99.228733 
835.000000	 99.228492 
834.000000	 99.228182 
833.000000	 99.227324 
832.000000	 99.228178 
831.000000	 99.232640 
830.000000	 99.238546 
829.000000	 99.241523 
828.000000	 99.240173 
827.000000	 99.237314 
826.000000	 99.236228 
825.000000	 99.237095 
824.000000	 99.237602 
823.000000	 99.235912 
822.000000	 99.232664 
821.000000	 99.230525 
820.000000	 99.231602 
819.000000	 99.235196 
818.000000	 99.238740 
817.000000	 99.241000 
816.000000	 99.242973 
815.000000	 99.245036 
814.000000	 99.245272 
813.000000	 99.242272 
812.000000	 99.237775 
811.000000	 99.234396 
810.000000	 99.231586 
809.000000	 99.226542 
808.000000	 99.218734 
807.000000	 99.211059 
806.000000	 99.206147 
805.000000	 99.203523 
804.000000	 99.201300 
803.000000	 99.199189 
802.000000	 99.198652 
801.000000	 99.200648 
800.000000	 99.203915 
799.000000	 99.205755 
798.000000	 99.204882 
797.000000	 99.202940 
796.000000	 99.202298 
795.000000	 99.202564 
794.000000	 99.201106 
793.000000	 99.197358 
792.000000	 99.194472 
791.000000	 99.195340 
790.000000	 99.198868 
789.000000	 99.201649 
788.000000	 99.202022 
787.000000	 99.200571 
786.000000	 99.197741 
785.000000	 99.193261 
784.000000	 99.187609 
783.000000	 99.182252 
782.000000	 99.178342 
781.000000	 99.176275 
780.000000	 99.176169 
779.000000	 99.177444 
778.000000	 99.178305 
777.000000	 99.177332 
776.000000	 99.175522 
775.000000	 99.175250 
774.000000	 99.177257 
773.000000	 99.180089 
772.000000	 99.182456 
771.000000	 99.184705 
770.000000	 99.187814 
769.000000	 99.191980 
768.000000	 99.196388 
767.000000	 99.199837 
766.000000	 99.201684 
765.000000	 99.202560 
764.000000	 99.203922 
763.000000	 99.206422 
762.000000	 99.208943 
761.000000	 99.209843 
760.000000	 99.208923 
759.000000	 99.207660 
758.000000	 99.207724 
757.000000	 99.209443 
756.000000	 99.211793 
755.000000	 99.213372 
754.000000	 99.213563 
753.000000	 99.212926 
752.000000	 99.212687 
751.000000	 99.213643 
750.000000	 99.215639 
749.000000	 99.217953 
748.000000	 99.219965 
747.000000	 99.221500 
746.000000	 99.222705 
745.000000	 99.223825 
744.000000	 99.225041 
743.000000	 99.226341 
742.000000	 99.227575 
741.000000	 99.228668 
740.000000	 99.229702 
739.000000	 99.230755 
738.000000	 99.231765 
737.000000	 99.232620 
736.000000	 99.233302 
735.000000	 99.233879 
734.000000	 99.234421 
733.000000	 99.234960 
732.000000	 99.235492 
731.000000	 99.236008 
730.000000	 99.236493 
729.000000	 99.236928 
728.000000	 99.237306 
727.000000	 99.237637 
726.000000	 99.237933 
725.000000	 99.238178 
724.000000	 99.238345 
723.000000	 99.238441 
722.000000	 99.238509 
721.000000	 99.238602 
720.000000	 99.238760 
719.000000	 99.238997 
718.000000	 99.239280 
717.000000	 99.239534 
716.000000	 99.239697 
715.000000	 99.239744 
714.000000	 99.239688 
713.000000	 99.239582 
712.000000	 99.239551 
711.000000	 99.239709 
710.000000	 99.240012 
709.000000	 99.240275 
708.000000	 99.240325 
707.000000	 99.240152 
706.000000	 99.239822 
705.000000	 99.239438 
704.000000	 99.239117 
703.000000	 99.238963 
702.000000	 99.239010 
701.000000	 99.239199 
700.000000	 99.239425 
699.000000	 99.239603 
698.000000	 99.239714 
697.000000	 99.239768 
696.000000	 99.239786 
695.000000	 99.239792 
694.000000	 99.239801 
693.000000	 99.239823 
692.000000	 99.239867 
691.000000	 99.239936 
690.000000	 99.240020 
689.000000	 99.240112 
688.000000	 99.240205 
687.000000	 99.240294 
686.000000	 99.240367 
685.000000	 99.240410 
684.000000	 99.240424 
683.000000	 99.240423 
682.000000	 99.240420 
681.000000	 99.240420 
680.000000	 99.240423 
679.000000	 99.240425 
678.000000	 99.240419 
677.000000	 99.240394 
676.000000	 99.240351 
675.000000	 99.240299 
674.000000	 99.240245 
673.000000	 99.240190 
672.000000	 99.240138 
671.000000	 99.240100 
670.000000	 99.240093 
669.000000	 99.240121 
668.000000	 99.240175 
667.000000	 99.240230 
666.000000	 99.240267 
665.000000	 99.240292 
664.000000	 99.240325 
663.000000	 99.240378 
662.000000	 99.240431 
661.000000	 99.240437 
660.000000	 99.240348 
659.000000	 99.240148 
658.000000	 99.239852 
657.000000	 99.239475 
656.000000	 99.239030 
655.000000	 99.238538 
654.000000	 99.238027 
653.000000	 99.237516 
652.000000	 99.237015 
651.000000	 99.236527 
650.000000	 99.236049 

