4000.000000	99.657419 
3999.000000	99.654597 
3998.000000	99.652602 
3997.000000	99.653344 
3996.000000	99.656638 
3995.000000	99.660643 
3994.000000	99.663709 
3993.000000	99.665501 
3992.000000	99.666456 
3991.000000	99.666563 
3990.000000	99.665063 
3989.000000	99.661433 
3988.000000	99.656531 
3987.000000	99.652518 
3986.000000	99.651385 
3985.000000	99.653517 
3984.000000	99.657705 
3983.000000	99.662606 
3982.000000	99.667919 
3981.000000	99.673965 
3980.000000	99.680397 
3979.000000	99.685723 
3978.000000	99.688195 
3977.000000	99.687179 
3976.000000	99.683689 
3975.000000	99.679456 
3974.000000	99.675427 
3973.000000	99.671371 
3972.000000	99.667143 
3971.000000	99.663948 
3970.000000	99.663822 
3969.000000	99.667754 
3968.000000	99.674437 
3967.000000	99.680971 
3966.000000	99.684708 
3965.000000	99.684661 
3964.000000	99.681923 
3963.000000	99.679072 
3962.000000	99.678430 
3961.000000	99.680051 
3960.000000	99.681568 
3959.000000	99.680336 
3958.000000	99.675973 
3957.000000	99.670786 
3956.000000	99.667552 
3955.000000	99.667067 
3954.000000	99.667856 
3953.000000	99.667960 
3952.000000	99.666804 
3951.000000	99.665346 
3950.000000	99.664834 
3949.000000	99.665471 
3948.000000	99.666237 
3947.000000	99.666216 
3946.000000	99.665726 
3945.000000	99.665909 
3944.000000	99.667275 
3943.000000	99.669045 
3942.000000	99.669711 
3941.000000	99.668297 
3940.000000	99.665409 
3939.000000	99.662888 
3938.000000	99.662132 
3937.000000	99.662993 
3936.000000	99.664222 
3935.000000	99.664927 
3934.000000	99.665406 
3933.000000	99.666522 
3932.000000	99.668646 
3931.000000	99.671234 
3930.000000	99.673259 
3929.000000	99.673480 
3928.000000	99.670775 
3927.000000	99.665433 
3926.000000	99.659937 
3925.000000	99.657708 
3924.000000	99.660385 
3923.000000	99.666127 
3922.000000	99.671270 
3921.000000	99.673324 
3920.000000	99.672215 
3919.000000	99.669411 
3918.000000	99.666221 
3917.000000	99.663305 
3916.000000	99.661476 
3915.000000	99.661835 
3914.000000	99.664557 
3913.000000	99.667942 
3912.000000	99.669360 
3911.000000	99.667497 
3910.000000	99.663584 
3909.000000	99.660584 
3908.000000	99.660897 
3907.000000	99.664769 
3906.000000	99.670650 
3905.000000	99.676560 
3904.000000	99.681262 
3903.000000	99.683942 
3902.000000	99.683668 
3901.000000	99.680445 
3900.000000	99.675501 
3899.000000	99.670191 
3898.000000	99.664882 
3897.000000	99.659116 
3896.000000	99.653265 
3895.000000	99.649308 
3894.000000	99.649583 
3893.000000	99.655119 
3892.000000	99.664632 
3891.000000	99.675182 
3890.000000	99.684021 
3889.000000	99.689698 
3888.000000	99.691493 
3887.000000	99.688647 
3886.000000	99.682166 
3885.000000	99.675742 
3884.000000	99.672611 
3883.000000	99.672474 
3882.000000	99.672746 
3881.000000	99.672097 
3880.000000	99.671520 
3879.000000	99.672176 
3878.000000	99.673769 
3877.000000	99.675164 
3876.000000	99.675205 
3875.000000	99.674127 
3874.000000	99.673797 
3873.000000	99.675202 
3872.000000	99.676379 
3871.000000	99.674644 
3870.000000	99.670862 
3869.000000	99.668972 
3868.000000	99.670733 
3867.000000	99.674035 
3866.000000	99.675518 
3865.000000	99.673878 
3864.000000	99.671554 
3863.000000	99.671141 
3862.000000	99.672042 
3861.000000	99.671975 
3860.000000	99.669093 
3859.000000	99.662665 
3858.000000	99.653882 
3857.000000	99.645975 
3856.000000	99.643245 
3855.000000	99.646756 
3854.000000	99.653762 
3853.000000	99.661834 
3852.000000	99.669388 
3851.000000	99.675242 
3850.000000	99.679328 
3849.000000	99.681198 
3848.000000	99.680692 
3847.000000	99.678505 
3846.000000	99.675669 
3845.000000	99.673606 
3844.000000	99.673834 
3843.000000	99.676175 
3842.000000	99.678953 
3841.000000	99.681282 
3840.000000	99.683554 
3839.000000	99.686531 
3838.000000	99.690066 
3837.000000	99.692537 
3836.000000	99.692474 
3835.000000	99.689470 
3834.000000	99.684580 
3833.000000	99.679772 
3832.000000	99.676606 
3831.000000	99.675377 
3830.000000	99.675087 
3829.000000	99.674363 
3828.000000	99.673051 
3827.000000	99.672542 
3826.000000	99.674384 
3825.000000	99.679017 
3824.000000	99.685151 
3823.000000	99.689553 
3822.000000	99.689951 
3821.000000	99.688859 
3820.000000	99.690023 
3819.000000	99.692446 
3818.000000	99.692750 
3817.000000	99.688967 
3816.000000	99.682354 
3815.000000	99.676353 
3814.000000	99.672977 
3813.000000	99.671317 
3812.000000	99.669464 
3811.000000	99.667040 
3810.000000	99.665411 
3809.000000	99.666133 
3808.000000	99.669912 
3807.000000	99.676179 
3806.000000	99.683072 
3805.000000	99.687802 
3804.000000	99.687784 
3803.000000	99.682035 
3802.000000	99.672881 
3801.000000	99.665446 
3800.000000	99.662509 
3799.000000	99.662240 
3798.000000	99.661637 
3797.000000	99.659401 
3796.000000	99.656463 
3795.000000	99.654614 
3794.000000	99.655074 
3793.000000	99.657598 
3792.000000	99.660413 
3791.000000	99.661467 
3790.000000	99.660057 
3789.000000	99.657593 
3788.000000	99.656726 
3787.000000	99.659566 
3786.000000	99.666494 
3785.000000	99.676129 
3784.000000	99.686031 
3783.000000	99.693670 
3782.000000	99.697112 
3781.000000	99.695609 
3780.000000	99.690389 
3779.000000	99.684030 
3778.000000	99.677989 
3777.000000	99.672100 
3776.000000	99.666594 
3775.000000	99.662825 
3774.000000	99.662311 
3773.000000	99.665161 
3772.000000	99.669441 
3771.000000	99.672216 
3770.000000	99.672212 
3769.000000	99.670945 
3768.000000	99.670276 
3767.000000	99.670907 
3766.000000	99.672814 
3765.000000	99.675686 
3764.000000	99.679353 
3763.000000	99.683777 
3762.000000	99.688530 
3761.000000	99.692579 
3760.000000	99.695053 
3759.000000	99.696162 
3758.000000	99.696223 
3757.000000	99.695086 
3756.000000	99.693270 
3755.000000	99.691942 
3754.000000	99.692403 
3753.000000	99.695125 
3752.000000	99.698850 
3751.000000	99.701222 
3750.000000	99.699984 
3749.000000	99.695062 
3748.000000	99.688703 
3747.000000	99.683263 
3746.000000	99.679640 
3745.000000	99.677416 
3744.000000	99.676367 
3743.000000	99.676269 
3742.000000	99.676625 
3741.000000	99.677235 
3740.000000	99.678430 
3739.000000	99.681436 
3738.000000	99.685896 
3737.000000	99.688771 
3736.000000	99.688441 
3735.000000	99.686487 
3734.000000	99.684520 
3733.000000	99.682052 
3732.000000	99.678994 
3731.000000	99.676804 
3730.000000	99.676050 
3729.000000	99.675733 
3728.000000	99.674858 
3727.000000	99.674240 
3726.000000	99.676292 
3725.000000	99.681882 
3724.000000	99.688244 
3723.000000	99.690960 
3722.000000	99.688318 
3721.000000	99.682502 
3720.000000	99.676936 
3719.000000	99.673812 
3718.000000	99.672521 
3717.000000	99.670468 
3716.000000	99.665718 
3715.000000	99.658184 
3714.000000	99.649265 
3713.000000	99.641092 
3712.000000	99.636502 
3711.000000	99.637158 
3710.000000	99.640717 
3709.000000	99.642807 
3708.000000	99.640921 
3707.000000	99.635327 
3706.000000	99.627550 
3705.000000	99.618624 
3704.000000	99.608713 
3703.000000	99.598303 
3702.000000	99.589342 
3701.000000	99.583703 
3700.000000	99.580486 
3699.000000	99.576719 
3698.000000	99.570134 
3697.000000	99.560760 
3696.000000	99.551240 
3695.000000	99.545003 
3694.000000	99.543033 
3693.000000	99.542802 
3692.000000	99.540482 
3691.000000	99.534105 
3690.000000	99.525233 
3689.000000	99.517228 
3688.000000	99.511762 
3687.000000	99.508480 
3686.000000	99.507061 
3685.000000	99.507013 
3684.000000	99.507239 
3683.000000	99.506692 
3682.000000	99.504905 
3681.000000	99.501916 
3680.000000	99.497515 
3679.000000	99.490528 
3678.000000	99.479776 
3677.000000	99.466340 
3676.000000	99.457152 
3675.000000	99.461183 
3674.000000	99.476299 
3673.000000	99.491701 
3672.000000	99.499951 
3671.000000	99.499215 
3670.000000	99.492789 
3669.000000	99.485510 
3668.000000	99.478434 
3667.000000	99.470528 
3666.000000	99.462656 
3665.000000	99.457262 
3664.000000	99.456106 
3663.000000	99.459084 
3662.000000	99.464268 
3661.000000	99.469315 
3660.000000	99.473217 
3659.000000	99.476554 
3658.000000	99.480660 
3657.000000	99.486652 
3656.000000	99.495122 
3655.000000	99.506184 
3654.000000	99.519793 
3653.000000	99.535610 
3652.000000	99.551771 
3651.000000	99.563691 
3650.000000	99.566555 
3649.000000	99.560507 
3648.000000	99.551591 
3647.000000	99.546006 
3646.000000	99.545026 
3645.000000	99.546169 
3644.000000	99.546918 
3643.000000	99.546947 
3642.000000	99.547275 
3641.000000	99.549199 
3640.000000	99.553891 
3639.000000	99.562294 
3638.000000	99.574403 
3637.000000	99.588098 
3636.000000	99.599795 
3635.000000	99.606691 
3634.000000	99.608897 
3633.000000	99.609203 
3632.000000	99.610681 
3631.000000	99.614712 
3630.000000	99.620086 
3629.000000	99.624564 
3628.000000	99.626254 
3627.000000	99.624616 
3626.000000	99.621810 
3625.000000	99.620694 
3624.000000	99.622060 
3623.000000	99.624172 
3622.000000	99.624578 
3621.000000	99.622119 
3620.000000	99.618604 
3619.000000	99.618042 
3618.000000	99.622505 
3617.000000	99.630082 
3616.000000	99.637647 
3615.000000	99.642564 
3614.000000	99.643313 
3613.000000	99.640045 
3612.000000	99.634001 
3611.000000	99.626767 
3610.000000	99.620493 
3609.000000	99.617506 
3608.000000	99.618892 
3607.000000	99.623295 
3606.000000	99.627797 
3605.000000	99.630724 
3604.000000	99.632285 
3603.000000	99.633079 
3602.000000	99.633548 
3601.000000	99.634351 
3600.000000	99.636749 
3599.000000	99.641552 
3598.000000	99.647659 
3597.000000	99.652382 
3596.000000	99.653668 
3595.000000	99.651602 
3594.000000	99.648850 
3593.000000	99.649163 
3592.000000	99.654604 
3591.000000	99.664162 
3590.000000	99.673867 
3589.000000	99.678824 
3588.000000	99.676937 
3587.000000	99.670599 
3586.000000	99.663059 
3585.000000	99.655923 
3584.000000	99.650073 
3583.000000	99.646296 
3582.000000	99.644381 
3581.000000	99.642945 
3580.000000	99.640550 
3579.000000	99.636880 
3578.000000	99.632847 
3577.000000	99.629806 
3576.000000	99.628892 
3575.000000	99.630419 
3574.000000	99.633554 
3573.000000	99.637066 
3572.000000	99.640164 
3571.000000	99.642468 
3570.000000	99.643328 
3569.000000	99.641731 
3568.000000	99.638131 
3567.000000	99.635922 
3566.000000	99.638156 
3565.000000	99.643632 
3564.000000	99.648604 
3563.000000	99.650373 
3562.000000	99.648890 
3561.000000	99.646354 
3560.000000	99.645201 
3559.000000	99.646070 
3558.000000	99.647329 
3557.000000	99.646821 
3556.000000	99.644159 
3555.000000	99.641460 
3554.000000	99.641570 
3553.000000	99.645412 
3552.000000	99.650649 
3551.000000	99.653207 
3550.000000	99.650556 
3549.000000	99.643704 
3548.000000	99.636375 
3547.000000	99.632567 
3546.000000	99.633913 
3545.000000	99.638895 
3544.000000	99.644495 
3543.000000	99.648362 
3542.000000	99.649681 
3541.000000	99.648984 
3540.000000	99.647632 
3539.000000	99.647183 
3538.000000	99.648379 
3537.000000	99.650395 
3536.000000	99.651239 
3535.000000	99.649070 
3534.000000	99.643709 
3533.000000	99.637001 
3532.000000	99.631883 
3531.000000	99.630682 
3530.000000	99.633724 
3529.000000	99.639360 
3528.000000	99.645322 
3527.000000	99.650074 
3526.000000	99.653014 
3525.000000	99.653996 
3524.000000	99.653341 
3523.000000	99.652091 
3522.000000	99.651234 
3521.000000	99.650549 
3520.000000	99.648796 
3519.000000	99.645436 
3518.000000	99.641677 
3517.000000	99.639420 
3516.000000	99.639550 
3515.000000	99.641537 
3514.000000	99.644323 
3513.000000	99.646783 
3512.000000	99.647654 
3511.000000	99.646217 
3510.000000	99.643701 
3509.000000	99.642884 
3508.000000	99.645453 
3507.000000	99.649971 
3506.000000	99.652738 
3505.000000	99.650522 
3504.000000	99.643104 
3503.000000	99.634148 
3502.000000	99.629300 
3501.000000	99.632192 
3500.000000	99.641211 
3499.000000	99.650177 
3498.000000	99.652936 
3497.000000	99.648213 
3496.000000	99.640322 
3495.000000	99.634963 
3494.000000	99.634566 
3493.000000	99.637320 
3492.000000	99.639682 
3491.000000	99.639340 
3490.000000	99.636697 
3489.000000	99.634326 
3488.000000	99.634800 
3487.000000	99.638456 
3486.000000	99.643075 
3485.000000	99.646028 
3484.000000	99.646759 
3483.000000	99.646888 
3482.000000	99.647807 
3481.000000	99.648577 
3480.000000	99.647025 
3479.000000	99.642908 
3478.000000	99.638903 
3477.000000	99.637729 
3476.000000	99.639004 
3475.000000	99.639979 
3474.000000	99.639426 
3473.000000	99.639392 
3472.000000	99.642446 
3471.000000	99.648128 
3470.000000	99.653262 
3469.000000	99.655276 
3468.000000	99.653963 
3467.000000	99.650219 
3466.000000	99.644419 
3465.000000	99.636798 
3464.000000	99.628621 
3463.000000	99.621951 
3462.000000	99.618130 
3461.000000	99.616899 
3460.000000	99.617099 
3459.000000	99.617987 
3458.000000	99.619593 
3457.000000	99.621913 
3456.000000	99.624091 
3455.000000	99.624937 
3454.000000	99.624604 
3453.000000	99.625019 
3452.000000	99.628084 
3451.000000	99.633475 
3450.000000	99.638828 
3449.000000	99.642035 
3448.000000	99.642639 
3447.000000	99.641054 
3446.000000	99.637549 
3445.000000	99.632823 
3444.000000	99.628804 
3443.000000	99.627669 
3442.000000	99.629967 
3441.000000	99.634333 
3440.000000	99.639019 
3439.000000	99.643012 
3438.000000	99.645677 
3437.000000	99.646181 
3436.000000	99.644065 
3435.000000	99.640370 
3434.000000	99.637808 
3433.000000	99.638965 
3432.000000	99.643864 
3431.000000	99.649231 
3430.000000	99.650791 
3429.000000	99.646823 
3428.000000	99.639469 
3427.000000	99.632514 
3426.000000	99.628214 
3425.000000	99.626480 
3424.000000	99.626339 
3423.000000	99.627214 
3422.000000	99.628636 
3421.000000	99.629569 
3420.000000	99.628893 
3419.000000	99.626694 
3418.000000	99.624598 
3417.000000	99.624336 
3416.000000	99.625963 
3415.000000	99.627838 
3414.000000	99.628423 
3413.000000	99.627823 
3412.000000	99.627328 
3411.000000	99.627906 
3410.000000	99.629712 
3409.000000	99.632620 
3408.000000	99.636230 
3407.000000	99.639274 
3406.000000	99.640042 
3405.000000	99.638085 
3404.000000	99.635053 
3403.000000	99.633231 
3402.000000	99.633367 
3401.000000	99.634260 
3400.000000	99.634441 
3399.000000	99.633899 
3398.000000	99.634198 
3397.000000	99.636876 
3396.000000	99.641563 
3395.000000	99.645792 
3394.000000	99.647076 
3393.000000	99.645290 
3392.000000	99.642657 
3391.000000	99.641275 
3390.000000	99.641139 
3389.000000	99.640819 
3388.000000	99.639436 
3387.000000	99.637361 
3386.000000	99.635287 
3385.000000	99.633271 
3384.000000	99.630876 
3383.000000	99.627951 
3382.000000	99.625149 
3381.000000	99.623578 
3380.000000	99.623842 
3379.000000	99.625350 
3378.000000	99.626911 
3377.000000	99.628248 
3376.000000	99.630587 
3375.000000	99.635350 
3374.000000	99.642363 
3373.000000	99.649644 
3372.000000	99.654884 
3371.000000	99.656942 
3370.000000	99.656086 
3369.000000	99.653406 
3368.000000	99.650157 
3367.000000	99.647270 
3366.000000	99.644966 
3365.000000	99.642734 
3364.000000	99.639896 
3363.000000	99.636401 
3362.000000	99.633085 
3361.000000	99.630975 
3360.000000	99.630227 
3359.000000	99.629998 
3358.000000	99.629637 
3357.000000	99.629791 
3356.000000	99.631704 
3355.000000	99.635337 
3354.000000	99.638833 
3353.000000	99.640379 
3352.000000	99.640251 
3351.000000	99.640537 
3350.000000	99.643040 
3349.000000	99.647845 
3348.000000	99.653577 
3347.000000	99.658362 
3346.000000	99.660613 
3345.000000	99.659726 
3344.000000	99.656527 
3343.000000	99.652606 
3342.000000	99.648901 
3341.000000	99.645230 
3340.000000	99.641387 
3339.000000	99.638099 
3338.000000	99.636241 
3337.000000	99.635517 
3336.000000	99.634834 
3335.000000	99.634146 
3334.000000	99.634979 
3333.000000	99.638436 
3332.000000	99.643051 
3331.000000	99.645515 
3330.000000	99.643945 
3329.000000	99.640155 
3328.000000	99.638266 
3327.000000	99.640855 
3326.000000	99.646544 
3325.000000	99.651469 
3324.000000	99.653139 
3323.000000	99.652598 
3322.000000	99.652574 
3321.000000	99.653835 
3320.000000	99.654148 
3319.000000	99.651220 
3318.000000	99.646083 
3317.000000	99.642534 
3316.000000	99.643193 
3315.000000	99.646810 
3314.000000	99.649882 
3313.000000	99.650414 
3312.000000	99.649603 
3311.000000	99.650091 
3310.000000	99.653134 
3309.000000	99.657551 
3308.000000	99.661061 
3307.000000	99.662302 
3306.000000	99.661417 
3305.000000	99.658918 
3304.000000	99.654681 
3303.000000	99.648697 
3302.000000	99.642552 
3301.000000	99.639101 
3300.000000	99.640061 
3299.000000	99.644265 
3298.000000	99.648682 
3297.000000	99.650842 
3296.000000	99.650250 
3295.000000	99.648156 
3294.000000	99.646669 
3293.000000	99.647587 
3292.000000	99.651118 
3291.000000	99.655620 
3290.000000	99.659074 
3289.000000	99.660670 
3288.000000	99.660629 
3287.000000	99.659086 
3286.000000	99.656118 
3285.000000	99.652718 
3284.000000	99.650657 
3283.000000	99.650957 
3282.000000	99.653040 
3281.000000	99.655546 
3280.000000	99.657413 
3279.000000	99.658063 
3278.000000	99.657409 
3277.000000	99.656158 
3276.000000	99.655626 
3275.000000	99.656595 
3274.000000	99.658378 
3273.000000	99.659247 
3272.000000	99.657686 
3271.000000	99.653327 
3270.000000	99.647242 
3269.000000	99.641647 
3268.000000	99.638973 
3267.000000	99.640640 
3266.000000	99.646396 
3265.000000	99.654565 
3264.000000	99.662849 
3263.000000	99.669265 
3262.000000	99.672928 
3261.000000	99.674140 
3260.000000	99.673462 
3259.000000	99.670872 
3258.000000	99.666200 
3257.000000	99.660157 
3256.000000	99.654252 
3255.000000	99.649670 
3254.000000	99.646856 
3253.000000	99.646170 
3252.000000	99.648028 
3251.000000	99.651850 
3250.000000	99.655603 
3249.000000	99.657189 
3248.000000	99.656192 
3247.000000	99.653890 
3246.000000	99.651706 
3245.000000	99.650069 
3244.000000	99.648807 
3243.000000	99.648349 
3242.000000	99.650205 
3241.000000	99.655740 
3240.000000	99.664057 
3239.000000	99.671433 
3238.000000	99.673870 
3237.000000	99.670588 
3236.000000	99.664499 
3235.000000	99.659082 
3234.000000	99.655613 
3233.000000	99.653756 
3232.000000	99.653723 
3231.000000	99.656404 
3230.000000	99.661504 
3229.000000	99.666658 
3228.000000	99.668847 
3227.000000	99.666498 
3226.000000	99.660410 
3225.000000	99.653238 
3224.000000	99.648039 
3223.000000	99.646520 
3222.000000	99.648167 
3221.000000	99.651197 
3220.000000	99.654337 
3219.000000	99.657357 
3218.000000	99.659940 
3217.000000	99.660943 
3216.000000	99.659432 
3215.000000	99.656111 
3214.000000	99.652950 
3213.000000	99.651237 
3212.000000	99.650632 
3211.000000	99.650448 
3210.000000	99.651197 
3209.000000	99.653955 
3208.000000	99.658181 
3207.000000	99.661226 
3206.000000	99.660848 
3205.000000	99.657880 
3204.000000	99.655610 
3203.000000	99.656501 
3202.000000	99.660154 
3201.000000	99.664411 
3200.000000	99.667373 
3199.000000	99.667962 
3198.000000	99.665703 
3197.000000	99.661382 
3196.000000	99.657564 
3195.000000	99.656955 
3194.000000	99.659565 
3193.000000	99.662274 
3192.000000	99.661954 
3191.000000	99.658776 
3190.000000	99.655921 
3189.000000	99.656175 
3188.000000	99.659389 
3187.000000	99.663181 
3186.000000	99.665355 
3185.000000	99.665321 
3184.000000	99.663702 
3183.000000	99.661451 
3182.000000	99.659437 
3181.000000	99.658238 
3180.000000	99.657840 
3179.000000	99.657644 
3178.000000	99.656971 
3177.000000	99.655472 
3176.000000	99.653110 
3175.000000	99.650345 
3174.000000	99.648689 
3173.000000	99.650298 
3172.000000	99.655895 
3171.000000	99.663077 
3170.000000	99.667842 
3169.000000	99.668402 
3168.000000	99.666975 
3167.000000	99.667386 
3166.000000	99.671329 
3165.000000	99.677305 
3164.000000	99.682396 
3163.000000	99.684319 
3162.000000	99.682374 
3161.000000	99.677683 
3160.000000	99.672783 
3159.000000	99.670077 
3158.000000	99.670151 
3157.000000	99.671790 
3156.000000	99.673661 
3155.000000	99.675576 
3154.000000	99.678114 
3153.000000	99.681533 
3152.000000	99.685186 
3151.000000	99.687563 
3150.000000	99.686957 
3149.000000	99.682927 
3148.000000	99.677467 
3147.000000	99.673984 
3146.000000	99.674281 
3145.000000	99.676829 
3144.000000	99.678707 
3143.000000	99.679103 
3142.000000	99.680082 
3141.000000	99.683686 
3140.000000	99.689071 
3139.000000	99.693092 
3138.000000	99.693473 
3137.000000	99.690901 
3136.000000	99.688044 
3135.000000	99.686957 
3134.000000	99.687626 
3133.000000	99.688709 
3132.000000	99.689170 
3131.000000	99.688883 
3130.000000	99.687908 
3129.000000	99.685911 
3128.000000	99.682795 
3127.000000	99.679539 
3126.000000	99.677772 
3125.000000	99.678348 
3124.000000	99.680572 
3123.000000	99.682786 
3122.000000	99.683482 
3121.000000	99.682180 
3120.000000	99.679925 
3119.000000	99.678849 
3118.000000	99.680342 
3117.000000	99.683221 
3116.000000	99.684473 
3115.000000	99.682452 
3114.000000	99.678639 
3113.000000	99.675576 
3112.000000	99.673874 
3111.000000	99.672464 
3110.000000	99.671221 
3109.000000	99.671421 
3108.000000	99.673209 
3107.000000	99.674274 
3106.000000	99.672365 
3105.000000	99.668363 
3104.000000	99.665623 
3103.000000	99.666675 
3102.000000	99.671380 
3101.000000	99.677809 
3100.000000	99.683621 
3099.000000	99.686743 
3098.000000	99.686259 
3097.000000	99.683462 
3096.000000	99.681333 
3095.000000	99.682203 
3094.000000	99.686044 
3093.000000	99.691053 
3092.000000	99.695204 
3091.000000	99.696977 
3090.000000	99.695642 
3089.000000	99.691985 
3088.000000	99.688582 
3087.000000	99.688196 
3086.000000	99.691294 
3085.000000	99.695441 
3084.000000	99.697495 
3083.000000	99.696348 
3082.000000	99.693502 
3081.000000	99.691345 
3080.000000	99.691154 
3079.000000	99.692506 
3078.000000	99.693931 
3077.000000	99.693940 
3076.000000	99.692039 
3075.000000	99.689279 
3074.000000	99.687669 
3073.000000	99.688488 
3072.000000	99.691166 
3071.000000	99.694027 
3070.000000	99.695771 
3069.000000	99.695631 
3068.000000	99.692584 
3067.000000	99.685936 
3066.000000	99.677217 
3065.000000	99.670212 
3064.000000	99.667810 
3063.000000	99.669253 
3062.000000	99.671452 
3061.000000	99.672670 
3060.000000	99.673937 
3059.000000	99.677006 
3058.000000	99.681957 
3057.000000	99.687098 
3056.000000	99.690537 
3055.000000	99.691484 
3054.000000	99.690392 
3053.000000	99.688177 
3052.000000	99.685364 
3051.000000	99.682126 
3050.000000	99.679044 
3049.000000	99.677050 
3048.000000	99.675953 
3047.000000	99.673722 
3046.000000	99.668442 
3045.000000	99.660968 
3044.000000	99.654591 
3043.000000	99.651767 
3042.000000	99.651829 
3041.000000	99.652071 
3040.000000	99.650243 
3039.000000	99.645766 
3038.000000	99.639464 
3037.000000	99.632932 
3036.000000	99.627722 
3035.000000	99.624252 
3034.000000	99.621392 
3033.000000	99.617408 
3032.000000	99.611317 
3031.000000	99.603130 
3030.000000	99.593003 
3029.000000	99.580634 
3028.000000	99.565841 
3027.000000	99.549707 
3026.000000	99.534808 
3025.000000	99.523609 
3024.000000	99.516084 
3023.000000	99.509047 
3022.000000	99.498429 
3021.000000	99.482542 
3020.000000	99.463285 
3019.000000	99.444553 
3018.000000	99.429587 
3017.000000	99.419060 
3016.000000	99.410658 
3015.000000	99.400602 
3014.000000	99.386402 
3013.000000	99.368362 
3012.000000	99.347984 
3011.000000	99.325417 
3010.000000	99.299744 
3009.000000	99.271908 
3008.000000	99.245812 
3007.000000	99.225396 
3006.000000	99.210974 
3005.000000	99.199080 
3004.000000	99.185404 
3003.000000	99.167472 
3002.000000	99.145401 
3001.000000	99.121493 
3000.000000	99.099049 
2999.000000	99.080320 
2998.000000	99.065161 
2997.000000	99.052337 
2996.000000	99.041894 
2995.000000	99.034457 
2994.000000	99.027059 
2993.000000	99.011593 
2992.000000	98.980840 
2991.000000	98.937331 
2990.000000	98.894479 
2989.000000	98.866773 
2988.000000	98.858646 
2987.000000	98.863628 
2986.000000	98.873035 
2985.000000	98.883227 
2984.000000	98.894405 
2983.000000	98.905607 
2982.000000	98.913626 
2981.000000	98.916210 
2980.000000	98.914377 
2979.000000	98.911135 
2978.000000	98.908969 
2977.000000	98.908599 
2976.000000	98.909070 
2975.000000	98.908539 
2974.000000	98.905763 
2973.000000	98.901406 
2972.000000	98.897699 
2971.000000	98.896679 
2970.000000	98.899170 
2969.000000	98.905470 
2968.000000	98.916146 
2967.000000	98.931423 
2966.000000	98.949938 
2965.000000	98.968748 
2964.000000	98.984976 
2963.000000	98.997618 
2962.000000	99.007834 
2961.000000	99.017438 
2960.000000	99.027174 
2959.000000	99.036661 
2958.000000	99.045928 
2957.000000	99.056119 
2956.000000	99.067868 
2955.000000	99.079472 
2954.000000	99.088084 
2953.000000	99.093402 
2952.000000	99.099245 
2951.000000	99.110284 
2950.000000	99.126989 
2949.000000	99.144421 
2948.000000	99.156405 
2947.000000	99.160695 
2946.000000	99.160069 
2945.000000	99.158936 
2944.000000	99.159770 
2943.000000	99.162764 
2942.000000	99.167563 
2941.000000	99.173770 
2940.000000	99.179800 
2939.000000	99.182758 
2938.000000	99.180675 
2937.000000	99.174779 
2936.000000	99.169053 
2935.000000	99.167424 
2934.000000	99.171078 
2933.000000	99.177768 
2932.000000	99.183347 
2931.000000	99.184689 
2930.000000	99.181801 
2929.000000	99.177064 
2928.000000	99.172503 
2927.000000	99.168436 
2926.000000	99.164714 
2925.000000	99.161825 
2924.000000	99.159923 
2923.000000	99.157955 
2922.000000	99.155006 
2921.000000	99.151752 
2920.000000	99.149346 
2919.000000	99.147533 
2918.000000	99.145098 
2917.000000	99.141636 
2916.000000	99.137447 
2915.000000	99.132199 
2914.000000	99.125428 
2913.000000	99.118388 
2912.000000	99.113602 
2911.000000	99.111871 
2910.000000	99.111024 
2909.000000	99.108304 
2908.000000	99.103107 
2907.000000	99.096574 
2906.000000	99.089221 
2905.000000	99.079780 
2904.000000	99.066454 
2903.000000	99.049581 
2902.000000	99.033863 
2901.000000	99.027152 
2900.000000	99.035530 
2899.000000	99.057266 
2898.000000	99.082918 
2897.000000	99.102368 
2896.000000	99.112222 
2895.000000	99.116467 
2894.000000	99.121027 
2893.000000	99.128438 
2892.000000	99.137183 
2891.000000	99.144345 
2890.000000	99.148240 
2889.000000	99.149170 
2888.000000	99.148705 
2887.000000	99.148679 
2886.000000	99.150722 
2885.000000	99.155989 
2884.000000	99.164645 
2883.000000	99.175610 
2882.000000	99.187435 
2881.000000	99.199720 
2880.000000	99.213376 
2879.000000	99.229374 
2878.000000	99.247506 
2877.000000	99.266270 
2876.000000	99.283333 
2875.000000	99.296106 
2874.000000	99.302855 
2873.000000	99.304207 
2872.000000	99.303479 
2871.000000	99.304914 
2870.000000	99.311216 
2869.000000	99.322300 
2868.000000	99.335871 
2867.000000	99.349189 
2866.000000	99.361114 
2865.000000	99.372877 
2864.000000	99.386457 
2863.000000	99.401830 
2862.000000	99.416395 
2861.000000	99.427674 
2860.000000	99.436263 
2859.000000	99.445413 
2858.000000	99.457749 
2857.000000	99.472889 
2856.000000	99.488148 
2855.000000	99.501103 
2854.000000	99.511289 
2853.000000	99.519748 
2852.000000	99.527470 
2851.000000	99.534619 
2850.000000	99.541193 
2849.000000	99.547719 
2848.000000	99.554754 
2847.000000	99.561964 
2846.000000	99.568354 
2845.000000	99.573413 
2844.000000	99.577607 
2843.000000	99.581939 
2842.000000	99.587529 
2841.000000	99.595236 
2840.000000	99.604600 
2839.000000	99.613033 
2838.000000	99.617191 
2837.000000	99.615944 
2836.000000	99.611554 
2835.000000	99.607705 
2834.000000	99.606833 
2833.000000	99.609399 
2832.000000	99.614573 
2831.000000	99.620858 
2830.000000	99.626755 
2829.000000	99.631849 
2828.000000	99.637110 
2827.000000	99.643447 
2826.000000	99.650068 
2825.000000	99.654793 
2824.000000	99.656055 
2823.000000	99.654463 
2822.000000	99.652549 
2821.000000	99.653003 
2820.000000	99.656628 
2819.000000	99.661747 
2818.000000	99.665924 
2817.000000	99.668399 
2816.000000	99.670366 
2815.000000	99.672922 
2814.000000	99.675680 
2813.000000	99.677731 
2812.000000	99.678873 
2811.000000	99.679033 
2810.000000	99.677480 
2809.000000	99.673943 
2808.000000	99.670117 
2807.000000	99.668736 
2806.000000	99.670920 
2805.000000	99.675243 
2804.000000	99.679442 
2803.000000	99.682287 
2802.000000	99.683793 
2801.000000	99.684481 
2800.000000	99.684842 
2799.000000	99.685061 
2798.000000	99.684992 
2797.000000	99.684658 
2796.000000	99.684672 
2795.000000	99.685692 
2794.000000	99.687493 
2793.000000	99.689110 
2792.000000	99.689863 
2791.000000	99.689733 
2790.000000	99.688861 
2789.000000	99.687450 
2788.000000	99.686299 
2787.000000	99.686628 
2786.000000	99.688913 
2785.000000	99.692359 
2784.000000	99.695755 
2783.000000	99.698289 
2782.000000	99.699299 
2781.000000	99.698117 
2780.000000	99.695027 
2779.000000	99.691992 
2778.000000	99.691403 
2777.000000	99.693880 
2776.000000	99.697655 
2775.000000	99.700192 
2774.000000	99.700107 
2773.000000	99.697719 
2772.000000	99.694428 
2771.000000	99.691917 
2770.000000	99.691627 
2769.000000	99.694380 
2768.000000	99.700111 
2767.000000	99.707676 
2766.000000	99.714947 
2765.000000	99.719603 
2764.000000	99.720501 
2763.000000	99.718557 
2762.000000	99.716051 
2761.000000	99.714976 
2760.000000	99.716046 
2759.000000	99.718986 
2758.000000	99.723161 
2757.000000	99.727671 
2756.000000	99.731307 
2755.000000	99.732929 
2754.000000	99.731967 
2753.000000	99.728534 
2752.000000	99.723342 
2751.000000	99.717687 
2750.000000	99.713140 
2749.000000	99.710687 
2748.000000	99.710063 
2747.000000	99.710170 
2746.000000	99.710135 
2745.000000	99.709819 
2744.000000	99.709457 
2743.000000	99.709202 
2742.000000	99.709121 
2741.000000	99.709445 
2740.000000	99.710659 
2739.000000	99.713324 
2738.000000	99.717621 
2737.000000	99.722886 
2736.000000	99.727703 
2735.000000	99.730656 
2734.000000	99.731011 
2733.000000	99.728817 
2732.000000	99.724802 
2731.000000	99.720422 
2730.000000	99.717485 
2729.000000	99.717107 
2728.000000	99.719132 
2727.000000	99.722815 
2726.000000	99.727605 
2725.000000	99.732750 
2724.000000	99.736818 
2723.000000	99.738696 
2722.000000	99.738880 
2721.000000	99.738769 
2720.000000	99.738693 
2719.000000	99.737689 
2718.000000	99.735344 
2717.000000	99.732728 
2716.000000	99.731230 
2715.000000	99.731525 
2714.000000	99.733969 
2713.000000	99.738644 
2712.000000	99.744251 
2711.000000	99.748206 
2710.000000	99.749113 
2709.000000	99.748425 
2708.000000	99.748539 
2707.000000	99.749706 
2706.000000	99.749998 
2705.000000	99.748066 
2704.000000	99.744809 
2703.000000	99.742165 
2702.000000	99.741042 
2701.000000	99.740698 
2700.000000	99.739860 
2699.000000	99.738310 
2698.000000	99.737244 
2697.000000	99.737716 
2696.000000	99.739029 
2695.000000	99.739618 
2694.000000	99.739545 
2693.000000	99.740494 
2692.000000	99.742652 
2691.000000	99.743384 
2690.000000	99.740688 
2689.000000	99.736825 
2688.000000	99.736318 
2687.000000	99.740648 
2686.000000	99.746727 
2685.000000	99.750649 
2684.000000	99.751246 
2683.000000	99.749796 
2682.000000	99.747956 
2681.000000	99.746777 
2680.000000	99.746518 
2679.000000	99.746586 
2678.000000	99.746251 
2677.000000	99.745761 
2676.000000	99.746045 
2675.000000	99.747124 
2674.000000	99.747782 
2673.000000	99.747207 
2672.000000	99.746131 
2671.000000	99.745752 
2670.000000	99.746080 
2669.000000	99.745820 
2668.000000	99.743675 
2667.000000	99.739712 
2666.000000	99.735868 
2665.000000	99.734982 
2664.000000	99.738583 
2663.000000	99.745432 
2662.000000	99.752644 
2661.000000	99.758063 
2660.000000	99.760972 
2659.000000	99.761057 
2658.000000	99.758207 
2657.000000	99.753663 
2656.000000	99.750072 
2655.000000	99.749543 
2654.000000	99.751959 
2653.000000	99.755323 
2652.000000	99.757176 
2651.000000	99.755857 
2650.000000	99.751570 
2649.000000	99.746556 
2648.000000	99.743303 
2647.000000	99.742253 
2646.000000	99.741969 
2645.000000	99.741426 
2644.000000	99.740903 
2643.000000	99.740595 
2642.000000	99.740042 
2641.000000	99.739597 
2640.000000	99.741000 
2639.000000	99.745443 
2638.000000	99.751993 
2637.000000	99.758533 
2636.000000	99.763197 
2635.000000	99.764513 
2634.000000	99.761881 
2633.000000	99.757068 
2632.000000	99.753708 
2631.000000	99.753738 
2630.000000	99.755285 
2629.000000	99.755362 
2628.000000	99.753641 
2627.000000	99.752208 
2626.000000	99.752686 
2625.000000	99.755316 
2624.000000	99.759950 
2623.000000	99.765798 
2622.000000	99.770490 
2621.000000	99.771396 
2620.000000	99.768196 
2619.000000	99.762880 
2618.000000	99.757312 
2617.000000	99.752230 
2616.000000	99.748529 
2615.000000	99.747732 
2614.000000	99.750469 
2613.000000	99.755482 
2612.000000	99.760656 
2611.000000	99.764433 
2610.000000	99.766194 
2609.000000	99.766194 
2608.000000	99.765465 
2607.000000	99.765248 
2606.000000	99.766320 
2605.000000	99.768935 
2604.000000	99.772659 
2603.000000	99.775622 
2602.000000	99.775125 
2601.000000	99.770714 
2600.000000	99.766107 
2599.000000	99.766068 
2598.000000	99.771142 
2597.000000	99.777108 
2596.000000	99.779654 
2595.000000	99.777644 
2594.000000	99.771693 
2593.000000	99.762542 
2592.000000	99.752709 
2591.000000	99.747416 
2590.000000	99.750746 
2589.000000	99.761132 
2588.000000	99.772718 
2587.000000	99.780857 
2586.000000	99.784314 
2585.000000	99.782693 
2584.000000	99.775203 
2583.000000	99.763564 
2582.000000	99.753550 
2581.000000	99.750571 
2580.000000	99.754009 
2579.000000	99.757982 
2578.000000	99.757901 
2577.000000	99.754763 
2576.000000	99.752797 
2575.000000	99.754574 
2574.000000	99.759253 
2573.000000	99.764349 
2572.000000	99.767819 
2571.000000	99.768793 
2570.000000	99.767459 
2569.000000	99.764739 
2568.000000	99.761937 
2567.000000	99.760469 
2566.000000	99.761369 
2565.000000	99.764311 
2564.000000	99.767238 
2563.000000	99.767951 
2562.000000	99.766417 
2561.000000	99.764879 
2560.000000	99.765523 
2559.000000	99.768638 
2558.000000	99.772849 
2557.000000	99.775974 
2556.000000	99.775890 
2555.000000	99.772559 
2554.000000	99.769703 
2553.000000	99.772141 
2552.000000	99.780010 
2551.000000	99.787507 
2550.000000	99.789173 
2549.000000	99.785731 
2548.000000	99.781566 
2547.000000	99.778246 
2546.000000	99.773884 
2545.000000	99.768242 
2544.000000	99.764697 
2543.000000	99.766165 
2542.000000	99.771602 
2541.000000	99.777760 
2540.000000	99.782650 
2539.000000	99.786227 
2538.000000	99.788863 
2537.000000	99.790033 
2536.000000	99.788030 
2535.000000	99.781396 
2534.000000	99.771869 
2533.000000	99.765103 
2532.000000	99.766018 
2531.000000	99.773357 
2530.000000	99.781068 
2529.000000	99.785257 
2528.000000	99.787209 
2527.000000	99.789162 
2526.000000	99.790550 
2525.000000	99.790346 
2524.000000	99.790404 
2523.000000	99.793559 
2522.000000	99.799523 
2521.000000	99.805009 
2520.000000	99.807395 
2519.000000	99.806521 
2518.000000	99.803339 
2517.000000	99.798546 
2516.000000	99.792688 
2515.000000	99.786714 
2514.000000	99.782183 
2513.000000	99.780637 
2512.000000	99.781686 
2511.000000	99.781885 
2510.000000	99.777698 
2509.000000	99.770674 
2508.000000	99.767526 
2507.000000	99.772874 
2506.000000	99.783016 
2505.000000	99.789065 
2504.000000	99.785975 
2503.000000	99.776856 
2502.000000	99.768936 
2501.000000	99.767279 
2500.000000	99.772364 
2499.000000	99.781492 
2498.000000	99.791200 
2497.000000	99.799013 
2496.000000	99.804024 
2495.000000	99.806193 
2494.000000	99.805315 
2493.000000	99.800900 
2492.000000	99.792935 
2491.000000	99.782601 
2490.000000	99.772373 
2489.000000	99.765180 
2488.000000	99.762656 
2487.000000	99.764087 
2486.000000	99.767733 
2485.000000	99.773073 
2484.000000	99.780560 
2483.000000	99.789032 
2482.000000	99.795112 
2481.000000	99.796330 
2480.000000	99.793769 
2479.000000	99.790397 
2478.000000	99.787686 
2477.000000	99.785107 
2476.000000	99.782221 
2475.000000	99.779707 
2474.000000	99.778416 
2473.000000	99.778658 
2472.000000	99.780573 
2471.000000	99.784244 
2470.000000	99.788974 
2469.000000	99.792721 
2468.000000	99.792743 
2467.000000	99.787519 
2466.000000	99.778902 
2465.000000	99.772077 
2464.000000	99.771752 
2463.000000	99.777468 
2462.000000	99.783549 
2461.000000	99.784544 
2460.000000	99.780152 
2459.000000	99.774389 
2458.000000	99.771132 
2457.000000	99.771557 
2456.000000	99.774736 
2455.000000	99.778768 
2454.000000	99.781281 
2453.000000	99.780322 
2452.000000	99.775617 
2451.000000	99.768860 
2450.000000	99.762762 
2449.000000	99.759704 
2448.000000	99.760510 
2447.000000	99.764030 
2446.000000	99.768462 
2445.000000	99.773373 
2444.000000	99.779597 
2443.000000	99.786870 
2442.000000	99.792881 
2441.000000	99.795655 
2440.000000	99.795788 
2439.000000	99.795175 
2438.000000	99.794573 
2437.000000	99.793708 
2436.000000	99.792610 
2435.000000	99.790908 
2434.000000	99.786721 
2433.000000	99.778817 
2432.000000	99.769987 
2431.000000	99.765663 
2430.000000	99.768199 
2429.000000	99.774280 
2428.000000	99.779231 
2427.000000	99.782153 
2426.000000	99.784895 
2425.000000	99.787081 
2424.000000	99.785103 
2423.000000	99.776978 
2422.000000	99.766359 
2421.000000	99.759867 
2420.000000	99.760680 
2419.000000	99.766115 
2418.000000	99.771501 
2417.000000	99.774731 
2416.000000	99.776163 
2415.000000	99.775702 
2414.000000	99.772445 
2413.000000	99.767253 
2412.000000	99.763325 
2411.000000	99.762912 
2410.000000	99.764683 
2409.000000	99.765789 
2408.000000	99.765765 
2407.000000	99.766854 
2406.000000	99.770667 
2405.000000	99.775997 
2404.000000	99.780227 
2403.000000	99.781753 
2402.000000	99.780585 
2401.000000	99.777531 
2400.000000	99.773588 
2399.000000	99.769657 
2398.000000	99.766135 
2397.000000	99.762922 
2396.000000	99.760258 
2395.000000	99.759376 
2394.000000	99.761688 
2393.000000	99.767164 
2392.000000	99.774018 
2391.000000	99.780377 
2390.000000	99.785912 
2389.000000	99.791351 
2388.000000	99.796634 
2387.000000	99.800317 
2386.000000	99.801022 
2385.000000	99.798878 
2384.000000	99.795206 
2383.000000	99.791420 
2382.000000	99.788782 
2381.000000	99.788482 
2380.000000	99.790641 
2379.000000	99.793171 
2378.000000	99.793018 
2377.000000	99.789571 
2376.000000	99.786139 
2375.000000	99.786706 
2374.000000	99.791228 
2373.000000	99.795461 
2372.000000	99.796219 
2371.000000	99.795570 
2370.000000	99.798194 
2369.000000	99.804764 
2368.000000	99.809609 
2367.000000	99.806041 
2366.000000	99.793883 
2365.000000	99.781248 
2364.000000	99.777844 
2363.000000	99.785798 
2362.000000	99.798178 
2361.000000	99.805811 
2360.000000	99.805022 
2359.000000	99.799719 
2358.000000	99.796172 
2357.000000	99.797638 
2356.000000	99.802762 
2355.000000	99.806641 
2354.000000	99.804491 
2353.000000	99.796367 
2352.000000	99.788465 
2351.000000	99.786789 
2350.000000	99.790914 
2349.000000	99.795663 
2348.000000	99.796101 
2347.000000	99.791394 
2346.000000	99.784718 
2345.000000	99.780488 
2344.000000	99.781142 
2343.000000	99.785248 
2342.000000	99.790650 
2341.000000	99.796127 
2340.000000	99.801074 
2339.000000	99.804418 
2338.000000	99.804782 
2337.000000	99.802019 
2336.000000	99.797098 
2335.000000	99.791408 
2334.000000	99.786651 
2333.000000	99.784893 
2332.000000	99.785884 
2331.000000	99.785606 
2330.000000	99.780198 
2329.000000	99.772829 
2328.000000	99.770156 
2327.000000	99.774289 
2326.000000	99.779634 
2325.000000	99.779949 
2324.000000	99.775072 
2323.000000	99.769924 
2322.000000	99.770078 
2321.000000	99.777562 
2320.000000	99.789938 
2319.000000	99.801212 
2318.000000	99.805901 
2317.000000	99.803594 
2316.000000	99.798555 
2315.000000	99.795238 
2314.000000	99.794302 
2313.000000	99.794250 
2312.000000	99.794171 
2311.000000	99.795382 
2310.000000	99.799626 
2309.000000	99.806982 
2308.000000	99.813625 
2307.000000	99.813844 
2306.000000	99.805193 
2305.000000	99.791952 
2304.000000	99.780646 
2303.000000	99.773403 
2302.000000	99.767799 
2301.000000	99.762908 
2300.000000	99.760941 
2299.000000	99.762734 
2298.000000	99.765211 
2297.000000	99.766068 
2296.000000	99.767245 
2295.000000	99.771164 
2294.000000	99.775375 
2293.000000	99.774762 
2292.000000	99.768075 
2291.000000	99.759495 
2290.000000	99.753911 
2289.000000	99.752857 
2288.000000	99.754886 
2287.000000	99.757606 
2286.000000	99.758901 
2285.000000	99.757778 
2284.000000	99.755090 
2283.000000	99.752789 
2282.000000	99.751880 
2281.000000	99.751178 
2280.000000	99.748612 
2279.000000	99.744306 
2278.000000	99.742082 
2277.000000	99.746250 
2276.000000	99.755944 
2275.000000	99.764510 
2274.000000	99.766363 
2273.000000	99.762699 
2272.000000	99.757638 
2271.000000	99.751089 
2270.000000	99.740645 
2269.000000	99.729955 
2268.000000	99.728656 
2267.000000	99.741435 
2266.000000	99.761532 
2265.000000	99.777660 
2264.000000	99.783995 
2263.000000	99.781755 
2262.000000	99.775809 
2261.000000	99.772897 
2260.000000	99.778356 
2259.000000	99.789792 
2258.000000	99.796962 
2257.000000	99.792300 
2256.000000	99.779519 
2255.000000	99.768110 
2254.000000	99.762242 
2253.000000	99.759722 
2252.000000	99.759453 
2251.000000	99.763907 
2250.000000	99.774161 
2249.000000	99.786880 
2248.000000	99.797179 
2247.000000	99.801723 
2246.000000	99.799574 
2245.000000	99.792460 
2244.000000	99.784223 
2243.000000	99.777936 
2242.000000	99.773743 
2241.000000	99.770417 
2240.000000	99.767358 
2239.000000	99.763610 
2238.000000	99.757141 
2237.000000	99.747218 
2236.000000	99.735465 
2235.000000	99.722858 
2234.000000	99.708895 
2233.000000	99.696596 
2232.000000	99.694645 
2231.000000	99.709532 
2230.000000	99.736787 
2229.000000	99.764010 
2228.000000	99.782174 
2227.000000	99.790808 
2226.000000	99.793265 
2225.000000	99.791373 
2224.000000	99.785182 
2223.000000	99.775063 
2222.000000	99.763361 
2221.000000	99.754764 
2220.000000	99.753486 
2219.000000	99.758708 
2218.000000	99.765029 
2217.000000	99.769369 
2216.000000	99.774789 
2215.000000	99.784672 
2214.000000	99.795775 
2213.000000	99.800776 
2212.000000	99.796511 
2211.000000	99.786939 
2210.000000	99.779396 
2209.000000	99.779831 
2208.000000	99.788828 
2207.000000	99.799415 
2206.000000	99.801271 
2205.000000	99.790155 
2204.000000	99.771451 
2203.000000	99.753073 
2202.000000	99.739046 
2201.000000	99.731653 
2200.000000	99.733083 
2199.000000	99.739912 
2198.000000	99.741755 
2197.000000	99.732731 
2196.000000	99.721088 
2195.000000	99.720634 
2194.000000	99.735124 
2193.000000	99.756671 
2192.000000	99.775841 
2191.000000	99.786189 
2190.000000	99.782457 
2189.000000	99.764452 
2188.000000	99.742786 
2187.000000	99.732173 
2186.000000	99.737720 
2185.000000	99.753110 
2184.000000	99.770941 
2183.000000	99.787623 
2182.000000	99.799159 
2181.000000	99.801676 
2180.000000	99.797893 
2179.000000	99.794919 
2178.000000	99.793960 
2177.000000	99.789225 
2176.000000	99.778173 
2175.000000	99.765708 
2174.000000	99.756343 
2173.000000	99.749114 
2172.000000	99.742613 
2171.000000	99.738916 
2170.000000	99.740114 
2169.000000	99.746114 
2168.000000	99.757419 
2167.000000	99.774364 
2166.000000	99.791478 
2165.000000	99.798846 
2164.000000	99.793019 
2163.000000	99.782018 
2162.000000	99.776734 
2161.000000	99.781395 
2160.000000	99.793160 
2159.000000	99.805431 
2158.000000	99.810658 
2157.000000	99.806716 
2156.000000	99.801241 
2155.000000	99.802787 
2154.000000	99.808296 
2153.000000	99.806310 
2152.000000	99.793047 
2151.000000	99.778325 
2150.000000	99.773939 
2149.000000	99.782612 
2148.000000	99.799844 
2147.000000	99.819090 
2146.000000	99.831428 
2145.000000	99.827816 
2144.000000	99.808443 
2143.000000	99.785592 
2142.000000	99.772177 
2141.000000	99.770305 
2140.000000	99.774056 
2139.000000	99.779050 
2138.000000	99.783900 
2137.000000	99.785711 
2136.000000	99.781449 
2135.000000	99.773972 
2134.000000	99.771308 
2133.000000	99.777866 
2132.000000	99.788621 
2131.000000	99.793094 
2130.000000	99.784158 
2129.000000	99.763842 
2128.000000	99.742051 
2127.000000	99.728708 
2126.000000	99.725985 
2125.000000	99.728743 
2124.000000	99.732731 
2123.000000	99.739774 
2122.000000	99.752557 
2121.000000	99.766823 
2120.000000	99.773348 
2119.000000	99.768112 
2118.000000	99.756971 
2117.000000	99.748932 
2116.000000	99.747401 
2115.000000	99.749964 
2114.000000	99.754378 
2113.000000	99.760835 
2112.000000	99.768076 
2111.000000	99.770970 
2110.000000	99.765026 
2109.000000	99.752647 
2108.000000	99.742087 
2107.000000	99.739133 
2106.000000	99.741330 
2105.000000	99.741372 
2104.000000	99.735084 
2103.000000	99.724960 
2102.000000	99.716835 
2101.000000	99.714473 
2100.000000	99.716764 
2099.000000	99.718979 
2098.000000	99.717364 
2097.000000	99.713730 
2096.000000	99.714220 
2095.000000	99.721121 
2094.000000	99.727029 
2093.000000	99.721164 
2092.000000	99.702536 
2091.000000	99.683468 
2090.000000	99.677841 
2089.000000	99.687261 
2088.000000	99.700807 
2087.000000	99.707397 
2086.000000	99.705349 
2085.000000	99.700020 
2084.000000	99.695830 
2083.000000	99.693095 
2082.000000	99.691116 
2081.000000	99.690849 
2080.000000	99.693359 
2079.000000	99.697682 
2078.000000	99.702269 
2077.000000	99.708028 
2076.000000	99.717835 
2075.000000	99.732310 
2074.000000	99.747504 
2073.000000	99.757878 
2072.000000	99.760905 
2071.000000	99.757776 
2070.000000	99.750621 
2069.000000	99.740840 
2068.000000	99.730060 
2067.000000	99.721159 
2066.000000	99.717330 
2065.000000	99.719835 
2064.000000	99.726640 
2063.000000	99.733832 
2062.000000	99.739043 
2061.000000	99.743264 
2060.000000	99.748466 
2059.000000	99.753763 
2058.000000	99.755727 
2057.000000	99.752782 
2056.000000	99.746927 
2055.000000	99.739930 
2054.000000	99.730573 
2053.000000	99.718311 
2052.000000	99.707641 
2051.000000	99.705029 
2050.000000	99.711236 
2049.000000	99.718961 
2048.000000	99.720002 
2047.000000	99.714124 
2046.000000	99.709209 
2045.000000	99.713286 
2044.000000	99.727076 
2043.000000	99.743254 
2042.000000	99.752288 
2041.000000	99.750114 
2040.000000	99.741420 
2039.000000	99.735243 
2038.000000	99.737605 
2037.000000	99.747868 
2036.000000	99.760084 
2035.000000	99.766921 
2034.000000	99.764039 
2033.000000	99.752946 
2032.000000	99.739556 
2031.000000	99.728943 
2030.000000	99.722200 
2029.000000	99.717894 
2028.000000	99.713975 
2027.000000	99.708184 
2026.000000	99.700583 
2025.000000	99.697196 
2024.000000	99.706240 
2023.000000	99.726352 
2022.000000	99.741981 
2021.000000	99.736766 
2020.000000	99.711890 
2019.000000	99.686024 
2018.000000	99.676361 
2017.000000	99.683216 
2016.000000	99.694173 
2015.000000	99.699690 
2014.000000	99.700457 
2013.000000	99.701834 
2012.000000	99.706029 
2011.000000	99.711037 
2010.000000	99.715506 
2009.000000	99.722024 
2008.000000	99.733750 
2007.000000	99.748051 
2006.000000	99.756534 
2005.000000	99.753455 
2004.000000	99.742473 
2003.000000	99.732787 
2002.000000	99.730222 
2001.000000	99.733680 
2000.000000	99.737973 
1999.000000	99.737993 
1998.000000	99.731792 
1997.000000	99.722798 
1996.000000	99.718305 
1995.000000	99.723305 
1994.000000	99.735657 
1993.000000	99.747911 
1992.000000	99.753592 
1991.000000	99.751092 
1990.000000	99.742695 
1989.000000	99.732883 
1988.000000	99.726798 
1987.000000	99.726513 
1986.000000	99.728410 
1985.000000	99.727348 
1984.000000	99.723947 
1983.000000	99.724547 
1982.000000	99.732513 
1981.000000	99.742184 
1980.000000	99.743787 
1979.000000	99.733751 
1978.000000	99.718483 
1977.000000	99.707538 
1976.000000	99.703429 
1975.000000	99.700277 
1974.000000	99.693365 
1973.000000	99.687777 
1972.000000	99.694513 
1971.000000	99.717051 
1970.000000	99.744112 
1969.000000	99.758163 
1968.000000	99.751435 
1967.000000	99.732294 
1966.000000	99.715129 
1965.000000	99.706750 
1964.000000	99.704600 
1963.000000	99.704296 
1962.000000	99.704142 
1961.000000	99.703226 
1960.000000	99.699918 
1959.000000	99.694716 
1958.000000	99.692067 
1957.000000	99.696025 
1956.000000	99.704693 
1955.000000	99.711730 
1954.000000	99.713197 
1953.000000	99.710202 
1952.000000	99.704635 
1951.000000	99.695847 
1950.000000	99.684063 
1949.000000	99.674456 
1948.000000	99.673647 
1947.000000	99.681535 
1946.000000	99.689248 
1945.000000	99.686702 
1944.000000	99.671920 
1943.000000	99.653468 
1942.000000	99.643967 
1941.000000	99.648912 
1940.000000	99.661927 
1939.000000	99.672483 
1938.000000	99.677293 
1937.000000	99.682774 
1936.000000	99.695140 
1935.000000	99.710150 
1934.000000	99.717210 
1933.000000	99.713071 
1932.000000	99.706477 
1931.000000	99.707044 
1930.000000	99.714069 
1929.000000	99.719566 
1928.000000	99.718947 
1927.000000	99.714323 
1926.000000	99.709150 
1925.000000	99.704960 
1924.000000	99.702977 
1923.000000	99.705053 
1922.000000	99.710706 
1921.000000	99.715593 
1920.000000	99.714501 
1919.000000	99.704747 
1918.000000	99.688308 
1917.000000	99.672293 
1916.000000	99.664057 
1915.000000	99.664997 
1914.000000	99.670925 
1913.000000	99.676913 
1912.000000	99.680594 
1911.000000	99.681469 
1910.000000	99.679456 
1909.000000	99.676560 
1908.000000	99.677599 
1907.000000	99.685321 
1906.000000	99.695887 
1905.000000	99.702370 
1904.000000	99.701955 
1903.000000	99.697549 
1902.000000	99.692948 
1901.000000	99.689918 
1900.000000	99.689167 
1899.000000	99.690819 
1898.000000	99.693666 
1897.000000	99.696151 
1896.000000	99.698037 
1895.000000	99.699413 
1894.000000	99.698707 
1893.000000	99.694799 
1892.000000	99.690113 
1891.000000	99.688089 
1890.000000	99.688102 
1889.000000	99.686274 
1888.000000	99.681861 
1887.000000	99.678255 
1886.000000	99.678012 
1885.000000	99.680988 
1884.000000	99.686682 
1883.000000	99.694647 
1882.000000	99.701826 
1881.000000	99.703639 
1880.000000	99.699790 
1879.000000	99.696084 
1878.000000	99.698448 
1877.000000	99.706828 
1876.000000	99.716258 
1875.000000	99.722024 
1874.000000	99.722066 
1873.000000	99.716730 
1872.000000	99.708878 
1871.000000	99.702841 
1870.000000	99.700724 
1869.000000	99.700226 
1868.000000	99.699452 
1867.000000	99.700949 
1866.000000	99.706619 
1865.000000	99.712996 
1864.000000	99.713305 
1863.000000	99.703588 
1862.000000	99.687073 
1861.000000	99.672460 
1860.000000	99.667492 
1859.000000	99.673484 
1858.000000	99.685490 
1857.000000	99.697518 
1856.000000	99.707510 
1855.000000	99.716840 
1854.000000	99.725919 
1853.000000	99.732143 
1852.000000	99.732446 
1851.000000	99.727174 
1850.000000	99.720521 
1849.000000	99.717652 
1848.000000	99.720269 
1847.000000	99.725101 
1846.000000	99.727265 
1845.000000	99.725154 
1844.000000	99.722734 
1843.000000	99.725022 
1842.000000	99.730907 
1841.000000	99.735655 
1840.000000	99.736719 
1839.000000	99.734407 
1838.000000	99.730039 
1837.000000	99.725051 
1836.000000	99.721033 
1835.000000	99.719459 
1834.000000	99.720769 
1833.000000	99.723867 
1832.000000	99.726079 
1831.000000	99.724511 
1830.000000	99.719366 
1829.000000	99.715645 
1828.000000	99.716915 
1827.000000	99.720796 
1826.000000	99.722882 
1825.000000	99.721755 
1824.000000	99.720012 
1823.000000	99.719446 
1822.000000	99.717722 
1821.000000	99.712605 
1820.000000	99.706836 
1819.000000	99.706154 
1818.000000	99.711877 
1817.000000	99.718529 
1816.000000	99.721026 
1815.000000	99.720991 
1814.000000	99.722941 
1813.000000	99.727685 
1812.000000	99.732452 
1811.000000	99.735900 
1810.000000	99.738770 
1809.000000	99.740005 
1808.000000	99.737714 
1807.000000	99.732661 
1806.000000	99.727387 
1805.000000	99.723398 
1804.000000	99.720836 
1803.000000	99.719465 
1802.000000	99.718473 
1801.000000	99.716015 
1800.000000	99.711986 
1799.000000	99.709594 
1798.000000	99.711452 
1797.000000	99.716313 
1796.000000	99.721214 
1795.000000	99.724676 
1794.000000	99.727102 
1793.000000	99.728533 
1792.000000	99.728425 
1791.000000	99.727841 
1790.000000	99.727418 
1789.000000	99.726344 
1788.000000	99.725170 
1787.000000	99.725738 
1786.000000	99.728583 
1785.000000	99.731829 
1784.000000	99.733507 
1783.000000	99.733071 
1782.000000	99.730567 
1781.000000	99.725971 
1780.000000	99.720314 
1779.000000	99.715531 
1778.000000	99.713039 
1777.000000	99.713134 
1776.000000	99.714939 
1775.000000	99.716489 
1774.000000	99.716333 
1773.000000	99.715134 
1772.000000	99.715278 
1771.000000	99.718576 
1770.000000	99.723134 
1769.000000	99.725464 
1768.000000	99.724448 
1767.000000	99.722132 
1766.000000	99.721099 
1765.000000	99.721479 
1764.000000	99.721652 
1763.000000	99.720066 
1762.000000	99.717143 
1761.000000	99.715421 
1760.000000	99.716489 
1759.000000	99.719837 
1758.000000	99.725230 
1757.000000	99.732712 
1756.000000	99.740330 
1755.000000	99.744667 
1754.000000	99.745024 
1753.000000	99.744698 
1752.000000	99.746506 
1751.000000	99.747667 
1750.000000	99.743436 
1749.000000	99.735120 
1748.000000	99.728110 
1747.000000	99.725329 
1746.000000	99.725587 
1745.000000	99.726547 
1744.000000	99.727053 
1743.000000	99.727230 
1742.000000	99.727966 
1741.000000	99.729759 
1740.000000	99.732189 
1739.000000	99.734728 
1738.000000	99.737098 
1737.000000	99.738200 
1736.000000	99.737974 
1735.000000	99.736857 
1734.000000	99.733181 
1733.000000	99.729145 
1732.000000	99.728052 
1731.000000	99.727813 
1730.000000	99.726489 
1729.000000	99.725088 
1728.000000	99.724813 
1727.000000	99.725054 
1726.000000	99.725045 
1725.000000	99.725432 
1724.000000	99.727367 
1723.000000	99.730544 
1722.000000	99.733233 
1721.000000	99.734161 
1720.000000	99.734766 
1719.000000	99.738397 
1718.000000	99.744999 
1717.000000	99.748431 
1716.000000	99.747181 
1715.000000	99.746703 
1714.000000	99.748005 
1713.000000	99.747431 
1712.000000	99.743654 
1711.000000	99.739113 
1710.000000	99.736526 
1709.000000	99.735901 
1708.000000	99.735481 
1707.000000	99.734859 
1706.000000	99.733659 
1705.000000	99.729600 
1704.000000	99.721522 
1703.000000	99.711738 
1702.000000	99.705106 
1701.000000	99.704448 
1700.000000	99.706411 
1699.000000	99.712243 
1698.000000	99.721729 
1697.000000	99.728487 
1696.000000	99.729002 
1695.000000	99.727142 
1694.000000	99.727311 
1693.000000	99.727746 
1692.000000	99.727077 
1691.000000	99.726952 
1690.000000	99.728826 
1689.000000	99.731389 
1688.000000	99.732116 
1687.000000	99.730848 
1686.000000	99.730477 
1685.000000	99.731457 
1684.000000	99.729294 
1683.000000	99.727004 
1682.000000	99.726840 
1681.000000	99.726740 
1680.000000	99.726318 
1679.000000	99.725644 
1678.000000	99.724083 
1677.000000	99.721972 
1676.000000	99.720614 
1675.000000	99.719829 
1674.000000	99.719792 
1673.000000	99.721317 
1672.000000	99.724529 
1671.000000	99.728582 
1670.000000	99.730549 
1669.000000	99.729456 
1668.000000	99.728467 
1667.000000	99.728198 
1666.000000	99.726853 
1665.000000	99.724037 
1664.000000	99.721349 
1663.000000	99.720140 
1662.000000	99.720630 
1661.000000	99.723102 
1660.000000	99.727758 
1659.000000	99.732662 
1658.000000	99.733711 
1657.000000	99.727632 
1656.000000	99.715323 
1655.000000	99.702671 
1654.000000	99.695667 
1653.000000	99.695458 
1652.000000	99.705324 
1651.000000	99.718805 
1650.000000	99.727446 
1649.000000	99.730545 
1648.000000	99.731441 
1647.000000	99.731468 
1646.000000	99.731044 
1645.000000	99.732011 
1644.000000	99.734802 
1643.000000	99.737864 
1642.000000	99.738889 
1641.000000	99.736568 
1640.000000	99.732123 
1639.000000	99.727789 
1638.000000	99.725209 
1637.000000	99.725845 
1636.000000	99.729683 
1635.000000	99.734304 
1634.000000	99.736780 
1633.000000	99.735582 
1632.000000	99.731523 
1631.000000	99.726546 
1630.000000	99.721979 
1629.000000	99.718752 
1628.000000	99.718187 
1627.000000	99.720029 
1626.000000	99.721457 
1625.000000	99.720471 
1624.000000	99.718235 
1623.000000	99.716803 
1622.000000	99.716501 
1621.000000	99.716051 
1620.000000	99.714096 
1619.000000	99.710635 
1618.000000	99.707619 
1617.000000	99.708419 
1616.000000	99.716041 
1615.000000	99.726981 
1614.000000	99.733890 
1613.000000	99.735206 
1612.000000	99.734707 
1611.000000	99.734851 
1610.000000	99.733688 
1609.000000	99.729955 
1608.000000	99.726545 
1607.000000	99.725630 
1606.000000	99.725805 
1605.000000	99.725841 
1604.000000	99.726874 
1603.000000	99.729259 
1602.000000	99.731255 
1601.000000	99.732134 
1600.000000	99.733348 
1599.000000	99.735684 
1598.000000	99.738157 
1597.000000	99.740055 
1596.000000	99.741663 
1595.000000	99.742424 
1594.000000	99.740884 
1593.000000	99.737953 
1592.000000	99.737082 
1591.000000	99.739790 
1590.000000	99.743736 
1589.000000	99.746693 
1588.000000	99.749372 
1587.000000	99.752555 
1586.000000	99.754877 
1585.000000	99.755615 
1584.000000	99.756329 
1583.000000	99.757911 
1582.000000	99.758456 
1581.000000	99.756323 
1580.000000	99.751927 
1579.000000	99.745811 
1578.000000	99.738238 
1577.000000	99.731324 
1576.000000	99.729072 
1575.000000	99.732446 
1574.000000	99.737081 
1573.000000	99.739736 
1572.000000	99.741226 
1571.000000	99.743555 
1570.000000	99.745882 
1569.000000	99.747792 
1568.000000	99.750743 
1567.000000	99.752927 
1566.000000	99.751853 
1565.000000	99.748152 
1564.000000	99.743581 
1563.000000	99.737668 
1562.000000	99.729438 
1561.000000	99.724148 
1560.000000	99.730416 
1559.000000	99.738338 
1558.000000	99.738351 
1557.000000	99.741615 
1556.000000	99.748013 
1555.000000	99.752429 
1554.000000	99.752855 
1553.000000	99.751247 
1552.000000	99.749997 
1551.000000	99.749706 
1550.000000	99.750171 
1549.000000	99.752085 
1548.000000	99.755512 
1547.000000	99.758155 
1546.000000	99.756330 
1545.000000	99.748200 
1544.000000	99.738142 
1543.000000	99.734809 
1542.000000	99.742399 
1541.000000	99.754729 
1540.000000	99.760537 
1539.000000	99.759990 
1538.000000	99.759403 
1537.000000	99.759495 
1536.000000	99.759836 
1535.000000	99.761227 
1534.000000	99.761395 
1533.000000	99.756456 
1532.000000	99.749841 
1531.000000	99.747168 
1530.000000	99.747565 
1529.000000	99.746674 
1528.000000	99.743166 
1527.000000	99.740653 
1526.000000	99.742296 
1525.000000	99.745829 
1524.000000	99.748425 
1523.000000	99.751637 
1522.000000	99.755997 
1521.000000	99.756448 
1520.000000	99.751047 
1519.000000	99.743296 
1518.000000	99.735970 
1517.000000	99.730244 
1516.000000	99.727448 
1515.000000	99.728086 
1514.000000	99.730509 
1513.000000	99.732472 
1512.000000	99.732086 
1511.000000	99.728886 
1510.000000	99.724490 
1509.000000	99.721779 
1508.000000	99.723964 
1507.000000	99.730402 
1506.000000	99.736140 
1505.000000	99.736237 
1504.000000	99.732131 
1503.000000	99.728320 
1502.000000	99.727029 
1501.000000	99.727242 
1500.000000	99.725683 
1499.000000	99.720892 
1498.000000	99.715013 
1497.000000	99.708659 
1496.000000	99.701176 
1495.000000	99.696900 
1494.000000	99.699891 
1493.000000	99.708003 
1492.000000	99.716470 
1491.000000	99.721105 
1490.000000	99.719615 
1489.000000	99.712574 
1488.000000	99.703552 
1487.000000	99.696867 
1486.000000	99.692651 
1485.000000	99.688448 
1484.000000	99.684136 
1483.000000	99.681997 
1482.000000	99.683408 
1481.000000	99.686393 
1480.000000	99.687935 
1479.000000	99.687759 
1478.000000	99.687063 
1477.000000	99.685822 
1476.000000	99.684270 
1475.000000	99.685749 
1474.000000	99.692090 
1473.000000	99.697960 
1472.000000	99.697080 
1471.000000	99.692630 
1470.000000	99.689139 
1469.000000	99.685434 
1468.000000	99.679564 
1467.000000	99.673371 
1466.000000	99.671033 
1465.000000	99.673739 
1464.000000	99.679075 
1463.000000	99.684451 
1462.000000	99.687982 
1461.000000	99.687477 
1460.000000	99.681590 
1459.000000	99.671461 
1458.000000	99.659591 
1457.000000	99.646496 
1456.000000	99.633371 
1455.000000	99.623706 
1454.000000	99.618892 
1453.000000	99.618433 
1452.000000	99.621374 
1451.000000	99.626077 
1450.000000	99.630758 
1449.000000	99.633836 
1448.000000	99.634477 
1447.000000	99.634298 
1446.000000	99.635865 
1445.000000	99.639267 
1444.000000	99.643410 
1443.000000	99.647908 
1442.000000	99.652539 
1441.000000	99.655776 
1440.000000	99.655656 
1439.000000	99.652848 
1438.000000	99.651481 
1437.000000	99.653273 
1436.000000	99.653962 
1435.000000	99.651037 
1434.000000	99.646756 
1433.000000	99.643063 
1432.000000	99.640882 
1431.000000	99.640026 
1430.000000	99.639465 
1429.000000	99.637702 
1428.000000	99.633419 
1427.000000	99.627252 
1426.000000	99.621573 
1425.000000	99.618291 
1424.000000	99.616354 
1423.000000	99.612476 
1422.000000	99.605126 
1421.000000	99.594456 
1420.000000	99.579687 
1419.000000	99.560441 
1418.000000	99.542495 
1417.000000	99.529172 
1416.000000	99.515425 
1415.000000	99.497567 
1414.000000	99.477375 
1413.000000	99.458349 
1412.000000	99.441598 
1411.000000	99.426056 
1410.000000	99.411460 
1409.000000	99.398756 
1408.000000	99.389326 
1407.000000	99.385242 
1406.000000	99.387833 
1405.000000	99.395843 
1404.000000	99.406235 
1403.000000	99.417805 
1402.000000	99.432567 
1401.000000	99.452166 
1400.000000	99.474124 
1399.000000	99.490466 
1398.000000	99.491478 
1397.000000	99.469733 
1396.000000	99.424657 
1395.000000	99.372985 
1394.000000	99.347287 
1393.000000	99.365923 
1392.000000	99.413710 
1391.000000	99.462034 
1390.000000	99.492752 
1389.000000	99.503511 
1388.000000	99.500269 
1387.000000	99.489546 
1386.000000	99.477058 
1385.000000	99.467528 
1384.000000	99.462521 
1383.000000	99.460174 
1382.000000	99.458302 
1381.000000	99.457648 
1380.000000	99.461296 
1379.000000	99.470636 
1378.000000	99.483464 
1377.000000	99.496817 
1376.000000	99.509654 
1375.000000	99.521938 
1374.000000	99.533570 
1373.000000	99.545414 
1372.000000	99.558587 
1371.000000	99.572579 
1370.000000	99.585496 
1369.000000	99.596507 
1368.000000	99.606250 
1367.000000	99.615037 
1366.000000	99.622496 
1365.000000	99.628859 
1364.000000	99.635299 
1363.000000	99.642584 
1362.000000	99.650085 
1361.000000	99.656959 
1360.000000	99.663403 
1359.000000	99.670281 
1358.000000	99.678187 
1357.000000	99.686946 
1356.000000	99.695210 
1355.000000	99.701247 
1354.000000	99.705034 
1353.000000	99.708663 
1352.000000	99.713775 
1351.000000	99.719388 
1350.000000	99.722867 
1349.000000	99.723800 
1348.000000	99.724016 
1347.000000	99.724295 
1346.000000	99.723857 
1345.000000	99.722974 
1344.000000	99.723170 
1343.000000	99.724626 
1342.000000	99.725873 
1341.000000	99.726611 
1340.000000	99.728428 
1339.000000	99.731817 
1338.000000	99.735179 
1337.000000	99.737854 
1336.000000	99.740974 
1335.000000	99.744453 
1334.000000	99.745947 
1333.000000	99.744228 
1332.000000	99.741499 
1331.000000	99.740459 
1330.000000	99.740677 
1329.000000	99.740051 
1328.000000	99.738358 
1327.000000	99.737096 
1326.000000	99.736825 
1325.000000	99.737179 
1324.000000	99.738180 
1323.000000	99.739978 
1322.000000	99.742006 
1321.000000	99.743837 
1320.000000	99.746427 
1319.000000	99.750898 
1318.000000	99.755933 
1317.000000	99.757837 
1316.000000	99.754121 
1315.000000	99.746426 
1314.000000	99.739386 
1313.000000	99.736555 
1312.000000	99.737669 
1311.000000	99.739943 
1310.000000	99.741354 
1309.000000	99.741842 
1308.000000	99.741767 
1307.000000	99.740662 
1306.000000	99.738104 
1305.000000	99.735324 
1304.000000	99.734346 
1303.000000	99.735729 
1302.000000	99.737956 
1301.000000	99.739115 
1300.000000	99.738624 
1299.000000	99.737495 
1298.000000	99.737421 
1297.000000	99.739341 
1296.000000	99.742337 
1295.000000	99.744017 
1294.000000	99.742660 
1293.000000	99.738835 
1292.000000	99.734461 
1291.000000	99.730834 
1290.000000	99.728178 
1289.000000	99.726508 
1288.000000	99.725732 
1287.000000	99.724958 
1286.000000	99.722868 
1285.000000	99.719021 
1284.000000	99.714015 
1283.000000	99.708411 
1282.000000	99.702342 
1281.000000	99.696232 
1280.000000	99.690914 
1279.000000	99.686477 
1278.000000	99.681904 
1277.000000	99.676436 
1276.000000	99.670657 
1275.000000	99.665436 
1274.000000	99.660325 
1273.000000	99.653794 
1272.000000	99.644963 
1271.000000	99.634553 
1270.000000	99.624135 
1269.000000	99.614775 
1268.000000	99.606406 
1267.000000	99.598130 
1266.000000	99.589115 
1265.000000	99.579253 
1264.000000	99.569042 
1263.000000	99.558864 
1262.000000	99.548462 
1261.000000	99.537294 
1260.000000	99.525514 
1259.000000	99.514286 
1258.000000	99.505013 
1257.000000	99.498251 
1256.000000	99.493644 
1255.000000	99.490684 
1254.000000	99.488891 
1253.000000	99.487131 
1252.000000	99.483868 
1251.000000	99.479160 
1250.000000	99.476036 
1249.000000	99.478604 
1248.000000	99.488295 
1247.000000	99.501968 
1246.000000	99.512975 
1245.000000	99.513703 
1244.000000	99.499700 
1243.000000	99.475284 
1242.000000	99.454574 
1241.000000	99.451750 
1240.000000	99.467551 
1239.000000	99.487739 
1238.000000	99.497111 
1237.000000	99.493075 
1236.000000	99.483465 
1235.000000	99.474706 
1234.000000	99.466656 
1233.000000	99.457194 
1232.000000	99.446269 
1231.000000	99.434671 
1230.000000	99.423048 
1229.000000	99.413659 
1228.000000	99.409839 
1227.000000	99.411799 
1226.000000	99.415191 
1225.000000	99.415767 
1224.000000	99.413819 
1223.000000	99.412509 
1222.000000	99.413431 
1221.000000	99.415471 
1220.000000	99.416853 
1219.000000	99.416638 
1218.000000	99.414788 
1217.000000	99.411814 
1216.000000	99.408035 
1215.000000	99.402898 
1214.000000	99.395670 
1213.000000	99.386755 
1212.000000	99.377207 
1211.000000	99.367203 
1210.000000	99.356571 
1209.000000	99.346747 
1208.000000	99.340132 
1207.000000	99.336952 
1206.000000	99.334629 
1205.000000	99.330934 
1204.000000	99.325795 
1203.000000	99.319319 
1202.000000	99.310585 
1201.000000	99.299940 
1200.000000	99.290297 
1199.000000	99.284042 
1198.000000	99.280009 
1197.000000	99.275258 
1196.000000	99.268531 
1195.000000	99.260338 
1194.000000	99.251118 
1193.000000	99.241389 
1192.000000	99.232562 
1191.000000	99.225406 
1190.000000	99.218401 
1189.000000	99.209598 
1188.000000	99.199668 
1187.000000	99.191371 
1186.000000	99.186398 
1185.000000	99.184165 
1184.000000	99.183062 
1183.000000	99.181264 
1182.000000	99.177048 
1181.000000	99.170210 
1180.000000	99.162751 
1179.000000	99.156511 
1178.000000	99.150667 
1177.000000	99.143281 
1176.000000	99.134436 
1175.000000	99.125558 
1174.000000	99.116040 
1173.000000	99.103315 
1172.000000	99.086757 
1171.000000	99.069196 
1170.000000	99.053493 
1169.000000	99.039203 
1168.000000	99.023811 
1167.000000	99.006400 
1166.000000	98.989306 
1165.000000	98.976679 
1164.000000	98.971703 
1163.000000	98.974474 
1162.000000	98.982163 
1161.000000	98.991607 
1160.000000	99.001428 
1159.000000	99.010971 
1158.000000	99.017891 
1157.000000	99.018254 
1156.000000	99.009446 
1155.000000	98.992773 
1154.000000	98.973464 
1153.000000	98.957928 
1152.000000	98.949516 
1151.000000	98.945671 
1150.000000	98.939857 
1149.000000	98.927574 
1148.000000	98.910114 
1147.000000	98.891902 
1146.000000	98.875314 
1145.000000	98.859298 
1144.000000	98.841905 
1143.000000	98.822364 
1142.000000	98.801318 
1141.000000	98.780747 
1140.000000	98.763124 
1139.000000	98.748900 
1138.000000	98.735151 
1137.000000	98.718408 
1136.000000	98.698488 
1135.000000	98.677834 
1134.000000	98.657466 
1133.000000	98.635599 
1132.000000	98.610622 
1131.000000	98.583886 
1130.000000	98.559004 
1129.000000	98.538824 
1128.000000	98.522598 
1127.000000	98.505429 
1126.000000	98.481872 
1125.000000	98.451733 
1124.000000	98.421101 
1123.000000	98.395754 
1122.000000	98.374669 
1121.000000	98.352265 
1120.000000	98.325683 
1119.000000	98.296670 
1118.000000	98.267065 
1117.000000	98.236217 
1116.000000	98.203423 
1115.000000	98.169763 
1114.000000	98.136505 
1113.000000	98.104037 
1112.000000	98.072887 
1111.000000	98.043218 
1110.000000	98.012752 
1109.000000	97.978130 
1108.000000	97.939451 
1107.000000	97.901327 
1106.000000	97.868003 
1105.000000	97.839135 
1104.000000	97.811423 
1103.000000	97.782655 
1102.000000	97.753214 
1101.000000	97.725216 
1100.000000	97.700509 
1099.000000	97.679426 
1098.000000	97.660234 
1097.000000	97.641611 
1096.000000	97.624335 
1095.000000	97.608492 
1094.000000	97.589852 
1093.000000	97.561876 
1092.000000	97.521520 
1091.000000	97.471307 
1090.000000	97.416487 
1089.000000	97.362544 
1088.000000	97.314539 
1087.000000	97.275102 
1086.000000	97.242255 
1085.000000	97.211719 
1084.000000	97.181370 
1083.000000	97.151081 
1082.000000	97.119406 
1081.000000	97.084583 
1080.000000	97.048866 
1079.000000	97.018007 
1078.000000	96.995839 
1077.000000	96.982495 
1076.000000	96.977811 
1075.000000	96.982580 
1074.000000	96.996231 
1073.000000	97.016417 
1072.000000	97.039379 
1071.000000	97.056014 
1070.000000	97.050200 
1069.000000	97.010416 
1068.000000	96.946633 
1067.000000	96.889817 
1066.000000	96.868878 
1065.000000	96.888744 
1064.000000	96.931702 
1063.000000	96.974098 
1062.000000	96.998181 
1061.000000	96.994825 
1060.000000	96.965194 
1059.000000	96.922600 
1058.000000	96.887270 
1057.000000	96.873563 
1056.000000	96.880774 
1055.000000	96.896397 
1054.000000	96.908086 
1053.000000	96.912826 
1052.000000	96.915428 
1051.000000	96.919777 
1050.000000	96.923641 
1049.000000	96.922312 
1048.000000	96.914717 
1047.000000	96.904470 
1046.000000	96.896822 
1045.000000	96.895527 
1044.000000	96.900396 
1043.000000	96.906666 
1042.000000	96.908956 
1041.000000	96.907283 
1040.000000	96.907341 
1039.000000	96.914529 
1038.000000	96.930721 
1037.000000	96.957004 
1036.000000	96.994356 
1035.000000	97.039125 
1034.000000	97.082656 
1033.000000	97.118375 
1032.000000	97.144561 
1031.000000	97.158019 
1030.000000	97.153226 
1029.000000	97.134664 
1028.000000	97.123568 
1027.000000	97.141619 
1026.000000	97.188132 
1025.000000	97.241022 
1024.000000	97.279803 
1023.000000	97.300794 
1022.000000	97.311624 
1021.000000	97.320171 
1020.000000	97.331214 
1019.000000	97.346544 
1018.000000	97.363807 
1017.000000	97.378655 
1016.000000	97.390491 
1015.000000	97.403431 
1014.000000	97.420658 
1013.000000	97.440959 
1012.000000	97.461425 
1011.000000	97.480232 
1010.000000	97.496358 
1009.000000	97.510170 
1008.000000	97.524955 
1007.000000	97.544541 
1006.000000	97.568699 
1005.000000	97.593831 
1004.000000	97.618246 
1003.000000	97.643326 
1002.000000	97.669454 
1001.000000	97.694625 
1000.000000	97.717643 
999.000000	 97.739135 
998.000000	 97.758918 
997.000000	 97.776117 
996.000000	 97.792738 
995.000000	 97.813303 
994.000000	 97.839315 
993.000000	 97.867134 
992.000000	 97.892764 
991.000000	 97.915878 
990.000000	 97.937816 
989.000000	 97.958571 
988.000000	 97.977780 
987.000000	 97.996759 
986.000000	 98.017720 
985.000000	 98.042046 
984.000000	 98.070027 
983.000000	 98.100815 
982.000000	 98.132048 
981.000000	 98.161177 
980.000000	 98.187914 
979.000000	 98.214429 
978.000000	 98.243163 
977.000000	 98.275402 
976.000000	 98.311055 
975.000000	 98.347839 
974.000000	 98.381482 
973.000000	 98.409422 
972.000000	 98.434212 
971.000000	 98.460879 
970.000000	 98.490825 
969.000000	 98.520629 
968.000000	 98.546980 
967.000000	 98.570296 
966.000000	 98.592990 
965.000000	 98.616320 
964.000000	 98.639800 
963.000000	 98.662240 
962.000000	 98.682897 
961.000000	 98.702642 
960.000000	 98.723581 
959.000000	 98.745925 
958.000000	 98.765966 
957.000000	 98.779511 
956.000000	 98.787222 
955.000000	 98.794292 
954.000000	 98.804790 
953.000000	 98.818495 
952.000000	 98.833215 
951.000000	 98.847308 
950.000000	 98.859297 
949.000000	 98.867865 
948.000000	 98.873691 
947.000000	 98.879261 
946.000000	 98.885360 
945.000000	 98.889429 
944.000000	 98.889216 
943.000000	 98.887050 
942.000000	 98.888671 
941.000000	 98.897514 
940.000000	 98.910763 
939.000000	 98.921270 
938.000000	 98.923801 
937.000000	 98.919990 
936.000000	 98.916896 
935.000000	 98.920407 
934.000000	 98.930513 
933.000000	 98.943158 
932.000000	 98.955073 
931.000000	 98.965441 
930.000000	 98.974333 
929.000000	 98.981652 
928.000000	 98.987068 
927.000000	 98.989577 
926.000000	 98.988131 
925.000000	 98.984381 
924.000000	 98.983429 
923.000000	 98.989283 
922.000000	 98.999850 
921.000000	 99.008607 
920.000000	 99.010890 
919.000000	 99.006779 
918.000000	 98.999009 
917.000000	 98.990815 
916.000000	 98.985379 
915.000000	 98.984254 
914.000000	 98.985633 
913.000000	 98.986279 
912.000000	 98.985417 
911.000000	 98.984938 
910.000000	 98.986210 
909.000000	 98.989129 
908.000000	 98.994057 
907.000000	 99.001866 
906.000000	 99.011692 
905.000000	 99.021172 
904.000000	 99.029457 
903.000000	 99.038030 
902.000000	 99.048414 
901.000000	 99.060949 
900.000000	 99.075519 
899.000000	 99.091112 
898.000000	 99.104438 
897.000000	 99.111567 
896.000000	 99.111281 
895.000000	 99.105572 
894.000000	 99.097659 
893.000000	 99.091653 
892.000000	 99.093158 
891.000000	 99.106618 
890.000000	 99.131032 
889.000000	 99.160099 
888.000000	 99.186536 
887.000000	 99.205087 
886.000000	 99.213764 
885.000000	 99.215795 
884.000000	 99.218797 
883.000000	 99.227310 
882.000000	 99.236265 
881.000000	 99.236725 
880.000000	 99.228674 
879.000000	 99.222991 
878.000000	 99.228892 
877.000000	 99.244115 
876.000000	 99.259964 
875.000000	 99.271290 
874.000000	 99.278331 
873.000000	 99.282803 
872.000000	 99.286303 
871.000000	 99.290502 
870.000000	 99.295842 
869.000000	 99.301637 
868.000000	 99.308977 
867.000000	 99.320578 
866.000000	 99.335602 
865.000000	 99.348247 
864.000000	 99.355190 
863.000000	 99.361795 
862.000000	 99.376186 
861.000000	 99.398111 
860.000000	 99.418405 
859.000000	 99.429790 
858.000000	 99.433990 
857.000000	 99.437024 
856.000000	 99.441840 
855.000000	 99.448528 
854.000000	 99.458098 
853.000000	 99.471009 
852.000000	 99.482922 
851.000000	 99.487104 
850.000000	 99.482786 
849.000000	 99.477567 
848.000000	 99.478931 
847.000000	 99.485831 
846.000000	 99.491439 
845.000000	 99.492353 
844.000000	 99.491438 
843.000000	 99.492353 
842.000000	 99.495138 
841.000000	 99.497471 
840.000000	 99.496758 
839.000000	 99.490500 
838.000000	 99.478443 
837.000000	 99.465594 
836.000000	 99.459078 
835.000000	 99.459589 
834.000000	 99.459491 
833.000000	 99.452865 
832.000000	 99.444264 
831.000000	 99.442770 
830.000000	 99.449014 
829.000000	 99.453757 
828.000000	 99.450254 
827.000000	 99.443186 
826.000000	 99.442610 
825.000000	 99.451636 
824.000000	 99.463147 
823.000000	 99.467937 
822.000000	 99.464055 
821.000000	 99.457628 
820.000000	 99.455462 
819.000000	 99.458330 
818.000000	 99.461978 
817.000000	 99.463059 
816.000000	 99.461248 
815.000000	 99.455562 
814.000000	 99.442843 
813.000000	 99.422521 
812.000000	 99.399424 
811.000000	 99.377392 
810.000000	 99.351540 
809.000000	 99.311599 
808.000000	 99.253347 
807.000000	 99.183335 
806.000000	 99.111825 
805.000000	 99.044553 
804.000000	 98.983000 
803.000000	 98.929213 
802.000000	 98.886758 
801.000000	 98.857391 
800.000000	 98.839178 
799.000000	 98.829239 
798.000000	 98.828410 
797.000000	 98.841675 
796.000000	 98.871324 
795.000000	 98.909935 
794.000000	 98.944156 
793.000000	 98.967194 
792.000000	 98.983842 
791.000000	 99.001278 
790.000000	 99.019267 
789.000000	 99.032296 
788.000000	 99.036574 
787.000000	 99.030181 
786.000000	 99.010034 
785.000000	 98.974725 
784.000000	 98.929310 
783.000000	 98.883265 
782.000000	 98.844714 
781.000000	 98.819103 
780.000000	 98.809891 
779.000000	 98.815416 
778.000000	 98.828054 
777.000000	 98.842744 
776.000000	 98.864318 
775.000000	 98.900063 
774.000000	 98.946745 
773.000000	 98.991998 
772.000000	 99.028020 
771.000000	 99.057225 
770.000000	 99.084290 
769.000000	 99.108978 
768.000000	 99.128240 
767.000000	 99.140752 
766.000000	 99.148222 
765.000000	 99.155743 
764.000000	 99.170231 
763.000000	 99.193596 
762.000000	 99.217132 
761.000000	 99.227901 
760.000000	 99.222248 
759.000000	 99.209745 
758.000000	 99.203537 
757.000000	 99.209730 
756.000000	 99.224912 
755.000000	 99.239069 
754.000000	 99.241493 
753.000000	 99.229796 
752.000000	 99.214672 
751.000000	 99.211740 
750.000000	 99.226788 
749.000000	 99.251065 
748.000000	 99.270838 
747.000000	 99.278758 
746.000000	 99.277134 
745.000000	 99.274234 
744.000000	 99.277492 
743.000000	 99.287207 
742.000000	 99.297291 
741.000000	 99.304454 
740.000000	 99.313866 
739.000000	 99.331624 
738.000000	 99.354287 
737.000000	 99.370931 
736.000000	 99.373425 
735.000000	 99.360438 
734.000000	 99.335704 
733.000000	 99.309536 
732.000000	 99.298348 
731.000000	 99.312105 
730.000000	 99.341350 
729.000000	 99.365395 
728.000000	 99.374192 
727.000000	 99.374606 
726.000000	 99.375471 
725.000000	 99.375620 
724.000000	 99.369323 
723.000000	 99.355912 
722.000000	 99.340503 
721.000000	 99.330604 
720.000000	 99.333636 
719.000000	 99.351286 
718.000000	 99.374516 
717.000000	 99.390170 
716.000000	 99.393598 
715.000000	 99.389707 
714.000000	 99.382758 
713.000000	 99.373515 
712.000000	 99.367144 
711.000000	 99.373173 
710.000000	 99.392090 
709.000000	 99.409885 
708.000000	 99.411918 
707.000000	 99.396895 
706.000000	 99.373304 
705.000000	 99.347879 
704.000000	 99.323673 
703.000000	 99.305110 
702.000000	 99.296842 
701.000000	 99.297569 
700.000000	 99.299209 
699.000000	 99.292336 
698.000000	 99.273546 
697.000000	 99.249642 
696.000000	 99.233402 
695.000000	 99.232000 
694.000000	 99.239818 
693.000000	 99.247122 
692.000000	 99.253493 
691.000000	 99.265510 
690.000000	 99.284637 
689.000000	 99.306414 
688.000000	 99.329943 
687.000000	 99.356829 
686.000000	 99.379616 
685.000000	 99.385336 
684.000000	 99.373859 
683.000000	 99.360181 
682.000000	 99.356158 
681.000000	 99.360329 
680.000000	 99.366277 
679.000000	 99.368262 
678.000000	 99.358109 
677.000000	 99.333841 
676.000000	 99.313478 
675.000000	 99.319033 
674.000000	 99.345642 
673.000000	 99.362662 
672.000000	 99.350161 
671.000000	 99.319510 
670.000000	 99.295899 
669.000000	 99.298159 
668.000000	 99.327001 
667.000000	 99.362671 
666.000000	 99.388209 
665.000000	 99.396804 
664.000000	 99.392702 
663.000000	 99.395195 
662.000000	 99.417393 
661.000000	 99.443337 
660.000000	 99.445150 
659.000000	 99.417666 
658.000000	 99.380568 
657.000000	 99.351591 
656.000000	 99.334251 
655.000000	 99.328573 
654.000000	 99.337764 
653.000000	 99.359245 
652.000000	 99.381638 
651.000000	 99.395764 
650.000000	 99.400407 

