4000.000000	101.167601 
3999.000000	101.167158 
3998.000000	101.166809 
3997.000000	101.166700 
3996.000000	101.166787 
3995.000000	101.166881 
3994.000000	101.166860 
3993.000000	101.166802 
3992.000000	101.166872 
3991.000000	101.167074 
3990.000000	101.167130 
3989.000000	101.166713 
3988.000000	101.165807 
3987.000000	101.164854 
3986.000000	101.164341 
3985.000000	101.164390 
3984.000000	101.164723 
3983.000000	101.165028 
3982.000000	101.165284 
3981.000000	101.165592 
3980.000000	101.165992 
3979.000000	101.166430 
3978.000000	101.166795 
3977.000000	101.166943 
3976.000000	101.166774 
3975.000000	101.166325 
3974.000000	101.165698 
3973.000000	101.164976 
3972.000000	101.164275 
3971.000000	101.163776 
3970.000000	101.163582 
3969.000000	101.163593 
3968.000000	101.163609 
3967.000000	101.163491 
3966.000000	101.163232 
3965.000000	101.162897 
3964.000000	101.162562 
3963.000000	101.162281 
3962.000000	101.162056 
3961.000000	101.161847 
3960.000000	101.161627 
3959.000000	101.161394 
3958.000000	101.161159 
3957.000000	101.160923 
3956.000000	101.160682 
3955.000000	101.160434 
3954.000000	101.160178 
3953.000000	101.159912 
3952.000000	101.159638 
3951.000000	101.159356 
3950.000000	101.159067 
3949.000000	101.158774 
3948.000000	101.158482 
3947.000000	101.158200 
3946.000000	101.157938 
3945.000000	101.157700 
3944.000000	101.157482 
3943.000000	101.157273 
3942.000000	101.157066 
3941.000000	101.156863 
3940.000000	101.156671 
3939.000000	101.156490 
3938.000000	101.156315 
3937.000000	101.156138 
3936.000000	101.155953 
3935.000000	101.155750 
3934.000000	101.155552 
3933.000000	101.155403 
3932.000000	101.155286 
3931.000000	101.155176 
3930.000000	101.155129 
3929.000000	101.155172 
3928.000000	101.155163 
3927.000000	101.154977 
3926.000000	101.154761 
3925.000000	101.154709 
3924.000000	101.154718 
3923.000000	101.154631 
3922.000000	101.154534 
3921.000000	101.154539 
3920.000000	101.154557 
3919.000000	101.154468 
3918.000000	101.154332 
3917.000000	101.154256 
3916.000000	101.154213 
3915.000000	101.154133 
3914.000000	101.154049 
3913.000000	101.154015 
3912.000000	101.154012 
3911.000000	101.153997 
3910.000000	101.153981 
3909.000000	101.153999 
3908.000000	101.154048 
3907.000000	101.154111 
3906.000000	101.154179 
3905.000000	101.154250 
3904.000000	101.154307 
3903.000000	101.154328 
3902.000000	101.154308 
3901.000000	101.154251 
3900.000000	101.154161 
3899.000000	101.154034 
3898.000000	101.153865 
3897.000000	101.153660 
3896.000000	101.153448 
3895.000000	101.153252 
3894.000000	101.153085 
3893.000000	101.152944 
3892.000000	101.152826 
3891.000000	101.152719 
3890.000000	101.152609 
3889.000000	101.152481 
3888.000000	101.152332 
3887.000000	101.152166 
3886.000000	101.151984 
3885.000000	101.151782 
3884.000000	101.151562 
3883.000000	101.151338 
3882.000000	101.151125 
3881.000000	101.150924 
3880.000000	101.150726 
3879.000000	101.150526 
3878.000000	101.150332 
3877.000000	101.150158 
3876.000000	101.150010 
3875.000000	101.149882 
3874.000000	101.149763 
3873.000000	101.149647 
3872.000000	101.149538 
3871.000000	101.149447 
3870.000000	101.149369 
3869.000000	101.149286 
3868.000000	101.149195 
3867.000000	101.149105 
3866.000000	101.149020 
3865.000000	101.148922 
3864.000000	101.148793 
3863.000000	101.148641 
3862.000000	101.148490 
3861.000000	101.148357 
3860.000000	101.148244 
3859.000000	101.148158 
3858.000000	101.148111 
3857.000000	101.148117 
3856.000000	101.148183 
3855.000000	101.148308 
3854.000000	101.148473 
3853.000000	101.148638 
3852.000000	101.148773 
3851.000000	101.148875 
3850.000000	101.148953 
3849.000000	101.149013 
3848.000000	101.149061 
3847.000000	101.149100 
3846.000000	101.149135 
3845.000000	101.149174 
3844.000000	101.149225 
3843.000000	101.149290 
3842.000000	101.149363 
3841.000000	101.149433 
3840.000000	101.149493 
3839.000000	101.149538 
3838.000000	101.149564 
3837.000000	101.149561 
3836.000000	101.149523 
3835.000000	101.149443 
3834.000000	101.149326 
3833.000000	101.149180 
3832.000000	101.149012 
3831.000000	101.148823 
3830.000000	101.148610 
3829.000000	101.148372 
3828.000000	101.148113 
3827.000000	101.147845 
3826.000000	101.147579 
3825.000000	101.147316 
3824.000000	101.147055 
3823.000000	101.146804 
3822.000000	101.146569 
3821.000000	101.146339 
3820.000000	101.146089 
3819.000000	101.145809 
3818.000000	101.145513 
3817.000000	101.145210 
3816.000000	101.144889 
3815.000000	101.144526 
3814.000000	101.144116 
3813.000000	101.143675 
3812.000000	101.143216 
3811.000000	101.142745 
3810.000000	101.142266 
3809.000000	101.141794 
3808.000000	101.141341 
3807.000000	101.140908 
3806.000000	101.140478 
3805.000000	101.140040 
3804.000000	101.139598 
3803.000000	101.139171 
3802.000000	101.138764 
3801.000000	101.138361 
3800.000000	101.137959 
3799.000000	101.137577 
3798.000000	101.137234 
3797.000000	101.136928 
3796.000000	101.136649 
3795.000000	101.136397 
3794.000000	101.136194 
3793.000000	101.136057 
3792.000000	101.135985 
3791.000000	101.135966 
3790.000000	101.135991 
3789.000000	101.136056 
3788.000000	101.136162 
3787.000000	101.136312 
3786.000000	101.136506 
3785.000000	101.136727 
3784.000000	101.136952 
3783.000000	101.137169 
3782.000000	101.137380 
3781.000000	101.137589 
3780.000000	101.137794 
3779.000000	101.137994 
3778.000000	101.138201 
3777.000000	101.138435 
3776.000000	101.138699 
3775.000000	101.138986 
3774.000000	101.139291 
3773.000000	101.139622 
3772.000000	101.139989 
3771.000000	101.140388 
3770.000000	101.140805 
3769.000000	101.141231 
3768.000000	101.141672 
3767.000000	101.142134 
3766.000000	101.142611 
3765.000000	101.143086 
3764.000000	101.143551 
3763.000000	101.144012 
3762.000000	101.144478 
3761.000000	101.144947 
3760.000000	101.145405 
3759.000000	101.145845 
3758.000000	101.146271 
3757.000000	101.146678 
3756.000000	101.147046 
3755.000000	101.147361 
3754.000000	101.147624 
3753.000000	101.147844 
3752.000000	101.148013 
3751.000000	101.148115 
3750.000000	101.148143 
3749.000000	101.148099 
3748.000000	101.147978 
3747.000000	101.147778 
3746.000000	101.147503 
3745.000000	101.147160 
3744.000000	101.146740 
3743.000000	101.146242 
3742.000000	101.145688 
3741.000000	101.145100 
3740.000000	101.144475 
3739.000000	101.143793 
3738.000000	101.143043 
3737.000000	101.142233 
3736.000000	101.141370 
3735.000000	101.140446 
3734.000000	101.139451 
3733.000000	101.138385 
3732.000000	101.137246 
3731.000000	101.136031 
3730.000000	101.134732 
3729.000000	101.133350 
3728.000000	101.131890 
3727.000000	101.130359 
3726.000000	101.128756 
3725.000000	101.127084 
3724.000000	101.125345 
3723.000000	101.123554 
3722.000000	101.121711 
3721.000000	101.119787 
3720.000000	101.117790 
3719.000000	101.115785 
3718.000000	101.113819 
3717.000000	101.111801 
3716.000000	101.109554 
3715.000000	101.107045 
3714.000000	101.104464 
3713.000000	101.102024 
3712.000000	101.099697 
3711.000000	101.097357 
3710.000000	101.095034 
3709.000000	101.092778 
3708.000000	101.090517 
3707.000000	101.088111 
3706.000000	101.085435 
3705.000000	101.082483 
3704.000000	101.079464 
3703.000000	101.076690 
3702.000000	101.074283 
3701.000000	101.071997 
3700.000000	101.069486 
3699.000000	101.066652 
3698.000000	101.063799 
3697.000000	101.061127 
3696.000000	101.058297 
3695.000000	101.055255 
3694.000000	101.052721 
3693.000000	101.051109 
3692.000000	101.049707 
3691.000000	101.047728 
3690.000000	101.045592 
3689.000000	101.043951 
3688.000000	101.042604 
3687.000000	101.041064 
3686.000000	101.039374 
3685.000000	101.038042 
3684.000000	101.037090 
3683.000000	101.035731 
3682.000000	101.033666 
3681.000000	101.031890 
3680.000000	101.030947 
3679.000000	101.029711 
3678.000000	101.027237 
3677.000000	101.025338 
3676.000000	101.025738 
3675.000000	101.026801 
3674.000000	101.026695 
3673.000000	101.026026 
3672.000000	101.026392 
3671.000000	101.028174 
3670.000000	101.029072 
3669.000000	101.027359 
3668.000000	101.024650 
3667.000000	101.023168 
3666.000000	101.022983 
3665.000000	101.023055 
3664.000000	101.022836 
3663.000000	101.022757 
3662.000000	101.023507 
3661.000000	101.025122 
3660.000000	101.026934 
3659.000000	101.028506 
3658.000000	101.030133 
3657.000000	101.032269 
3656.000000	101.034508 
3655.000000	101.036278 
3654.000000	101.037766 
3653.000000	101.039570 
3652.000000	101.042031 
3651.000000	101.044590 
3650.000000	101.046108 
3649.000000	101.046517 
3648.000000	101.047011 
3647.000000	101.048258 
3646.000000	101.049876 
3645.000000	101.051448 
3644.000000	101.052949 
3643.000000	101.054420 
3642.000000	101.055773 
3641.000000	101.056987 
3640.000000	101.058357 
3639.000000	101.060204 
3638.000000	101.062432 
3637.000000	101.064634 
3636.000000	101.066576 
3635.000000	101.068350 
3634.000000	101.070003 
3633.000000	101.071398 
3632.000000	101.072552 
3631.000000	101.073829 
3630.000000	101.075527 
3629.000000	101.077191 
3628.000000	101.078337 
3627.000000	101.079282 
3626.000000	101.080529 
3625.000000	101.082043 
3624.000000	101.083498 
3623.000000	101.084671 
3622.000000	101.085612 
3621.000000	101.086529 
3620.000000	101.087551 
3619.000000	101.088634 
3618.000000	101.089719 
3617.000000	101.090842 
3616.000000	101.092052 
3615.000000	101.093349 
3614.000000	101.094577 
3613.000000	101.095386 
3612.000000	101.095522 
3611.000000	101.095181 
3610.000000	101.094875 
3609.000000	101.094851 
3608.000000	101.094855 
3607.000000	101.094688 
3606.000000	101.094711 
3605.000000	101.095327 
3604.000000	101.096404 
3603.000000	101.097393 
3602.000000	101.097998 
3601.000000	101.098408 
3600.000000	101.098809 
3599.000000	101.099284 
3598.000000	101.099900 
3597.000000	101.100542 
3596.000000	101.100881 
3595.000000	101.100921 
3594.000000	101.101043 
3593.000000	101.101762 
3592.000000	101.103243 
3591.000000	101.105097 
3590.000000	101.106802 
3589.000000	101.107917 
3588.000000	101.107634 
3587.000000	101.105358 
3586.000000	101.102225 
3585.000000	101.100199 
3584.000000	101.099857 
3583.000000	101.100151 
3582.000000	101.099754 
3581.000000	101.098292 
3580.000000	101.096238 
3579.000000	101.094250 
3578.000000	101.092719 
3577.000000	101.091851 
3576.000000	101.091675 
3575.000000	101.092073 
3574.000000	101.092900 
3573.000000	101.094094 
3572.000000	101.095646 
3571.000000	101.097183 
3570.000000	101.098113 
3569.000000	101.098155 
3568.000000	101.097311 
3567.000000	101.095791 
3566.000000	101.094551 
3565.000000	101.094596 
3564.000000	101.095682 
3563.000000	101.096578 
3562.000000	101.096380 
3561.000000	101.095284 
3560.000000	101.094170 
3559.000000	101.093583 
3558.000000	101.093432 
3557.000000	101.093450 
3556.000000	101.093593 
3555.000000	101.093935 
3554.000000	101.094443 
3553.000000	101.094825 
3552.000000	101.094679 
3551.000000	101.093902 
3550.000000	101.092819 
3549.000000	101.091862 
3548.000000	101.091138 
3547.000000	101.090513 
3546.000000	101.090035 
3545.000000	101.089967 
3544.000000	101.090317 
3543.000000	101.090711 
3542.000000	101.090882 
3541.000000	101.090892 
3540.000000	101.090908 
3539.000000	101.091045 
3538.000000	101.091376 
3537.000000	101.091760 
3536.000000	101.091744 
3535.000000	101.091059 
3534.000000	101.090005 
3533.000000	101.089267 
3532.000000	101.089259 
3531.000000	101.089968 
3530.000000	101.091236 
3529.000000	101.092888 
3528.000000	101.094505 
3527.000000	101.095502 
3526.000000	101.095655 
3525.000000	101.095197 
3524.000000	101.094380 
3523.000000	101.093249 
3522.000000	101.091944 
3521.000000	101.090781 
3520.000000	101.089892 
3519.000000	101.089120 
3518.000000	101.088302 
3517.000000	101.087534 
3516.000000	101.087084 
3515.000000	101.087081 
3514.000000	101.087356 
3513.000000	101.087604 
3512.000000	101.087652 
3511.000000	101.087508 
3510.000000	101.087260 
3509.000000	101.086984 
3508.000000	101.086712 
3507.000000	101.086444 
3506.000000	101.086159 
3505.000000	101.085822 
3504.000000	101.085421 
3503.000000	101.085038 
3502.000000	101.084810 
3501.000000	101.084766 
3500.000000	101.084805 
3499.000000	101.084768 
3498.000000	101.084557 
3497.000000	101.084190 
3496.000000	101.083740 
3495.000000	101.083306 
3494.000000	101.082938 
3493.000000	101.082615 
3492.000000	101.082292 
3491.000000	101.081942 
3490.000000	101.081586 
3489.000000	101.081258 
3488.000000	101.080964 
3487.000000	101.080673 
3486.000000	101.080351 
3485.000000	101.079990 
3484.000000	101.079609 
3483.000000	101.079242 
3482.000000	101.078910 
3481.000000	101.078607 
3480.000000	101.078301 
3479.000000	101.077954 
3478.000000	101.077576 
3477.000000	101.077221 
3476.000000	101.076904 
3475.000000	101.076552 
3474.000000	101.076103 
3473.000000	101.075644 
3472.000000	101.075364 
3471.000000	101.075357 
3470.000000	101.075513 
3469.000000	101.075606 
3468.000000	101.075488 
3467.000000	101.075132 
3466.000000	101.074558 
3465.000000	101.073812 
3464.000000	101.072987 
3463.000000	101.072178 
3462.000000	101.071382 
3461.000000	101.070504 
3460.000000	101.069488 
3459.000000	101.068442 
3458.000000	101.067595 
3457.000000	101.067112 
3456.000000	101.066976 
3455.000000	101.067049 
3454.000000	101.067213 
3453.000000	101.067510 
3452.000000	101.067963 
3451.000000	101.068374 
3450.000000	101.068526 
3449.000000	101.068428 
3448.000000	101.068138 
3447.000000	101.067538 
3446.000000	101.066575 
3445.000000	101.065615 
3444.000000	101.065144 
3443.000000	101.065198 
3442.000000	101.065346 
3441.000000	101.065246 
3440.000000	101.065008 
3439.000000	101.064886 
3438.000000	101.064850 
3437.000000	101.064643 
3436.000000	101.064140 
3435.000000	101.063497 
3434.000000	101.062988 
3433.000000	101.062768 
3432.000000	101.062749 
3431.000000	101.062696 
3430.000000	101.062449 
3429.000000	101.062024 
3428.000000	101.061541 
3427.000000	101.061094 
3426.000000	101.060738 
3425.000000	101.060517 
3424.000000	101.060453 
3423.000000	101.060525 
3422.000000	101.060647 
3421.000000	101.060688 
3420.000000	101.060532 
3419.000000	101.060151 
3418.000000	101.059667 
3417.000000	101.059290 
3416.000000	101.059114 
3415.000000	101.059023 
3414.000000	101.058816 
3413.000000	101.058444 
3412.000000	101.058041 
3411.000000	101.057774 
3410.000000	101.057719 
3409.000000	101.057857 
3408.000000	101.058057 
3407.000000	101.058098 
3406.000000	101.057807 
3405.000000	101.057253 
3404.000000	101.056790 
3403.000000	101.056843 
3402.000000	101.057553 
3401.000000	101.058558 
3400.000000	101.059167 
3399.000000	101.058928 
3398.000000	101.058074 
3397.000000	101.057401 
3396.000000	101.057581 
3395.000000	101.058583 
3394.000000	101.059724 
3393.000000	101.060242 
3392.000000	101.059851 
3391.000000	101.058782 
3390.000000	101.057428 
3389.000000	101.055985 
3388.000000	101.054477 
3387.000000	101.053046 
3386.000000	101.051992 
3385.000000	101.051484 
3384.000000	101.051360 
3383.000000	101.051358 
3382.000000	101.051389 
3381.000000	101.051439 
3380.000000	101.051293 
3379.000000	101.050677 
3378.000000	101.049727 
3377.000000	101.049141 
3376.000000	101.049686 
3375.000000	101.051543 
3374.000000	101.054112 
3373.000000	101.056369 
3372.000000	101.057582 
3371.000000	101.057730 
3370.000000	101.057337 
3369.000000	101.056951 
3368.000000	101.056710 
3367.000000	101.056378 
3366.000000	101.055713 
3365.000000	101.054793 
3364.000000	101.054007 
3363.000000	101.053750 
3362.000000	101.054047 
3361.000000	101.054408 
3360.000000	101.054150 
3359.000000	101.053010 
3358.000000	101.051466 
3357.000000	101.050428 
3356.000000	101.050457 
3355.000000	101.051372 
3354.000000	101.052473 
3353.000000	101.053125 
3352.000000	101.053207 
3351.000000	101.053048 
3350.000000	101.053062 
3349.000000	101.053419 
3348.000000	101.053965 
3347.000000	101.054388 
3346.000000	101.054479 
3345.000000	101.054269 
3344.000000	101.053942 
3343.000000	101.053655 
3342.000000	101.053422 
3341.000000	101.053178 
3340.000000	101.052913 
3339.000000	101.052695 
3338.000000	101.052570 
3337.000000	101.052481 
3336.000000	101.052346 
3335.000000	101.052197 
3334.000000	101.052176 
3333.000000	101.052371 
3332.000000	101.052693 
3331.000000	101.052929 
3330.000000	101.052948 
3329.000000	101.052791 
3328.000000	101.052599 
3327.000000	101.052460 
3326.000000	101.052352 
3325.000000	101.052224 
3324.000000	101.052095 
3323.000000	101.052065 
3322.000000	101.052196 
3321.000000	101.052392 
3320.000000	101.052422 
3319.000000	101.052119 
3318.000000	101.051541 
3317.000000	101.050975 
3316.000000	101.050719 
3315.000000	101.050848 
3314.000000	101.051188 
3313.000000	101.051457 
3312.000000	101.051526 
3311.000000	101.051507 
3310.000000	101.051596 
3309.000000	101.051843 
3308.000000	101.052079 
3307.000000	101.052107 
3306.000000	101.051901 
3305.000000	101.051541 
3304.000000	101.051032 
3303.000000	101.050341 
3302.000000	101.049594 
3301.000000	101.049078 
3300.000000	101.048979 
3299.000000	101.049209 
3298.000000	101.049546 
3297.000000	101.049867 
3296.000000	101.050164 
3295.000000	101.050412 
3294.000000	101.050535 
3293.000000	101.050509 
3292.000000	101.050421 
3291.000000	101.050422 
3290.000000	101.050600 
3289.000000	101.050876 
3288.000000	101.051015 
3287.000000	101.050826 
3286.000000	101.050364 
3285.000000	101.049879 
3284.000000	101.049596 
3283.000000	101.049574 
3282.000000	101.049738 
3281.000000	101.049905 
3280.000000	101.049810 
3279.000000	101.049276 
3278.000000	101.048425 
3277.000000	101.047686 
3276.000000	101.047445 
3275.000000	101.047708 
3274.000000	101.048150 
3273.000000	101.048389 
3272.000000	101.048213 
3271.000000	101.047636 
3270.000000	101.046858 
3269.000000	101.046189 
3268.000000	101.045888 
3267.000000	101.046043 
3266.000000	101.046569 
3265.000000	101.047272 
3264.000000	101.047932 
3263.000000	101.048399 
3262.000000	101.048636 
3261.000000	101.048688 
3260.000000	101.048607 
3259.000000	101.048427 
3258.000000	101.048181 
3257.000000	101.047901 
3256.000000	101.047571 
3255.000000	101.047157 
3254.000000	101.046719 
3253.000000	101.046465 
3252.000000	101.046581 
3251.000000	101.047024 
3250.000000	101.047518 
3249.000000	101.047782 
3248.000000	101.047747 
3247.000000	101.047521 
3246.000000	101.047208 
3245.000000	101.046822 
3244.000000	101.046383 
3243.000000	101.046047 
3242.000000	101.046068 
3241.000000	101.046600 
3240.000000	101.047510 
3239.000000	101.048319 
3238.000000	101.048514 
3237.000000	101.047958 
3236.000000	101.047048 
3235.000000	101.046412 
3234.000000	101.046317 
3233.000000	101.046512 
3232.000000	101.046594 
3231.000000	101.046478 
3230.000000	101.046389 
3229.000000	101.046478 
3228.000000	101.046573 
3227.000000	101.046348 
3226.000000	101.045624 
3225.000000	101.044509 
3224.000000	101.043349 
3223.000000	101.042546 
3222.000000	101.042320 
3221.000000	101.042563 
3220.000000	101.042993 
3219.000000	101.043428 
3218.000000	101.043812 
3217.000000	101.044043 
3216.000000	101.043981 
3215.000000	101.043651 
3214.000000	101.043287 
3213.000000	101.043097 
3212.000000	101.043129 
3211.000000	101.043463 
3210.000000	101.044347 
3209.000000	101.045867 
3208.000000	101.047520 
3207.000000	101.048464 
3206.000000	101.048323 
3205.000000	101.047667 
3204.000000	101.047582 
3203.000000	101.048719 
3202.000000	101.050779 
3201.000000	101.052827 
3200.000000	101.054027 
3199.000000	101.054002 
3198.000000	101.052791 
3197.000000	101.050833 
3196.000000	101.048950 
3195.000000	101.047931 
3194.000000	101.047724 
3193.000000	101.047297 
3192.000000	101.045778 
3191.000000	101.043672 
3190.000000	101.042464 
3189.000000	101.042961 
3188.000000	101.044507 
3187.000000	101.045897 
3186.000000	101.046661 
3185.000000	101.047098 
3184.000000	101.047410 
3183.000000	101.047363 
3182.000000	101.046771 
3181.000000	101.045845 
3180.000000	101.044882 
3179.000000	101.043919 
3178.000000	101.042834 
3177.000000	101.041596 
3176.000000	101.040256 
3175.000000	101.038965 
3174.000000	101.038186 
3173.000000	101.038623 
3172.000000	101.040584 
3171.000000	101.043391 
3170.000000	101.045697 
3169.000000	101.046651 
3168.000000	101.046621 
3167.000000	101.046692 
3166.000000	101.047534 
3165.000000	101.048873 
3164.000000	101.049990 
3163.000000	101.050487 
3162.000000	101.050492 
3161.000000	101.050362 
3160.000000	101.050397 
3159.000000	101.050742 
3158.000000	101.051266 
3157.000000	101.051469 
3156.000000	101.050774 
3155.000000	101.049137 
3154.000000	101.047321 
3153.000000	101.046380 
3152.000000	101.046719 
3151.000000	101.047769 
3150.000000	101.048516 
3149.000000	101.048403 
3148.000000	101.047701 
3147.000000	101.047105 
3146.000000	101.047006 
3145.000000	101.047173 
3144.000000	101.047139 
3143.000000	101.046877 
3142.000000	101.046921 
3141.000000	101.047730 
3140.000000	101.049070 
3139.000000	101.050207 
3138.000000	101.050650 
3137.000000	101.050556 
3136.000000	101.050426 
3135.000000	101.050501 
3134.000000	101.050555 
3133.000000	101.050223 
3132.000000	101.049423 
3131.000000	101.048428 
3130.000000	101.047554 
3129.000000	101.046882 
3128.000000	101.046302 
3127.000000	101.045809 
3126.000000	101.045631 
3125.000000	101.045970 
3124.000000	101.046683 
3123.000000	101.047340 
3122.000000	101.047631 
3121.000000	101.047647 
3120.000000	101.047729 
3119.000000	101.048081 
3118.000000	101.048516 
3117.000000	101.048581 
3116.000000	101.047980 
3115.000000	101.046898 
3114.000000	101.045888 
3113.000000	101.045330 
3112.000000	101.045074 
3111.000000	101.044720 
3110.000000	101.044186 
3109.000000	101.043803 
3108.000000	101.043804 
3107.000000	101.043975 
3106.000000	101.043920 
3105.000000	101.043520 
3104.000000	101.043031 
3103.000000	101.042843 
3102.000000	101.043204 
3101.000000	101.044045 
3100.000000	101.044936 
3099.000000	101.045352 
3098.000000	101.045121 
3097.000000	101.044535 
3096.000000	101.044068 
3095.000000	101.043958 
3094.000000	101.044117 
3093.000000	101.044337 
3092.000000	101.044468 
3091.000000	101.044417 
3090.000000	101.044106 
3089.000000	101.043554 
3088.000000	101.043007 
3087.000000	101.042837 
3086.000000	101.043232 
3085.000000	101.043953 
3084.000000	101.044498 
3083.000000	101.044541 
3082.000000	101.044198 
3081.000000	101.043833 
3080.000000	101.043671 
3079.000000	101.043688 
3078.000000	101.043683 
3077.000000	101.043252 
3076.000000	101.041855 
3075.000000	101.039358 
3074.000000	101.036580 
3073.000000	101.034828 
3072.000000	101.034735 
3071.000000	101.035998 
3070.000000	101.038177 
3069.000000	101.040788 
3068.000000	101.042378 
3067.000000	101.040806 
3066.000000	101.035555 
3065.000000	101.029186 
3064.000000	101.025272 
3063.000000	101.025003 
3062.000000	101.026738 
3061.000000	101.028331 
3060.000000	101.029001 
3059.000000	101.029132 
3058.000000	101.029339 
3057.000000	101.029993 
3056.000000	101.031042 
3055.000000	101.032131 
3054.000000	101.033127 
3053.000000	101.034187 
3052.000000	101.034942 
3051.000000	101.034242 
3050.000000	101.031463 
3049.000000	101.027590 
3048.000000	101.024098 
3047.000000	101.021047 
3046.000000	101.017410 
3045.000000	101.013180 
3044.000000	101.009904 
3043.000000	101.008784 
3042.000000	101.009095 
3041.000000	101.009015 
3040.000000	101.007469 
3039.000000	101.004648 
3038.000000	101.001223 
3037.000000	100.997584 
3036.000000	100.993716 
3035.000000	100.989464 
3034.000000	100.984812 
3033.000000	100.979936 
3032.000000	100.974884 
3031.000000	100.969338 
3030.000000	100.962897 
3029.000000	100.955536 
3028.000000	100.947711 
3027.000000	100.940045 
3026.000000	100.933018 
3025.000000	100.926713 
3024.000000	100.920500 
3023.000000	100.913057 
3022.000000	100.903189 
3021.000000	100.890901 
3020.000000	100.877647 
3019.000000	100.865587 
3018.000000	100.856501 
3017.000000	100.850764 
3016.000000	100.846703 
3015.000000	100.841218 
3014.000000	100.831816 
3013.000000	100.818308 
3012.000000	100.802365 
3011.000000	100.785603 
3010.000000	100.768682 
3009.000000	100.752289 
3008.000000	100.738115 
3007.000000	100.728007 
3006.000000	100.722157 
3005.000000	100.718402 
3004.000000	100.713358 
3003.000000	100.704448 
3002.000000	100.691395 
3001.000000	100.676341 
3000.000000	100.662416 
2999.000000	100.651510 
2998.000000	100.643114 
2997.000000	100.635508 
2996.000000	100.628081 
2995.000000	100.621661 
2994.000000	100.615924 
2993.000000	100.607361 
2992.000000	100.591637 
2991.000000	100.568764 
2990.000000	100.544897 
2989.000000	100.527605 
2988.000000	100.519757 
2987.000000	100.518799 
2986.000000	100.520933 
2985.000000	100.524632 
2984.000000	100.529829 
2983.000000	100.535393 
2982.000000	100.538995 
2981.000000	100.539225 
2980.000000	100.536879 
2979.000000	100.533969 
2978.000000	100.531852 
2977.000000	100.530257 
2976.000000	100.527783 
2975.000000	100.523428 
2974.000000	100.517752 
2973.000000	100.512391 
2972.000000	100.508402 
2971.000000	100.505513 
2970.000000	100.503176 
2969.000000	100.501791 
2968.000000	100.502391 
2967.000000	100.505453 
2966.000000	100.510497 
2965.000000	100.516646 
2964.000000	100.523125 
2963.000000	100.529293 
2962.000000	100.534666 
2961.000000	100.539003 
2960.000000	100.542230 
2959.000000	100.544527 
2958.000000	100.546732 
2957.000000	100.550218 
2956.000000	100.555586 
2955.000000	100.561454 
2954.000000	100.565393 
2953.000000	100.566789 
2952.000000	100.568455 
2951.000000	100.574451 
2950.000000	100.585665 
2949.000000	100.597901 
2948.000000	100.605190 
2947.000000	100.605019 
2946.000000	100.599930 
2945.000000	100.594264 
2944.000000	100.590065 
2943.000000	100.586661 
2942.000000	100.583064 
2941.000000	100.578979 
2940.000000	100.573631 
2939.000000	100.565467 
2938.000000	100.553831 
2937.000000	100.540082 
2936.000000	100.526544 
2935.000000	100.514969 
2934.000000	100.506069 
2933.000000	100.499352 
2932.000000	100.492752 
2931.000000	100.483533 
2930.000000	100.470611 
2929.000000	100.455586 
2928.000000	100.441078 
2927.000000	100.428717 
2926.000000	100.419089 
2925.000000	100.412307 
2924.000000	100.407746 
2923.000000	100.404383 
2922.000000	100.402625 
2921.000000	100.404834 
2920.000000	100.412602 
2919.000000	100.424108 
2918.000000	100.435529 
2917.000000	100.444793 
2916.000000	100.452738 
2915.000000	100.460954 
2914.000000	100.470035 
2913.000000	100.479916 
2912.000000	100.490254 
2911.000000	100.499947 
2910.000000	100.507450 
2909.000000	100.512231 
2908.000000	100.515280 
2907.000000	100.517672 
2906.000000	100.519138 
2905.000000	100.518440 
2904.000000	100.514887 
2903.000000	100.509269 
2902.000000	100.504138 
2901.000000	100.503228 
2900.000000	100.509321 
2899.000000	100.521966 
2898.000000	100.537249 
2897.000000	100.550632 
2896.000000	100.560301 
2895.000000	100.567702 
2894.000000	100.575126 
2893.000000	100.583179 
2892.000000	100.590476 
2891.000000	100.595361 
2890.000000	100.597675 
2889.000000	100.598901 
2888.000000	100.600793 
2887.000000	100.604041 
2886.000000	100.608320 
2885.000000	100.613278 
2884.000000	100.619027 
2883.000000	100.625755 
2882.000000	100.633315 
2881.000000	100.641401 
2880.000000	100.649868 
2879.000000	100.658726 
2878.000000	100.667884 
2877.000000	100.676955 
2876.000000	100.685172 
2875.000000	100.691519 
2874.000000	100.695270 
2873.000000	100.696696 
2872.000000	100.697279 
2871.000000	100.698979 
2870.000000	100.703005 
2869.000000	100.709020 
2868.000000	100.715536 
2867.000000	100.721319 
2866.000000	100.726545 
2865.000000	100.732325 
2864.000000	100.738848 
2863.000000	100.744267 
2862.000000	100.745971 
2861.000000	100.743056 
2860.000000	100.737409 
2859.000000	100.732276 
2858.000000	100.729733 
2857.000000	100.729484 
2856.000000	100.729836 
2855.000000	100.729871 
2854.000000	100.730688 
2853.000000	100.734358 
2852.000000	100.741870 
2851.000000	100.752444 
2850.000000	100.764832 
2849.000000	100.778680 
2848.000000	100.794153 
2847.000000	100.810629 
2846.000000	100.826422 
2845.000000	100.839805 
2844.000000	100.850071 
2843.000000	100.857830 
2842.000000	100.864731 
2841.000000	100.872543 
2840.000000	100.881731 
2839.000000	100.890743 
2838.000000	100.897196 
2837.000000	100.900047 
2836.000000	100.900560 
2835.000000	100.901354 
2834.000000	100.904634 
2833.000000	100.910935 
2832.000000	100.918882 
2831.000000	100.926096 
2830.000000	100.930988 
2829.000000	100.933970 
2828.000000	100.936769 
2827.000000	100.940444 
2826.000000	100.944331 
2825.000000	100.946973 
2824.000000	100.947792 
2823.000000	100.947752 
2822.000000	100.948557 
2821.000000	100.951207 
2820.000000	100.955154 
2819.000000	100.958916 
2818.000000	100.961612 
2817.000000	100.963610 
2816.000000	100.965480 
2815.000000	100.966857 
2814.000000	100.967035 
2813.000000	100.966367 
2812.000000	100.966112 
2811.000000	100.966765 
2810.000000	100.967382 
2809.000000	100.967039 
2808.000000	100.966293 
2807.000000	100.966583 
2806.000000	100.968542 
2805.000000	100.971467 
2804.000000	100.974317 
2803.000000	100.976664 
2802.000000	100.978595 
2801.000000	100.980087 
2800.000000	100.980756 
2799.000000	100.980203 
2798.000000	100.978585 
2797.000000	100.976836 
2796.000000	100.976162 
2795.000000	100.977135 
2794.000000	100.979228 
2793.000000	100.981236 
2792.000000	100.982129 
2791.000000	100.981606 
2790.000000	100.980190 
2789.000000	100.978956 
2788.000000	100.978942 
2787.000000	100.980439 
2786.000000	100.982760 
2785.000000	100.984815 
2784.000000	100.985987 
2783.000000	100.986383 
2782.000000	100.986341 
2781.000000	100.986007 
2780.000000	100.985482 
2779.000000	100.985084 
2778.000000	100.985158 
2777.000000	100.985661 
2776.000000	100.986158 
2775.000000	100.986287 
2774.000000	100.986076 
2773.000000	100.985803 
2772.000000	100.985682 
2771.000000	100.985736 
2770.000000	100.985919 
2769.000000	100.986244 
2768.000000	100.986798 
2767.000000	100.987656 
2766.000000	100.988743 
2765.000000	100.989735 
2764.000000	100.990219 
2763.000000	100.990048 
2762.000000	100.989544 
2761.000000	100.989272 
2760.000000	100.989569 
2759.000000	100.990372 
2758.000000	100.991360 
2757.000000	100.992153 
2756.000000	100.992481 
2755.000000	100.992353 
2754.000000	100.992063 
2753.000000	100.991860 
2752.000000	100.991634 
2751.000000	100.991144 
2750.000000	100.990533 
2749.000000	100.990273 
2748.000000	100.990503 
2747.000000	100.990738 
2746.000000	100.990440 
2745.000000	100.989705 
2744.000000	100.989154 
2743.000000	100.989211 
2742.000000	100.989765 
2741.000000	100.990427 
2740.000000	100.990906 
2739.000000	100.991163 
2738.000000	100.991339 
2737.000000	100.991602 
2736.000000	100.991979 
2735.000000	100.992320 
2734.000000	100.992441 
2733.000000	100.992273 
2732.000000	100.991878 
2731.000000	100.991402 
2730.000000	100.991071 
2729.000000	100.991080 
2728.000000	100.991445 
2727.000000	100.992005 
2726.000000	100.992572 
2725.000000	100.993034 
2724.000000	100.993317 
2723.000000	100.993395 
2722.000000	100.993384 
2721.000000	100.993466 
2720.000000	100.993661 
2719.000000	100.993779 
2718.000000	100.993658 
2717.000000	100.993361 
2716.000000	100.993085 
2715.000000	100.992981 
2714.000000	100.993087 
2713.000000	100.993345 
2712.000000	100.993602 
2711.000000	100.993685 
2710.000000	100.993566 
2709.000000	100.993386 
2708.000000	100.993304 
2707.000000	100.993316 
2706.000000	100.993283 
2705.000000	100.993119 
2704.000000	100.992875 
2703.000000	100.992655 
2702.000000	100.992520 
2701.000000	100.992453 
2700.000000	100.992406 
2699.000000	100.992344 
2698.000000	100.992264 
2697.000000	100.992187 
2696.000000	100.992123 
2695.000000	100.992071 
2694.000000	100.992036 
2693.000000	100.992016 
2692.000000	100.991988 
2691.000000	100.991922 
2690.000000	100.991811 
2689.000000	100.991690 
2688.000000	100.991617 
2687.000000	100.991608 
2686.000000	100.991637 
2685.000000	100.991655 
2684.000000	100.991635 
2683.000000	100.991584 
2682.000000	100.991533 
2681.000000	100.991526 
2680.000000	100.991581 
2679.000000	100.991661 
2678.000000	100.991701 
2677.000000	100.991676 
2676.000000	100.991632 
2675.000000	100.991633 
2674.000000	100.991691 
2673.000000	100.991779 
2672.000000	100.991873 
2671.000000	100.991944 
2670.000000	100.991925 
2669.000000	100.991758 
2668.000000	100.991490 
2667.000000	100.991287 
2666.000000	100.991345 
2665.000000	100.991757 
2664.000000	100.992434 
2663.000000	100.993136 
2662.000000	100.993678 
2661.000000	100.994079 
2660.000000	100.994461 
2659.000000	100.994788 
2658.000000	100.994869 
2657.000000	100.994666 
2656.000000	100.994442 
2655.000000	100.994478 
2654.000000	100.994759 
2653.000000	100.995029 
2652.000000	100.995080 
2651.000000	100.994897 
2650.000000	100.994661 
2649.000000	100.994634 
2648.000000	100.994915 
2647.000000	100.995251 
2646.000000	100.995334 
2645.000000	100.995358 
2644.000000	100.995858 
2643.000000	100.996945 
2642.000000	100.998086 
2641.000000	100.998801 
2640.000000	100.999289 
2639.000000	101.000071 
2638.000000	101.001280 
2637.000000	101.002562 
2636.000000	101.003433 
2635.000000	101.003529 
2634.000000	101.002782 
2633.000000	101.001665 
2632.000000	101.001015 
2631.000000	101.001179 
2630.000000	101.001704 
2629.000000	101.002060 
2628.000000	101.002371 
2627.000000	101.003065 
2626.000000	101.004090 
2625.000000	101.005002 
2624.000000	101.005611 
2623.000000	101.006069 
2622.000000	101.006445 
2621.000000	101.006605 
2620.000000	101.006542 
2619.000000	101.006410 
2618.000000	101.006255 
2617.000000	101.005999 
2616.000000	101.005678 
2615.000000	101.005447 
2614.000000	101.005360 
2613.000000	101.005336 
2612.000000	101.005345 
2611.000000	101.005468 
2610.000000	101.005724 
2609.000000	101.005990 
2608.000000	101.006115 
2607.000000	101.006070 
2606.000000	101.005949 
2605.000000	101.005867 
2604.000000	101.005862 
2603.000000	101.005863 
2602.000000	101.005761 
2601.000000	101.005526 
2600.000000	101.005240 
2599.000000	101.005009 
2598.000000	101.004846 
2597.000000	101.004675 
2596.000000	101.004426 
2595.000000	101.004097 
2594.000000	101.003726 
2593.000000	101.003345 
2592.000000	101.002988 
2591.000000	101.002682 
2590.000000	101.002427 
2589.000000	101.002199 
2588.000000	101.001967 
2587.000000	101.001708 
2586.000000	101.001413 
2585.000000	101.001084 
2584.000000	101.000734 
2583.000000	101.000380 
2582.000000	101.000045 
2581.000000	100.999737 
2580.000000	100.999455 
2579.000000	100.999185 
2578.000000	100.998918 
2577.000000	100.998650 
2576.000000	100.998381 
2575.000000	100.998111 
2574.000000	100.997840 
2573.000000	100.997568 
2572.000000	100.997290 
2571.000000	100.996994 
2570.000000	100.996669 
2569.000000	100.996326 
2568.000000	100.996000 
2567.000000	100.995722 
2566.000000	100.995501 
2565.000000	100.995323 
2564.000000	100.995169 
2563.000000	100.995025 
2562.000000	100.994883 
2561.000000	100.994744 
2560.000000	100.994627 
2559.000000	100.994583 
2558.000000	100.994667 
2557.000000	100.994815 
2556.000000	100.994768 
2555.000000	100.994334 
2554.000000	100.993806 
2553.000000	100.993850 
2552.000000	100.994764 
2551.000000	100.995986 
2550.000000	100.996675 
2549.000000	100.996707 
2548.000000	100.996526 
2547.000000	100.996199 
2546.000000	100.995341 
2545.000000	100.994021 
2544.000000	100.992992 
2543.000000	100.992842 
2542.000000	100.993379 
2541.000000	100.994027 
2540.000000	100.994418 
2539.000000	100.994380 
2538.000000	100.993757 
2537.000000	100.992522 
2536.000000	100.990863 
2535.000000	100.989108 
2534.000000	100.987773 
2533.000000	100.987557 
2532.000000	100.988829 
2531.000000	100.991056 
2530.000000	100.993088 
2529.000000	100.994185 
2528.000000	100.994510 
2527.000000	100.994711 
2526.000000	100.995358 
2525.000000	100.996729 
2524.000000	100.998725 
2523.000000	101.000838 
2522.000000	101.002434 
2521.000000	101.003172 
2520.000000	101.003075 
2519.000000	101.002384 
2518.000000	101.001478 
2517.000000	101.000731 
2516.000000	101.000172 
2515.000000	100.999455 
2514.000000	100.998424 
2513.000000	100.997455 
2512.000000	100.996912 
2511.000000	100.996511 
2510.000000	100.995749 
2509.000000	100.994848 
2508.000000	100.994692 
2507.000000	100.995734 
2506.000000	100.997318 
2505.000000	100.998228 
2504.000000	100.997791 
2503.000000	100.996277 
2502.000000	100.994576 
2501.000000	100.993539 
2500.000000	100.993474 
2499.000000	100.994175 
2498.000000	100.995270 
2497.000000	100.996443 
2496.000000	100.997374 
2495.000000	100.997708 
2494.000000	100.997267 
2493.000000	100.996226 
2492.000000	100.994961 
2491.000000	100.993761 
2490.000000	100.992785 
2489.000000	100.992169 
2488.000000	100.991964 
2487.000000	100.992018 
2486.000000	100.992096 
2485.000000	100.992162 
2484.000000	100.992368 
2483.000000	100.992734 
2482.000000	100.993001 
2481.000000	100.992866 
2480.000000	100.992287 
2479.000000	100.991489 
2478.000000	100.990760 
2477.000000	100.990246 
2476.000000	100.989912 
2475.000000	100.989641 
2474.000000	100.989353 
2473.000000	100.989064 
2472.000000	100.988841 
2471.000000	100.988713 
2470.000000	100.988630 
2469.000000	100.988471 
2468.000000	100.988104 
2467.000000	100.987474 
2466.000000	100.986689 
2465.000000	100.986002 
2464.000000	100.985597 
2463.000000	100.985431 
2462.000000	100.985285 
2461.000000	100.984973 
2460.000000	100.984521 
2459.000000	100.984082 
2458.000000	100.983772 
2457.000000	100.983578 
2456.000000	100.983374 
2455.000000	100.983024 
2454.000000	100.982482 
2453.000000	100.981828 
2452.000000	100.981187 
2451.000000	100.980634 
2450.000000	100.980180 
2449.000000	100.979826 
2448.000000	100.979549 
2447.000000	100.979283 
2446.000000	100.978977 
2445.000000	100.978679 
2444.000000	100.978473 
2443.000000	100.978354 
2442.000000	100.978196 
2441.000000	100.977895 
2440.000000	100.977465 
2439.000000	100.976998 
2438.000000	100.976570 
2437.000000	100.976224 
2436.000000	100.975956 
2435.000000	100.975642 
2434.000000	100.975067 
2433.000000	100.974123 
2432.000000	100.972983 
2431.000000	100.972023 
2430.000000	100.971499 
2429.000000	100.971385 
2428.000000	100.971448 
2427.000000	100.971506 
2426.000000	100.971547 
2425.000000	100.971557 
2424.000000	100.971357 
2423.000000	100.970727 
2422.000000	100.969736 
2421.000000	100.968855 
2420.000000	100.968537 
2419.000000	100.968763 
2418.000000	100.969129 
2417.000000	100.969298 
2416.000000	100.969182 
2415.000000	100.968711 
2414.000000	100.967776 
2413.000000	100.966532 
2412.000000	100.965478 
2411.000000	100.964984 
2410.000000	100.964910 
2409.000000	100.964819 
2408.000000	100.964520 
2407.000000	100.964223 
2406.000000	100.964217 
2405.000000	100.964573 
2404.000000	100.965142 
2403.000000	100.965588 
2402.000000	100.965589 
2401.000000	100.965131 
2400.000000	100.964517 
2399.000000	100.964064 
2398.000000	100.963855 
2397.000000	100.963831 
2396.000000	100.963996 
2395.000000	100.964443 
2394.000000	100.965157 
2393.000000	100.965938 
2392.000000	100.966577 
2391.000000	100.967046 
2390.000000	100.967474 
2389.000000	100.967980 
2388.000000	100.968551 
2387.000000	100.969103 
2386.000000	100.969591 
2385.000000	100.970040 
2384.000000	100.970489 
2383.000000	100.970956 
2382.000000	100.971443 
2381.000000	100.971953 
2380.000000	100.972482 
2379.000000	100.973023 
2378.000000	100.973570 
2377.000000	100.974127 
2376.000000	100.974696 
2375.000000	100.975284 
2374.000000	100.975892 
2373.000000	100.976520 
2372.000000	100.977163 
2371.000000	100.977812 
2370.000000	100.978453 
2369.000000	100.979074 
2368.000000	100.979664 
2367.000000	100.980224 
2366.000000	100.980768 
2365.000000	100.981316 
2364.000000	100.981886 
2363.000000	100.982484 
2362.000000	100.983103 
2361.000000	100.983730 
2360.000000	100.984357 
2359.000000	100.984979 
2358.000000	100.985593 
2357.000000	100.986191 
2356.000000	100.986765 
2355.000000	100.987306 
2354.000000	100.987815 
2353.000000	100.988302 
2352.000000	100.988778 
2351.000000	100.989251 
2350.000000	100.989719 
2349.000000	100.990179 
2348.000000	100.990621 
2347.000000	100.991043 
2346.000000	100.991446 
2345.000000	100.991834 
2344.000000	100.992216 
2343.000000	100.992595 
2342.000000	100.992973 
2341.000000	100.993344 
2340.000000	100.993700 
2339.000000	100.994032 
2338.000000	100.994339 
2337.000000	100.994624 
2336.000000	100.994894 
2335.000000	100.995154 
2334.000000	100.995402 
2333.000000	100.995634 
2332.000000	100.995847 
2331.000000	100.996040 
2330.000000	100.996204 
2329.000000	100.996329 
2328.000000	100.996435 
2327.000000	100.996573 
2326.000000	100.996772 
2325.000000	100.997020 
2324.000000	100.997237 
2323.000000	100.997364 
2322.000000	100.997453 
2321.000000	100.997674 
2320.000000	100.998150 
2319.000000	100.998635 
2318.000000	100.998722 
2317.000000	100.998222 
2316.000000	100.997451 
2315.000000	100.996729 
2314.000000	100.996226 
2313.000000	100.995966 
2312.000000	100.996028 
2311.000000	100.996346 
2310.000000	100.996801 
2309.000000	100.997291 
2308.000000	100.997649 
2307.000000	100.997474 
2306.000000	100.996584 
2305.000000	100.995344 
2304.000000	100.994366 
2303.000000	100.993811 
2302.000000	100.993446 
2301.000000	100.993092 
2300.000000	100.992821 
2299.000000	100.992604 
2298.000000	100.992316 
2297.000000	100.992058 
2296.000000	100.992176 
2295.000000	100.992777 
2294.000000	100.993481 
2293.000000	100.993803 
2292.000000	100.993617 
2291.000000	100.993167 
2290.000000	100.992754 
2289.000000	100.992580 
2288.000000	100.992726 
2287.000000	100.993139 
2286.000000	100.993619 
2285.000000	100.993940 
2284.000000	100.993971 
2283.000000	100.993712 
2282.000000	100.993258 
2281.000000	100.992781 
2280.000000	100.992494 
2279.000000	100.992593 
2278.000000	100.993214 
2277.000000	100.994328 
2276.000000	100.995680 
2275.000000	100.996906 
2274.000000	100.997808 
2273.000000	100.998406 
2272.000000	100.998739 
2271.000000	100.998784 
2270.000000	100.998674 
2269.000000	100.998887 
2268.000000	100.999854 
2267.000000	101.001529 
2266.000000	101.003390 
2265.000000	101.004890 
2264.000000	101.005847 
2263.000000	101.006356 
2262.000000	101.006717 
2261.000000	101.007377 
2260.000000	101.008644 
2259.000000	101.010349 
2258.000000	101.011900 
2257.000000	101.012932 
2256.000000	101.013657 
2255.000000	101.014444 
2254.000000	101.015257 
2253.000000	101.015784 
2252.000000	101.016005 
2251.000000	101.016371 
2250.000000	101.017413 
2249.000000	101.019381 
2248.000000	101.022073 
2247.000000	101.024767 
2246.000000	101.026660 
2245.000000	101.027581 
2244.000000	101.028047 
2243.000000	101.028454 
2242.000000	101.028691 
2241.000000	101.028757 
2240.000000	101.029089 
2239.000000	101.029880 
2238.000000	101.030758 
2237.000000	101.031565 
2236.000000	101.032679 
2235.000000	101.033933 
2234.000000	101.034113 
2233.000000	101.032631 
2232.000000	101.031020 
2231.000000	101.031555 
2230.000000	101.034939 
2229.000000	101.040128 
2228.000000	101.045725 
2227.000000	101.050737 
2226.000000	101.054293 
2225.000000	101.055775 
2224.000000	101.055351 
2223.000000	101.053859 
2222.000000	101.052336 
2221.000000	101.051885 
2220.000000	101.053263 
2219.000000	101.056226 
2218.000000	101.059775 
2217.000000	101.063420 
2216.000000	101.067721 
2215.000000	101.073122 
2214.000000	101.078693 
2213.000000	101.082450 
2212.000000	101.082851 
2211.000000	101.080119 
2210.000000	101.076681 
2209.000000	101.075687 
2208.000000	101.078038 
2207.000000	101.081318 
2206.000000	101.082427 
2205.000000	101.080936 
2204.000000	101.078819 
2203.000000	101.077427 
2202.000000	101.076358 
2201.000000	101.075432 
2200.000000	101.075550 
2199.000000	101.076569 
2198.000000	101.076443 
2197.000000	101.074466 
2196.000000	101.073611 
2195.000000	101.077237 
2194.000000	101.084991 
2193.000000	101.093520 
2192.000000	101.099895 
2191.000000	101.102545 
2190.000000	101.100542 
2189.000000	101.094879 
2188.000000	101.089528 
2187.000000	101.088338 
2186.000000	101.091602 
2185.000000	101.097483 
2184.000000	101.104998 
2183.000000	101.113146 
2182.000000	101.118768 
2181.000000	101.119158 
2180.000000	101.116358 
2179.000000	101.115449 
2178.000000	101.118470 
2177.000000	101.122718 
2176.000000	101.124842 
2175.000000	101.123998 
2174.000000	101.120874 
2173.000000	101.116263 
2172.000000	101.111434 
2171.000000	101.108306 
2170.000000	101.108757 
2169.000000	101.114276 
2168.000000	101.125334 
2167.000000	101.139786 
2166.000000	101.152786 
2165.000000	101.160569 
2164.000000	101.164112 
2163.000000	101.167401 
2162.000000	101.172627 
2161.000000	101.178358 
2160.000000	101.181190 
2159.000000	101.177671 
2158.000000	101.166519 
2157.000000	101.151193 
2156.000000	101.138139 
2155.000000	101.130277 
2154.000000	101.124423 
2153.000000	101.116302 
2152.000000	101.106135 
2151.000000	101.097988 
2150.000000	101.095341 
2149.000000	101.099006 
2148.000000	101.107385 
2147.000000	101.116288 
2146.000000	101.119818 
2145.000000	101.114427 
2144.000000	101.102377 
2143.000000	101.089947 
2142.000000	101.081762 
2141.000000	101.077939 
2140.000000	101.076206 
2139.000000	101.074732 
2138.000000	101.072478 
2137.000000	101.068302 
2136.000000	101.061294 
2135.000000	101.052259 
2134.000000	101.044236 
2133.000000	101.040471 
2132.000000	101.041085 
2131.000000	101.042125 
2130.000000	101.039019 
2129.000000	101.031401 
2128.000000	101.023697 
2127.000000	101.020264 
2126.000000	101.020831 
2125.000000	101.021556 
2124.000000	101.020096 
2123.000000	101.018224 
2122.000000	101.018875 
2121.000000	101.021981 
2120.000000	101.024407 
2119.000000	101.023730 
2118.000000	101.020898 
2117.000000	101.018691 
2116.000000	101.018318 
2115.000000	101.018473 
2114.000000	101.017733 
2113.000000	101.016604 
2112.000000	101.016276 
2111.000000	101.016279 
2110.000000	101.015043 
2109.000000	101.012597 
2108.000000	101.010955 
2107.000000	101.011287 
2106.000000	101.011972 
2105.000000	101.010259 
2104.000000	101.005143 
2103.000000	100.998282 
2102.000000	100.992908 
2101.000000	100.991777 
2100.000000	100.995272 
2099.000000	101.000831 
2098.000000	101.004796 
2097.000000	101.005582 
2096.000000	101.004278 
2095.000000	101.002042 
2094.000000	100.998216 
2093.000000	100.991917 
2092.000000	100.984741 
2091.000000	100.980665 
2090.000000	100.982791 
2089.000000	100.990176 
2088.000000	100.997942 
2087.000000	101.001553 
2086.000000	101.001377 
2085.000000	101.001965 
2084.000000	101.006425 
2083.000000	101.012938 
2082.000000	101.017926 
2081.000000	101.021209 
2080.000000	101.025680 
2079.000000	101.032653 
2078.000000	101.040322 
2077.000000	101.047146 
2076.000000	101.054077 
2075.000000	101.062029 
2074.000000	101.069255 
2073.000000	101.072989 
2072.000000	101.072730 
2071.000000	101.070527 
2070.000000	101.068631 
2069.000000	101.067857 
2068.000000	101.067809 
2067.000000	101.067843 
2066.000000	101.067909 
2065.000000	101.068716 
2064.000000	101.071014 
2063.000000	101.074894 
2062.000000	101.080220 
2061.000000	101.087019 
2060.000000	101.094626 
2059.000000	101.101388 
2058.000000	101.106227 
2057.000000	101.109831 
2056.000000	101.113183 
2055.000000	101.115814 
2054.000000	101.117196 
2053.000000	101.118933 
2052.000000	101.123463 
2051.000000	101.130935 
2050.000000	101.138926 
2049.000000	101.144959 
2048.000000	101.147973 
2047.000000	101.147606 
2046.000000	101.144326 
2045.000000	101.140765 
2044.000000	101.140597 
2043.000000	101.144987 
2042.000000	101.151703 
2041.000000	101.158070 
2040.000000	101.163468 
2039.000000	101.168178 
2038.000000	101.171527 
2037.000000	101.172537 
2036.000000	101.171244 
2035.000000	101.168617 
2034.000000	101.165977 
2033.000000	101.164694 
2032.000000	101.165275 
2031.000000	101.166611 
2030.000000	101.167207 
2029.000000	101.166880 
2028.000000	101.166257 
2027.000000	101.165222 
2026.000000	101.163501 
2025.000000	101.162183 
2024.000000	101.162692 
2023.000000	101.164393 
2022.000000	101.164839 
2021.000000	101.162733 
2020.000000	101.159484 
2019.000000	101.157688 
2018.000000	101.158633 
2017.000000	101.161552 
2016.000000	101.164386 
2015.000000	101.165421 
2014.000000	101.164679 
2013.000000	101.163725 
2012.000000	101.164010 
2011.000000	101.165452 
2010.000000	101.166982 
2009.000000	101.168018 
2008.000000	101.168730 
2007.000000	101.169108 
2006.000000	101.168807 
2005.000000	101.167961 
2004.000000	101.167244 
2003.000000	101.167001 
2002.000000	101.166933 
2001.000000	101.166736 
2000.000000	101.166369 
1999.000000	101.165742 
1998.000000	101.164861 
1997.000000	101.164272 
1996.000000	101.164717 
1995.000000	101.166240 
1994.000000	101.168031 
1993.000000	101.169145 
1992.000000	101.169254 
1991.000000	101.168580 
1990.000000	101.167549 
1989.000000	101.166722 
1988.000000	101.166614 
1987.000000	101.167162 
1986.000000	101.167589 
1985.000000	101.167274 
1984.000000	101.166598 
1983.000000	101.166629 
1982.000000	101.167936 
1981.000000	101.169852 
1980.000000	101.170799 
1979.000000	101.169527 
1978.000000	101.166210 
1977.000000	101.162386 
1976.000000	101.159356 
1975.000000	101.157101 
1974.000000	101.155423 
1973.000000	101.155260 
1972.000000	101.157617 
1971.000000	101.161215 
1970.000000	101.162627 
1969.000000	101.159539 
1968.000000	101.152785 
1967.000000	101.145549 
1966.000000	101.140469 
1965.000000	101.137937 
1964.000000	101.136766 
1963.000000	101.135460 
1962.000000	101.133300 
1961.000000	101.130660 
1960.000000	101.128229 
1959.000000	101.126030 
1958.000000	101.123540 
1957.000000	101.120435 
1956.000000	101.116725 
1955.000000	101.112514 
1954.000000	101.108358 
1953.000000	101.105234 
1952.000000	101.103359 
1951.000000	101.101362 
1950.000000	101.097772 
1949.000000	101.093307 
1948.000000	101.090038 
1947.000000	101.088141 
1946.000000	101.085178 
1945.000000	101.079042 
1944.000000	101.070603 
1943.000000	101.062998 
1942.000000	101.058804 
1941.000000	101.058161 
1940.000000	101.058930 
1939.000000	101.058646 
1938.000000	101.057027 
1937.000000	101.056106 
1936.000000	101.057263 
1935.000000	101.058966 
1934.000000	101.058833 
1933.000000	101.057152 
1932.000000	101.056788 
1931.000000	101.059164 
1930.000000	101.062071 
1929.000000	101.062565 
1928.000000	101.059841 
1927.000000	101.055164 
1926.000000	101.050353 
1925.000000	101.047059 
1924.000000	101.046336 
1923.000000	101.047613 
1922.000000	101.049174 
1921.000000	101.050112 
1920.000000	101.050277 
1919.000000	101.048929 
1918.000000	101.044996 
1917.000000	101.039304 
1916.000000	101.034420 
1915.000000	101.031387 
1914.000000	101.029521 
1913.000000	101.028672 
1912.000000	101.029564 
1911.000000	101.031781 
1910.000000	101.033320 
1909.000000	101.033153 
1908.000000	101.032345 
1907.000000	101.032337 
1906.000000	101.032975 
1905.000000	101.033214 
1904.000000	101.032660 
1903.000000	101.031421 
1902.000000	101.029876 
1901.000000	101.028713 
1900.000000	101.028187 
1899.000000	101.027777 
1898.000000	101.026837 
1897.000000	101.025414 
1896.000000	101.024155 
1895.000000	101.023363 
1894.000000	101.022794 
1893.000000	101.022353 
1892.000000	101.022291 
1891.000000	101.022675 
1890.000000	101.023102 
1889.000000	101.023162 
1888.000000	101.022837 
1887.000000	101.022247 
1886.000000	101.021525 
1885.000000	101.021004 
1884.000000	101.020976 
1883.000000	101.021243 
1882.000000	101.021324 
1881.000000	101.021118 
1880.000000	101.020897 
1879.000000	101.020817 
1878.000000	101.020804 
1877.000000	101.020828 
1876.000000	101.020968 
1875.000000	101.021109 
1874.000000	101.020905 
1873.000000	101.020227 
1872.000000	101.019298 
1871.000000	101.018440 
1870.000000	101.017867 
1869.000000	101.017694 
1868.000000	101.017905 
1867.000000	101.018228 
1866.000000	101.018281 
1865.000000	101.017942 
1864.000000	101.017349 
1863.000000	101.016645 
1862.000000	101.015880 
1861.000000	101.015250 
1860.000000	101.015084 
1859.000000	101.015446 
1858.000000	101.015974 
1857.000000	101.016260 
1856.000000	101.016259 
1855.000000	101.016150 
1854.000000	101.016043 
1853.000000	101.015982 
1852.000000	101.015904 
1851.000000	101.015687 
1850.000000	101.015358 
1849.000000	101.015169 
1848.000000	101.015336 
1847.000000	101.015675 
1846.000000	101.015757 
1845.000000	101.015504 
1844.000000	101.015311 
1843.000000	101.015475 
1842.000000	101.015715 
1841.000000	101.015564 
1840.000000	101.014899 
1839.000000	101.014015 
1838.000000	101.013257 
1837.000000	101.012787 
1836.000000	101.012579 
1835.000000	101.012420 
1834.000000	101.012149 
1833.000000	101.011851 
1832.000000	101.011623 
1831.000000	101.011511 
1830.000000	101.011495 
1829.000000	101.011522 
1828.000000	101.011643 
1827.000000	101.011679 
1826.000000	101.011395 
1825.000000	101.010951 
1824.000000	101.010808 
1823.000000	101.010994 
1822.000000	101.010840 
1821.000000	101.009989 
1820.000000	101.009103 
1819.000000	101.009091 
1818.000000	101.009841 
1817.000000	101.010513 
1816.000000	101.010835 
1815.000000	101.011126 
1814.000000	101.011562 
1813.000000	101.011989 
1812.000000	101.012450 
1811.000000	101.013198 
1810.000000	101.014008 
1809.000000	101.014466 
1808.000000	101.014562 
1807.000000	101.014398 
1806.000000	101.013962 
1805.000000	101.013485 
1804.000000	101.013484 
1803.000000	101.014007 
1802.000000	101.014522 
1801.000000	101.014491 
1800.000000	101.014068 
1799.000000	101.013845 
1798.000000	101.014032 
1797.000000	101.014596 
1796.000000	101.015536 
1795.000000	101.016566 
1794.000000	101.017196 
1793.000000	101.017205 
1792.000000	101.016930 
1791.000000	101.016846 
1790.000000	101.016819 
1789.000000	101.016553 
1788.000000	101.016264 
1787.000000	101.016355 
1786.000000	101.016806 
1785.000000	101.017384 
1784.000000	101.018182 
1783.000000	101.018831 
1782.000000	101.018700 
1781.000000	101.017506 
1780.000000	101.015638 
1779.000000	101.013816 
1778.000000	101.012143 
1777.000000	101.011012 
1776.000000	101.011064 
1775.000000	101.012141 
1774.000000	101.013600 
1773.000000	101.015002 
1772.000000	101.015853 
1771.000000	101.016906 
1770.000000	101.018292 
1769.000000	101.017928 
1768.000000	101.015247 
1767.000000	101.012428 
1766.000000	101.011443 
1765.000000	101.011191 
1764.000000	101.009873 
1763.000000	101.007818 
1762.000000	101.006681 
1761.000000	101.006414 
1760.000000	101.006419 
1759.000000	101.006447 
1758.000000	101.006759 
1757.000000	101.008210 
1756.000000	101.010064 
1755.000000	101.011361 
1754.000000	101.011183 
1753.000000	101.008394 
1752.000000	101.002617 
1751.000000	100.995640 
1750.000000	100.990047 
1749.000000	100.986997 
1748.000000	100.986003 
1747.000000	100.985923 
1746.000000	100.986409 
1745.000000	100.986213 
1744.000000	100.984281 
1743.000000	100.981878 
1742.000000	100.980714 
1741.000000	100.980566 
1740.000000	100.981394 
1739.000000	100.984458 
1738.000000	100.990286 
1737.000000	100.996241 
1736.000000	100.999498 
1735.000000	101.000640 
1734.000000	101.000089 
1733.000000	100.999070 
1732.000000	100.999821 
1731.000000	101.001037 
1730.000000	101.001428 
1729.000000	101.001892 
1728.000000	101.003084 
1727.000000	101.004446 
1726.000000	101.005597 
1725.000000	101.006432 
1724.000000	101.007211 
1723.000000	101.008055 
1722.000000	101.008500 
1721.000000	101.008439 
1720.000000	101.008470 
1719.000000	101.009548 
1718.000000	101.011264 
1717.000000	101.012251 
1716.000000	101.012986 
1715.000000	101.013963 
1714.000000	101.014682 
1713.000000	101.015187 
1712.000000	101.015896 
1711.000000	101.016804 
1710.000000	101.017741 
1709.000000	101.018691 
1708.000000	101.019652 
1707.000000	101.020606 
1706.000000	101.021547 
1705.000000	101.022471 
1704.000000	101.023378 
1703.000000	101.024267 
1702.000000	101.025136 
1701.000000	101.025985 
1700.000000	101.026821 
1699.000000	101.027650 
1698.000000	101.028459 
1697.000000	101.029222 
1696.000000	101.029926 
1695.000000	101.030580 
1694.000000	101.031198 
1693.000000	101.031798 
1692.000000	101.032391 
1691.000000	101.032983 
1690.000000	101.033577 
1689.000000	101.034171 
1688.000000	101.034763 
1687.000000	101.035349 
1686.000000	101.035926 
1685.000000	101.036494 
1684.000000	101.037052 
1683.000000	101.037597 
1682.000000	101.038130 
1681.000000	101.038651 
1680.000000	101.039161 
1679.000000	101.039661 
1678.000000	101.040157 
1677.000000	101.040649 
1676.000000	101.041141 
1675.000000	101.041635 
1674.000000	101.042139 
1673.000000	101.042648 
1672.000000	101.043148 
1671.000000	101.043630 
1670.000000	101.044090 
1669.000000	101.044530 
1668.000000	101.044953 
1667.000000	101.045360 
1666.000000	101.045753 
1665.000000	101.046136 
1664.000000	101.046511 
1663.000000	101.046886 
1662.000000	101.047267 
1661.000000	101.047656 
1660.000000	101.048048 
1659.000000	101.048439 
1658.000000	101.048826 
1657.000000	101.049207 
1656.000000	101.049582 
1655.000000	101.049966 
1654.000000	101.050381 
1653.000000	101.050833 
1652.000000	101.051317 
1651.000000	101.051824 
1650.000000	101.052340 
1649.000000	101.052850 
1648.000000	101.053350 
1647.000000	101.053845 
1646.000000	101.054337 
1645.000000	101.054831 
1644.000000	101.055331 
1643.000000	101.055833 
1642.000000	101.056335 
1641.000000	101.056836 
1640.000000	101.057340 
1639.000000	101.057850 
1638.000000	101.058370 
1637.000000	101.058902 
1636.000000	101.059442 
1635.000000	101.059982 
1634.000000	101.060521 
1633.000000	101.061055 
1632.000000	101.061577 
1631.000000	101.062078 
1630.000000	101.062564 
1629.000000	101.063078 
1628.000000	101.063671 
1627.000000	101.064333 
1626.000000	101.065022 
1625.000000	101.065713 
1624.000000	101.066403 
1623.000000	101.067065 
1622.000000	101.067726 
1621.000000	101.068504 
1620.000000	101.069367 
1619.000000	101.070139 
1618.000000	101.070770 
1617.000000	101.071466 
1616.000000	101.072369 
1615.000000	101.073427 
1614.000000	101.074496 
1613.000000	101.075428 
1612.000000	101.076177 
1611.000000	101.076722 
1610.000000	101.077174 
1609.000000	101.077734 
1608.000000	101.078355 
1607.000000	101.078775 
1606.000000	101.079115 
1605.000000	101.079717 
1604.000000	101.080474 
1603.000000	101.081135 
1602.000000	101.081760 
1601.000000	101.082536 
1600.000000	101.083364 
1599.000000	101.084034 
1598.000000	101.084623 
1597.000000	101.085291 
1596.000000	101.086004 
1595.000000	101.086630 
1594.000000	101.087161 
1593.000000	101.087689 
1592.000000	101.088254 
1591.000000	101.088825 
1590.000000	101.089379 
1589.000000	101.089914 
1588.000000	101.090427 
1587.000000	101.090913 
1586.000000	101.091356 
1585.000000	101.091754 
1584.000000	101.092112 
1583.000000	101.092438 
1582.000000	101.092741 
1581.000000	101.093026 
1580.000000	101.093292 
1579.000000	101.093541 
1578.000000	101.093777 
1577.000000	101.094005 
1576.000000	101.094225 
1575.000000	101.094434 
1574.000000	101.094632 
1573.000000	101.094820 
1572.000000	101.095000 
1571.000000	101.095175 
1570.000000	101.095350 
1569.000000	101.095527 
1568.000000	101.095701 
1567.000000	101.095867 
1566.000000	101.096023 
1565.000000	101.096177 
1564.000000	101.096332 
1563.000000	101.096488 
1562.000000	101.096638 
1561.000000	101.096783 
1560.000000	101.096926 
1559.000000	101.097059 
1558.000000	101.097176 
1557.000000	101.097289 
1556.000000	101.097402 
1555.000000	101.097505 
1554.000000	101.097595 
1553.000000	101.097678 
1552.000000	101.097760 
1551.000000	101.097848 
1550.000000	101.097946 
1549.000000	101.098062 
1548.000000	101.098199 
1547.000000	101.098351 
1546.000000	101.098517 
1545.000000	101.098705 
1544.000000	101.098931 
1543.000000	101.099208 
1542.000000	101.099533 
1541.000000	101.099894 
1540.000000	101.100274 
1539.000000	101.100656 
1538.000000	101.101041 
1537.000000	101.101429 
1536.000000	101.101813 
1535.000000	101.102189 
1534.000000	101.102553 
1533.000000	101.102908 
1532.000000	101.103256 
1531.000000	101.103595 
1530.000000	101.103924 
1529.000000	101.104224 
1528.000000	101.104484 
1527.000000	101.104744 
1526.000000	101.105070 
1525.000000	101.105516 
1524.000000	101.106079 
1523.000000	101.106696 
1522.000000	101.107195 
1521.000000	101.107282 
1520.000000	101.107087 
1519.000000	101.106888 
1518.000000	101.106491 
1517.000000	101.105828 
1516.000000	101.105443 
1515.000000	101.105866 
1514.000000	101.106772 
1513.000000	101.107249 
1512.000000	101.107174 
1511.000000	101.107283 
1510.000000	101.107566 
1509.000000	101.107314 
1508.000000	101.107227 
1507.000000	101.108966 
1506.000000	101.109908 
1505.000000	101.109400 
1504.000000	101.109387 
1503.000000	101.110178 
1502.000000	101.111288 
1501.000000	101.111988 
1500.000000	101.111702 
1499.000000	101.110703 
1498.000000	101.109294 
1497.000000	101.106247 
1496.000000	101.101907 
1495.000000	101.098866 
1494.000000	101.097853 
1493.000000	101.097293 
1492.000000	101.096152 
1491.000000	101.094839 
1490.000000	101.093657 
1489.000000	101.092109 
1488.000000	101.090804 
1487.000000	101.090357 
1486.000000	101.089647 
1485.000000	101.088367 
1484.000000	101.086914 
1483.000000	101.085486 
1482.000000	101.084249 
1481.000000	101.083311 
1480.000000	101.082791 
1479.000000	101.082183 
1478.000000	101.080684 
1477.000000	101.078326 
1476.000000	101.076688 
1475.000000	101.076613 
1474.000000	101.076961 
1473.000000	101.075812 
1472.000000	101.072761 
1471.000000	101.070080 
1470.000000	101.068793 
1469.000000	101.067426 
1468.000000	101.065132 
1467.000000	101.062483 
1466.000000	101.060518 
1465.000000	101.059980 
1464.000000	101.060461 
1463.000000	101.061751 
1462.000000	101.062822 
1461.000000	101.062324 
1460.000000	101.060088 
1459.000000	101.057671 
1458.000000	101.056149 
1457.000000	101.051487 
1456.000000	101.042516 
1455.000000	101.036478 
1454.000000	101.035444 
1453.000000	101.035687 
1452.000000	101.035495 
1451.000000	101.036055 
1450.000000	101.037911 
1449.000000	101.038759 
1448.000000	101.038070 
1447.000000	101.037900 
1446.000000	101.040122 
1445.000000	101.043204 
1444.000000	101.044334 
1443.000000	101.044509 
1442.000000	101.045835 
1441.000000	101.048190 
1440.000000	101.049869 
1439.000000	101.051141 
1438.000000	101.053122 
1437.000000	101.054027 
1436.000000	101.051444 
1435.000000	101.049155 
1434.000000	101.049427 
1433.000000	101.048634 
1432.000000	101.045052 
1431.000000	101.041760 
1430.000000	101.041791 
1429.000000	101.042961 
1428.000000	101.042377 
1427.000000	101.039727 
1426.000000	101.036319 
1425.000000	101.032798 
1424.000000	101.028658 
1423.000000	101.025391 
1422.000000	101.023559 
1421.000000	101.020076 
1420.000000	101.012037 
1419.000000	101.002676 
1418.000000	100.997652 
1417.000000	100.995646 
1416.000000	100.991411 
1415.000000	100.984022 
1414.000000	100.976357 
1413.000000	100.969997 
1412.000000	100.964287 
1411.000000	100.959532 
1410.000000	100.956618 
1409.000000	100.954051 
1408.000000	100.950419 
1407.000000	100.946840 
1406.000000	100.945530 
1405.000000	100.946678 
1404.000000	100.948540 
1403.000000	100.951569 
1402.000000	100.957056 
1401.000000	100.963941 
1400.000000	100.969777 
1399.000000	100.973194 
1398.000000	100.973790 
1397.000000	100.969815 
1396.000000	100.959785 
1395.000000	100.947519 
1394.000000	100.942120 
1393.000000	100.948088 
1392.000000	100.960965 
1391.000000	100.973655 
1390.000000	100.982330 
1389.000000	100.986371 
1388.000000	100.986469 
1387.000000	100.984076 
1386.000000	100.981469 
1385.000000	100.980200 
1384.000000	100.979779 
1383.000000	100.979428 
1382.000000	100.979295 
1381.000000	100.979994 
1380.000000	100.982019 
1379.000000	100.985453 
1378.000000	100.990131 
1377.000000	100.995558 
1376.000000	101.001059 
1375.000000	101.006275 
1374.000000	101.011847 
1373.000000	101.018681 
1372.000000	101.026719 
1371.000000	101.034555 
1370.000000	101.040970 
1369.000000	101.046016 
1368.000000	101.050162 
1367.000000	101.053974 
1366.000000	101.057885 
1365.000000	101.061937 
1364.000000	101.066216 
1363.000000	101.071053 
1362.000000	101.076408 
1361.000000	101.081691 
1360.000000	101.086358 
1359.000000	101.090490 
1358.000000	101.094997 
1357.000000	101.100586 
1356.000000	101.106622 
1355.000000	101.111900 
1354.000000	101.116390 
1353.000000	101.120849 
1352.000000	101.125771 
1351.000000	101.129928 
1350.000000	101.132301 
1349.000000	101.134276 
1348.000000	101.136699 
1347.000000	101.138333 
1346.000000	101.137797 
1345.000000	101.135849 
1344.000000	101.134435 
1343.000000	101.134242 
1342.000000	101.134570 
1341.000000	101.135306 
1340.000000	101.137377 
1339.000000	101.140999 
1338.000000	101.145032 
1337.000000	101.148382 
1336.000000	101.151137 
1335.000000	101.153885 
1334.000000	101.156373 
1333.000000	101.157540 
1332.000000	101.157012 
1331.000000	101.155846 
1330.000000	101.155727 
1329.000000	101.157434 
1328.000000	101.160299 
1327.000000	101.162655 
1326.000000	101.163196 
1325.000000	101.161958 
1324.000000	101.159990 
1323.000000	101.158667 
1322.000000	101.158723 
1321.000000	101.159852 
1320.000000	101.161458 
1319.000000	101.163534 
1318.000000	101.166030 
1317.000000	101.167772 
1316.000000	101.167257 
1315.000000	101.164650 
1314.000000	101.161979 
1313.000000	101.160833 
1312.000000	101.160787 
1311.000000	101.160607 
1310.000000	101.160178 
1309.000000	101.160308 
1308.000000	101.161441 
1307.000000	101.162992 
1306.000000	101.163998 
1305.000000	101.163993 
1304.000000	101.163189 
1303.000000	101.162391 
1302.000000	101.162293 
1301.000000	101.162755 
1300.000000	101.163198 
1299.000000	101.163846 
1298.000000	101.165665 
1297.000000	101.168745 
1296.000000	101.171542 
1295.000000	101.172325 
1294.000000	101.170816 
1293.000000	101.167859 
1292.000000	101.164212 
1291.000000	101.160432 
1290.000000	101.157387 
1289.000000	101.155950 
1288.000000	101.156110 
1287.000000	101.156819 
1286.000000	101.156846 
1285.000000	101.155584 
1284.000000	101.153057 
1283.000000	101.149590 
1282.000000	101.145315 
1281.000000	101.140213 
1280.000000	101.134916 
1279.000000	101.130805 
1278.000000	101.128669 
1277.000000	101.127747 
1276.000000	101.126719 
1275.000000	101.125115 
1274.000000	101.123083 
1273.000000	101.120241 
1272.000000	101.115963 
1271.000000	101.110733 
1270.000000	101.106026 
1269.000000	101.102508 
1268.000000	101.099226 
1267.000000	101.094994 
1266.000000	101.089779 
1265.000000	101.084379 
1264.000000	101.079490 
1263.000000	101.075378 
1262.000000	101.071779 
1261.000000	101.068030 
1260.000000	101.063803 
1259.000000	101.059683 
1258.000000	101.056395 
1257.000000	101.053674 
1256.000000	101.050956 
1255.000000	101.048930 
1254.000000	101.048975 
1253.000000	101.050970 
1252.000000	101.053044 
1251.000000	101.053977 
1250.000000	101.054617 
1249.000000	101.056254 
1248.000000	101.058718 
1247.000000	101.060842 
1246.000000	101.061680 
1245.000000	101.060367 
1244.000000	101.056007 
1243.000000	101.049240 
1242.000000	101.043387 
1241.000000	101.042116 
1240.000000	101.045904 
1239.000000	101.051465 
1238.000000	101.054804 
1237.000000	101.054697 
1236.000000	101.052686 
1235.000000	101.050830 
1234.000000	101.049961 
1233.000000	101.049484 
1232.000000	101.048064 
1231.000000	101.044683 
1230.000000	101.039716 
1229.000000	101.035045 
1228.000000	101.032686 
1227.000000	101.033147 
1226.000000	101.035215 
1225.000000	101.037319 
1224.000000	101.038953 
1223.000000	101.040671 
1222.000000	101.042952 
1221.000000	101.045531 
1220.000000	101.047906 
1219.000000	101.050118 
1218.000000	101.052535 
1217.000000	101.054876 
1216.000000	101.056004 
1215.000000	101.055005 
1214.000000	101.052150 
1213.000000	101.048461 
1212.000000	101.044682 
1211.000000	101.041185 
1210.000000	101.038590 
1209.000000	101.037732 
1208.000000	101.038754 
1207.000000	101.040543 
1206.000000	101.041359 
1205.000000	101.040152 
1204.000000	101.037254 
1203.000000	101.033937 
1202.000000	101.031316 
1201.000000	101.029577 
1200.000000	101.028146 
1199.000000	101.026408 
1198.000000	101.024165 
1197.000000	101.021374 
1196.000000	101.017607 
1195.000000	101.012189 
1194.000000	101.005127 
1193.000000	100.997522 
1192.000000	100.990829 
1191.000000	100.985608 
1190.000000	100.980921 
1189.000000	100.975217 
1188.000000	100.967946 
1187.000000	100.960202 
1186.000000	100.953736 
1185.000000	100.949461 
1184.000000	100.946920 
1183.000000	100.944844 
1182.000000	100.942109 
1181.000000	100.938444 
1180.000000	100.934327 
1179.000000	100.930094 
1178.000000	100.925425 
1177.000000	100.920057 
1176.000000	100.914644 
1175.000000	100.909964 
1174.000000	100.905311 
1173.000000	100.898809 
1172.000000	100.889829 
1171.000000	100.880221 
1170.000000	100.872325 
1169.000000	100.866344 
1168.000000	100.860499 
1167.000000	100.853402 
1166.000000	100.845693 
1165.000000	100.839516 
1164.000000	100.836916 
1163.000000	100.838488 
1162.000000	100.842919 
1161.000000	100.848072 
1160.000000	100.852793 
1159.000000	100.857074 
1158.000000	100.860184 
1157.000000	100.859693 
1156.000000	100.853470 
1155.000000	100.842399 
1154.000000	100.830415 
1153.000000	100.821601 
1152.000000	100.817436 
1151.000000	100.816325 
1150.000000	100.814969 
1149.000000	100.810730 
1148.000000	100.803666 
1147.000000	100.796161 
1146.000000	100.789907 
1145.000000	100.783673 
1144.000000	100.774961 
1143.000000	100.763401 
1142.000000	100.751457 
1141.000000	100.742019 
1140.000000	100.736362 
1139.000000	100.734115 
1138.000000	100.733556 
1137.000000	100.731752 
1136.000000	100.726074 
1135.000000	100.716504 
1134.000000	100.705598 
1133.000000	100.695331 
1132.000000	100.684903 
1131.000000	100.672772 
1130.000000	100.660007 
1129.000000	100.649930 
1128.000000	100.644035 
1127.000000	100.639407 
1126.000000	100.631280 
1125.000000	100.618007 
1124.000000	100.602687 
1123.000000	100.589713 
1122.000000	100.580178 
1121.000000	100.571402 
1120.000000	100.560568 
1119.000000	100.547572 
1118.000000	100.534086 
1117.000000	100.520992 
1116.000000	100.507715 
1115.000000	100.493682 
1114.000000	100.479555 
1113.000000	100.466861 
1112.000000	100.456492 
1111.000000	100.447224 
1110.000000	100.435976 
1109.000000	100.420368 
1108.000000	100.401561 
1107.000000	100.383688 
1106.000000	100.369505 
1105.000000	100.357688 
1104.000000	100.345015 
1103.000000	100.330215 
1102.000000	100.314910 
1101.000000	100.301090 
1100.000000	100.289287 
1099.000000	100.278939 
1098.000000	100.269347 
1097.000000	100.260185 
1096.000000	100.251205 
1095.000000	100.241713 
1094.000000	100.230269 
1093.000000	100.215225 
1092.000000	100.195855 
1091.000000	100.172945 
1090.000000	100.148303 
1089.000000	100.123826 
1088.000000	100.100877 
1087.000000	100.079932 
1086.000000	100.060507 
1085.000000	100.041861 
1084.000000	100.023958 
1083.000000	100.007217 
1082.000000	99.991265  
1081.000000	99.974763  
1080.000000	99.956807  
1079.000000	99.937779  
1078.000000	99.918728  
1077.000000	99.900907  
1076.000000	99.886134  
1075.000000	99.876220  
1074.000000	99.871224  
1073.000000	99.869069  
1072.000000	99.866964  
1071.000000	99.861757  
1070.000000	99.849057  
1069.000000	99.825191  
1068.000000	99.792393  
1067.000000	99.760641  
1066.000000	99.740995  
1065.000000	99.736762  
1064.000000	99.742250  
1063.000000	99.748444  
1062.000000	99.748336  
1061.000000	99.738006  
1060.000000	99.716731  
1059.000000	99.688564  
1058.000000	99.661801  
1057.000000	99.643725  
1056.000000	99.635325  
1055.000000	99.631643  
1054.000000	99.626962  
1053.000000	99.619369  
1052.000000	99.610562  
1051.000000	99.602400  
1050.000000	99.594665  
1049.000000	99.586152  
1048.000000	99.576934  
1047.000000	99.568794  
1046.000000	99.563642  
1045.000000	99.561881  
1044.000000	99.561988  
1043.000000	99.561475  
1042.000000	99.558773  
1041.000000	99.554604  
1040.000000	99.551327  
1039.000000	99.551139  
1038.000000	99.555494  
1037.000000	99.565691  
1036.000000	99.582159  
1035.000000	99.602621  
1034.000000	99.622630  
1033.000000	99.638763  
1032.000000	99.649701  
1031.000000	99.653934  
1030.000000	99.649828  
1029.000000	99.640426  
1028.000000	99.635468  
1027.000000	99.644076  
1026.000000	99.665391  
1025.000000	99.689097  
1024.000000	99.705522  
1023.000000	99.712903  
1022.000000	99.715249  
1021.000000	99.716941  
1020.000000	99.720562  
1019.000000	99.727129  
1018.000000	99.735909  
1017.000000	99.744948  
1016.000000	99.753067  
1015.000000	99.760662  
1014.000000	99.768179  
1013.000000	99.775070  
1012.000000	99.780735  
1011.000000	99.785372  
1010.000000	99.789544  
1009.000000	99.794051  
1008.000000	99.800375  
1007.000000	99.809833  
1006.000000	99.821801  
1005.000000	99.834005  
1004.000000	99.844975  
1003.000000	99.855136  
1002.000000	99.865327  
1001.000000	99.875599  
1000.000000	99.885865  
999.000000	 99.896402  
998.000000	 99.907036  
997.000000	 99.916943  
996.000000	 99.925983  
995.000000	 99.935391  
994.000000	 99.946348  
993.000000	 99.958473  
992.000000	 99.970415  
991.000000	 99.981234  
990.000000	 99.990571  
989.000000	 99.998309  
988.000000	 100.004950 
987.000000	 100.011722 
986.000000	 100.019635 
985.000000	 100.029008 
984.000000	 100.040012 
983.000000	 100.052538 
982.000000	 100.065665 
981.000000	 100.078223 
980.000000	 100.090163 
979.000000	 100.102744 
978.000000	 100.116994 
977.000000	 100.132750 
976.000000	 100.149234 
975.000000	 100.165441 
974.000000	 100.180128 
973.000000	 100.193044 
972.000000	 100.206412 
971.000000	 100.223507 
970.000000	 100.245064 
969.000000	 100.268271 
968.000000	 100.289746 
967.000000	 100.308211 
966.000000	 100.323949 
965.000000	 100.337345 
964.000000	 100.348938 
963.000000	 100.359883 
962.000000	 100.371501 
961.000000	 100.384838 
960.000000	 100.400593 
959.000000	 100.418239 
958.000000	 100.435206 
957.000000	 100.448588 
956.000000	 100.458118 
955.000000	 100.466161 
954.000000	 100.474467 
953.000000	 100.482645 
952.000000	 100.490439 
951.000000	 100.499324 
950.000000	 100.510245 
949.000000	 100.521310 
948.000000	 100.529485 
947.000000	 100.533678 
946.000000	 100.534717 
945.000000	 100.533379 
944.000000	 100.530443 
943.000000	 100.528428 
942.000000	 100.531132 
941.000000	 100.540433 
940.000000	 100.554029 
939.000000	 100.566688 
938.000000	 100.573958 
937.000000	 100.575140 
936.000000	 100.573301 
935.000000	 100.572581 
934.000000	 100.575203 
933.000000	 100.581044 
932.000000	 100.589405 
931.000000	 100.599897 
930.000000	 100.611412 
929.000000	 100.621476 
928.000000	 100.627602 
927.000000	 100.629020 
926.000000	 100.626892 
925.000000	 100.623526 
924.000000	 100.621665 
923.000000	 100.623573 
922.000000	 100.629708 
921.000000	 100.638273 
920.000000	 100.646468 
919.000000	 100.652159 
918.000000	 100.654470 
917.000000	 100.653589 
916.000000	 100.650537 
915.000000	 100.646816 
914.000000	 100.643785 
913.000000	 100.642369 
912.000000	 100.643271 
911.000000	 100.646885 
910.000000	 100.652842 
909.000000	 100.660204 
908.000000	 100.668233 
907.000000	 100.676407 
906.000000	 100.683708 
905.000000	 100.688980 
904.000000	 100.692498 
903.000000	 100.696498 
902.000000	 100.703516 
901.000000	 100.714245 
900.000000	 100.727018 
899.000000	 100.738736 
898.000000	 100.746485 
897.000000	 100.749294 
896.000000	 100.748799 
895.000000	 100.748065 
894.000000	 100.749283 
893.000000	 100.752850 
892.000000	 100.758598 
891.000000	 100.766823 
890.000000	 100.777519 
889.000000	 100.789509 
888.000000	 100.800980 
887.000000	 100.810595 
886.000000	 100.818046 
885.000000	 100.824202 
884.000000	 100.830876 
883.000000	 100.839400 
882.000000	 100.848925 
881.000000	 100.857071 
880.000000	 100.863005 
879.000000	 100.868870 
878.000000	 100.877069 
877.000000	 100.886941 
876.000000	 100.895487 
875.000000	 100.900866 
874.000000	 100.903907 
873.000000	 100.906623 
872.000000	 100.910492 
871.000000	 100.916041 
870.000000	 100.922934 
869.000000	 100.930511 
868.000000	 100.939014 
867.000000	 100.949663 
866.000000	 100.962337 
865.000000	 100.974002 
864.000000	 100.981563 
863.000000	 100.986102 
862.000000	 100.991925 
861.000000	 101.000515 
860.000000	 101.008077 
859.000000	 101.010745 
858.000000	 101.010020 
857.000000	 101.011022 
856.000000	 101.016791 
855.000000	 101.026769 
854.000000	 101.039479 
853.000000	 101.053147 
852.000000	 101.063996 
851.000000	 101.068110 
850.000000	 101.066683 
849.000000	 101.066404 
848.000000	 101.072309 
847.000000	 101.082384 
846.000000	 101.091088 
845.000000	 101.095703 
844.000000	 101.096897 
843.000000	 101.095678 
842.000000	 101.093183 
841.000000	 101.091766 
840.000000	 101.092476 
839.000000	 101.092325 
838.000000	 101.087879 
837.000000	 101.081155 
836.000000	 101.077932 
835.000000	 101.079793 
834.000000	 101.082158 
833.000000	 101.081751 
832.000000	 101.081739 
831.000000	 101.086406 
830.000000	 101.093822 
829.000000	 101.097825 
828.000000	 101.095955 
827.000000	 101.091682 
826.000000	 101.088849 
825.000000	 101.086774 
824.000000	 101.081695 
823.000000	 101.071608 
822.000000	 101.059332 
821.000000	 101.051212 
820.000000	 101.052236 
819.000000	 101.062097 
818.000000	 101.076350 
817.000000	 101.090617 
816.000000	 101.101630 
815.000000	 101.105143 
814.000000	 101.097336 
813.000000	 101.080027 
812.000000	 101.061008 
811.000000	 101.046008 
810.000000	 101.032404 
809.000000	 101.013732 
808.000000	 100.987830 
807.000000	 100.957402 
806.000000	 100.924944 
805.000000	 100.891261 
804.000000	 100.858229 
803.000000	 100.829303 
802.000000	 100.806679 
801.000000	 100.790234 
800.000000	 100.779125 
799.000000	 100.772572 
798.000000	 100.769983 
797.000000	 100.771896 
796.000000	 100.778976 
795.000000	 100.788222 
794.000000	 100.792893 
793.000000	 100.789539 
792.000000	 100.783160 
791.000000	 100.781889 
790.000000	 100.788091 
789.000000	 100.797674 
788.000000	 100.805840 
787.000000	 100.809245 
786.000000	 100.804365 
785.000000	 100.789292 
784.000000	 100.767768 
783.000000	 100.747774 
782.000000	 100.735137 
781.000000	 100.730508 
780.000000	 100.731505 
779.000000	 100.734586 
778.000000	 100.735970 
777.000000	 100.734821 
776.000000	 100.735223 
775.000000	 100.741446 
774.000000	 100.751670 
773.000000	 100.760086 
772.000000	 100.765148 
771.000000	 100.771731 
770.000000	 100.784383 
769.000000	 100.801560 
768.000000	 100.817110 
767.000000	 100.825563 
766.000000	 100.826205 
765.000000	 100.824106 
764.000000	 100.826798 
763.000000	 100.837361 
762.000000	 100.850791 
761.000000	 100.859183 
760.000000	 100.860176 
759.000000	 100.858278 
758.000000	 100.858931 
757.000000	 100.863486 
756.000000	 100.869559 
755.000000	 100.873733 
754.000000	 100.873917 
753.000000	 100.871297 
752.000000	 100.870297 
751.000000	 100.874983 
750.000000	 100.885120 
749.000000	 100.896508 
748.000000	 100.905015 
747.000000	 100.909538 
746.000000	 100.911490 
745.000000	 100.913140 
744.000000	 100.916383 
743.000000	 100.921803 
742.000000	 100.928541 
741.000000	 100.935573 
740.000000	 100.942884 
739.000000	 100.950709 
738.000000	 100.958173 
737.000000	 100.963705 
736.000000	 100.966622 
735.000000	 100.967600 
734.000000	 100.967948 
733.000000	 100.968899 
732.000000	 100.971478 
731.000000	 100.976163 
730.000000	 100.982130 
729.000000	 100.987652 
728.000000	 100.991892 
727.000000	 100.995532 
726.000000	 100.999162 
725.000000	 101.001931 
724.000000	 101.002771 
723.000000	 101.002166 
722.000000	 101.001829 
721.000000	 101.003234 
720.000000	 101.006930 
719.000000	 101.012454 
718.000000	 101.018308 
717.000000	 101.022768 
716.000000	 101.025108 
715.000000	 101.025360 
714.000000	 101.023611 
713.000000	 101.020721 
712.000000	 101.019572 
711.000000	 101.023250 
710.000000	 101.031038 
709.000000	 101.038043 
708.000000	 101.040102 
707.000000	 101.037398 
706.000000	 101.032669 
705.000000	 101.028091 
704.000000	 101.024739 
703.000000	 101.023445 
702.000000	 101.024406 
701.000000	 101.026428 
700.000000	 101.027752 
699.000000	 101.027329 
698.000000	 101.025277 
697.000000	 101.022779 
696.000000	 101.021599 
695.000000	 101.022751 
694.000000	 101.025449 
693.000000	 101.028202 
692.000000	 101.030785 
691.000000	 101.033976 
690.000000	 101.037771 
689.000000	 101.041244 
688.000000	 101.044138 
687.000000	 101.047050 
686.000000	 101.049925 
685.000000	 101.052002 
684.000000	 101.053289 
683.000000	 101.054765 
682.000000	 101.057050 
681.000000	 101.059825 
680.000000	 101.062536 
679.000000	 101.064965 
678.000000	 101.067115 
677.000000	 101.069240 
676.000000	 101.071860 
675.000000	 101.075142 
674.000000	 101.078720 
673.000000	 101.082102 
672.000000	 101.085234 
671.000000	 101.088388 
670.000000	 101.091817 
669.000000	 101.095579 
668.000000	 101.099576 
667.000000	 101.103541 
666.000000	 101.107426 
665.000000	 101.111319 
664.000000	 101.115270 
663.000000	 101.119355 
662.000000	 101.123630 
661.000000	 101.128013 
660.000000	 101.132235 
659.000000	 101.136160 
658.000000	 101.139872 
657.000000	 101.143560 
656.000000	 101.147260 
655.000000	 101.150999 
654.000000	 101.154932 
653.000000	 101.159125 
652.000000	 101.163498 
651.000000	 101.167865 
650.000000	 101.172146 

