4000.000000	99.147048 
3999.000000	99.143836 
3998.000000	99.141492 
3997.000000	99.141774 
3996.000000	99.143885 
3995.000000	99.145774 
3994.000000	99.146567 
3993.000000	99.147039 
3992.000000	99.147956 
3991.000000	99.148848 
3990.000000	99.148749 
3989.000000	99.147434 
3988.000000	99.145529 
3987.000000	99.143900 
3986.000000	99.143323 
3985.000000	99.144293 
3984.000000	99.146666 
3983.000000	99.149784 
3982.000000	99.153235 
3981.000000	99.157234 
3980.000000	99.161851 
3979.000000	99.166144 
3978.000000	99.168668 
3977.000000	99.168877 
3976.000000	99.167457 
3975.000000	99.165242 
3974.000000	99.162274 
3973.000000	99.158234 
3972.000000	99.153451 
3971.000000	99.149271 
3970.000000	99.147604 
3969.000000	99.149601 
3968.000000	99.154549 
3967.000000	99.160032 
3966.000000	99.163631 
3965.000000	99.164489 
3964.000000	99.163422 
3963.000000	99.161996 
3962.000000	99.161481 
3961.000000	99.162035 
3960.000000	99.162214 
3959.000000	99.159946 
3958.000000	99.155242 
3957.000000	99.151049 
3956.000000	99.150786 
3955.000000	99.154832 
3954.000000	99.160446 
3953.000000	99.164588 
3952.000000	99.165988 
3951.000000	99.165151 
3950.000000	99.162934 
3949.000000	99.159859 
3948.000000	99.156697 
3947.000000	99.155070 
3946.000000	99.156077 
3945.000000	99.158468 
3944.000000	99.159269 
3943.000000	99.156673 
3942.000000	99.152010 
3941.000000	99.148278 
3940.000000	99.146473 
3939.000000	99.145095 
3938.000000	99.143785 
3937.000000	99.144244 
3936.000000	99.147736 
3935.000000	99.152760 
3934.000000	99.156962 
3933.000000	99.160077 
3932.000000	99.162990 
3931.000000	99.165463 
3930.000000	99.165944 
3929.000000	99.163799 
3928.000000	99.160118 
3927.000000	99.155377 
3926.000000	99.148997 
3925.000000	99.142304 
3924.000000	99.139611 
3923.000000	99.142821 
3922.000000	99.147256 
3921.000000	99.147386 
3920.000000	99.144138 
3919.000000	99.142301 
3918.000000	99.143265 
3917.000000	99.144609 
3916.000000	99.145776 
3915.000000	99.148695 
3914.000000	99.152971 
3913.000000	99.155418 
3912.000000	99.154711 
3911.000000	99.151962 
3910.000000	99.149542 
3909.000000	99.148918 
3908.000000	99.151534 
3907.000000	99.157770 
3906.000000	99.165915 
3905.000000	99.172460 
3904.000000	99.175487 
3903.000000	99.177212 
3902.000000	99.179410 
3901.000000	99.178481 
3900.000000	99.170530 
3899.000000	99.158661 
3898.000000	99.149540 
3897.000000	99.144778 
3896.000000	99.140751 
3895.000000	99.136508 
3894.000000	99.136560 
3893.000000	99.142420 
3892.000000	99.148041 
3891.000000	99.147982 
3890.000000	99.149491 
3889.000000	99.158753 
3888.000000	99.168491 
3887.000000	99.168879 
3886.000000	99.160229 
3885.000000	99.152924 
3884.000000	99.157015 
3883.000000	99.166363 
3882.000000	99.166572 
3881.000000	99.154496 
3880.000000	99.139544 
3879.000000	99.133841 
3878.000000	99.140782 
3877.000000	99.151015 
3876.000000	99.155057 
3875.000000	99.152025 
3874.000000	99.148903 
3873.000000	99.153933 
3872.000000	99.163831 
3871.000000	99.164791 
3870.000000	99.152316 
3869.000000	99.142926 
3868.000000	99.153208 
3867.000000	99.171465 
3866.000000	99.176689 
3865.000000	99.168993 
3864.000000	99.161818 
3863.000000	99.159699 
3862.000000	99.157444 
3861.000000	99.151932 
3860.000000	99.146865 
3859.000000	99.142623 
3858.000000	99.136281 
3857.000000	99.128333 
3856.000000	99.127515 
3855.000000	99.141285 
3854.000000	99.156366 
3853.000000	99.152517 
3852.000000	99.147720 
3851.000000	99.160007 
3850.000000	99.170475 
3849.000000	99.167485 
3848.000000	99.159753 
3847.000000	99.155471 
3846.000000	99.154168 
3845.000000	99.153172 
3844.000000	99.152712 
3843.000000	99.154550 
3842.000000	99.159894 
3841.000000	99.166372 
3840.000000	99.171158 
3839.000000	99.173576 
3838.000000	99.174563 
3837.000000	99.173860 
3836.000000	99.171545 
3835.000000	99.167301 
3834.000000	99.160878 
3833.000000	99.153639 
3832.000000	99.148718 
3831.000000	99.149341 
3830.000000	99.156036 
3829.000000	99.164246 
3828.000000	99.167394 
3827.000000	99.162958 
3826.000000	99.157254 
3825.000000	99.159776 
3824.000000	99.171969 
3823.000000	99.185106 
3822.000000	99.188519 
3821.000000	99.178291 
3820.000000	99.170158 
3819.000000	99.177554 
3818.000000	99.185374 
3817.000000	99.177357 
3816.000000	99.158289 
3815.000000	99.146367 
3814.000000	99.150012 
3813.000000	99.154575 
3812.000000	99.146031 
3811.000000	99.132273 
3810.000000	99.128297 
3809.000000	99.136872 
3808.000000	99.147119 
3807.000000	99.149699 
3806.000000	99.151010 
3805.000000	99.160586 
3804.000000	99.170404 
3803.000000	99.167410 
3802.000000	99.151598 
3801.000000	99.134104 
3800.000000	99.131314 
3799.000000	99.140570 
3798.000000	99.141472 
3797.000000	99.129211 
3796.000000	99.116576 
3795.000000	99.114996 
3794.000000	99.122683 
3793.000000	99.130897 
3792.000000	99.135981 
3791.000000	99.140203 
3790.000000	99.144005 
3789.000000	99.146127 
3788.000000	99.148082 
3787.000000	99.153215 
3786.000000	99.160966 
3785.000000	99.167272 
3784.000000	99.170962 
3783.000000	99.174604 
3782.000000	99.178056 
3781.000000	99.176973 
3780.000000	99.168653 
3779.000000	99.156045 
3778.000000	99.146334 
3777.000000	99.142304 
3776.000000	99.140365 
3775.000000	99.138618 
3774.000000	99.141442 
3773.000000	99.151644 
3772.000000	99.163777 
3771.000000	99.168796 
3770.000000	99.165337 
3769.000000	99.161833 
3768.000000	99.164894 
3767.000000	99.169317 
3766.000000	99.167328 
3765.000000	99.160927 
3764.000000	99.159073 
3763.000000	99.164387 
3762.000000	99.169536 
3761.000000	99.169758 
3760.000000	99.169433 
3759.000000	99.171402 
3758.000000	99.171943 
3757.000000	99.167926 
3756.000000	99.162672 
3755.000000	99.160082 
3754.000000	99.161164 
3753.000000	99.167628 
3752.000000	99.180124 
3751.000000	99.189157 
3750.000000	99.183330 
3749.000000	99.170342 
3748.000000	99.165512 
3747.000000	99.167247 
3746.000000	99.164103 
3745.000000	99.150089 
3744.000000	99.131890 
3743.000000	99.134027 
3742.000000	99.157313 
3741.000000	99.170033 
3740.000000	99.164800 
3739.000000	99.160861 
3738.000000	99.169470 
3737.000000	99.181897 
3736.000000	99.187027 
3735.000000	99.185848 
3734.000000	99.182273 
3733.000000	99.173585 
3732.000000	99.160939 
3731.000000	99.155749 
3730.000000	99.163502 
3729.000000	99.174343 
3728.000000	99.176817 
3727.000000	99.172388 
3726.000000	99.170786 
3725.000000	99.176097 
3724.000000	99.181026 
3723.000000	99.178493 
3722.000000	99.170816 
3721.000000	99.164793 
3720.000000	99.163586 
3719.000000	99.164291 
3718.000000	99.163188 
3717.000000	99.159768 
3716.000000	99.155712 
3715.000000	99.150753 
3714.000000	99.144248 
3713.000000	99.138368 
3712.000000	99.134324 
3711.000000	99.130085 
3710.000000	99.125601 
3709.000000	99.121910 
3708.000000	99.118103 
3707.000000	99.113119 
3706.000000	99.107530 
3705.000000	99.102126 
3704.000000	99.096627 
3703.000000	99.090513 
3702.000000	99.083784 
3701.000000	99.078355 
3700.000000	99.077625 
3699.000000	99.079944 
3698.000000	99.078015 
3697.000000	99.068918 
3696.000000	99.058602 
3695.000000	99.054019 
3694.000000	99.054792 
3693.000000	99.056994 
3692.000000	99.060207 
3691.000000	99.064867 
3690.000000	99.065780 
3689.000000	99.055686 
3688.000000	99.039619 
3687.000000	99.031387 
3686.000000	99.032709 
3685.000000	99.033411 
3684.000000	99.030003 
3683.000000	99.028467 
3682.000000	99.031797 
3681.000000	99.033678 
3680.000000	99.027509 
3679.000000	99.017398 
3678.000000	99.010464 
3677.000000	99.006538 
3676.000000	98.998629 
3675.000000	98.989567 
3674.000000	98.998581 
3673.000000	99.023957 
3672.000000	99.039150 
3671.000000	99.034980 
3670.000000	99.021475 
3669.000000	99.009533 
3668.000000	99.004408 
3667.000000	99.000578 
3666.000000	98.993068 
3665.000000	98.986229 
3664.000000	98.985916 
3663.000000	98.992071 
3662.000000	99.000180 
3661.000000	99.006641 
3660.000000	99.011604 
3659.000000	99.016911 
3658.000000	99.021825 
3657.000000	99.023703 
3656.000000	99.022742 
3655.000000	99.027084 
3654.000000	99.040354 
3653.000000	99.054656 
3652.000000	99.065158 
3651.000000	99.076160 
3650.000000	99.086203 
3649.000000	99.084015 
3648.000000	99.068242 
3647.000000	99.052312 
3646.000000	99.046984 
3645.000000	99.050724 
3644.000000	99.056389 
3643.000000	99.059980 
3642.000000	99.063093 
3641.000000	99.068339 
3640.000000	99.075986 
3639.000000	99.084972 
3638.000000	99.096240 
3637.000000	99.111325 
3636.000000	99.126487 
3635.000000	99.134219 
3634.000000	99.132399 
3633.000000	99.128165 
3632.000000	99.128564 
3631.000000	99.133660 
3630.000000	99.138750 
3629.000000	99.135919 
3628.000000	99.126823 
3627.000000	99.125414 
3626.000000	99.129772 
3625.000000	99.129509 
3624.000000	99.127127 
3623.000000	99.128934 
3622.000000	99.133561 
3621.000000	99.135048 
3620.000000	99.131358 
3619.000000	99.125889 
3618.000000	99.124439 
3617.000000	99.129445 
3616.000000	99.135864 
3615.000000	99.136892 
3614.000000	99.130901 
3613.000000	99.121847 
3612.000000	99.115153 
3611.000000	99.112844 
3610.000000	99.113004 
3609.000000	99.113839 
3608.000000	99.114950 
3607.000000	99.116208 
3606.000000	99.117200 
3605.000000	99.117797 
3604.000000	99.119481 
3603.000000	99.123553 
3602.000000	99.128287 
3601.000000	99.131365 
3600.000000	99.134012 
3599.000000	99.138938 
3598.000000	99.144834 
3597.000000	99.148145 
3596.000000	99.146635 
3595.000000	99.141171 
3594.000000	99.134709 
3593.000000	99.131875 
3592.000000	99.136009 
3591.000000	99.147287 
3590.000000	99.162264 
3589.000000	99.174424 
3588.000000	99.175855 
3587.000000	99.164627 
3586.000000	99.149136 
3585.000000	99.137939 
3584.000000	99.131627 
3583.000000	99.127678 
3582.000000	99.124647 
3581.000000	99.121789 
3580.000000	99.118118 
3579.000000	99.113127 
3578.000000	99.106737 
3577.000000	99.099915 
3576.000000	99.094546 
3575.000000	99.092539 
3574.000000	99.094739 
3573.000000	99.100586 
3572.000000	99.108851 
3571.000000	99.117976 
3570.000000	99.126030 
3569.000000	99.130605 
3568.000000	99.129951 
3567.000000	99.125061 
3566.000000	99.120982 
3565.000000	99.122031 
3564.000000	99.126083 
3563.000000	99.128357 
3562.000000	99.127101 
3561.000000	99.123598 
3560.000000	99.119670 
3559.000000	99.116487 
3558.000000	99.114669 
3557.000000	99.114602 
3556.000000	99.116739 
3555.000000	99.120663 
3554.000000	99.124457 
3553.000000	99.125760 
3552.000000	99.124120 
3551.000000	99.121175 
3550.000000	99.118231 
3549.000000	99.115402 
3548.000000	99.113745 
3547.000000	99.115166 
3546.000000	99.119113 
3545.000000	99.121969 
3544.000000	99.120846 
3543.000000	99.116335 
3542.000000	99.111440 
3541.000000	99.108712 
3540.000000	99.108981 
3539.000000	99.111389 
3538.000000	99.114190 
3537.000000	99.115634 
3536.000000	99.114756 
3535.000000	99.111775 
3534.000000	99.107642 
3533.000000	99.104047 
3532.000000	99.102864 
3531.000000	99.104968 
3530.000000	99.108719 
3529.000000	99.111372 
3528.000000	99.112185 
3527.000000	99.113126 
3526.000000	99.115479 
3525.000000	99.117434 
3524.000000	99.116361 
3523.000000	99.112338 
3522.000000	99.107974 
3521.000000	99.104999 
3520.000000	99.102612 
3519.000000	99.099405 
3518.000000	99.095727 
3517.000000	99.093354 
3516.000000	99.093262 
3515.000000	99.095018 
3514.000000	99.098062 
3513.000000	99.102485 
3512.000000	99.107722 
3511.000000	99.111803 
3510.000000	99.112726 
3509.000000	99.110901 
3508.000000	99.109251 
3507.000000	99.110179 
3506.000000	99.112476 
3505.000000	99.112161 
3504.000000	99.106415 
3503.000000	99.097183 
3502.000000	99.090565 
3501.000000	99.091626 
3500.000000	99.099346 
3499.000000	99.106936 
3498.000000	99.107327 
3497.000000	99.099199 
3496.000000	99.088270 
3495.000000	99.082343 
3494.000000	99.084715 
3493.000000	99.091966 
3492.000000	99.097546 
3491.000000	99.097351 
3490.000000	99.092501 
3489.000000	99.087489 
3488.000000	99.085901 
3487.000000	99.087735 
3486.000000	99.090303 
3485.000000	99.091368 
3484.000000	99.091107 
3483.000000	99.091258 
3482.000000	99.092514 
3481.000000	99.093389 
3480.000000	99.091922 
3479.000000	99.088341 
3478.000000	99.085285 
3477.000000	99.084924 
3476.000000	99.086232 
3475.000000	99.085916 
3474.000000	99.082604 
3473.000000	99.079025 
3472.000000	99.079097 
3471.000000	99.083474 
3470.000000	99.089035 
3469.000000	99.092337 
3468.000000	99.092380 
3467.000000	99.090055 
3466.000000	99.086239 
3465.000000	99.081317 
3464.000000	99.076051 
3463.000000	99.071788 
3462.000000	99.069314 
3461.000000	99.067977 
3460.000000	99.066442 
3459.000000	99.064406 
3458.000000	99.063207 
3457.000000	99.064383 
3456.000000	99.067800 
3455.000000	99.071776 
3454.000000	99.074940 
3453.000000	99.077707 
3452.000000	99.081557 
3451.000000	99.087115 
3450.000000	99.092851 
3449.000000	99.095994 
3448.000000	99.094740 
3447.000000	99.089711 
3446.000000	99.083350 
3445.000000	99.077970 
3444.000000	99.074560 
3443.000000	99.073265 
3442.000000	99.074059 
3441.000000	99.076630 
3440.000000	99.080138 
3439.000000	99.083415 
3438.000000	99.085468 
3437.000000	99.085705 
3436.000000	99.084037 
3435.000000	99.081202 
3434.000000	99.078577 
3433.000000	99.077337 
3432.000000	99.077464 
3431.000000	99.077755 
3430.000000	99.076757 
3429.000000	99.073970 
3428.000000	99.070190 
3427.000000	99.066739 
3426.000000	99.064624 
3425.000000	99.064407 
3424.000000	99.066321 
3423.000000	99.069924 
3422.000000	99.073774 
3421.000000	99.076083 
3420.000000	99.076109 
3419.000000	99.074887 
3418.000000	99.074335 
3417.000000	99.075422 
3416.000000	99.077035 
3415.000000	99.076853 
3414.000000	99.073722 
3413.000000	99.069141 
3412.000000	99.065944 
3411.000000	99.065566 
3410.000000	99.067123 
3409.000000	99.068955 
3408.000000	99.070149 
3407.000000	99.070415 
3406.000000	99.069757 
3405.000000	99.068983 
3404.000000	99.069629 
3403.000000	99.072502 
3402.000000	99.076677 
3401.000000	99.080453 
3400.000000	99.082677 
3399.000000	99.082983 
3398.000000	99.081762 
3397.000000	99.080518 
3396.000000	99.081182 
3395.000000	99.084198 
3394.000000	99.087927 
3393.000000	99.090617 
3392.000000	99.092265 
3391.000000	99.093738 
3390.000000	99.094832 
3389.000000	99.094418 
3388.000000	99.092144 
3387.000000	99.088814 
3386.000000	99.085203 
3385.000000	99.081540 
3384.000000	99.078179 
3383.000000	99.075895 
3382.000000	99.075076 
3381.000000	99.075070 
3380.000000	99.074480 
3379.000000	99.072254 
3378.000000	99.068854 
3377.000000	99.066532 
3376.000000	99.067814 
3375.000000	99.073102 
3374.000000	99.079973 
3373.000000	99.085156 
3372.000000	99.087092 
3371.000000	99.086489 
3370.000000	99.085083 
3369.000000	99.084376 
3368.000000	99.085047 
3367.000000	99.086630 
3366.000000	99.087681 
3365.000000	99.086888 
3364.000000	99.084344 
3363.000000	99.081556 
3362.000000	99.080087 
3361.000000	99.080172 
3360.000000	99.080460 
3359.000000	99.079153 
3358.000000	99.075878 
3357.000000	99.072633 
3356.000000	99.072346 
3355.000000	99.075973 
3354.000000	99.081409 
3353.000000	99.085674 
3352.000000	99.087699 
3351.000000	99.088534 
3350.000000	99.089537 
3349.000000	99.091236 
3348.000000	99.093646 
3347.000000	99.096518 
3346.000000	99.099028 
3345.000000	99.100056 
3344.000000	99.099151 
3343.000000	99.096853 
3342.000000	99.094045 
3341.000000	99.091598 
3340.000000	99.090555 
3339.000000	99.091685 
3338.000000	99.094241 
3337.000000	99.095796 
3336.000000	99.094303 
3335.000000	99.090445 
3334.000000	99.087356 
3333.000000	99.087763 
3332.000000	99.091485 
3331.000000	99.095699 
3330.000000	99.097552 
3329.000000	99.096558 
3328.000000	99.094611 
3327.000000	99.093756 
3326.000000	99.094135 
3325.000000	99.094389 
3324.000000	99.093864 
3323.000000	99.093755 
3322.000000	99.095547 
3321.000000	99.098653 
3320.000000	99.100400 
3319.000000	99.098867 
3318.000000	99.095354 
3317.000000	99.093366 
3316.000000	99.095056 
3315.000000	99.099175 
3314.000000	99.102674 
3313.000000	99.103842 
3312.000000	99.103447 
3311.000000	99.103255 
3310.000000	99.104192 
3309.000000	99.106030 
3308.000000	99.108255 
3307.000000	99.110654 
3306.000000	99.112953 
3305.000000	99.114136 
3304.000000	99.112600 
3303.000000	99.107640 
3302.000000	99.101027 
3301.000000	99.096468 
3300.000000	99.096708 
3299.000000	99.101203 
3298.000000	99.107057 
3297.000000	99.112038 
3296.000000	99.116066 
3295.000000	99.119970 
3294.000000	99.123790 
3293.000000	99.126722 
3292.000000	99.128013 
3291.000000	99.127413 
3290.000000	99.125100 
3289.000000	99.121630 
3288.000000	99.117912 
3287.000000	99.114912 
3286.000000	99.113204 
3285.000000	99.112637 
3284.000000	99.112281 
3283.000000	99.111058 
3282.000000	99.108921 
3281.000000	99.107110 
3280.000000	99.106621 
3279.000000	99.106795 
3278.000000	99.106295 
3277.000000	99.105225 
3276.000000	99.105218 
3275.000000	99.107265 
3274.000000	99.110468 
3273.000000	99.113151 
3272.000000	99.114179 
3271.000000	99.112918 
3270.000000	99.109196 
3269.000000	99.104233 
3268.000000	99.100804 
3267.000000	99.101396 
3266.000000	99.106249 
3265.000000	99.113546 
3264.000000	99.121004 
3263.000000	99.126983 
3262.000000	99.130968 
3261.000000	99.133629 
3260.000000	99.135892 
3259.000000	99.137441 
3258.000000	99.136639 
3257.000000	99.132376 
3256.000000	99.125675 
3255.000000	99.119099 
3254.000000	99.114984 
3253.000000	99.114469 
3252.000000	99.117295 
3251.000000	99.121806 
3250.000000	99.125716 
3249.000000	99.127724 
3248.000000	99.128199 
3247.000000	99.128001 
3246.000000	99.127252 
3245.000000	99.125851 
3244.000000	99.124535 
3243.000000	99.124541 
3242.000000	99.126490 
3241.000000	99.129959 
3240.000000	99.133584 
3239.000000	99.135199 
3238.000000	99.132890 
3237.000000	99.126904 
3236.000000	99.120081 
3235.000000	99.115404 
3234.000000	99.113467 
3233.000000	99.113152 
3232.000000	99.114062 
3231.000000	99.116800 
3230.000000	99.120966 
3229.000000	99.124408 
3228.000000	99.125052 
3227.000000	99.122776 
3226.000000	99.119217 
3225.000000	99.116581 
3224.000000	99.116743 
3223.000000	99.120397 
3222.000000	99.126390 
3221.000000	99.132420 
3220.000000	99.136866 
3219.000000	99.139653 
3218.000000	99.141231 
3217.000000	99.141481 
3216.000000	99.140229 
3215.000000	99.138241 
3214.000000	99.136818 
3213.000000	99.136507 
3212.000000	99.136945 
3211.000000	99.137854 
3210.000000	99.139399 
3209.000000	99.141323 
3208.000000	99.142395 
3207.000000	99.141233 
3206.000000	99.137706 
3205.000000	99.133407 
3204.000000	99.130786 
3203.000000	99.131642 
3202.000000	99.136098 
3201.000000	99.142654 
3200.000000	99.149122 
3199.000000	99.153592 
3198.000000	99.154929 
3197.000000	99.153076 
3196.000000	99.149369 
3195.000000	99.146005 
3194.000000	99.144256 
3193.000000	99.143164 
3192.000000	99.140907 
3191.000000	99.137755 
3190.000000	99.136613 
3189.000000	99.139694 
3188.000000	99.145284 
3187.000000	99.149025 
3186.000000	99.148403 
3185.000000	99.144881 
3184.000000	99.141612 
3183.000000	99.140236 
3182.000000	99.140310 
3181.000000	99.140684 
3180.000000	99.140562 
3179.000000	99.139831 
3178.000000	99.139147 
3177.000000	99.139386 
3176.000000	99.140559 
3175.000000	99.141797 
3174.000000	99.142910 
3173.000000	99.145167 
3172.000000	99.149478 
3171.000000	99.154350 
3170.000000	99.157025 
3169.000000	99.156776 
3168.000000	99.155855 
3167.000000	99.156799 
3166.000000	99.159776 
3165.000000	99.163050 
3164.000000	99.165205 
3163.000000	99.166115 
3162.000000	99.166267 
3161.000000	99.166151 
3160.000000	99.166416 
3159.000000	99.167807 
3158.000000	99.170401 
3157.000000	99.173072 
3156.000000	99.174125 
3155.000000	99.172753 
3154.000000	99.169968 
3153.000000	99.167936 
3152.000000	99.167959 
3151.000000	99.168940 
3150.000000	99.168241 
3149.000000	99.164561 
3148.000000	99.159885 
3147.000000	99.157983 
3146.000000	99.160640 
3145.000000	99.165682 
3144.000000	99.169208 
3143.000000	99.169729 
3142.000000	99.169528 
3141.000000	99.171635 
3140.000000	99.175979 
3139.000000	99.179389 
3138.000000	99.179416 
3137.000000	99.177207 
3136.000000	99.175945 
3135.000000	99.177155 
3134.000000	99.179429 
3133.000000	99.180568 
3132.000000	99.179982 
3131.000000	99.178661 
3130.000000	99.177407 
3129.000000	99.175771 
3128.000000	99.172860 
3127.000000	99.168965 
3126.000000	99.166011 
3125.000000	99.166075 
3124.000000	99.169381 
3123.000000	99.173853 
3122.000000	99.176888 
3121.000000	99.177714 
3120.000000	99.177847 
3119.000000	99.179110 
3118.000000	99.181406 
3117.000000	99.182681 
3116.000000	99.181162 
3115.000000	99.177347 
3114.000000	99.173337 
3113.000000	99.170339 
3112.000000	99.167702 
3111.000000	99.164904 
3110.000000	99.163428 
3109.000000	99.165219 
3108.000000	99.169443 
3107.000000	99.172375 
3106.000000	99.171263 
3105.000000	99.167487 
3104.000000	99.165241 
3103.000000	99.167620 
3102.000000	99.174516 
3101.000000	99.183423 
3100.000000	99.191062 
3099.000000	99.194579 
3098.000000	99.192937 
3097.000000	99.187925 
3096.000000	99.183051 
3095.000000	99.180848 
3094.000000	99.181494 
3093.000000	99.183868 
3092.000000	99.186824 
3091.000000	99.189163 
3090.000000	99.189626 
3089.000000	99.188132 
3088.000000	99.186520 
3087.000000	99.186978 
3086.000000	99.189701 
3085.000000	99.192819 
3084.000000	99.194664 
3083.000000	99.195325 
3082.000000	99.195862 
3081.000000	99.196666 
3080.000000	99.197057 
3079.000000	99.196046 
3078.000000	99.193037 
3077.000000	99.188078 
3076.000000	99.182151 
3075.000000	99.177327 
3074.000000	99.175804 
3073.000000	99.178184 
3072.000000	99.182977 
3071.000000	99.188161 
3070.000000	99.192745 
3069.000000	99.196144 
3068.000000	99.196680 
3067.000000	99.192359 
3066.000000	99.183793 
3065.000000	99.175074 
3064.000000	99.170504 
3063.000000	99.170744 
3062.000000	99.173051 
3061.000000	99.174782 
3060.000000	99.175629 
3059.000000	99.176651 
3058.000000	99.178373 
3057.000000	99.180235 
3056.000000	99.181296 
3055.000000	99.181199 
3054.000000	99.180634 
3053.000000	99.180699 
3052.000000	99.181516 
3051.000000	99.181901 
3050.000000	99.180966 
3049.000000	99.179432 
3048.000000	99.178343 
3047.000000	99.177002 
3046.000000	99.173750 
3045.000000	99.168796 
3044.000000	99.164714 
3043.000000	99.163528 
3042.000000	99.164388 
3041.000000	99.164627 
3040.000000	99.162274 
3039.000000	99.157161 
3038.000000	99.150639 
3037.000000	99.144941 
3036.000000	99.141934 
3035.000000	99.141474 
3034.000000	99.141323 
3033.000000	99.139196 
3032.000000	99.134519 
3031.000000	99.127878 
3030.000000	99.119479 
3029.000000	99.108905 
3028.000000	99.096207 
3027.000000	99.082742 
3026.000000	99.070771 
3025.000000	99.061997 
3024.000000	99.055952 
3023.000000	99.049802 
3022.000000	99.040505 
3021.000000	99.027622 
3020.000000	99.013759 
3019.000000	99.002083 
3018.000000	98.993872 
3017.000000	98.988373 
3016.000000	98.983934 
3015.000000	98.978602 
3014.000000	98.970415 
3013.000000	98.958062 
3012.000000	98.941237 
3011.000000	98.920286 
3010.000000	98.896202 
3009.000000	98.871356 
3008.000000	98.849393 
3007.000000	98.833369 
3006.000000	98.823735 
3005.000000	98.817991 
3004.000000	98.811822 
3003.000000	98.800910 
3002.000000	98.783322 
3001.000000	98.761468 
3000.000000	98.740937 
2999.000000	98.725967 
2998.000000	98.716179 
2997.000000	98.708629 
2996.000000	98.702164 
2995.000000	98.697539 
2994.000000	98.692714 
2993.000000	98.680679 
2992.000000	98.655096 
2991.000000	98.618525 
2990.000000	98.583234 
2989.000000	98.562186 
2988.000000	98.559055 
2987.000000	98.567293 
2986.000000	98.577898 
2985.000000	98.586681 
2984.000000	98.594316 
2983.000000	98.601841 
2982.000000	98.608129 
2981.000000	98.611176 
2980.000000	98.610262 
2979.000000	98.606412 
2978.000000	98.601561 
2977.000000	98.597450 
2976.000000	98.594610 
2975.000000	98.592056 
2974.000000	98.588419 
2973.000000	98.583522 
2972.000000	98.578495 
2971.000000	98.574482 
2970.000000	98.571998 
2969.000000	98.571668 
2968.000000	98.574683 
2967.000000	98.581863 
2966.000000	98.592544 
2965.000000	98.604841 
2964.000000	98.616912 
2963.000000	98.627898 
2962.000000	98.637878 
2961.000000	98.647074 
2960.000000	98.655135 
2959.000000	98.661457 
2958.000000	98.666431 
2957.000000	98.671770 
2956.000000	98.678714 
2955.000000	98.686126 
2954.000000	98.691582 
2953.000000	98.694865 
2952.000000	98.699418 
2951.000000	98.709247 
2950.000000	98.724338 
2949.000000	98.739707 
2948.000000	98.749378 
2947.000000	98.751372 
2946.000000	98.748902 
2945.000000	98.746724 
2944.000000	98.746607 
2943.000000	98.746605 
2942.000000	98.744293 
2941.000000	98.739509 
2940.000000	98.733538 
2939.000000	98.726927 
2938.000000	98.719511 
2937.000000	98.712069 
2936.000000	98.706374 
2935.000000	98.703347 
2934.000000	98.702104 
2933.000000	98.701002 
2932.000000	98.698824 
2931.000000	98.694851 
2930.000000	98.688790 
2929.000000	98.681050 
2928.000000	98.672638 
2927.000000	98.664652 
2926.000000	98.658241 
2925.000000	98.654619 
2924.000000	98.654231 
2923.000000	98.656096 
2922.000000	98.658905 
2921.000000	98.662621 
2920.000000	98.668002 
2919.000000	98.674768 
2918.000000	98.681391 
2917.000000	98.686629 
2916.000000	98.690154 
2915.000000	98.691775 
2914.000000	98.691542 
2913.000000	98.690814 
2912.000000	98.691607 
2911.000000	98.694084 
2910.000000	98.695927 
2909.000000	98.695059 
2908.000000	98.691972 
2907.000000	98.688414 
2906.000000	98.684622 
2905.000000	98.678927 
2904.000000	98.669938 
2903.000000	98.658729 
2902.000000	98.649426 
2901.000000	98.647642 
2900.000000	98.657040 
2899.000000	98.675996 
2898.000000	98.697673 
2897.000000	98.714770 
2896.000000	98.724567 
2895.000000	98.729668 
2894.000000	98.734367 
2893.000000	98.740728 
2892.000000	98.747670 
2891.000000	98.752954 
2890.000000	98.755782 
2889.000000	98.757582 
2888.000000	98.760354 
2887.000000	98.764614 
2886.000000	98.769463 
2885.000000	98.774386 
2884.000000	98.779967 
2883.000000	98.786711 
2882.000000	98.794230 
2881.000000	98.802221 
2880.000000	98.811464 
2879.000000	98.823061 
2878.000000	98.836977 
2877.000000	98.851655 
2876.000000	98.864638 
2875.000000	98.873407 
2874.000000	98.876614 
2873.000000	98.875458 
2872.000000	98.873509 
2871.000000	98.874348 
2870.000000	98.879221 
2869.000000	98.886946 
2868.000000	98.895570 
2867.000000	98.903874 
2866.000000	98.912008 
2865.000000	98.921197 
2864.000000	98.932249 
2863.000000	98.943705 
2862.000000	98.952142 
2861.000000	98.955325 
2860.000000	98.955020 
2859.000000	98.955827 
2858.000000	98.960954 
2857.000000	98.969528 
2856.000000	98.978078 
2855.000000	98.984341 
2854.000000	98.989333 
2853.000000	98.995753 
2852.000000	99.004846 
2851.000000	99.015510 
2850.000000	99.026518 
2849.000000	99.038426 
2848.000000	99.052203 
2847.000000	99.066628 
2846.000000	99.078531 
2845.000000	99.085781 
2844.000000	99.089092 
2843.000000	99.090972 
2842.000000	99.094127 
2841.000000	99.100710 
2840.000000	99.111216 
2839.000000	99.123093 
2838.000000	99.131807 
2837.000000	99.134631 
2836.000000	99.133055 
2835.000000	99.131003 
2834.000000	99.131423 
2833.000000	99.135047 
2832.000000	99.141167 
2831.000000	99.148311 
2830.000000	99.154680 
2829.000000	99.159173 
2828.000000	99.162085 
2827.000000	99.164296 
2826.000000	99.166042 
2825.000000	99.166929 
2824.000000	99.166814 
2823.000000	99.166294 
2822.000000	99.166577 
2821.000000	99.168973 
2820.000000	99.173799 
2819.000000	99.179569 
2818.000000	99.184064 
2817.000000	99.186546 
2816.000000	99.188084 
2815.000000	99.189438 
2814.000000	99.189848 
2813.000000	99.188594 
2812.000000	99.186543 
2811.000000	99.185058 
2810.000000	99.184283 
2809.000000	99.183735 
2808.000000	99.183843 
2807.000000	99.185538 
2806.000000	99.188607 
2805.000000	99.191641 
2804.000000	99.193643 
2803.000000	99.194932 
2802.000000	99.196563 
2801.000000	99.199375 
2800.000000	99.203249 
2799.000000	99.206788 
2798.000000	99.208266 
2797.000000	99.207558 
2796.000000	99.206555 
2795.000000	99.206968 
2794.000000	99.208339 
2793.000000	99.208983 
2792.000000	99.208197 
2791.000000	99.206596 
2790.000000	99.204964 
2789.000000	99.203956 
2788.000000	99.204390 
2787.000000	99.206517 
2786.000000	99.209231 
2785.000000	99.211153 
2784.000000	99.212238 
2783.000000	99.213190 
2782.000000	99.213691 
2781.000000	99.212725 
2780.000000	99.210643 
2779.000000	99.209353 
2778.000000	99.209984 
2777.000000	99.211530 
2776.000000	99.212270 
2775.000000	99.211544 
2774.000000	99.209707 
2773.000000	99.207314 
2772.000000	99.205055 
2771.000000	99.203826 
2770.000000	99.204313 
2769.000000	99.206814 
2768.000000	99.211572 
2767.000000	99.218441 
2766.000000	99.225845 
2765.000000	99.230941 
2764.000000	99.231773 
2763.000000	99.229171 
2762.000000	99.226082 
2761.000000	99.225154 
2760.000000	99.227042 
2759.000000	99.230468 
2758.000000	99.233420 
2757.000000	99.234634 
2756.000000	99.234522 
2755.000000	99.234619 
2754.000000	99.235691 
2753.000000	99.236491 
2752.000000	99.234940 
2751.000000	99.230754 
2750.000000	99.226384 
2749.000000	99.224793 
2748.000000	99.226286 
2747.000000	99.228113 
2746.000000	99.227507 
2745.000000	99.224696 
2744.000000	99.222426 
2743.000000	99.222760 
2742.000000	99.225152 
2741.000000	99.227655 
2740.000000	99.229102 
2739.000000	99.229680 
2738.000000	99.230152 
2737.000000	99.231303 
2736.000000	99.233608 
2735.000000	99.236530 
2734.000000	99.238263 
2733.000000	99.237078 
2732.000000	99.233139 
2731.000000	99.228476 
2730.000000	99.225119 
2729.000000	99.223744 
2728.000000	99.224165 
2727.000000	99.226304 
2726.000000	99.230009 
2725.000000	99.234238 
2724.000000	99.237291 
2723.000000	99.238227 
2722.000000	99.237814 
2721.000000	99.237742 
2720.000000	99.238869 
2719.000000	99.240475 
2718.000000	99.241243 
2717.000000	99.240722 
2716.000000	99.239830 
2715.000000	99.240264 
2714.000000	99.243392 
2713.000000	99.248956 
2712.000000	99.254378 
2711.000000	99.256210 
2710.000000	99.253458 
2709.000000	99.249232 
2708.000000	99.247890 
2707.000000	99.250325 
2706.000000	99.253098 
2705.000000	99.252598 
2704.000000	99.248997 
2703.000000	99.245459 
2702.000000	99.244361 
2701.000000	99.245268 
2700.000000	99.246160 
2699.000000	99.245640 
2698.000000	99.243854 
2697.000000	99.241954 
2696.000000	99.241017 
2695.000000	99.241404 
2694.000000	99.242958 
2693.000000	99.245310 
2692.000000	99.247559 
2691.000000	99.248105 
2690.000000	99.246003 
2689.000000	99.242769 
2688.000000	99.241718 
2687.000000	99.244673 
2686.000000	99.249837 
2685.000000	99.253602 
2684.000000	99.254145 
2683.000000	99.252756 
2682.000000	99.252028 
2681.000000	99.253340 
2680.000000	99.255843 
2679.000000	99.257324 
2678.000000	99.256136 
2677.000000	99.252691 
2676.000000	99.249034 
2675.000000	99.246877 
2674.000000	99.246310 
2673.000000	99.246396 
2672.000000	99.246307 
2671.000000	99.245512 
2670.000000	99.243418 
2669.000000	99.239614 
2668.000000	99.234548 
2667.000000	99.229784 
2666.000000	99.227518 
2665.000000	99.229390 
2664.000000	99.235106 
2663.000000	99.242302 
2662.000000	99.248480 
2661.000000	99.253092 
2660.000000	99.256915 
2659.000000	99.259571 
2658.000000	99.259193 
2657.000000	99.255211 
2656.000000	99.250169 
2655.000000	99.247598 
2654.000000	99.248648 
2653.000000	99.251571 
2652.000000	99.253888 
2651.000000	99.254204 
2650.000000	99.252523 
2649.000000	99.249763 
2648.000000	99.246845 
2647.000000	99.243837 
2646.000000	99.240483 
2645.000000	99.237695 
2644.000000	99.237292 
2643.000000	99.239478 
2642.000000	99.241733 
2641.000000	99.241484 
2640.000000	99.239159 
2639.000000	99.237432 
2638.000000	99.238064 
2637.000000	99.240541 
2636.000000	99.243090 
2635.000000	99.243824 
2634.000000	99.241630 
2633.000000	99.237386 
2632.000000	99.233892 
2631.000000	99.233280 
2630.000000	99.234974 
2629.000000	99.237306 
2628.000000	99.240271 
2627.000000	99.244892 
2626.000000	99.250480 
2625.000000	99.254703 
2624.000000	99.256450 
2623.000000	99.256809 
2622.000000	99.257049 
2621.000000	99.257446 
2620.000000	99.258389 
2619.000000	99.260629 
2618.000000	99.263556 
2617.000000	99.264809 
2616.000000	99.262826 
2615.000000	99.258834 
2614.000000	99.255303 
2613.000000	99.253144 
2612.000000	99.251368 
2611.000000	99.249120 
2610.000000	99.247081 
2609.000000	99.246579 
2608.000000	99.247730 
2607.000000	99.249035 
2606.000000	99.249342 
2605.000000	99.249762 
2604.000000	99.252266 
2603.000000	99.255979 
2602.000000	99.256712 
2601.000000	99.251875 
2600.000000	99.244807 
2599.000000	99.242173 
2598.000000	99.247235 
2597.000000	99.257139 
2596.000000	99.266162 
2595.000000	99.269684 
2594.000000	99.265700 
2593.000000	99.255693 
2592.000000	99.245104 
2591.000000	99.240463 
2590.000000	99.243997 
2589.000000	99.251804 
2588.000000	99.258172 
2587.000000	99.260586 
2586.000000	99.259755 
2585.000000	99.256504 
2584.000000	99.250719 
2583.000000	99.243039 
2582.000000	99.235849 
2581.000000	99.231876 
2580.000000	99.232011 
2579.000000	99.234559 
2578.000000	99.236595 
2577.000000	99.236530 
2576.000000	99.235544 
2575.000000	99.236131 
2574.000000	99.239134 
2573.000000	99.242752 
2572.000000	99.244551 
2571.000000	99.243640 
2570.000000	99.240687 
2569.000000	99.236868 
2568.000000	99.233672 
2567.000000	99.233045 
2566.000000	99.236432 
2565.000000	99.243252 
2564.000000	99.250686 
2563.000000	99.255197 
2562.000000	99.254501 
2561.000000	99.248874 
2560.000000	99.241278 
2559.000000	99.235885 
2558.000000	99.235222 
2557.000000	99.237975 
2556.000000	99.240160 
2555.000000	99.239382 
2554.000000	99.237742 
2553.000000	99.239437 
2552.000000	99.245369 
2551.000000	99.251571 
2550.000000	99.253768 
2549.000000	99.252039 
2548.000000	99.249365 
2547.000000	99.246860 
2546.000000	99.243205 
2545.000000	99.238773 
2544.000000	99.237251 
2543.000000	99.241607 
2542.000000	99.250229 
2541.000000	99.258570 
2540.000000	99.263355 
2539.000000	99.263797 
2538.000000	99.260033 
2537.000000	99.252424 
2536.000000	99.242201 
2535.000000	99.231628 
2534.000000	99.223548 
2533.000000	99.220903 
2532.000000	99.225219 
2531.000000	99.234451 
2530.000000	99.243538 
2529.000000	99.248692 
2528.000000	99.250553 
2527.000000	99.252007 
2526.000000	99.253982 
2525.000000	99.255121 
2524.000000	99.254799 
2523.000000	99.254305 
2522.000000	99.254824 
2521.000000	99.255748 
2520.000000	99.255498 
2519.000000	99.253344 
2518.000000	99.250303 
2517.000000	99.248525 
2516.000000	99.249354 
2515.000000	99.251718 
2514.000000	99.253297 
2513.000000	99.253502 
2512.000000	99.253815 
2511.000000	99.254587 
2510.000000	99.253701 
2509.000000	99.250263 
2508.000000	99.247664 
2507.000000	99.250203 
2506.000000	99.257449 
2505.000000	99.264527 
2504.000000	99.267618 
2503.000000	99.266756 
2502.000000	99.263516 
2501.000000	99.258944 
2500.000000	99.254433 
2499.000000	99.252085 
2498.000000	99.252744 
2497.000000	99.254996 
2496.000000	99.256988 
2495.000000	99.258018 
2494.000000	99.257638 
2493.000000	99.254571 
2492.000000	99.247730 
2491.000000	99.237816 
2490.000000	99.227239 
2489.000000	99.218696 
2488.000000	99.213882 
2487.000000	99.213019 
2486.000000	99.215512 
2485.000000	99.221277 
2484.000000	99.230844 
2483.000000	99.243339 
2482.000000	99.255087 
2481.000000	99.261821 
2480.000000	99.262421 
2479.000000	99.259331 
2478.000000	99.255334 
2477.000000	99.251278 
2476.000000	99.247123 
2475.000000	99.243702 
2474.000000	99.242497 
2473.000000	99.244250 
2472.000000	99.248251 
2471.000000	99.252699 
2470.000000	99.255628 
2469.000000	99.255865 
2468.000000	99.253191 
2467.000000	99.247809 
2466.000000	99.240677 
2465.000000	99.234733 
2464.000000	99.234040 
2463.000000	99.239781 
2462.000000	99.247743 
2461.000000	99.251854 
2460.000000	99.250384 
2459.000000	99.247132 
2458.000000	99.246474 
2457.000000	99.248966 
2456.000000	99.252106 
2455.000000	99.253535 
2454.000000	99.252427 
2453.000000	99.248987 
2452.000000	99.244007 
2451.000000	99.238745 
2450.000000	99.234465 
2449.000000	99.231922 
2448.000000	99.231189 
2447.000000	99.231788 
2446.000000	99.233215 
2445.000000	99.235608 
2444.000000	99.239470 
2443.000000	99.244309 
2442.000000	99.248206 
2441.000000	99.249401 
2440.000000	99.247670 
2439.000000	99.243580 
2438.000000	99.237670 
2437.000000	99.231546 
2436.000000	99.228224 
2435.000000	99.228983 
2434.000000	99.230590 
2433.000000	99.228285 
2432.000000	99.221736 
2431.000000	99.215693 
2430.000000	99.214375 
2429.000000	99.217550 
2428.000000	99.223039 
2427.000000	99.230463 
2426.000000	99.240212 
2425.000000	99.249911 
2424.000000	99.254550 
2423.000000	99.250894 
2422.000000	99.241068 
2421.000000	99.231395 
2420.000000	99.227571 
2419.000000	99.230511 
2418.000000	99.236497 
2417.000000	99.241202 
2416.000000	99.243222 
2415.000000	99.243649 
2414.000000	99.243508 
2413.000000	99.243107 
2412.000000	99.243175 
2411.000000	99.244484 
2410.000000	99.246002 
2409.000000	99.245393 
2408.000000	99.242347 
2407.000000	99.239953 
2406.000000	99.241372 
2405.000000	99.245923 
2404.000000	99.249583 
2403.000000	99.248845 
2402.000000	99.243199 
2401.000000	99.234569 
2400.000000	99.225731 
2399.000000	99.219218 
2398.000000	99.216479 
2397.000000	99.217327 
2396.000000	99.220387 
2395.000000	99.224288 
2394.000000	99.228196 
2393.000000	99.231283 
2392.000000	99.232478 
2391.000000	99.231513 
2390.000000	99.230102 
2389.000000	99.231118 
2388.000000	99.235863 
2387.000000	99.242452 
2386.000000	99.247512 
2385.000000	99.249261 
2384.000000	99.248354 
2383.000000	99.246225 
2382.000000	99.243863 
2381.000000	99.242139 
2380.000000	99.241439 
2379.000000	99.240040 
2378.000000	99.234606 
2377.000000	99.224431 
2376.000000	99.214522 
2375.000000	99.211822 
2374.000000	99.217824 
2373.000000	99.226785 
2372.000000	99.232226 
2371.000000	99.233703 
2370.000000	99.235770 
2369.000000	99.241155 
2368.000000	99.246488 
2367.000000	99.245190 
2366.000000	99.234560 
2365.000000	99.220033 
2364.000000	99.211499 
2363.000000	99.214021 
2362.000000	99.222870 
2361.000000	99.229474 
2360.000000	99.230545 
2359.000000	99.229242 
2358.000000	99.229536 
2357.000000	99.232034 
2356.000000	99.235140 
2355.000000	99.236745 
2354.000000	99.234379 
2353.000000	99.227468 
2352.000000	99.219648 
2351.000000	99.216510 
2350.000000	99.219539 
2349.000000	99.224904 
2348.000000	99.228788 
2347.000000	99.230351 
2346.000000	99.229935 
2345.000000	99.226421 
2344.000000	99.219809 
2343.000000	99.214064 
2342.000000	99.213359 
2341.000000	99.217957 
2340.000000	99.224167 
2339.000000	99.228350 
2338.000000	99.229320 
2337.000000	99.227912 
2336.000000	99.226014 
2335.000000	99.225653 
2334.000000	99.227645 
2333.000000	99.230856 
2332.000000	99.232850 
2331.000000	99.231649 
2330.000000	99.226905 
2329.000000	99.220353 
2328.000000	99.215601 
2327.000000	99.215059 
2326.000000	99.218123 
2325.000000	99.221669 
2324.000000	99.223474 
2323.000000	99.224207 
2322.000000	99.225753 
2321.000000	99.229032 
2320.000000	99.232947 
2319.000000	99.235692 
2318.000000	99.235786 
2317.000000	99.232933 
2316.000000	99.228230 
2315.000000	99.223391 
2314.000000	99.219587 
2313.000000	99.216997 
2312.000000	99.215900 
2311.000000	99.217405 
2310.000000	99.222736 
2309.000000	99.231046 
2308.000000	99.238555 
2307.000000	99.240370 
2306.000000	99.234305 
2305.000000	99.222868 
2304.000000	99.211148 
2303.000000	99.202792 
2302.000000	99.198662 
2301.000000	99.198493 
2300.000000	99.201549 
2299.000000	99.205110 
2298.000000	99.205211 
2297.000000	99.201225 
2296.000000	99.198208 
2295.000000	99.201456 
2294.000000	99.209322 
2293.000000	99.214334 
2292.000000	99.212065 
2291.000000	99.205954 
2290.000000	99.202260 
2289.000000	99.202784 
2288.000000	99.204663 
2287.000000	99.205465 
2286.000000	99.205687 
2285.000000	99.206661 
2284.000000	99.208454 
2283.000000	99.210181 
2282.000000	99.210439 
2281.000000	99.206869 
2280.000000	99.197355 
2279.000000	99.183567 
2278.000000	99.172208 
2277.000000	99.170300 
2276.000000	99.178596 
2275.000000	99.191083 
2274.000000	99.200992 
2273.000000	99.205111 
2272.000000	99.201856 
2271.000000	99.189213 
2270.000000	99.168838 
2269.000000	99.150322 
2268.000000	99.145501 
2267.000000	99.156795 
2266.000000	99.174492 
2265.000000	99.186911 
2264.000000	99.190305 
2263.000000	99.188140 
2262.000000	99.185554 
2261.000000	99.187168 
2260.000000	99.195402 
2259.000000	99.206143 
2258.000000	99.209165 
2257.000000	99.198277 
2256.000000	99.179584 
2255.000000	99.164970 
2254.000000	99.158828 
2253.000000	99.156298 
2252.000000	99.153449 
2251.000000	99.152762 
2250.000000	99.157574 
2249.000000	99.166588 
2248.000000	99.176314 
2247.000000	99.184729 
2246.000000	99.189931 
2245.000000	99.188633 
2244.000000	99.179437 
2243.000000	99.166495 
2242.000000	99.157242 
2241.000000	99.156187 
2240.000000	99.161143 
2239.000000	99.165056 
2238.000000	99.161586 
2237.000000	99.149932 
2236.000000	99.134509 
2235.000000	99.120001 
2234.000000	99.108330 
2233.000000	99.101131 
2232.000000	99.101991 
2231.000000	99.113034 
2230.000000	99.130839 
2229.000000	99.149116 
2228.000000	99.164634 
2227.000000	99.177170 
2226.000000	99.184593 
2225.000000	99.182501 
2224.000000	99.169500 
2223.000000	99.149797 
2222.000000	99.130253 
2221.000000	99.117142 
2220.000000	99.114558 
2219.000000	99.122095 
2218.000000	99.133933 
2217.000000	99.143489 
2216.000000	99.149438 
2215.000000	99.154402 
2214.000000	99.158304 
2213.000000	99.157208 
2212.000000	99.149575 
2211.000000	99.140291 
2210.000000	99.137157 
2209.000000	99.144979 
2208.000000	99.162345 
2207.000000	99.181380 
2206.000000	99.191101 
2205.000000	99.184644 
2204.000000	99.164458 
2203.000000	99.139230 
2202.000000	99.117007 
2201.000000	99.102483 
2200.000000	99.096920 
2199.000000	99.096383 
2198.000000	99.092856 
2197.000000	99.082725 
2196.000000	99.072996 
2195.000000	99.073942 
2194.000000	99.086678 
2193.000000	99.102742 
2192.000000	99.114250 
2191.000000	99.118845 
2190.000000	99.116587 
2189.000000	99.109706 
2188.000000	99.105106 
2187.000000	99.109348 
2186.000000	99.120223 
2185.000000	99.129773 
2184.000000	99.135623 
2183.000000	99.141657 
2182.000000	99.147537 
2181.000000	99.147541 
2180.000000	99.141920 
2179.000000	99.139087 
2178.000000	99.142620 
2177.000000	99.145125 
2176.000000	99.139814 
2175.000000	99.130439 
2174.000000	99.124018 
2173.000000	99.120095 
2172.000000	99.113362 
2171.000000	99.102325 
2170.000000	99.090487 
2169.000000	99.082507 
2168.000000	99.081998 
2167.000000	99.088771 
2166.000000	99.095805 
2165.000000	99.094473 
2164.000000	99.086014 
2163.000000	99.081533 
2162.000000	99.087115 
2161.000000	99.095708 
2160.000000	99.097941 
2159.000000	99.093898 
2158.000000	99.088734 
2157.000000	99.085018 
2156.000000	99.086020 
2155.000000	99.097177 
2154.000000	99.116687 
2153.000000	99.132067 
2152.000000	99.133567 
2151.000000	99.126357 
2150.000000	99.123891 
2149.000000	99.133510 
2148.000000	99.152594 
2147.000000	99.173334 
2146.000000	99.185979 
2145.000000	99.183157 
2144.000000	99.168136 
2143.000000	99.154882 
2142.000000	99.154130 
2141.000000	99.162412 
2140.000000	99.169207 
2139.000000	99.170492 
2138.000000	99.169003 
2137.000000	99.165518 
2136.000000	99.158523 
2135.000000	99.151464 
2134.000000	99.152204 
2133.000000	99.163000 
2132.000000	99.175614 
2131.000000	99.178234 
2130.000000	99.165339 
2129.000000	99.141733 
2128.000000	99.119300 
2127.000000	99.108368 
2126.000000	99.109739 
2125.000000	99.116015 
2124.000000	99.122205 
2123.000000	99.131927 
2122.000000	99.149481 
2121.000000	99.169015 
2120.000000	99.178181 
2119.000000	99.172695 
2118.000000	99.161605 
2117.000000	99.156307 
2116.000000	99.158477 
2115.000000	99.161272 
2114.000000	99.159203 
2113.000000	99.153334 
2112.000000	99.147883 
2111.000000	99.144811 
2110.000000	99.142667 
2109.000000	99.139677 
2108.000000	99.136825 
2107.000000	99.136888 
2106.000000	99.140026 
2105.000000	99.141425 
2104.000000	99.135137 
2103.000000	99.120661 
2102.000000	99.104731 
2101.000000	99.096086 
2100.000000	99.098340 
2099.000000	99.107618 
2098.000000	99.116871 
2097.000000	99.122624 
2096.000000	99.127058 
2095.000000	99.132342 
2094.000000	99.134225 
2093.000000	99.125447 
2092.000000	99.106736 
2091.000000	99.090099 
2090.000000	99.087340 
2089.000000	99.096744 
2088.000000	99.105079 
2087.000000	99.102977 
2086.000000	99.094580 
2085.000000	99.091049 
2084.000000	99.097535 
2083.000000	99.108696 
2082.000000	99.115653 
2081.000000	99.115033 
2080.000000	99.111006 
2079.000000	99.109775 
2078.000000	99.113700 
2077.000000	99.121274 
2076.000000	99.131034 
2075.000000	99.142398 
2074.000000	99.152262 
2073.000000	99.154729 
2072.000000	99.147006 
2071.000000	99.133416 
2070.000000	99.120777 
2069.000000	99.111459 
2068.000000	99.104022 
2067.000000	99.099086 
2066.000000	99.099836 
2065.000000	99.105906 
2064.000000	99.111206 
2063.000000	99.110613 
2062.000000	99.106299 
2061.000000	99.105089 
2060.000000	99.110899 
2059.000000	99.121615 
2058.000000	99.132369 
2057.000000	99.139631 
2056.000000	99.142056 
2055.000000	99.139316 
2054.000000	99.131805 
2053.000000	99.121619 
2052.000000	99.112353 
2051.000000	99.106668 
2050.000000	99.103828 
2049.000000	99.099794 
2048.000000	99.090467 
2047.000000	99.075468 
2046.000000	99.058857 
2045.000000	99.046413 
2044.000000	99.041954 
2043.000000	99.045306 
2042.000000	99.053164 
2041.000000	99.061844 
2040.000000	99.069342 
2039.000000	99.074659 
2038.000000	99.076087 
2037.000000	99.071925 
2036.000000	99.062818 
2035.000000	99.051659 
2034.000000	99.040907 
2033.000000	99.031417 
2032.000000	99.023784 
2031.000000	99.018776 
2030.000000	99.016188 
2029.000000	99.015020 
2028.000000	99.015031 
2027.000000	99.016785 
2026.000000	99.020318 
2025.000000	99.025671 
2024.000000	99.033646 
2023.000000	99.043045 
2022.000000	99.047910 
2021.000000	99.042259 
2020.000000	99.029378 
2019.000000	99.021832 
2018.000000	99.028826 
2017.000000	99.045218 
2016.000000	99.056412 
2015.000000	99.053341 
2014.000000	99.039484 
2013.000000	99.025314 
2012.000000	99.019486 
2011.000000	99.024491 
2010.000000	99.037785 
2009.000000	99.054937 
2008.000000	99.071505 
2007.000000	99.082734 
2006.000000	99.083788 
2005.000000	99.073584 
2004.000000	99.057624 
2003.000000	99.043827 
2002.000000	99.035405 
2001.000000	99.029807 
2000.000000	99.024518 
1999.000000	99.020618 
1998.000000	99.021018 
1997.000000	99.028337 
1996.000000	99.043957 
1995.000000	99.065668 
1994.000000	99.085539 
1993.000000	99.093775 
1992.000000	99.087594 
1991.000000	99.073934 
1990.000000	99.061348 
1989.000000	99.053513 
1988.000000	99.051727 
1987.000000	99.057513 
1986.000000	99.069028 
1985.000000	99.079140 
1984.000000	99.081836 
1983.000000	99.078615 
1982.000000	99.074295 
1981.000000	99.067979 
1980.000000	99.053220 
1979.000000	99.027594 
1978.000000	98.999266 
1977.000000	98.981206 
1976.000000	98.978703 
1975.000000	98.985880 
1974.000000	98.995542 
1973.000000	99.009150 
1972.000000	99.033488 
1971.000000	99.067257 
1970.000000	99.095053 
1969.000000	99.099161 
1968.000000	99.077718 
1967.000000	99.047877 
1966.000000	99.029155 
1965.000000	99.027147 
1964.000000	99.035122 
1963.000000	99.045373 
1962.000000	99.054251 
1961.000000	99.060280 
1960.000000	99.063379 
1959.000000	99.065973 
1958.000000	99.071317 
1957.000000	99.079354 
1956.000000	99.085967 
1955.000000	99.087197 
1954.000000	99.083447 
1953.000000	99.078718 
1952.000000	99.075530 
1951.000000	99.072171 
1950.000000	99.065570 
1949.000000	99.056438 
1948.000000	99.050128 
1947.000000	99.050122 
1946.000000	99.051731 
1945.000000	99.045586 
1944.000000	99.028681 
1943.000000	99.010255 
1942.000000	99.004018 
1941.000000	99.013952 
1940.000000	99.030897 
1939.000000	99.043391 
1938.000000	99.048809 
1937.000000	99.053838 
1936.000000	99.065022 
1935.000000	99.079961 
1934.000000	99.090456 
1933.000000	99.093808 
1932.000000	99.096604 
1931.000000	99.105724 
1930.000000	99.118207 
1929.000000	99.125024 
1928.000000	99.123847 
1927.000000	99.121319 
1926.000000	99.123495 
1925.000000	99.128583 
1924.000000	99.131623 
1923.000000	99.132307 
1922.000000	99.133639 
1921.000000	99.135675 
1920.000000	99.134383 
1919.000000	99.125961 
1918.000000	99.110947 
1917.000000	99.095351 
1916.000000	99.086755 
1915.000000	99.087679 
1914.000000	99.094273 
1913.000000	99.101500 
1912.000000	99.107828 
1911.000000	99.113864 
1910.000000	99.116704 
1909.000000	99.111943 
1908.000000	99.102498 
1907.000000	99.097729 
1906.000000	99.102483 
1905.000000	99.110905 
1904.000000	99.114414 
1903.000000	99.111906 
1902.000000	99.107460 
1901.000000	99.103882 
1900.000000	99.102737 
1899.000000	99.106326 
1898.000000	99.115651 
1897.000000	99.127060 
1896.000000	99.134833 
1895.000000	99.136866 
1894.000000	99.134811 
1893.000000	99.131039 
1892.000000	99.127920 
1891.000000	99.127544 
1890.000000	99.128897 
1889.000000	99.127671 
1888.000000	99.122313 
1887.000000	99.116729 
1886.000000	99.115260 
1885.000000	99.118744 
1884.000000	99.125793 
1883.000000	99.134721 
1882.000000	99.141920 
1881.000000	99.142853 
1880.000000	99.138185 
1879.000000	99.134672 
1878.000000	99.137894 
1877.000000	99.146175 
1876.000000	99.153283 
1875.000000	99.155323 
1874.000000	99.151946 
1873.000000	99.143707 
1872.000000	99.132519 
1871.000000	99.122296 
1870.000000	99.115441 
1869.000000	99.109978 
1868.000000	99.105634 
1867.000000	99.107994 
1866.000000	99.118891 
1865.000000	99.129961 
1864.000000	99.130787 
1863.000000	99.120129 
1862.000000	99.106824 
1861.000000	99.100591 
1860.000000	99.105022 
1859.000000	99.118046 
1858.000000	99.134106 
1857.000000	99.146212 
1856.000000	99.150866 
1855.000000	99.151622 
1854.000000	99.154026 
1853.000000	99.157984 
1852.000000	99.159372 
1851.000000	99.156273 
1850.000000	99.151900 
1849.000000	99.151057 
1848.000000	99.154498 
1847.000000	99.158163 
1846.000000	99.157045 
1845.000000	99.150348 
1844.000000	99.143570 
1843.000000	99.143723 
1842.000000	99.150411 
1841.000000	99.157197 
1840.000000	99.159917 
1839.000000	99.158520 
1838.000000	99.154955 
1837.000000	99.150895 
1836.000000	99.147962 
1835.000000	99.147835 
1834.000000	99.149762 
1833.000000	99.150839 
1832.000000	99.149194 
1831.000000	99.145297 
1830.000000	99.141628 
1829.000000	99.140972 
1828.000000	99.143294 
1827.000000	99.145596 
1826.000000	99.145459 
1825.000000	99.142662 
1824.000000	99.138560 
1823.000000	99.134769 
1822.000000	99.130925 
1821.000000	99.125902 
1820.000000	99.121107 
1819.000000	99.120798 
1818.000000	99.127786 
1817.000000	99.137847 
1816.000000	99.144351 
1815.000000	99.147429 
1814.000000	99.152157 
1813.000000	99.160358 
1812.000000	99.167675 
1811.000000	99.171045 
1810.000000	99.173135 
1809.000000	99.175459 
1808.000000	99.175931 
1807.000000	99.173905 
1806.000000	99.171246 
1805.000000	99.168614 
1804.000000	99.165627 
1803.000000	99.163842 
1802.000000	99.164508 
1801.000000	99.164904 
1800.000000	99.160706 
1799.000000	99.153828 
1798.000000	99.151056 
1797.000000	99.154737 
1796.000000	99.161632 
1795.000000	99.167897 
1794.000000	99.171483 
1793.000000	99.170742 
1792.000000	99.164580 
1791.000000	99.157391 
1790.000000	99.154817 
1789.000000	99.155795 
1788.000000	99.156704 
1787.000000	99.157322 
1786.000000	99.159987 
1785.000000	99.164091 
1784.000000	99.165962 
1783.000000	99.163564 
1782.000000	99.157063 
1781.000000	99.149059 
1780.000000	99.142175 
1779.000000	99.137892 
1778.000000	99.136941 
1777.000000	99.139248 
1776.000000	99.144788 
1775.000000	99.151754 
1774.000000	99.157338 
1773.000000	99.160593 
1772.000000	99.161707 
1771.000000	99.161373 
1770.000000	99.160768 
1769.000000	99.159763 
1768.000000	99.157705 
1767.000000	99.155090 
1766.000000	99.153576 
1765.000000	99.154321 
1764.000000	99.156155 
1763.000000	99.156282 
1762.000000	99.152640 
1761.000000	99.147065 
1760.000000	99.142234 
1759.000000	99.139562 
1758.000000	99.140841 
1757.000000	99.147868 
1756.000000	99.158169 
1755.000000	99.164238 
1754.000000	99.162516 
1753.000000	99.158112 
1752.000000	99.158063 
1751.000000	99.159941 
1750.000000	99.155410 
1749.000000	99.143954 
1748.000000	99.134206 
1747.000000	99.131967 
1746.000000	99.134473 
1745.000000	99.137343 
1744.000000	99.138135 
1743.000000	99.136204 
1742.000000	99.133047 
1741.000000	99.131309 
1740.000000	99.132311 
1739.000000	99.135494 
1738.000000	99.138901 
1737.000000	99.140670 
1736.000000	99.141342 
1735.000000	99.144742 
1734.000000	99.148403 
1733.000000	99.147082 
1732.000000	99.142537 
1731.000000	99.137642 
1730.000000	99.135099 
1729.000000	99.136554 
1728.000000	99.140525 
1727.000000	99.143648 
1726.000000	99.144047 
1725.000000	99.143662 
1724.000000	99.144222 
1723.000000	99.146508 
1722.000000	99.150734 
1721.000000	99.156136 
1720.000000	99.162423 
1719.000000	99.170841 
1718.000000	99.179780 
1717.000000	99.180678 
1716.000000	99.171735 
1715.000000	99.164024 
1714.000000	99.164254 
1713.000000	99.166964 
1712.000000	99.165306 
1711.000000	99.161009 
1710.000000	99.159742 
1709.000000	99.161820 
1708.000000	99.162611 
1707.000000	99.160281 
1706.000000	99.158570 
1705.000000	99.158154 
1704.000000	99.155850 
1703.000000	99.151142 
1702.000000	99.148183 
1701.000000	99.150397 
1700.000000	99.149853 
1699.000000	99.144983 
1698.000000	99.143512 
1697.000000	99.144353 
1696.000000	99.144086 
1695.000000	99.143053 
1694.000000	99.142922 
1693.000000	99.143003 
1692.000000	99.143014 
1691.000000	99.145934 
1690.000000	99.151895 
1689.000000	99.157625 
1688.000000	99.161966 
1687.000000	99.165727 
1686.000000	99.171536 
1685.000000	99.178885 
1684.000000	99.178710 
1683.000000	99.171853 
1682.000000	99.165638 
1681.000000	99.160934 
1680.000000	99.160345 
1679.000000	99.163641 
1678.000000	99.165659 
1677.000000	99.164318 
1676.000000	99.163499 
1675.000000	99.165720 
1674.000000	99.168068 
1673.000000	99.169263 
1672.000000	99.170223 
1671.000000	99.172273 
1670.000000	99.172262 
1669.000000	99.166714 
1668.000000	99.160669 
1667.000000	99.157996 
1666.000000	99.156714 
1665.000000	99.154897 
1664.000000	99.153103 
1663.000000	99.152775 
1662.000000	99.152263 
1661.000000	99.151062 
1660.000000	99.152513 
1659.000000	99.157909 
1658.000000	99.163708 
1657.000000	99.165366 
1656.000000	99.162689 
1655.000000	99.158241 
1654.000000	99.157678 
1653.000000	99.158034 
1652.000000	99.160141 
1651.000000	99.166344 
1650.000000	99.168839 
1649.000000	99.167812 
1648.000000	99.167557 
1647.000000	99.166181 
1646.000000	99.162176 
1645.000000	99.158944 
1644.000000	99.158816 
1643.000000	99.161979 
1642.000000	99.166976 
1641.000000	99.171272 
1640.000000	99.173236 
1639.000000	99.172800 
1638.000000	99.171070 
1637.000000	99.169935 
1636.000000	99.170351 
1635.000000	99.170906 
1634.000000	99.171270 
1633.000000	99.170198 
1632.000000	99.166776 
1631.000000	99.163168 
1630.000000	99.160432 
1629.000000	99.158125 
1628.000000	99.156939 
1627.000000	99.157845 
1626.000000	99.158879 
1625.000000	99.157947 
1624.000000	99.156563 
1623.000000	99.157291 
1622.000000	99.159296 
1621.000000	99.160720 
1620.000000	99.162154 
1619.000000	99.164857 
1618.000000	99.168498 
1617.000000	99.169669 
1616.000000	99.168912 
1615.000000	99.170425 
1614.000000	99.173486 
1613.000000	99.175951 
1612.000000	99.179010 
1611.000000	99.182764 
1610.000000	99.182956 
1609.000000	99.177554 
1608.000000	99.171517 
1607.000000	99.169711 
1606.000000	99.169993 
1605.000000	99.169433 
1604.000000	99.169410 
1603.000000	99.170857 
1602.000000	99.171962 
1601.000000	99.172069 
1600.000000	99.173529 
1599.000000	99.177102 
1598.000000	99.180067 
1597.000000	99.180556 
1596.000000	99.179865 
1595.000000	99.179307 
1594.000000	99.177870 
1593.000000	99.175757 
1592.000000	99.176474 
1591.000000	99.181926 
1590.000000	99.188431 
1589.000000	99.191613 
1588.000000	99.192263 
1587.000000	99.193593 
1586.000000	99.195338 
1585.000000	99.195275 
1584.000000	99.195243 
1583.000000	99.197618 
1582.000000	99.200242 
1581.000000	99.200302 
1580.000000	99.199041 
1579.000000	99.198377 
1578.000000	99.197921 
1577.000000	99.196798 
1576.000000	99.194846 
1575.000000	99.193031 
1574.000000	99.190534 
1573.000000	99.186982 
1572.000000	99.184777 
1571.000000	99.186186 
1570.000000	99.187797 
1569.000000	99.185913 
1568.000000	99.184473 
1567.000000	99.185082 
1566.000000	99.184808 
1565.000000	99.182607 
1564.000000	99.181099 
1563.000000	99.179958 
1562.000000	99.178501 
1561.000000	99.177337 
1560.000000	99.186307 
1559.000000	99.191771 
1558.000000	99.180946 
1557.000000	99.172639 
1556.000000	99.172352 
1555.000000	99.175864 
1554.000000	99.179215 
1553.000000	99.178897 
1552.000000	99.175453 
1551.000000	99.170824 
1550.000000	99.168836 
1549.000000	99.170974 
1548.000000	99.175638 
1547.000000	99.179417 
1546.000000	99.179384 
1545.000000	99.175302 
1544.000000	99.170379 
1543.000000	99.169755 
1542.000000	99.176887 
1541.000000	99.189042 
1540.000000	99.196927 
1539.000000	99.198848 
1538.000000	99.199179 
1537.000000	99.197652 
1536.000000	99.194909 
1535.000000	99.194559 
1534.000000	99.194969 
1533.000000	99.191029 
1532.000000	99.184255 
1531.000000	99.181041 
1530.000000	99.183321 
1529.000000	99.187365 
1528.000000	99.189188 
1527.000000	99.189539 
1526.000000	99.191422 
1525.000000	99.195015 
1524.000000	99.198418 
1523.000000	99.202399 
1522.000000	99.207928 
1521.000000	99.209790 
1520.000000	99.204053 
1519.000000	99.193128 
1518.000000	99.181589 
1517.000000	99.173467 
1516.000000	99.169284 
1515.000000	99.167075 
1514.000000	99.165719 
1513.000000	99.166352 
1512.000000	99.168474 
1511.000000	99.168572 
1510.000000	99.165136 
1509.000000	99.159894 
1508.000000	99.158053 
1507.000000	99.162192 
1506.000000	99.170213 
1505.000000	99.175766 
1504.000000	99.175105 
1503.000000	99.171292 
1502.000000	99.168998 
1501.000000	99.168752 
1500.000000	99.167173 
1499.000000	99.162192 
1498.000000	99.157343 
1497.000000	99.155916 
1496.000000	99.155233 
1495.000000	99.155484 
1494.000000	99.160333 
1493.000000	99.169547 
1492.000000	99.178906 
1491.000000	99.183753 
1490.000000	99.181836 
1489.000000	99.174530 
1488.000000	99.165224 
1487.000000	99.159052 
1486.000000	99.157296 
1485.000000	99.154836 
1484.000000	99.149290 
1483.000000	99.143277 
1482.000000	99.141071 
1481.000000	99.142869 
1480.000000	99.144863 
1479.000000	99.145192 
1478.000000	99.145059 
1477.000000	99.144457 
1476.000000	99.141652 
1475.000000	99.138655 
1474.000000	99.138695 
1473.000000	99.139732 
1472.000000	99.136620 
1471.000000	99.130774 
1470.000000	99.126892 
1469.000000	99.124894 
1468.000000	99.122531 
1467.000000	99.119999 
1466.000000	99.119219 
1465.000000	99.120235 
1464.000000	99.121118 
1463.000000	99.120519 
1462.000000	99.119074 
1461.000000	99.116896 
1460.000000	99.113325 
1459.000000	99.107140 
1458.000000	99.098399 
1457.000000	99.087640 
1456.000000	99.077323 
1455.000000	99.069690 
1454.000000	99.064890 
1453.000000	99.064981 
1452.000000	99.070414 
1451.000000	99.077722 
1450.000000	99.084195 
1449.000000	99.089422 
1448.000000	99.092283 
1447.000000	99.092397 
1446.000000	99.091309 
1445.000000	99.092181 
1444.000000	99.096194 
1443.000000	99.101187 
1442.000000	99.105373 
1441.000000	99.108636 
1440.000000	99.110894 
1439.000000	99.111248 
1438.000000	99.112141 
1437.000000	99.116319 
1436.000000	99.120708 
1435.000000	99.120723 
1434.000000	99.117259 
1433.000000	99.113371 
1432.000000	99.109977 
1431.000000	99.105008 
1430.000000	99.098069 
1429.000000	99.092583 
1428.000000	99.090153 
1427.000000	99.089259 
1426.000000	99.087734 
1425.000000	99.086790 
1424.000000	99.087086 
1423.000000	99.084476 
1422.000000	99.075873 
1421.000000	99.062914 
1420.000000	99.048820 
1419.000000	99.033730 
1418.000000	99.019609 
1417.000000	99.009143 
1416.000000	98.999037 
1415.000000	98.985199 
1414.000000	98.968088 
1413.000000	98.951944 
1412.000000	98.939902 
1411.000000	98.930479 
1410.000000	98.921473 
1409.000000	98.912985 
1408.000000	98.905636 
1407.000000	98.900486 
1406.000000	98.898886 
1405.000000	98.902879 
1404.000000	98.912920 
1403.000000	98.926047 
1402.000000	98.940033 
1401.000000	98.955419 
1400.000000	98.972153 
1399.000000	98.984888 
1398.000000	98.985488 
1397.000000	98.968406 
1396.000000	98.934231 
1395.000000	98.895839 
1394.000000	98.876384 
1393.000000	98.889713 
1392.000000	98.925597 
1391.000000	98.962298 
1390.000000	98.985560 
1389.000000	98.993667 
1388.000000	98.991139 
1387.000000	98.982121 
1386.000000	98.970419 
1385.000000	98.960692 
1384.000000	98.955490 
1383.000000	98.952898 
1382.000000	98.949873 
1381.000000	98.946521 
1380.000000	98.946332 
1379.000000	98.951765 
1378.000000	98.961357 
1377.000000	98.972064 
1376.000000	98.982286 
1375.000000	98.991377 
1374.000000	98.998738 
1373.000000	99.005736 
1372.000000	99.014621 
1371.000000	99.025423 
1370.000000	99.035580 
1369.000000	99.043661 
1368.000000	99.050767 
1367.000000	99.057746 
1366.000000	99.064212 
1365.000000	99.070200 
1364.000000	99.076624 
1363.000000	99.083157 
1362.000000	99.087738 
1361.000000	99.089552 
1360.000000	99.090692 
1359.000000	99.094079 
1358.000000	99.100932 
1357.000000	99.110292 
1356.000000	99.119654 
1355.000000	99.126249 
1354.000000	99.129334 
1353.000000	99.130719 
1352.000000	99.132129 
1351.000000	99.133686 
1350.000000	99.134305 
1349.000000	99.134830 
1348.000000	99.137426 
1347.000000	99.141586 
1346.000000	99.144367 
1345.000000	99.144550 
1344.000000	99.143839 
1343.000000	99.143543 
1342.000000	99.143189 
1341.000000	99.143069 
1340.000000	99.145093 
1339.000000	99.149457 
1338.000000	99.153660 
1337.000000	99.156497 
1336.000000	99.159560 
1335.000000	99.163602 
1334.000000	99.166506 
1333.000000	99.166441 
1332.000000	99.164738 
1331.000000	99.163660 
1330.000000	99.163056 
1329.000000	99.161538 
1328.000000	99.159301 
1327.000000	99.157493 
1326.000000	99.155700 
1325.000000	99.152960 
1324.000000	99.149982 
1323.000000	99.148541 
1322.000000	99.149672 
1321.000000	99.153301 
1320.000000	99.158745 
1319.000000	99.164465 
1318.000000	99.168296 
1317.000000	99.168811 
1316.000000	99.166222 
1315.000000	99.161896 
1314.000000	99.157741 
1313.000000	99.155578 
1312.000000	99.155778 
1311.000000	99.156605 
1310.000000	99.156113 
1309.000000	99.154631 
1308.000000	99.154017 
1307.000000	99.154790 
1306.000000	99.155269 
1305.000000	99.154386 
1304.000000	99.153349 
1303.000000	99.153851 
1302.000000	99.156033 
1301.000000	99.158708 
1300.000000	99.160633 
1299.000000	99.161230 
1298.000000	99.161134 
1297.000000	99.161909 
1296.000000	99.164210 
1295.000000	99.166214 
1294.000000	99.165331 
1293.000000	99.161405 
1292.000000	99.156779 
1291.000000	99.153468 
1290.000000	99.151861 
1289.000000	99.151903 
1288.000000	99.153394 
1287.000000	99.154751 
1286.000000	99.153680 
1285.000000	99.149936 
1284.000000	99.145652 
1283.000000	99.142413 
1282.000000	99.139663 
1281.000000	99.136518 
1280.000000	99.133348 
1279.000000	99.130488 
1278.000000	99.127293 
1277.000000	99.123703 
1276.000000	99.121084 
1275.000000	99.119894 
1274.000000	99.117810 
1273.000000	99.111911 
1272.000000	99.102004 
1271.000000	99.090591 
1270.000000	99.080320 
1269.000000	99.072573 
1268.000000	99.067562 
1267.000000	99.064061 
1266.000000	99.059695 
1265.000000	99.052944 
1264.000000	99.044572 
1263.000000	99.036166 
1262.000000	99.027841 
1261.000000	99.018632 
1260.000000	99.008853 
1259.000000	99.000388 
1258.000000	98.994537 
1257.000000	98.990757 
1256.000000	98.987891 
1255.000000	98.985761 
1254.000000	98.984994 
1253.000000	98.985722 
1252.000000	98.987124 
1251.000000	98.988441 
1250.000000	98.990228 
1249.000000	98.994253 
1248.000000	99.001788 
1247.000000	99.011657 
1246.000000	99.019741 
1245.000000	99.020505 
1244.000000	99.010550 
1243.000000	98.993022 
1242.000000	98.978335 
1241.000000	98.977230 
1240.000000	98.990913 
1239.000000	99.009253 
1238.000000	99.020397 
1237.000000	99.021132 
1236.000000	99.016327 
1235.000000	99.010727 
1234.000000	99.004971 
1233.000000	98.998533 
1232.000000	98.992047 
1231.000000	98.985670 
1230.000000	98.978668 
1229.000000	98.972339 
1228.000000	98.970643 
1227.000000	98.975723 
1226.000000	98.984360 
1225.000000	98.990984 
1224.000000	98.993359 
1223.000000	98.993827 
1222.000000	98.995840 
1221.000000	99.000855 
1220.000000	99.008216 
1219.000000	99.016534 
1218.000000	99.024807 
1217.000000	99.032632 
1216.000000	99.039612 
1215.000000	99.044990 
1214.000000	99.048330 
1213.000000	99.050057 
1212.000000	99.050649 
1211.000000	99.050114 
1210.000000	99.049286 
1209.000000	99.050556 
1208.000000	99.055531 
1207.000000	99.062499 
1206.000000	99.068002 
1205.000000	99.070548 
1204.000000	99.070997 
1203.000000	99.070084 
1202.000000	99.068089 
1201.000000	99.066629 
1200.000000	99.067799 
1199.000000	99.071052 
1198.000000	99.073585 
1197.000000	99.074358 
1196.000000	99.074914 
1195.000000	99.075562 
1194.000000	99.073943 
1193.000000	99.069010 
1192.000000	99.063522 
1191.000000	99.060306 
1190.000000	99.058315 
1189.000000	99.054927 
1188.000000	99.050483 
1187.000000	99.047819 
1186.000000	99.048240 
1185.000000	99.050354 
1184.000000	99.052333 
1183.000000	99.053281 
1182.000000	99.052787 
1181.000000	99.051077 
1180.000000	99.049449 
1179.000000	99.048946 
1178.000000	99.048745 
1177.000000	99.047236 
1176.000000	99.044359 
1175.000000	99.041332 
1174.000000	99.038223 
1173.000000	99.033523 
1172.000000	99.026538 
1171.000000	99.018895 
1170.000000	99.013015 
1169.000000	99.009689 
1168.000000	99.007595 
1167.000000	99.004854 
1166.000000	99.000901 
1165.000000	98.997081 
1164.000000	98.995398 
1163.000000	98.996604 
1162.000000	98.999696 
1161.000000	99.003371 
1160.000000	99.007501 
1159.000000	99.012643 
1158.000000	99.018162 
1157.000000	99.021231 
1156.000000	99.018326 
1155.000000	99.008790 
1154.000000	98.997291 
1153.000000	98.991238 
1152.000000	98.994055 
1151.000000	99.001376 
1150.000000	99.005389 
1149.000000	99.002752 
1148.000000	98.996707 
1147.000000	98.991894 
1146.000000	98.989340 
1145.000000	98.986799 
1144.000000	98.981797 
1143.000000	98.973582 
1142.000000	98.963981 
1141.000000	98.957205 
1140.000000	98.956851 
1139.000000	98.961748 
1138.000000	98.966118 
1137.000000	98.965064 
1136.000000	98.958872 
1135.000000	98.951183 
1134.000000	98.944393 
1133.000000	98.937862 
1132.000000	98.929556 
1131.000000	98.918578 
1130.000000	98.907007 
1129.000000	98.899278 
1128.000000	98.897883 
1127.000000	98.899177 
1126.000000	98.895917 
1125.000000	98.885401 
1124.000000	98.872874 
1123.000000	98.865086 
1122.000000	98.862423 
1121.000000	98.859530 
1120.000000	98.852009 
1119.000000	98.839889 
1118.000000	98.825660 
1117.000000	98.811796 
1116.000000	98.800174 
1115.000000	98.791606 
1114.000000	98.785286 
1113.000000	98.779662 
1112.000000	98.773567 
1111.000000	98.765472 
1110.000000	98.752656 
1109.000000	98.733448 
1108.000000	98.710406 
1107.000000	98.689795 
1106.000000	98.676719 
1105.000000	98.670695 
1104.000000	98.666227 
1103.000000	98.658014 
1102.000000	98.646077 
1101.000000	98.635697 
1100.000000	98.631008 
1099.000000	98.630163 
1098.000000	98.628039 
1097.000000	98.623203 
1096.000000	98.618996 
1095.000000	98.616870 
1094.000000	98.612305 
1093.000000	98.599147 
1092.000000	98.575460 
1091.000000	98.543450 
1090.000000	98.506672 
1089.000000	98.469611 
1088.000000	98.437067 
1087.000000	98.410421 
1086.000000	98.386027 
1085.000000	98.360153 
1084.000000	98.333706 
1083.000000	98.309139 
1082.000000	98.284923 
1081.000000	98.257239 
1080.000000	98.225969 
1079.000000	98.195116 
1078.000000	98.168169 
1077.000000	98.146908 
1076.000000	98.133891 
1075.000000	98.131479 
1074.000000	98.138081 
1073.000000	98.148823 
1072.000000	98.159063 
1071.000000	98.163249 
1070.000000	98.152335 
1069.000000	98.119957 
1068.000000	98.073865 
1067.000000	98.036043 
1066.000000	98.026529 
1065.000000	98.047738 
1064.000000	98.085549 
1063.000000	98.121657 
1062.000000	98.142446 
1061.000000	98.140948 
1060.000000	98.117748 
1059.000000	98.082442 
1058.000000	98.050596 
1057.000000	98.034669 
1056.000000	98.036050 
1055.000000	98.045872 
1054.000000	98.053844 
1053.000000	98.056564 
1052.000000	98.057404 
1051.000000	98.059520 
1050.000000	98.061479 
1049.000000	98.060460 
1048.000000	98.057114 
1047.000000	98.055399 
1046.000000	98.059228 
1045.000000	98.070120 
1044.000000	98.086122 
1043.000000	98.102091 
1042.000000	98.113503 
1041.000000	98.121249 
1040.000000	98.130628 
1039.000000	98.145107 
1038.000000	98.164205 
1037.000000	98.188052 
1036.000000	98.219084 
1035.000000	98.256460 
1034.000000	98.293203 
1033.000000	98.322428 
1032.000000	98.342465 
1031.000000	98.352664 
1030.000000	98.350104 
1029.000000	98.337178 
1028.000000	98.328238 
1027.000000	98.339300 
1026.000000	98.370445 
1025.000000	98.405286 
1024.000000	98.428653 
1023.000000	98.438736 
1022.000000	98.441856 
1021.000000	98.443131 
1020.000000	98.445556 
1019.000000	98.452012 
1018.000000	98.462751 
1017.000000	98.473792 
1016.000000	98.481811 
1015.000000	98.488677 
1014.000000	98.498115 
1013.000000	98.509719 
1012.000000	98.519438 
1011.000000	98.525016 
1010.000000	98.528413 
1009.000000	98.533282 
1008.000000	98.541898 
1007.000000	98.554288 
1006.000000	98.568776 
1005.000000	98.583129 
1004.000000	98.595871 
1003.000000	98.606992 
1002.000000	98.618074 
1001.000000	98.631923 
1000.000000	98.650426 
999.000000	 98.671135 
998.000000	 98.687569 
997.000000	 98.695910 
996.000000	 98.700740 
995.000000	 98.710701 
994.000000	 98.728040 
993.000000	 98.745843 
992.000000	 98.756650 
991.000000	 98.760286 
990.000000	 98.761167 
989.000000	 98.761213 
988.000000	 98.759191 
987.000000	 98.755661 
986.000000	 98.754530 
985.000000	 98.758710 
984.000000	 98.766373 
983.000000	 98.772826 
982.000000	 98.775437 
981.000000	 98.775866 
980.000000	 98.777390 
979.000000	 98.780758 
978.000000	 98.783819 
977.000000	 98.785478 
976.000000	 98.788198 
975.000000	 98.794729 
974.000000	 98.803616 
973.000000	 98.810979 
972.000000	 98.816627 
971.000000	 98.824989 
970.000000	 98.838697 
969.000000	 98.854295 
968.000000	 98.866550 
967.000000	 98.874898 
966.000000	 98.883021 
965.000000	 98.893322 
964.000000	 98.904533 
963.000000	 98.914387 
962.000000	 98.922172 
961.000000	 98.928365 
960.000000	 98.933548 
959.000000	 98.938156 
958.000000	 98.941945 
957.000000	 98.943289 
956.000000	 98.940271 
955.000000	 98.933289 
954.000000	 98.925973 
953.000000	 98.922895 
952.000000	 98.926343 
951.000000	 98.934863 
950.000000	 98.944163 
949.000000	 98.949730 
948.000000	 98.949702 
947.000000	 98.945719 
946.000000	 98.940725 
945.000000	 98.936328 
944.000000	 98.933267 
943.000000	 98.933795 
942.000000	 98.941050 
941.000000	 98.954738 
940.000000	 98.969179 
939.000000	 98.977952 
938.000000	 98.980202 
937.000000	 98.980421 
936.000000	 98.982177 
935.000000	 98.984658 
934.000000	 98.986006 
933.000000	 98.987104 
932.000000	 98.989719 
931.000000	 98.992724 
930.000000	 98.992989 
929.000000	 98.989114 
928.000000	 98.981463 
927.000000	 98.969297 
926.000000	 98.951583 
925.000000	 98.931417 
924.000000	 98.916237 
923.000000	 98.911274 
922.000000	 98.914193 
921.000000	 98.917812 
920.000000	 98.916797 
919.000000	 98.910479 
918.000000	 98.901119 
917.000000	 98.891922 
916.000000	 98.886238 
915.000000	 98.886601 
914.000000	 98.893714 
913.000000	 98.906270 
912.000000	 98.920978 
911.000000	 98.933273 
910.000000	 98.940844 
909.000000	 98.947441 
908.000000	 98.960065 
907.000000	 98.980001 
906.000000	 98.999051 
905.000000	 99.007700 
904.000000	 99.005220 
903.000000	 98.998673 
902.000000	 98.993710 
901.000000	 98.990177 
900.000000	 98.985902 
899.000000	 98.980095 
898.000000	 98.971564 
897.000000	 98.957355 
896.000000	 98.935849 
895.000000	 98.910010 
894.000000	 98.886092 
893.000000	 98.869666 
892.000000	 98.863273 
891.000000	 98.866296 
890.000000	 98.875679 
889.000000	 98.887352 
888.000000	 98.898029 
887.000000	 98.906464 
886.000000	 98.913844 
885.000000	 98.922871 
884.000000	 98.934698 
883.000000	 98.945990 
882.000000	 98.951268 
881.000000	 98.950133 
880.000000	 98.950230 
879.000000	 98.960161 
878.000000	 98.980261 
877.000000	 99.002600 
876.000000	 99.018478 
875.000000	 99.023022 
874.000000	 99.015044 
873.000000	 98.997644 
872.000000	 98.978819 
871.000000	 98.966709 
870.000000	 98.962882 
869.000000	 98.963446 
868.000000	 98.966647 
867.000000	 98.974476 
866.000000	 98.985645 
865.000000	 98.992740 
864.000000	 98.990619 
863.000000	 98.984530 
862.000000	 98.985187 
861.000000	 98.996860 
860.000000	 99.014312 
859.000000	 99.030790 
858.000000	 99.044661 
857.000000	 99.057412 
856.000000	 99.069483 
855.000000	 99.081055 
854.000000	 99.094218 
853.000000	 99.110345 
852.000000	 99.126070 
851.000000	 99.135775 
850.000000	 99.138823 
849.000000	 99.140926 
848.000000	 99.146618 
847.000000	 99.153450 
846.000000	 99.156110 
845.000000	 99.153594 
844.000000	 99.148711 
843.000000	 99.142616 
842.000000	 99.134471 
841.000000	 99.125453 
840.000000	 99.117628 
839.000000	 99.108499 
838.000000	 99.092527 
837.000000	 99.070187 
836.000000	 99.050019 
835.000000	 99.038109 
834.000000	 99.030635 
833.000000	 99.022201 
832.000000	 99.017139 
831.000000	 99.024158 
830.000000	 99.040608 
829.000000	 99.051228 
828.000000	 99.046348 
827.000000	 99.034948 
826.000000	 99.034063 
825.000000	 99.048942 
824.000000	 99.069898 
823.000000	 99.086605 
822.000000	 99.098499 
821.000000	 99.110473 
820.000000	 99.124450 
819.000000	 99.138485 
818.000000	 99.151294 
817.000000	 99.164052 
816.000000	 99.176985 
815.000000	 99.185801 
814.000000	 99.183828 
813.000000	 99.168685 
812.000000	 99.145756 
811.000000	 99.123816 
810.000000	 99.107461 
809.000000	 99.094664 
808.000000	 99.081034 
807.000000	 99.064301 
806.000000	 99.044038 
805.000000	 99.019546 
804.000000	 98.991305 
803.000000	 98.964761 
802.000000	 98.949233 
801.000000	 98.949487 
800.000000	 98.958906 
799.000000	 98.964815 
798.000000	 98.962377 
797.000000	 98.960088 
796.000000	 98.968268 
795.000000	 98.984961 
794.000000	 98.998213 
793.000000	 99.001118 
792.000000	 98.998626 
791.000000	 98.998704 
790.000000	 99.002747 
789.000000	 99.007234 
788.000000	 99.009695 
787.000000	 99.009059 
786.000000	 99.003642 
785.000000	 98.992867 
784.000000	 98.979224 
783.000000	 98.966024 
782.000000	 98.955318 
781.000000	 98.949248 
780.000000	 98.949173 
779.000000	 98.950672 
778.000000	 98.944364 
777.000000	 98.926666 
776.000000	 98.906378 
775.000000	 98.895576 
774.000000	 98.896753 
773.000000	 98.904129 
772.000000	 98.914515 
771.000000	 98.929633 
770.000000	 98.948834 
769.000000	 98.966968 
768.000000	 98.980742 
767.000000	 98.991932 
766.000000	 99.003143 
765.000000	 99.014888 
764.000000	 99.027848 
763.000000	 99.043355 
762.000000	 99.059436 
761.000000	 99.069865 
760.000000	 99.070062 
759.000000	 99.063100 
758.000000	 99.058688 
757.000000	 99.065420 
756.000000	 99.081951 
755.000000	 99.094696 
754.000000	 99.087796 
753.000000	 99.059340 
752.000000	 99.025834 
751.000000	 99.006978 
750.000000	 99.007008 
749.000000	 99.013921 
748.000000	 99.014740 
747.000000	 99.006694 
746.000000	 98.994913 
745.000000	 98.985104 
744.000000	 98.979790 
743.000000	 98.977738 
742.000000	 98.975602 
741.000000	 98.972532 
740.000000	 98.973051 
739.000000	 98.982671 
738.000000	 99.000627 
737.000000	 99.018921 
736.000000	 99.027854 
735.000000	 99.021750 
734.000000	 99.003017 
733.000000	 98.983876 
732.000000	 98.980461 
731.000000	 98.999772 
730.000000	 99.033346 
729.000000	 99.067047 
728.000000	 99.093716 
727.000000	 99.111998 
726.000000	 99.118702 
725.000000	 99.111076 
724.000000	 99.094207 
723.000000	 99.077697 
722.000000	 99.065747 
721.000000	 99.057889 
720.000000	 99.058025 
719.000000	 99.072698 
718.000000	 99.098503 
717.000000	 99.119916 
716.000000	 99.122512 
715.000000	 99.103625 
714.000000	 99.071099 
713.000000	 99.038461 
712.000000	 99.020901 
711.000000	 99.026471 
710.000000	 99.047291 
709.000000	 99.065506 
708.000000	 99.070217 
707.000000	 99.063097 
706.000000	 99.047899 
705.000000	 99.024349 
704.000000	 98.996149 
703.000000	 98.975541 
702.000000	 98.972233 
701.000000	 98.982078 
700.000000	 98.992050 
699.000000	 98.993398 
698.000000	 98.987677 
697.000000	 98.983772 
696.000000	 98.990596 
695.000000	 99.008467 
694.000000	 99.026376 
693.000000	 99.032795 
692.000000	 99.030072 
691.000000	 99.032061 
690.000000	 99.047003 
689.000000	 99.069525 
688.000000	 99.089617 
687.000000	 99.100720 
686.000000	 99.097340 
685.000000	 99.075928 
684.000000	 99.043259 
683.000000	 99.014674 
682.000000	 98.999707 
681.000000	 98.996153 
680.000000	 98.998586 
679.000000	 99.002116 
678.000000	 98.997674 
677.000000	 98.978666 
676.000000	 98.957799 
675.000000	 98.957914 
674.000000	 98.980579 
673.000000	 98.999471 
672.000000	 98.992148 
671.000000	 98.966458 
670.000000	 98.950729 
669.000000	 98.971016 
668.000000	 99.022067 
667.000000	 99.069006 
666.000000	 99.097353 
665.000000	 99.110027 
664.000000	 99.120335 
663.000000	 99.152332 
662.000000	 99.210608 
661.000000	 99.262246 
660.000000	 99.268127 
659.000000	 99.225109 
658.000000	 99.163816 
657.000000	 99.109468 
656.000000	 99.064204 
655.000000	 99.025426 
654.000000	 99.000546 
653.000000	 98.996554 
652.000000	 99.007634 
651.000000	 99.019742 
650.000000	 99.019350 

