4000.000000	99.127915 
3999.000000	99.124892 
3998.000000	99.121206 
3997.000000	99.119972 
3996.000000	99.121681 
3995.000000	99.124375 
3994.000000	99.126194 
3993.000000	99.127043 
3992.000000	99.127869 
3991.000000	99.128953 
3990.000000	99.129286 
3989.000000	99.127439 
3988.000000	99.123028 
3987.000000	99.117585 
3986.000000	99.113896 
3985.000000	99.114058 
3984.000000	99.117871 
3983.000000	99.123365 
3982.000000	99.128802 
3981.000000	99.133852 
3980.000000	99.138842 
3979.000000	99.143486 
3978.000000	99.146820 
3977.000000	99.148076 
3976.000000	99.147102 
3975.000000	99.144028 
3974.000000	99.139045 
3973.000000	99.132823 
3972.000000	99.126905 
3971.000000	99.123350 
3970.000000	99.123768 
3969.000000	99.128081 
3968.000000	99.134184 
3967.000000	99.139014 
3966.000000	99.140427 
3965.000000	99.138358 
3964.000000	99.134569 
3963.000000	99.131636 
3962.000000	99.131651 
3961.000000	99.134882 
3960.000000	99.139147 
3959.000000	99.141170 
3958.000000	99.139631 
3957.000000	99.136237 
3956.000000	99.133607 
3955.000000	99.132339 
3954.000000	99.131067 
3953.000000	99.128859 
3952.000000	99.126461 
3951.000000	99.125254 
3950.000000	99.125247 
3949.000000	99.124914 
3948.000000	99.123315 
3947.000000	99.121869 
3946.000000	99.122797 
3945.000000	99.126111 
3944.000000	99.129065 
3943.000000	99.128971 
3942.000000	99.126221 
3941.000000	99.123824 
3940.000000	99.123517 
3939.000000	99.124070 
3938.000000	99.124053 
3937.000000	99.123684 
3936.000000	99.123932 
3935.000000	99.124815 
3934.000000	99.125986 
3933.000000	99.128037 
3932.000000	99.131426 
3931.000000	99.135207 
3930.000000	99.137607 
3929.000000	99.137929 
3928.000000	99.137071 
3927.000000	99.135488 
3926.000000	99.132337 
3925.000000	99.127413 
3924.000000	99.122854 
3923.000000	99.120638 
3922.000000	99.119367 
3921.000000	99.116844 
3920.000000	99.114304 
3919.000000	99.114610 
3918.000000	99.117537 
3917.000000	99.120019 
3916.000000	99.120785 
3915.000000	99.121327 
3914.000000	99.122314 
3913.000000	99.122552 
3912.000000	99.121684 
3911.000000	99.120411 
3910.000000	99.119877 
3909.000000	99.120473 
3908.000000	99.122676 
3907.000000	99.126387 
3906.000000	99.130098 
3905.000000	99.131313 
3904.000000	99.129328 
3903.000000	99.127263 
3902.000000	99.127809 
3901.000000	99.128077 
3900.000000	99.123493 
3899.000000	99.115099 
3898.000000	99.108295 
3897.000000	99.105539 
3896.000000	99.104545 
3895.000000	99.104066 
3894.000000	99.107127 
3893.000000	99.114855 
3892.000000	99.121902 
3891.000000	99.122607 
3890.000000	99.122206 
3889.000000	99.127453 
3888.000000	99.134891 
3887.000000	99.136797 
3886.000000	99.130753 
3885.000000	99.122329 
3884.000000	99.120787 
3883.000000	99.126049 
3882.000000	99.129593 
3881.000000	99.127112 
3880.000000	99.121811 
3879.000000	99.120813 
3878.000000	99.127850 
3877.000000	99.137475 
3876.000000	99.142060 
3875.000000	99.138886 
3874.000000	99.131584 
3873.000000	99.127173 
3872.000000	99.126398 
3871.000000	99.121891 
3870.000000	99.110642 
3869.000000	99.103452 
3868.000000	99.112153 
3867.000000	99.128514 
3866.000000	99.136086 
3865.000000	99.133254 
3864.000000	99.129374 
3863.000000	99.128754 
3862.000000	99.128424 
3861.000000	99.125203 
3860.000000	99.120216 
3859.000000	99.113079 
3858.000000	99.101817 
3857.000000	99.087629 
3856.000000	99.079229 
3855.000000	99.086210 
3854.000000	99.100202 
3853.000000	99.100912 
3852.000000	99.098474 
3851.000000	99.110983 
3850.000000	99.127053 
3849.000000	99.135353 
3848.000000	99.139276 
3847.000000	99.143360 
3846.000000	99.146477 
3845.000000	99.146178 
3844.000000	99.143251 
3843.000000	99.140923 
3842.000000	99.141911 
3841.000000	99.144876 
3840.000000	99.146872 
3839.000000	99.146393 
3838.000000	99.144274 
3837.000000	99.141951 
3836.000000	99.141098 
3835.000000	99.141546 
3834.000000	99.141445 
3833.000000	99.139767 
3832.000000	99.137664 
3831.000000	99.137499 
3830.000000	99.140535 
3829.000000	99.144359 
3828.000000	99.144233 
3827.000000	99.137735 
3826.000000	99.129350 
3825.000000	99.127279 
3824.000000	99.134949 
3823.000000	99.147466 
3822.000000	99.155098 
3821.000000	99.149673 
3820.000000	99.139982 
3819.000000	99.140034 
3818.000000	99.144130 
3817.000000	99.141345 
3816.000000	99.132098 
3815.000000	99.126062 
3814.000000	99.129609 
3813.000000	99.134615 
3812.000000	99.130970 
3811.000000	99.122466 
3810.000000	99.119228 
3809.000000	99.124445 
3808.000000	99.131437 
3807.000000	99.132783 
3806.000000	99.132141 
3805.000000	99.137970 
3804.000000	99.146907 
3803.000000	99.149152 
3802.000000	99.141135 
3801.000000	99.127180 
3800.000000	99.120562 
3799.000000	99.124984 
3798.000000	99.127559 
3797.000000	99.121451 
3796.000000	99.112390 
3795.000000	99.108604 
3794.000000	99.111465 
3793.000000	99.116611 
3792.000000	99.121026 
3791.000000	99.124880 
3790.000000	99.127730 
3789.000000	99.129031 
3788.000000	99.130887 
3787.000000	99.136658 
3786.000000	99.145962 
3785.000000	99.154473 
3784.000000	99.159485 
3783.000000	99.162241 
3782.000000	99.163862 
3781.000000	99.162912 
3780.000000	99.157786 
3779.000000	99.149302 
3778.000000	99.141461 
3777.000000	99.136493 
3776.000000	99.132432 
3775.000000	99.128029 
3774.000000	99.126683 
3773.000000	99.131527 
3772.000000	99.139763 
3771.000000	99.144111 
3770.000000	99.140760 
3769.000000	99.134192 
3768.000000	99.131464 
3767.000000	99.132613 
3766.000000	99.133244 
3765.000000	99.132994 
3764.000000	99.136273 
3763.000000	99.144822 
3762.000000	99.154008 
3761.000000	99.159699 
3760.000000	99.162901 
3759.000000	99.164123 
3758.000000	99.161584 
3757.000000	99.154977 
3756.000000	99.147083 
3755.000000	99.139704 
3754.000000	99.133155 
3753.000000	99.130349 
3752.000000	99.134451 
3751.000000	99.139083 
3750.000000	99.133545 
3749.000000	99.121525 
3748.000000	99.114554 
3747.000000	99.113173 
3746.000000	99.111390 
3745.000000	99.105610 
3744.000000	99.096543 
3743.000000	99.098735 
3742.000000	99.116063 
3741.000000	99.127466 
3740.000000	99.125068 
3739.000000	99.121428 
3738.000000	99.126533 
3737.000000	99.136483 
3736.000000	99.142967 
3735.000000	99.144668 
3734.000000	99.143868 
3733.000000	99.139373 
3732.000000	99.131656 
3731.000000	99.127852 
3730.000000	99.132044 
3729.000000	99.138576 
3728.000000	99.140953 
3727.000000	99.141384 
3726.000000	99.146246 
3725.000000	99.156028 
3724.000000	99.162786 
3723.000000	99.160137 
3722.000000	99.150915 
3721.000000	99.143057 
3720.000000	99.141278 
3719.000000	99.143132 
3718.000000	99.143426 
3717.000000	99.139534 
3716.000000	99.132528 
3715.000000	99.124273 
3714.000000	99.116874 
3713.000000	99.112847 
3712.000000	99.111006 
3711.000000	99.106721 
3710.000000	99.099820 
3709.000000	99.093808 
3708.000000	99.089812 
3707.000000	99.086475 
3706.000000	99.082655 
3705.000000	99.078230 
3704.000000	99.073703 
3703.000000	99.069849 
3702.000000	99.066879 
3701.000000	99.065284 
3700.000000	99.066897 
3699.000000	99.070362 
3698.000000	99.069739 
3697.000000	99.061824 
3696.000000	99.050764 
3695.000000	99.043212 
3694.000000	99.041007 
3693.000000	99.041634 
3692.000000	99.042905 
3691.000000	99.043055 
3690.000000	99.038361 
3689.000000	99.025958 
3688.000000	99.012212 
3687.000000	99.008315 
3686.000000	99.014477 
3685.000000	99.020497 
3684.000000	99.021074 
3683.000000	99.019792 
3682.000000	99.020182 
3681.000000	99.019177 
3680.000000	99.011885 
3679.000000	99.000207 
3678.000000	98.989423 
3677.000000	98.981204 
3676.000000	98.971164 
3675.000000	98.959394 
3674.000000	98.960156 
3673.000000	98.975752 
3672.000000	98.988298 
3671.000000	98.989659 
3670.000000	98.984275 
3669.000000	98.977648 
3668.000000	98.974847 
3667.000000	98.974292 
3666.000000	98.972089 
3665.000000	98.969683 
3664.000000	98.970109 
3663.000000	98.972885 
3662.000000	98.974921 
3661.000000	98.974463 
3660.000000	98.973151 
3659.000000	98.974146 
3658.000000	98.977887 
3657.000000	98.981453 
3656.000000	98.982515 
3655.000000	98.985974 
3654.000000	98.996033 
3653.000000	99.008265 
3652.000000	99.018654 
3651.000000	99.028854 
3650.000000	99.036022 
3649.000000	99.030948 
3648.000000	99.014332 
3647.000000	98.998755 
3646.000000	98.993162 
3645.000000	98.996345 
3644.000000	99.002971 
3643.000000	99.009603 
3642.000000	99.015813 
3641.000000	99.021627 
3640.000000	99.026745 
3639.000000	99.031764 
3638.000000	99.039029 
3637.000000	99.050058 
3636.000000	99.061116 
3635.000000	99.065271 
3634.000000	99.060238 
3633.000000	99.051767 
3632.000000	99.046457 
3631.000000	99.045663 
3630.000000	99.046141 
3629.000000	99.040607 
3628.000000	99.029563 
3627.000000	99.026291 
3626.000000	99.031613 
3625.000000	99.035662 
3624.000000	99.037486 
3623.000000	99.041609 
3622.000000	99.048416 
3621.000000	99.053609 
3620.000000	99.053360 
3619.000000	99.047942 
3618.000000	99.043230 
3617.000000	99.045375 
3616.000000	99.053050 
3615.000000	99.059828 
3614.000000	99.061041 
3613.000000	99.056677 
3612.000000	99.050188 
3611.000000	99.044725 
3610.000000	99.041113 
3609.000000	99.039664 
3608.000000	99.040767 
3607.000000	99.044231 
3606.000000	99.049167 
3605.000000	99.054519 
3604.000000	99.060589 
3603.000000	99.068267 
3602.000000	99.076482 
3601.000000	99.083091 
3600.000000	99.087996 
3599.000000	99.092715 
3598.000000	99.096872 
3597.000000	99.098648 
3596.000000	99.096490 
3595.000000	99.090632 
3594.000000	99.083360 
3593.000000	99.079199 
3592.000000	99.081717 
3591.000000	99.090807 
3590.000000	99.102476 
3589.000000	99.110350 
3588.000000	99.107901 
3587.000000	99.094826 
3586.000000	99.080139 
3585.000000	99.072293 
3584.000000	99.071365 
3583.000000	99.073775 
3582.000000	99.077181 
3581.000000	99.080639 
3580.000000	99.083203 
3579.000000	99.083734 
3578.000000	99.081062 
3577.000000	99.075500 
3576.000000	99.069461 
3575.000000	99.066043 
3574.000000	99.066658 
3573.000000	99.070126 
3572.000000	99.074218 
3571.000000	99.077243 
3570.000000	99.078311 
3569.000000	99.076660 
3568.000000	99.071776 
3567.000000	99.065099 
3566.000000	99.061557 
3565.000000	99.064972 
3564.000000	99.072103 
3563.000000	99.076584 
3562.000000	99.075916 
3561.000000	99.072369 
3560.000000	99.069373 
3559.000000	99.068380 
3558.000000	99.068658 
3557.000000	99.069187 
3556.000000	99.070245 
3555.000000	99.072355 
3554.000000	99.074543 
3553.000000	99.074601 
3552.000000	99.071673 
3551.000000	99.067422 
3550.000000	99.063900 
3549.000000	99.061762 
3548.000000	99.061370 
3547.000000	99.063417 
3546.000000	99.067482 
3545.000000	99.071583 
3544.000000	99.073769 
3543.000000	99.073360 
3542.000000	99.071132 
3541.000000	99.068794 
3540.000000	99.068237 
3539.000000	99.070079 
3538.000000	99.072929 
3537.000000	99.074482 
3536.000000	99.073710 
3535.000000	99.071802 
3534.000000	99.070530 
3533.000000	99.070772 
3532.000000	99.072273 
3531.000000	99.074338 
3530.000000	99.075883 
3529.000000	99.076113 
3528.000000	99.075562 
3527.000000	99.075886 
3526.000000	99.077709 
3525.000000	99.079477 
3524.000000	99.079222 
3523.000000	99.076875 
3522.000000	99.074040 
3521.000000	99.071735 
3520.000000	99.069400 
3519.000000	99.066234 
3518.000000	99.062707 
3517.000000	99.060345 
3516.000000	99.060357 
3515.000000	99.063073 
3514.000000	99.068019 
3513.000000	99.073736 
3512.000000	99.077523 
3511.000000	99.076975 
3510.000000	99.072504 
3509.000000	99.067900 
3508.000000	99.067268 
3507.000000	99.071133 
3506.000000	99.075692 
3505.000000	99.076000 
3504.000000	99.069953 
3503.000000	99.060352 
3502.000000	99.053572 
3501.000000	99.055076 
3500.000000	99.064731 
3499.000000	99.076108 
3498.000000	99.080843 
3497.000000	99.074996 
3496.000000	99.062184 
3495.000000	99.050344 
3494.000000	99.045339 
3493.000000	99.047356 
3492.000000	99.052503 
3491.000000	99.056921 
3490.000000	99.059476 
3489.000000	99.061390 
3488.000000	99.063986 
3487.000000	99.067043 
3486.000000	99.069186 
3485.000000	99.069621 
3484.000000	99.069177 
3483.000000	99.069588 
3482.000000	99.071610 
3481.000000	99.074181 
3480.000000	99.075568 
3479.000000	99.075302 
3478.000000	99.074553 
3477.000000	99.074416 
3476.000000	99.074199 
3475.000000	99.072142 
3474.000000	99.068142 
3473.000000	99.064692 
3472.000000	99.064304 
3471.000000	99.066675 
3470.000000	99.069389 
3469.000000	99.070806 
3468.000000	99.071049 
3467.000000	99.070393 
3466.000000	99.068227 
3465.000000	99.064172 
3464.000000	99.059229 
3463.000000	99.055009 
3462.000000	99.052202 
3461.000000	99.050506 
3460.000000	99.049650 
3459.000000	99.049793 
3458.000000	99.050949 
3457.000000	99.052531 
3456.000000	99.053651 
3455.000000	99.053851 
3454.000000	99.053367 
3453.000000	99.053016 
3452.000000	99.053766 
3451.000000	99.056281 
3450.000000	99.060348 
3449.000000	99.064715 
3448.000000	99.067487 
3447.000000	99.067089 
3446.000000	99.063504 
3445.000000	99.058690 
3444.000000	99.055362 
3443.000000	99.054972 
3442.000000	99.056569 
3441.000000	99.057913 
3440.000000	99.057943 
3439.000000	99.057592 
3438.000000	99.058102 
3437.000000	99.059166 
3436.000000	99.059477 
3435.000000	99.058903 
3434.000000	99.058959 
3433.000000	99.060909 
3432.000000	99.063875 
3431.000000	99.065480 
3430.000000	99.064005 
3429.000000	99.059637 
3428.000000	99.053757 
3427.000000	99.047589 
3426.000000	99.042011 
3425.000000	99.038248 
3424.000000	99.037733 
3423.000000	99.040713 
3422.000000	99.045303 
3421.000000	99.048588 
3420.000000	99.048833 
3419.000000	99.046688 
3418.000000	99.044432 
3417.000000	99.044168 
3416.000000	99.046230 
3415.000000	99.048879 
3414.000000	99.049795 
3413.000000	99.048325 
3412.000000	99.046147 
3411.000000	99.045530 
3410.000000	99.047321 
3409.000000	99.050770 
3408.000000	99.054516 
3407.000000	99.057062 
3406.000000	99.057013 
3405.000000	99.054046 
3404.000000	99.049818 
3403.000000	99.047192 
3402.000000	99.048154 
3401.000000	99.052429 
3400.000000	99.057875 
3399.000000	99.062170 
3398.000000	99.064567 
3397.000000	99.066274 
3396.000000	99.068688 
3395.000000	99.071231 
3394.000000	99.071719 
3393.000000	99.069131 
3392.000000	99.065181 
3391.000000	99.062424 
3390.000000	99.061487 
3389.000000	99.061026 
3388.000000	99.059882 
3387.000000	99.058194 
3386.000000	99.056651 
3385.000000	99.055672 
3384.000000	99.055340 
3383.000000	99.055400 
3382.000000	99.055093 
3381.000000	99.053547 
3380.000000	99.050489 
3379.000000	99.046461 
3378.000000	99.042579 
3377.000000	99.040476 
3376.000000	99.042074 
3375.000000	99.048439 
3374.000000	99.058457 
3373.000000	99.068925 
3372.000000	99.076410 
3371.000000	99.079296 
3370.000000	99.078372 
3369.000000	99.075663 
3368.000000	99.072646 
3367.000000	99.069406 
3366.000000	99.065476 
3365.000000	99.061354 
3364.000000	99.058750 
3363.000000	99.059039 
3362.000000	99.061619 
3361.000000	99.064050 
3360.000000	99.063925 
3359.000000	99.060859 
3358.000000	99.057029 
3357.000000	99.055670 
3356.000000	99.058349 
3355.000000	99.063357 
3354.000000	99.067247 
3353.000000	99.068206 
3352.000000	99.067442 
3351.000000	99.067206 
3350.000000	99.068397 
3349.000000	99.070684 
3348.000000	99.073960 
3347.000000	99.078297 
3346.000000	99.082759 
3345.000000	99.085616 
3344.000000	99.085954 
3343.000000	99.084256 
3342.000000	99.081335 
3341.000000	99.077791 
3340.000000	99.074728 
3339.000000	99.073676 
3338.000000	99.074694 
3337.000000	99.075259 
3336.000000	99.072425 
3335.000000	99.066382 
3334.000000	99.060977 
3333.000000	99.060237 
3332.000000	99.064585 
3331.000000	99.070660 
3330.000000	99.074707 
3329.000000	99.075907 
3328.000000	99.076448 
3327.000000	99.078542 
3326.000000	99.081794 
3325.000000	99.083865 
3324.000000	99.083457 
3323.000000	99.081957 
3322.000000	99.081725 
3321.000000	99.083176 
3320.000000	99.084170 
3319.000000	99.082394 
3318.000000	99.077920 
3317.000000	99.073208 
3316.000000	99.070898 
3315.000000	99.071839 
3314.000000	99.074908 
3313.000000	99.078230 
3312.000000	99.080543 
3311.000000	99.081877 
3310.000000	99.083245 
3309.000000	99.085604 
3308.000000	99.089012 
3307.000000	99.092729 
3306.000000	99.095822 
3305.000000	99.097316 
3304.000000	99.096056 
3303.000000	99.091433 
3302.000000	99.084794 
3301.000000	99.079503 
3300.000000	99.078631 
3299.000000	99.082394 
3298.000000	99.088096 
3297.000000	99.092481 
3296.000000	99.093957 
3295.000000	99.093031 
3294.000000	99.091468 
3293.000000	99.091130 
3292.000000	99.092881 
3291.000000	99.096104 
3290.000000	99.099308 
3289.000000	99.101179 
3288.000000	99.101083 
3287.000000	99.099094 
3286.000000	99.096127 
3285.000000	99.093768 
3284.000000	99.093098 
3283.000000	99.093541 
3282.000000	99.093495 
3281.000000	99.092159 
3280.000000	99.090106 
3279.000000	99.088193 
3278.000000	99.086866 
3277.000000	99.086697 
3276.000000	99.088557 
3275.000000	99.092532 
3274.000000	99.097161 
3273.000000	99.100322 
3272.000000	99.100588 
3271.000000	99.097605 
3270.000000	99.091964 
3269.000000	99.085414 
3268.000000	99.080738 
3267.000000	99.080394 
3266.000000	99.084850 
3265.000000	99.092293 
3264.000000	99.099905 
3263.000000	99.105611 
3262.000000	99.109170 
3261.000000	99.111733 
3260.000000	99.114050 
3259.000000	99.115192 
3258.000000	99.113529 
3257.000000	99.108731 
3256.000000	99.102133 
3255.000000	99.095272 
3254.000000	99.089142 
3253.000000	99.085071 
3252.000000	99.084882 
3251.000000	99.089112 
3250.000000	99.095718 
3249.000000	99.101554 
3248.000000	99.104821 
3247.000000	99.105510 
3246.000000	99.104048 
3245.000000	99.100731 
3244.000000	99.096615 
3243.000000	99.094110 
3242.000000	99.096000 
3241.000000	99.103382 
3240.000000	99.113981 
3239.000000	99.122644 
3238.000000	99.124738 
3237.000000	99.120003 
3236.000000	99.112744 
3235.000000	99.107608 
3234.000000	99.105694 
3233.000000	99.105356 
3232.000000	99.105751 
3231.000000	99.107856 
3230.000000	99.111887 
3229.000000	99.115380 
3228.000000	99.114942 
3227.000000	99.109519 
3226.000000	99.101407 
3225.000000	99.094471 
3224.000000	99.091716 
3223.000000	99.093955 
3222.000000	99.099803 
3221.000000	99.106628 
3220.000000	99.111906 
3219.000000	99.114207 
3218.000000	99.113478 
3217.000000	99.110805 
3216.000000	99.108048 
3215.000000	99.107129 
3214.000000	99.108825 
3213.000000	99.112025 
3212.000000	99.114612 
3211.000000	99.115451 
3210.000000	99.115330 
3209.000000	99.115802 
3208.000000	99.117444 
3207.000000	99.119673 
3206.000000	99.121969 
3205.000000	99.124524 
3204.000000	99.127494 
3203.000000	99.130359 
3202.000000	99.132642 
3201.000000	99.134757 
3200.000000	99.137360 
3199.000000	99.139834 
3198.000000	99.140262 
3197.000000	99.137414 
3196.000000	99.132525 
3195.000000	99.128605 
3194.000000	99.127799 
3193.000000	99.129473 
3192.000000	99.131012 
3191.000000	99.130567 
3190.000000	99.128891 
3189.000000	99.128282 
3188.000000	99.129855 
3187.000000	99.132274 
3186.000000	99.133145 
3185.000000	99.131067 
3184.000000	99.126278 
3183.000000	99.120168 
3182.000000	99.114800 
3181.000000	99.112240 
3180.000000	99.113400 
3179.000000	99.117406 
3178.000000	99.122331 
3177.000000	99.126295 
3176.000000	99.127768 
3175.000000	99.125977 
3174.000000	99.122237 
3173.000000	99.120187 
3172.000000	99.122890 
3171.000000	99.129272 
3170.000000	99.134737 
3169.000000	99.135932 
3168.000000	99.134000 
3167.000000	99.132681 
3166.000000	99.134224 
3165.000000	99.137889 
3164.000000	99.141575 
3163.000000	99.143757 
3162.000000	99.144144 
3161.000000	99.143510 
3160.000000	99.143197 
3159.000000	99.144225 
3158.000000	99.146576 
3157.000000	99.149369 
3156.000000	99.151593 
3155.000000	99.152560 
3154.000000	99.152083 
3153.000000	99.150721 
3152.000000	99.149590 
3151.000000	99.149372 
3150.000000	99.149560 
3149.000000	99.149148 
3148.000000	99.148022 
3147.000000	99.147136 
3146.000000	99.147183 
3145.000000	99.147584 
3144.000000	99.147264 
3143.000000	99.146350 
3142.000000	99.146648 
3141.000000	99.149995 
3140.000000	99.155922 
3139.000000	99.161337 
3138.000000	99.163125 
3137.000000	99.161178 
3136.000000	99.158322 
3135.000000	99.157125 
3134.000000	99.157448 
3133.000000	99.157559 
3132.000000	99.156926 
3131.000000	99.156797 
3130.000000	99.158004 
3129.000000	99.159346 
3128.000000	99.158912 
3127.000000	99.156537 
3126.000000	99.154081 
3125.000000	99.153374 
3124.000000	99.154593 
3123.000000	99.156655 
3122.000000	99.158543 
3121.000000	99.160042 
3120.000000	99.161677 
3119.000000	99.164148 
3118.000000	99.167363 
3117.000000	99.169697 
3116.000000	99.168866 
3115.000000	99.164260 
3114.000000	99.158051 
3113.000000	99.153301 
3112.000000	99.151273 
3111.000000	99.151326 
3110.000000	99.152822 
3109.000000	99.155576 
3108.000000	99.158300 
3107.000000	99.158371 
3106.000000	99.154459 
3105.000000	99.148736 
3104.000000	99.145418 
3103.000000	99.147119 
3102.000000	99.153126 
3101.000000	99.160652 
3100.000000	99.166815 
3099.000000	99.169663 
3098.000000	99.168824 
3097.000000	99.165914 
3096.000000	99.163642 
3095.000000	99.163835 
3094.000000	99.166435 
3093.000000	99.170285 
3092.000000	99.174118 
3091.000000	99.176652 
3090.000000	99.176779 
3089.000000	99.174653 
3088.000000	99.172271 
3087.000000	99.172079 
3086.000000	99.174803 
3085.000000	99.178946 
3084.000000	99.182384 
3083.000000	99.184067 
3082.000000	99.184204 
3081.000000	99.183341 
3080.000000	99.181636 
3079.000000	99.178964 
3078.000000	99.175375 
3077.000000	99.171241 
3076.000000	99.167084 
3075.000000	99.163573 
3074.000000	99.161602 
3073.000000	99.162043 
3072.000000	99.165155 
3071.000000	99.170279 
3070.000000	99.175991 
3069.000000	99.180355 
3068.000000	99.181318 
3067.000000	99.177869 
3066.000000	99.171431 
3065.000000	99.165502 
3064.000000	99.162961 
3063.000000	99.163613 
3062.000000	99.164892 
3061.000000	99.164874 
3060.000000	99.164116 
3059.000000	99.164627 
3058.000000	99.167610 
3057.000000	99.172301 
3056.000000	99.176669 
3055.000000	99.179226 
3054.000000	99.180268 
3053.000000	99.181155 
3052.000000	99.182363 
3051.000000	99.182890 
3050.000000	99.181927 
3049.000000	99.180124 
3048.000000	99.178171 
3047.000000	99.174968 
3046.000000	99.168988 
3045.000000	99.161433 
3044.000000	99.156230 
3043.000000	99.156097 
3042.000000	99.159617 
3041.000000	99.162775 
3040.000000	99.162656 
3039.000000	99.159225 
3038.000000	99.154424 
3037.000000	99.150330 
3036.000000	99.147663 
3035.000000	99.145432 
3034.000000	99.142197 
3033.000000	99.137728 
3032.000000	99.132840 
3031.000000	99.127607 
3030.000000	99.120792 
3029.000000	99.111487 
3028.000000	99.100495 
3027.000000	99.089548 
3026.000000	99.079771 
3025.000000	99.071345 
3024.000000	99.063958 
3023.000000	99.056887 
3022.000000	99.049153 
3021.000000	99.040372 
3020.000000	99.031256 
3019.000000	99.022769 
3018.000000	99.015115 
3017.000000	99.007990 
3016.000000	99.001264 
3015.000000	98.994620 
3014.000000	98.986760 
3013.000000	98.975709 
3012.000000	98.960108 
3011.000000	98.940151 
3010.000000	98.917659 
3009.000000	98.895473 
3008.000000	98.876311 
3007.000000	98.861577 
3006.000000	98.851098 
3005.000000	98.843684 
3004.000000	98.837186 
3003.000000	98.828276 
3002.000000	98.813974 
3001.000000	98.794810 
3000.000000	98.775609 
2999.000000	98.761388 
2998.000000	98.752661 
2997.000000	98.746174 
2996.000000	98.739869 
2995.000000	98.734614 
2994.000000	98.729787 
2993.000000	98.719596 
2992.000000	98.697335 
2991.000000	98.663941 
2990.000000	98.630106 
2989.000000	98.608071 
2988.000000	98.601740 
2987.000000	98.605751 
2986.000000	98.613015 
2985.000000	98.621001 
2984.000000	98.630487 
2983.000000	98.640835 
2982.000000	98.648819 
2981.000000	98.651740 
2980.000000	98.650231 
2979.000000	98.647552 
2978.000000	98.646771 
2977.000000	98.648603 
2976.000000	98.651226 
2975.000000	98.651860 
2974.000000	98.649022 
2973.000000	98.643684 
2972.000000	98.638396 
2971.000000	98.635535 
2970.000000	98.636497 
2969.000000	98.641888 
2968.000000	98.651550 
2967.000000	98.664376 
2966.000000	98.678724 
2965.000000	98.693216 
2964.000000	98.707038 
2963.000000	98.719741 
2962.000000	98.731181 
2961.000000	98.741312 
2960.000000	98.749690 
2959.000000	98.755773 
2958.000000	98.760364 
2957.000000	98.765883 
2956.000000	98.773720 
2955.000000	98.781695 
2954.000000	98.786080 
2953.000000	98.786883 
2952.000000	98.789551 
2951.000000	98.799936 
2950.000000	98.817830 
2949.000000	98.836417 
2948.000000	98.848160 
2947.000000	98.850886 
2946.000000	98.848540 
2945.000000	98.846807 
2944.000000	98.848338 
2943.000000	98.851771 
2942.000000	98.854501 
2941.000000	98.855571 
2940.000000	98.855805 
2939.000000	98.856079 
2938.000000	98.856437 
2937.000000	98.856747 
2936.000000	98.857379 
2935.000000	98.859007 
2934.000000	98.862055 
2933.000000	98.866248 
2932.000000	98.870286 
2931.000000	98.872231 
2930.000000	98.870860 
2929.000000	98.866688 
2928.000000	98.861392 
2927.000000	98.856531 
2926.000000	98.853203 
2925.000000	98.852115 
2924.000000	98.852897 
2923.000000	98.853730 
2922.000000	98.852873 
2921.000000	98.850553 
2920.000000	98.848405 
2919.000000	98.847196 
2918.000000	98.846114 
2917.000000	98.844086 
2916.000000	98.840651 
2915.000000	98.835663 
2914.000000	98.829558 
2913.000000	98.824123 
2912.000000	98.821527 
2911.000000	98.821784 
2910.000000	98.822130 
2909.000000	98.819658 
2908.000000	98.814009 
2907.000000	98.806940 
2906.000000	98.799834 
2905.000000	98.792126 
2904.000000	98.782061 
2903.000000	98.769164 
2902.000000	98.756580 
2901.000000	98.750406 
2900.000000	98.755225 
2899.000000	98.769600 
2898.000000	98.786501 
2897.000000	98.799072 
2896.000000	98.805530 
2895.000000	98.808853 
2894.000000	98.812908 
2893.000000	98.819306 
2892.000000	98.826873 
2891.000000	98.833141 
2890.000000	98.836645 
2889.000000	98.838243 
2888.000000	98.839950 
2887.000000	98.842622 
2886.000000	98.845580 
2885.000000	98.848397 
2884.000000	98.851790 
2883.000000	98.856450 
2882.000000	98.862250 
2881.000000	98.869234 
2880.000000	98.878247 
2879.000000	98.889741 
2878.000000	98.902808 
2877.000000	98.915991 
2876.000000	98.928041 
2875.000000	98.937263 
2874.000000	98.941589 
2873.000000	98.940890 
2872.000000	98.938492 
2871.000000	98.938843 
2870.000000	98.943783 
2869.000000	98.951982 
2868.000000	98.961617 
2867.000000	98.972402 
2866.000000	98.985118 
2865.000000	99.000236 
2864.000000	99.017037 
2863.000000	99.033284 
2862.000000	99.045952 
2861.000000	99.053442 
2860.000000	99.057470 
2859.000000	99.062033 
2858.000000	99.070017 
2857.000000	99.081010 
2856.000000	99.092296 
2855.000000	99.101559 
2854.000000	99.108492 
2853.000000	99.114141 
2852.000000	99.119118 
2851.000000	99.122857 
2850.000000	99.124917 
2849.000000	99.126534 
2848.000000	99.129906 
2847.000000	99.135745 
2846.000000	99.142287 
2845.000000	99.147101 
2844.000000	99.149313 
2843.000000	99.149934 
2842.000000	99.150907 
2841.000000	99.154148 
2840.000000	99.160362 
2839.000000	99.167810 
2838.000000	99.172900 
2837.000000	99.173017 
2836.000000	99.168731 
2835.000000	99.163044 
2834.000000	99.159149 
2833.000000	99.159185 
2832.000000	99.163753 
2831.000000	99.171298 
2830.000000	99.178605 
2829.000000	99.183368 
2828.000000	99.186297 
2827.000000	99.189727 
2826.000000	99.194345 
2825.000000	99.198308 
2824.000000	99.199622 
2823.000000	99.198435 
2822.000000	99.196696 
2821.000000	99.196230 
2820.000000	99.197449 
2819.000000	99.199631 
2818.000000	99.202146 
2817.000000	99.205243 
2816.000000	99.209298 
2815.000000	99.213353 
2814.000000	99.215370 
2813.000000	99.214540 
2812.000000	99.212586 
2811.000000	99.211845 
2810.000000	99.212533 
2809.000000	99.212954 
2808.000000	99.212130 
2807.000000	99.211080 
2806.000000	99.211354 
2805.000000	99.213273 
2804.000000	99.215943 
2803.000000	99.218377 
2802.000000	99.220189 
2801.000000	99.221450 
2800.000000	99.222139 
2799.000000	99.221843 
2798.000000	99.220261 
2797.000000	99.218048 
2796.000000	99.216567 
2795.000000	99.216384 
2794.000000	99.216580 
2793.000000	99.216142 
2792.000000	99.215511 
2791.000000	99.216032 
2790.000000	99.218256 
2789.000000	99.221547 
2788.000000	99.224987 
2787.000000	99.227847 
2786.000000	99.229573 
2785.000000	99.230305 
2784.000000	99.231232 
2783.000000	99.233312 
2782.000000	99.235699 
2781.000000	99.236510 
2780.000000	99.235257 
2779.000000	99.233552 
2778.000000	99.233206 
2777.000000	99.234526 
2776.000000	99.236569 
2775.000000	99.237980 
2774.000000	99.237345 
2773.000000	99.234010 
2772.000000	99.229373 
2771.000000	99.226493 
2770.000000	99.227526 
2769.000000	99.231882 
2768.000000	99.237310 
2767.000000	99.242096 
2766.000000	99.245631 
2765.000000	99.247666 
2764.000000	99.248192 
2763.000000	99.247851 
2762.000000	99.247572 
2761.000000	99.247749 
2760.000000	99.248250 
2759.000000	99.249039 
2758.000000	99.250199 
2757.000000	99.251548 
2756.000000	99.252914 
2755.000000	99.254629 
2754.000000	99.256903 
2753.000000	99.258756 
2752.000000	99.258546 
2751.000000	99.256020 
2750.000000	99.253106 
2749.000000	99.251984 
2748.000000	99.252656 
2747.000000	99.252956 
2746.000000	99.250819 
2745.000000	99.246232 
2744.000000	99.241234 
2743.000000	99.238472 
2742.000000	99.239555 
2741.000000	99.244107 
2740.000000	99.250096 
2739.000000	99.255322 
2738.000000	99.258787 
2737.000000	99.260746 
2736.000000	99.261729 
2735.000000	99.261934 
2734.000000	99.261478 
2733.000000	99.260677 
2732.000000	99.259803 
2731.000000	99.258796 
2730.000000	99.257469 
2729.000000	99.255950 
2728.000000	99.254935 
2727.000000	99.255518 
2726.000000	99.258480 
2725.000000	99.263251 
2724.000000	99.267682 
2723.000000	99.269556 
2722.000000	99.268607 
2721.000000	99.266692 
2720.000000	99.265747 
2719.000000	99.265949 
2718.000000	99.266096 
2717.000000	99.265292 
2716.000000	99.263976 
2715.000000	99.263716 
2714.000000	99.266165 
2713.000000	99.271544 
2712.000000	99.277707 
2711.000000	99.281431 
2710.000000	99.281436 
2709.000000	99.279666 
2708.000000	99.278835 
2707.000000	99.279126 
2706.000000	99.278260 
2705.000000	99.274658 
2704.000000	99.269485 
2703.000000	99.265415 
2702.000000	99.264165 
2701.000000	99.265384 
2700.000000	99.267248 
2699.000000	99.267806 
2698.000000	99.266249 
2697.000000	99.263355 
2696.000000	99.260786 
2695.000000	99.260034 
2694.000000	99.261883 
2693.000000	99.266017 
2692.000000	99.270463 
2691.000000	99.272232 
2690.000000	99.269889 
2689.000000	99.265551 
2688.000000	99.263149 
2687.000000	99.264402 
2686.000000	99.267354 
2685.000000	99.269122 
2684.000000	99.269182 
2683.000000	99.269491 
2682.000000	99.272064 
2681.000000	99.276965 
2680.000000	99.282135 
2679.000000	99.284753 
2678.000000	99.283279 
2677.000000	99.278748 
2676.000000	99.273954 
2675.000000	99.271121 
2674.000000	99.270485 
2673.000000	99.270935 
2672.000000	99.271389 
2671.000000	99.271383 
2670.000000	99.270925 
2669.000000	99.270238 
2668.000000	99.269488 
2667.000000	99.268725 
2666.000000	99.268247 
2665.000000	99.268795 
2664.000000	99.270862 
2663.000000	99.273993 
2662.000000	99.277314 
2661.000000	99.280453 
2660.000000	99.283053 
2659.000000	99.283625 
2658.000000	99.280353 
2657.000000	99.273674 
2656.000000	99.267040 
2655.000000	99.264189 
2654.000000	99.265880 
2653.000000	99.269630 
2652.000000	99.272255 
2651.000000	99.272413 
2650.000000	99.271195 
2649.000000	99.270589 
2648.000000	99.271134 
2647.000000	99.271196 
2646.000000	99.269065 
2645.000000	99.265502 
2644.000000	99.263168 
2643.000000	99.263600 
2642.000000	99.265927 
2641.000000	99.268752 
2640.000000	99.271911 
2639.000000	99.275845 
2638.000000	99.280386 
2637.000000	99.284776 
2636.000000	99.287838 
2635.000000	99.287865 
2634.000000	99.283953 
2633.000000	99.278311 
2632.000000	99.275605 
2631.000000	99.278463 
2630.000000	99.284584 
2629.000000	99.289484 
2628.000000	99.291071 
2627.000000	99.290282 
2626.000000	99.288431 
2625.000000	99.285915 
2624.000000	99.283006 
2623.000000	99.280143 
2622.000000	99.277590 
2621.000000	99.276090 
2620.000000	99.277293 
2619.000000	99.281737 
2618.000000	99.286509 
2617.000000	99.286867 
2616.000000	99.280975 
2615.000000	99.272030 
2614.000000	99.265256 
2613.000000	99.263660 
2612.000000	99.266888 
2611.000000	99.272979 
2610.000000	99.280081 
2609.000000	99.286632 
2608.000000	99.291016 
2607.000000	99.292180 
2606.000000	99.291060 
2605.000000	99.290493 
2604.000000	99.292308 
2603.000000	99.294627 
2602.000000	99.293817 
2601.000000	99.289617 
2600.000000	99.286397 
2599.000000	99.288088 
2598.000000	99.293536 
2597.000000	99.298444 
2596.000000	99.300166 
2595.000000	99.298353 
2594.000000	99.292581 
2593.000000	99.282956 
2592.000000	99.273053 
2591.000000	99.268723 
2590.000000	99.272442 
2589.000000	99.280810 
2588.000000	99.288648 
2587.000000	99.293548 
2586.000000	99.295167 
2585.000000	99.292488 
2584.000000	99.284723 
2583.000000	99.274411 
2582.000000	99.266913 
2581.000000	99.265652 
2580.000000	99.268723 
2579.000000	99.270931 
2578.000000	99.268953 
2577.000000	99.264281 
2576.000000	99.261392 
2575.000000	99.263310 
2574.000000	99.268966 
2573.000000	99.274613 
2572.000000	99.277354 
2571.000000	99.276956 
2570.000000	99.274738 
2569.000000	99.271841 
2568.000000	99.269017 
2567.000000	99.267202 
2566.000000	99.267187 
2565.000000	99.268717 
2564.000000	99.270625 
2563.000000	99.271967 
2562.000000	99.272612 
2561.000000	99.272882 
2560.000000	99.273369 
2559.000000	99.274999 
2558.000000	99.277926 
2557.000000	99.279774 
2556.000000	99.276643 
2555.000000	99.267855 
2554.000000	99.259003 
2553.000000	99.257697 
2552.000000	99.265569 
2551.000000	99.276356 
2550.000000	99.282739 
2549.000000	99.283110 
2548.000000	99.280434 
2547.000000	99.276968 
2546.000000	99.273008 
2545.000000	99.269704 
2544.000000	99.269652 
2543.000000	99.274022 
2542.000000	99.281135 
2541.000000	99.288316 
2540.000000	99.293479 
2539.000000	99.294702 
2538.000000	99.290289 
2537.000000	99.280275 
2536.000000	99.266942 
2535.000000	99.253671 
2534.000000	99.244299 
2533.000000	99.242830 
2532.000000	99.251133 
2531.000000	99.266190 
2530.000000	99.281472 
2529.000000	99.291904 
2528.000000	99.296374 
2527.000000	99.295702 
2526.000000	99.290962 
2525.000000	99.284745 
2524.000000	99.281288 
2523.000000	99.283014 
2522.000000	99.288072 
2521.000000	99.292699 
2520.000000	99.294923 
2519.000000	99.294933 
2518.000000	99.293411 
2517.000000	99.291077 
2516.000000	99.288800 
2515.000000	99.286786 
2514.000000	99.284543 
2513.000000	99.282418 
2512.000000	99.281726 
2511.000000	99.282398 
2510.000000	99.282363 
2509.000000	99.280748 
2508.000000	99.279758 
2507.000000	99.281278 
2506.000000	99.283243 
2505.000000	99.282038 
2504.000000	99.277666 
2503.000000	99.273832 
2502.000000	99.273052 
2501.000000	99.274103 
2500.000000	99.274657 
2499.000000	99.274478 
2498.000000	99.275273 
2497.000000	99.278518 
2496.000000	99.283911 
2495.000000	99.289212 
2494.000000	99.291523 
2493.000000	99.289472 
2492.000000	99.284276 
2491.000000	99.278429 
2490.000000	99.273863 
2489.000000	99.271542 
2488.000000	99.271472 
2487.000000	99.272069 
2486.000000	99.270888 
2485.000000	99.267762 
2484.000000	99.266349 
2483.000000	99.270518 
2482.000000	99.279451 
2481.000000	99.288097 
2480.000000	99.292478 
2479.000000	99.292851 
2478.000000	99.291529 
2477.000000	99.289531 
2476.000000	99.286266 
2475.000000	99.281396 
2474.000000	99.276075 
2473.000000	99.272734 
2472.000000	99.273726 
2471.000000	99.279240 
2470.000000	99.286006 
2469.000000	99.288709 
2468.000000	99.283778 
2467.000000	99.272463 
2466.000000	99.260615 
2465.000000	99.255197 
2464.000000	99.259667 
2463.000000	99.271356 
2462.000000	99.283116 
2461.000000	99.288464 
2460.000000	99.286126 
2459.000000	99.280294 
2458.000000	99.276851 
2457.000000	99.278789 
2456.000000	99.284004 
2455.000000	99.287002 
2454.000000	99.283647 
2453.000000	99.275041 
2452.000000	99.266556 
2451.000000	99.262943 
2450.000000	99.264857 
2449.000000	99.269709 
2448.000000	99.274308 
2447.000000	99.276427 
2446.000000	99.275734 
2445.000000	99.274487 
2444.000000	99.275935 
2443.000000	99.280631 
2442.000000	99.285354 
2441.000000	99.286887 
2440.000000	99.285643 
2439.000000	99.284004 
2438.000000	99.282406 
2437.000000	99.279347 
2436.000000	99.274641 
2435.000000	99.270169 
2434.000000	99.267149 
2433.000000	99.264699 
2432.000000	99.261733 
2431.000000	99.258753 
2430.000000	99.257012 
2429.000000	99.257112 
2428.000000	99.259231 
2427.000000	99.263694 
2426.000000	99.270120 
2425.000000	99.276246 
2424.000000	99.278644 
2423.000000	99.275360 
2422.000000	99.268060 
2421.000000	99.261393 
2420.000000	99.259568 
2419.000000	99.263010 
2418.000000	99.268312 
2417.000000	99.271439 
2416.000000	99.270709 
2415.000000	99.267083 
2414.000000	99.262785 
2413.000000	99.260169 
2412.000000	99.260740 
2411.000000	99.264018 
2410.000000	99.267611 
2409.000000	99.269335 
2408.000000	99.269266 
2407.000000	99.269305 
2406.000000	99.271033 
2405.000000	99.274410 
2404.000000	99.278116 
2403.000000	99.280485 
2402.000000	99.280368 
2401.000000	99.277661 
2400.000000	99.273072 
2399.000000	99.267418 
2398.000000	99.261646 
2397.000000	99.257554 
2396.000000	99.257381 
2395.000000	99.261849 
2394.000000	99.268972 
2393.000000	99.275324 
2392.000000	99.278334 
2391.000000	99.277566 
2390.000000	99.274735 
2389.000000	99.272786 
2388.000000	99.273789 
2387.000000	99.276938 
2386.000000	99.279391 
2385.000000	99.279680 
2384.000000	99.279511 
2383.000000	99.281447 
2382.000000	99.285661 
2381.000000	99.289858 
2380.000000	99.291588 
2379.000000	99.289557 
2378.000000	99.283405 
2377.000000	99.273978 
2376.000000	99.264119 
2375.000000	99.257789 
2374.000000	99.257723 
2373.000000	99.264070 
2372.000000	99.274984 
2371.000000	99.287597 
2370.000000	99.298391 
2369.000000	99.303868 
2368.000000	99.301801 
2367.000000	99.292308 
2366.000000	99.278667 
2365.000000	99.267529 
2364.000000	99.266015 
2363.000000	99.275052 
2362.000000	99.286458 
2361.000000	99.290320 
2360.000000	99.284237 
2359.000000	99.274409 
2358.000000	99.268750 
2357.000000	99.270009 
2356.000000	99.276245 
2355.000000	99.283161 
2354.000000	99.285987 
2353.000000	99.282645 
2352.000000	99.276140 
2351.000000	99.272624 
2350.000000	99.274142 
2349.000000	99.277571 
2348.000000	99.279381 
2347.000000	99.278055 
2346.000000	99.274205 
2345.000000	99.268908 
2344.000000	99.265094 
2343.000000	99.265881 
2342.000000	99.271747 
2341.000000	99.280786 
2340.000000	99.288749 
2339.000000	99.292003 
2338.000000	99.289259 
2337.000000	99.282817 
2336.000000	99.276384 
2335.000000	99.271949 
2334.000000	99.269029 
2333.000000	99.267320 
2332.000000	99.267171 
2331.000000	99.267642 
2330.000000	99.265518 
2329.000000	99.260350 
2328.000000	99.257304 
2327.000000	99.260552 
2326.000000	99.267830 
2325.000000	99.271183 
2324.000000	99.266918 
2323.000000	99.259560 
2322.000000	99.257704 
2321.000000	99.265903 
2320.000000	99.280249 
2319.000000	99.292161 
2318.000000	99.294394 
2317.000000	99.286906 
2316.000000	99.276114 
2315.000000	99.269566 
2314.000000	99.270073 
2313.000000	99.275182 
2312.000000	99.281083 
2311.000000	99.285554 
2310.000000	99.288248 
2309.000000	99.289097 
2308.000000	99.288078 
2307.000000	99.284954 
2306.000000	99.280142 
2305.000000	99.274991 
2304.000000	99.271503 
2303.000000	99.270540 
2302.000000	99.271066 
2301.000000	99.270896 
2300.000000	99.267834 
2299.000000	99.260298 
2298.000000	99.249234 
2297.000000	99.239755 
2296.000000	99.238651 
2295.000000	99.247361 
2294.000000	99.259049 
2293.000000	99.264336 
2292.000000	99.260169 
2291.000000	99.250910 
2290.000000	99.242348 
2289.000000	99.236797 
2288.000000	99.233871 
2287.000000	99.232662 
2286.000000	99.232278 
2285.000000	99.232060 
2284.000000	99.232266 
2283.000000	99.233118 
2282.000000	99.232518 
2281.000000	99.226576 
2280.000000	99.214021 
2279.000000	99.199607 
2278.000000	99.191659 
2277.000000	99.195578 
2276.000000	99.209364 
2275.000000	99.225481 
2274.000000	99.236834 
2273.000000	99.240635 
2272.000000	99.236806 
2271.000000	99.225086 
2270.000000	99.207138 
2269.000000	99.190886 
2268.000000	99.187712 
2267.000000	99.202008 
2266.000000	99.225447 
2265.000000	99.244172 
2264.000000	99.250607 
2263.000000	99.246956 
2262.000000	99.240220 
2261.000000	99.236710 
2260.000000	99.238938 
2259.000000	99.243822 
2258.000000	99.245032 
2257.000000	99.240121 
2256.000000	99.233741 
2255.000000	99.230757 
2254.000000	99.228614 
2253.000000	99.221558 
2252.000000	99.211060 
2251.000000	99.206150 
2250.000000	99.212746 
2249.000000	99.227214 
2248.000000	99.241753 
2247.000000	99.251874 
2246.000000	99.256687 
2245.000000	99.255584 
2244.000000	99.248023 
2243.000000	99.235648 
2242.000000	99.222632 
2241.000000	99.213483 
2240.000000	99.209860 
2239.000000	99.208696 
2238.000000	99.204525 
2237.000000	99.195174 
2236.000000	99.184152 
2235.000000	99.175805 
2234.000000	99.170059 
2233.000000	99.164792 
2232.000000	99.161595 
2231.000000	99.165134 
2230.000000	99.177094 
2229.000000	99.194254 
2228.000000	99.212491 
2227.000000	99.229115 
2226.000000	99.241012 
2225.000000	99.244631 
2224.000000	99.239580 
2223.000000	99.229810 
2222.000000	99.220060 
2221.000000	99.212564 
2220.000000	99.207063 
2219.000000	99.202242 
2218.000000	99.197737 
2217.000000	99.196732 
2216.000000	99.205141 
2215.000000	99.224620 
2214.000000	99.246579 
2213.000000	99.256801 
2212.000000	99.247812 
2211.000000	99.225428 
2210.000000	99.203373 
2209.000000	99.192839 
2208.000000	99.195507 
2207.000000	99.203785 
2206.000000	99.207864 
2205.000000	99.204144 
2204.000000	99.196430 
2203.000000	99.188858 
2202.000000	99.181158 
2201.000000	99.172397 
2200.000000	99.164266 
2199.000000	99.156725 
2198.000000	99.145583 
2197.000000	99.131017 
2196.000000	99.124795 
2195.000000	99.140482 
2194.000000	99.176397 
2193.000000	99.214203 
2192.000000	99.234624 
2191.000000	99.230067 
2190.000000	99.204534 
2189.000000	99.170180 
2188.000000	99.144101 
2187.000000	99.139304 
2186.000000	99.154745 
2185.000000	99.177777 
2184.000000	99.196955 
2183.000000	99.207980 
2182.000000	99.208983 
2181.000000	99.199660 
2180.000000	99.187009 
2179.000000	99.182631 
2178.000000	99.189905 
2177.000000	99.199475 
2176.000000	99.200608 
2175.000000	99.192213 
2174.000000	99.180067 
2173.000000	99.168701 
2172.000000	99.159473 
2171.000000	99.152307 
2170.000000	99.146372 
2169.000000	99.142109 
2168.000000	99.143637 
2167.000000	99.154856 
2166.000000	99.172092 
2165.000000	99.185486 
2164.000000	99.189322 
2163.000000	99.185920 
2162.000000	99.178702 
2161.000000	99.168712 
2160.000000	99.159488 
2159.000000	99.156956 
2158.000000	99.161243 
2157.000000	99.167173 
2156.000000	99.175191 
2155.000000	99.191229 
2154.000000	99.212905 
2153.000000	99.225811 
2152.000000	99.218711 
2151.000000	99.196844 
2150.000000	99.176940 
2149.000000	99.173812 
2148.000000	99.192160 
2147.000000	99.223775 
2146.000000	99.249682 
2145.000000	99.252896 
2144.000000	99.234887 
2143.000000	99.214245 
2142.000000	99.205862 
2141.000000	99.207490 
2140.000000	99.209630 
2139.000000	99.210466 
2138.000000	99.213846 
2137.000000	99.218549 
2136.000000	99.219048 
2135.000000	99.215305 
2134.000000	99.214007 
2133.000000	99.219250 
2132.000000	99.226828 
2131.000000	99.228570 
2130.000000	99.219862 
2129.000000	99.203931 
2128.000000	99.190615 
2127.000000	99.188639 
2126.000000	99.196772 
2125.000000	99.204873 
2124.000000	99.206122 
2123.000000	99.204863 
2122.000000	99.208458 
2121.000000	99.215025 
2120.000000	99.215668 
2119.000000	99.207729 
2118.000000	99.199109 
2117.000000	99.198120 
2116.000000	99.204456 
2115.000000	99.212652 
2114.000000	99.219882 
2113.000000	99.226286 
2112.000000	99.230213 
2111.000000	99.227915 
2110.000000	99.218527 
2109.000000	99.206734 
2108.000000	99.199011 
2107.000000	99.197611 
2106.000000	99.198599 
2105.000000	99.195471 
2104.000000	99.184920 
2103.000000	99.169748 
2102.000000	99.156614 
2101.000000	99.150910 
2100.000000	99.153145 
2099.000000	99.159626 
2098.000000	99.166559 
2097.000000	99.173724 
2096.000000	99.183651 
2095.000000	99.196062 
2094.000000	99.203873 
2093.000000	99.197904 
2092.000000	99.177184 
2091.000000	99.152565 
2090.000000	99.137832 
2089.000000	99.137356 
2088.000000	99.143803 
2087.000000	99.147865 
2086.000000	99.148021 
2085.000000	99.149908 
2084.000000	99.157960 
2083.000000	99.169660 
2082.000000	99.178154 
2081.000000	99.179143 
2080.000000	99.174193 
2079.000000	99.167903 
2078.000000	99.163956 
2077.000000	99.164811 
2076.000000	99.172849 
2075.000000	99.188546 
2074.000000	99.207451 
2073.000000	99.221871 
2072.000000	99.226744 
2071.000000	99.222300 
2070.000000	99.211053 
2069.000000	99.195420 
2068.000000	99.179337 
2067.000000	99.168627 
2066.000000	99.166476 
2065.000000	99.169491 
2064.000000	99.171228 
2063.000000	99.169663 
2062.000000	99.169005 
2061.000000	99.174163 
2060.000000	99.185043 
2059.000000	99.196385 
2058.000000	99.202109 
2057.000000	99.199729 
2056.000000	99.191429 
2055.000000	99.181272 
2054.000000	99.171809 
2053.000000	99.164006 
2052.000000	99.159463 
2051.000000	99.160426 
2050.000000	99.166566 
2049.000000	99.172960 
2048.000000	99.173339 
2047.000000	99.165681 
2046.000000	99.153586 
2045.000000	99.142765 
2044.000000	99.136905 
2043.000000	99.135761 
2042.000000	99.136105 
2041.000000	99.135163 
2040.000000	99.133925 
2039.000000	99.136020 
2038.000000	99.142518 
2037.000000	99.149027 
2036.000000	99.149310 
2035.000000	99.141647 
2034.000000	99.130995 
2033.000000	99.125048 
2032.000000	99.127883 
2031.000000	99.136351 
2030.000000	99.142300 
2029.000000	99.138873 
2028.000000	99.125410 
2027.000000	99.107331 
2026.000000	99.093518 
2025.000000	99.093757 
2024.000000	99.112754 
2023.000000	99.142072 
2022.000000	99.161425 
2021.000000	99.155510 
2020.000000	99.130910 
2019.000000	99.110090 
2018.000000	99.107240 
2017.000000	99.114996 
2016.000000	99.117181 
2015.000000	99.108546 
2014.000000	99.095953 
2013.000000	99.085755 
2012.000000	99.078055 
2011.000000	99.072447 
2010.000000	99.073483 
2009.000000	99.087435 
2008.000000	99.114585 
2007.000000	99.145691 
2006.000000	99.166472 
2005.000000	99.167895 
2004.000000	99.153767 
2003.000000	99.137360 
2002.000000	99.130364 
2001.000000	99.135351 
2000.000000	99.146802 
1999.000000	99.156029 
1998.000000	99.155887 
1997.000000	99.145774 
1996.000000	99.133879 
1995.000000	99.130885 
1994.000000	99.139214 
1993.000000	99.149887 
1992.000000	99.151725 
1991.000000	99.142580 
1990.000000	99.129161 
1989.000000	99.118937 
1988.000000	99.115675 
1987.000000	99.119425 
1986.000000	99.126708 
1985.000000	99.132370 
1984.000000	99.134411 
1983.000000	99.135619 
1982.000000	99.137546 
1981.000000	99.134991 
1980.000000	99.121325 
1979.000000	99.098992 
1978.000000	99.080479 
1977.000000	99.076079 
1976.000000	99.082851 
1975.000000	99.089606 
1974.000000	99.091471 
1973.000000	99.095917 
1972.000000	99.113584 
1971.000000	99.144119 
1970.000000	99.172608 
1969.000000	99.181436 
1968.000000	99.166468 
1967.000000	99.140779 
1966.000000	99.121416 
1965.000000	99.114815 
1964.000000	99.116658 
1963.000000	99.121146 
1962.000000	99.125424 
1961.000000	99.127538 
1960.000000	99.126217 
1959.000000	99.124051 
1958.000000	99.126748 
1957.000000	99.136250 
1956.000000	99.146747 
1955.000000	99.150439 
1954.000000	99.146493 
1953.000000	99.141578 
1952.000000	99.140886 
1951.000000	99.141786 
1950.000000	99.138249 
1949.000000	99.129662 
1948.000000	99.122261 
1947.000000	99.120634 
1946.000000	99.120492 
1945.000000	99.113093 
1944.000000	99.096755 
1943.000000	99.081507 
1942.000000	99.079730 
1941.000000	99.092426 
1940.000000	99.108476 
1939.000000	99.117243 
1938.000000	99.118645 
1937.000000	99.121064 
1936.000000	99.130508 
1935.000000	99.143267 
1934.000000	99.151073 
1933.000000	99.152112 
1932.000000	99.153286 
1931.000000	99.160844 
1930.000000	99.171315 
1929.000000	99.175213 
1928.000000	99.168999 
1927.000000	99.158845 
1926.000000	99.152990 
1925.000000	99.153657 
1924.000000	99.157991 
1923.000000	99.163866 
1922.000000	99.171034 
1921.000000	99.177968 
1920.000000	99.180748 
1919.000000	99.175787 
1918.000000	99.163448 
1917.000000	99.149365 
1916.000000	99.140708 
1915.000000	99.140333 
1914.000000	99.145924 
1913.000000	99.153440 
1912.000000	99.159586 
1911.000000	99.161740 
1910.000000	99.157182 
1909.000000	99.146438 
1908.000000	99.136822 
1907.000000	99.137005 
1906.000000	99.147886 
1905.000000	99.161015 
1904.000000	99.167585 
1903.000000	99.167034 
1902.000000	99.164376 
1901.000000	99.163226 
1900.000000	99.164063 
1899.000000	99.166075 
1898.000000	99.168177 
1897.000000	99.168776 
1896.000000	99.166933 
1895.000000	99.163637 
1894.000000	99.160320 
1893.000000	99.157737 
1892.000000	99.157058 
1891.000000	99.159519 
1890.000000	99.163197 
1889.000000	99.163126 
1888.000000	99.157832 
1887.000000	99.151950 
1886.000000	99.150509 
1885.000000	99.154220 
1884.000000	99.160825 
1883.000000	99.168341 
1882.000000	99.174461 
1881.000000	99.175858 
1880.000000	99.172059 
1879.000000	99.167869 
1878.000000	99.169525 
1877.000000	99.178584 
1876.000000	99.190591 
1875.000000	99.199550 
1874.000000	99.201784 
1873.000000	99.196658 
1872.000000	99.186594 
1871.000000	99.175806 
1870.000000	99.166851 
1869.000000	99.158457 
1868.000000	99.150447 
1867.000000	99.148090 
1866.000000	99.155278 
1865.000000	99.167441 
1864.000000	99.174566 
1863.000000	99.170011 
1862.000000	99.156335 
1861.000000	99.142960 
1860.000000	99.138935 
1859.000000	99.147019 
1858.000000	99.162384 
1857.000000	99.176404 
1856.000000	99.183381 
1855.000000	99.184367 
1854.000000	99.183847 
1853.000000	99.184216 
1852.000000	99.185162 
1851.000000	99.185590 
1850.000000	99.185601 
1849.000000	99.187005 
1848.000000	99.191269 
1847.000000	99.196904 
1846.000000	99.199493 
1845.000000	99.196075 
1844.000000	99.190396 
1843.000000	99.190679 
1842.000000	99.198632 
1841.000000	99.207363 
1840.000000	99.210320 
1839.000000	99.206402 
1838.000000	99.199283 
1837.000000	99.193387 
1836.000000	99.190855 
1835.000000	99.191460 
1834.000000	99.193279 
1833.000000	99.194249 
1832.000000	99.193430 
1831.000000	99.190580 
1830.000000	99.186439 
1829.000000	99.183601 
1828.000000	99.183745 
1827.000000	99.184924 
1826.000000	99.184697 
1825.000000	99.183702 
1824.000000	99.184476 
1823.000000	99.187423 
1822.000000	99.189158 
1821.000000	99.186873 
1820.000000	99.182768 
1819.000000	99.182175 
1818.000000	99.187237 
1817.000000	99.193217 
1816.000000	99.194757 
1815.000000	99.193476 
1814.000000	99.194653 
1813.000000	99.199832 
1812.000000	99.205648 
1811.000000	99.210206 
1810.000000	99.215582 
1809.000000	99.221433 
1808.000000	99.223711 
1807.000000	99.220750 
1806.000000	99.215314 
1805.000000	99.210558 
1804.000000	99.207512 
1803.000000	99.205935 
1802.000000	99.204202 
1801.000000	99.199717 
1800.000000	99.192106 
1799.000000	99.186035 
1798.000000	99.186725 
1797.000000	99.193532 
1796.000000	99.201905 
1795.000000	99.208527 
1794.000000	99.212105 
1793.000000	99.210962 
1792.000000	99.203805 
1791.000000	99.195019 
1790.000000	99.190782 
1789.000000	99.191240 
1788.000000	99.193721 
1787.000000	99.197786 
1786.000000	99.204194 
1785.000000	99.210922 
1784.000000	99.214820 
1783.000000	99.216049 
1782.000000	99.216134 
1781.000000	99.215224 
1780.000000	99.211590 
1779.000000	99.204884 
1778.000000	99.198072 
1777.000000	99.194631 
1776.000000	99.196141 
1775.000000	99.200747 
1774.000000	99.205211 
1773.000000	99.208265 
1772.000000	99.209783 
1771.000000	99.209961 
1770.000000	99.209480 
1769.000000	99.208227 
1768.000000	99.205978 
1767.000000	99.203422 
1766.000000	99.201943 
1765.000000	99.202580 
1764.000000	99.204892 
1763.000000	99.207382 
1762.000000	99.208476 
1761.000000	99.208418 
1760.000000	99.207760 
1759.000000	99.206368 
1758.000000	99.205412 
1757.000000	99.208036 
1756.000000	99.215385 
1755.000000	99.223188 
1754.000000	99.227088 
1753.000000	99.228188 
1752.000000	99.230019 
1751.000000	99.230587 
1750.000000	99.225025 
1749.000000	99.215126 
1748.000000	99.208442 
1747.000000	99.208751 
1746.000000	99.212813 
1745.000000	99.216854 
1744.000000	99.219610 
1743.000000	99.220783 
1742.000000	99.220483 
1741.000000	99.219678 
1740.000000	99.219901 
1739.000000	99.222643 
1738.000000	99.227495 
1737.000000	99.231629 
1736.000000	99.232807 
1735.000000	99.232411 
1734.000000	99.230071 
1733.000000	99.226345 
1732.000000	99.225000 
1731.000000	99.225228 
1730.000000	99.224734 
1729.000000	99.223113 
1728.000000	99.221053 
1727.000000	99.219495 
1726.000000	99.219218 
1725.000000	99.221400 
1724.000000	99.225119 
1723.000000	99.228258 
1722.000000	99.229768 
1721.000000	99.229414 
1720.000000	99.227646 
1719.000000	99.226495 
1718.000000	99.227128 
1717.000000	99.225556 
1716.000000	99.220250 
1715.000000	99.217328 
1714.000000	99.220254 
1713.000000	99.224782 
1712.000000	99.226010 
1711.000000	99.225066 
1710.000000	99.225909 
1709.000000	99.228548 
1708.000000	99.229273 
1707.000000	99.226220 
1706.000000	99.221560 
1705.000000	99.216469 
1704.000000	99.211036 
1703.000000	99.206966 
1702.000000	99.208222 
1701.000000	99.217092 
1700.000000	99.223824 
1699.000000	99.224697 
1698.000000	99.226927 
1697.000000	99.227952 
1696.000000	99.222054 
1695.000000	99.212336 
1694.000000	99.206812 
1693.000000	99.206384 
1692.000000	99.206741 
1691.000000	99.206897 
1690.000000	99.206992 
1689.000000	99.206654 
1688.000000	99.206154 
1687.000000	99.205636 
1686.000000	99.206583 
1685.000000	99.209913 
1684.000000	99.209560 
1683.000000	99.205522 
1682.000000	99.203202 
1681.000000	99.202336 
1680.000000	99.204057 
1679.000000	99.208120 
1678.000000	99.210110 
1677.000000	99.207588 
1676.000000	99.203181 
1675.000000	99.200199 
1674.000000	99.199286 
1673.000000	99.201104 
1672.000000	99.205278 
1671.000000	99.210265 
1670.000000	99.211332 
1669.000000	99.205961 
1668.000000	99.200875 
1667.000000	99.200425 
1666.000000	99.201211 
1665.000000	99.199799 
1664.000000	99.196993 
1663.000000	99.195999 
1662.000000	99.196802 
1661.000000	99.197969 
1660.000000	99.200539 
1659.000000	99.205197 
1658.000000	99.209747 
1657.000000	99.211430 
1656.000000	99.210569 
1655.000000	99.209134 
1654.000000	99.209422 
1653.000000	99.204046 
1652.000000	99.197272 
1651.000000	99.200029 
1650.000000	99.204689 
1649.000000	99.206215 
1648.000000	99.206027 
1647.000000	99.203029 
1646.000000	99.198574 
1645.000000	99.197614 
1644.000000	99.201116 
1643.000000	99.205976 
1642.000000	99.209199 
1641.000000	99.209465 
1640.000000	99.207770 
1639.000000	99.205811 
1638.000000	99.204633 
1637.000000	99.205528 
1636.000000	99.208595 
1635.000000	99.210967 
1634.000000	99.211522 
1633.000000	99.210001 
1632.000000	99.206140 
1631.000000	99.202414 
1630.000000	99.200938 
1629.000000	99.201491 
1628.000000	99.202895 
1627.000000	99.203800 
1626.000000	99.202106 
1625.000000	99.197072 
1624.000000	99.191721 
1623.000000	99.190115 
1622.000000	99.192470 
1621.000000	99.196176 
1620.000000	99.199677 
1619.000000	99.202794 
1618.000000	99.205744 
1617.000000	99.207181 
1616.000000	99.207858 
1615.000000	99.210483 
1614.000000	99.214034 
1613.000000	99.216973 
1612.000000	99.221024 
1611.000000	99.226555 
1610.000000	99.229016 
1609.000000	99.225259 
1608.000000	99.219330 
1607.000000	99.216868 
1606.000000	99.217798 
1605.000000	99.219872 
1604.000000	99.223148 
1603.000000	99.227134 
1602.000000	99.229543 
1601.000000	99.229876 
1600.000000	99.230486 
1599.000000	99.232410 
1598.000000	99.233979 
1597.000000	99.234401 
1596.000000	99.234873 
1595.000000	99.235395 
1594.000000	99.233892 
1593.000000	99.230647 
1592.000000	99.229725 
1591.000000	99.233374 
1590.000000	99.238300 
1589.000000	99.240665 
1588.000000	99.241533 
1587.000000	99.243907 
1586.000000	99.247066 
1585.000000	99.248008 
1584.000000	99.247241 
1583.000000	99.246942 
1582.000000	99.246645 
1581.000000	99.245372 
1580.000000	99.244131 
1579.000000	99.242923 
1578.000000	99.239759 
1577.000000	99.234628 
1576.000000	99.230859 
1575.000000	99.231357 
1574.000000	99.233671 
1573.000000	99.234392 
1572.000000	99.234048 
1571.000000	99.235187 
1570.000000	99.236960 
1569.000000	99.237750 
1568.000000	99.240243 
1567.000000	99.243589 
1566.000000	99.243300 
1565.000000	99.238879 
1564.000000	99.235080 
1563.000000	99.233041 
1562.000000	99.230731 
1561.000000	99.226427 
1560.000000	99.229177 
1559.000000	99.231559 
1558.000000	99.224337 
1557.000000	99.222656 
1556.000000	99.228829 
1555.000000	99.235767 
1554.000000	99.239336 
1553.000000	99.238500 
1552.000000	99.235913 
1551.000000	99.232845 
1550.000000	99.230524 
1549.000000	99.230158 
1548.000000	99.232129 
1547.000000	99.233991 
1546.000000	99.231521 
1545.000000	99.223454 
1544.000000	99.214580 
1543.000000	99.212214 
1542.000000	99.219112 
1541.000000	99.229797 
1540.000000	99.233475 
1539.000000	99.230579 
1538.000000	99.229417 
1537.000000	99.230291 
1536.000000	99.231132 
1535.000000	99.232956 
1534.000000	99.233248 
1533.000000	99.227477 
1532.000000	99.218592 
1531.000000	99.213248 
1530.000000	99.212125 
1529.000000	99.211376 
1528.000000	99.208652 
1527.000000	99.206261 
1526.000000	99.207303 
1525.000000	99.211283 
1524.000000	99.216087 
1523.000000	99.221960 
1522.000000	99.228446 
1521.000000	99.229749 
1520.000000	99.223202 
1519.000000	99.212140 
1518.000000	99.199627 
1517.000000	99.188813 
1516.000000	99.182885 
1515.000000	99.182627 
1514.000000	99.185926 
1513.000000	99.190591 
1512.000000	99.194558 
1511.000000	99.195380 
1510.000000	99.193132 
1509.000000	99.189795 
1508.000000	99.189131 
1507.000000	99.190400 
1506.000000	99.190488 
1505.000000	99.189777 
1504.000000	99.189252 
1503.000000	99.188915 
1502.000000	99.189073 
1501.000000	99.188459 
1500.000000	99.184804 
1499.000000	99.178195 
1498.000000	99.172785 
1497.000000	99.171324 
1496.000000	99.170871 
1495.000000	99.170693 
1494.000000	99.173341 
1493.000000	99.178588 
1492.000000	99.183478 
1491.000000	99.184945 
1490.000000	99.181353 
1489.000000	99.173721 
1488.000000	99.165001 
1487.000000	99.159159 
1486.000000	99.156881 
1485.000000	99.154340 
1484.000000	99.150081 
1483.000000	99.145988 
1482.000000	99.144078 
1481.000000	99.143706 
1480.000000	99.143067 
1479.000000	99.142429 
1478.000000	99.142930 
1477.000000	99.143602 
1476.000000	99.142824 
1475.000000	99.143114 
1474.000000	99.147713 
1473.000000	99.153587 
1472.000000	99.154394 
1471.000000	99.151177 
1470.000000	99.148955 
1469.000000	99.147952 
1468.000000	99.146187 
1467.000000	99.143968 
1466.000000	99.143274 
1465.000000	99.144613 
1464.000000	99.147028 
1463.000000	99.149512 
1462.000000	99.151273 
1461.000000	99.150991 
1460.000000	99.147810 
1459.000000	99.141048 
1458.000000	99.129910 
1457.000000	99.114082 
1456.000000	99.099442 
1455.000000	99.092529 
1454.000000	99.092120 
1453.000000	99.095996 
1452.000000	99.102923 
1451.000000	99.110078 
1450.000000	99.114854 
1449.000000	99.116336 
1448.000000	99.114850 
1447.000000	99.112681 
1446.000000	99.112108 
1445.000000	99.114244 
1444.000000	99.118756 
1443.000000	99.123625 
1442.000000	99.127007 
1441.000000	99.128379 
1440.000000	99.128244 
1439.000000	99.127079 
1438.000000	99.127016 
1437.000000	99.129150 
1436.000000	99.130716 
1435.000000	99.129810 
1434.000000	99.127846 
1433.000000	99.125776 
1432.000000	99.123593 
1431.000000	99.120736 
1430.000000	99.117670 
1429.000000	99.116066 
1428.000000	99.115822 
1427.000000	99.115683 
1426.000000	99.114467 
1425.000000	99.112896 
1424.000000	99.111386 
1423.000000	99.107398 
1422.000000	99.098936 
1421.000000	99.086826 
1420.000000	99.073585 
1419.000000	99.060689 
1418.000000	99.050630 
1417.000000	99.044394 
1416.000000	99.037221 
1415.000000	99.024692 
1414.000000	99.007519 
1413.000000	98.990274 
1412.000000	98.977025 
1411.000000	98.967815 
1410.000000	98.960713 
1409.000000	98.954599 
1408.000000	98.949390 
1407.000000	98.946463 
1406.000000	98.947147 
1405.000000	98.951879 
1404.000000	98.960214 
1403.000000	98.971104 
1402.000000	98.984161 
1401.000000	98.998893 
1400.000000	99.012874 
1399.000000	99.021040 
1398.000000	99.018702 
1397.000000	99.002947 
1396.000000	98.973458 
1395.000000	98.939750 
1394.000000	98.922131 
1393.000000	98.934353 
1392.000000	98.968535 
1391.000000	99.004975 
1390.000000	99.029602 
1389.000000	99.039813 
1388.000000	99.039670 
1387.000000	99.033552 
1386.000000	99.025021 
1385.000000	99.017700 
1384.000000	99.013711 
1383.000000	99.012227 
1382.000000	99.011632 
1381.000000	99.012297 
1380.000000	99.016636 
1379.000000	99.025830 
1378.000000	99.037552 
1377.000000	99.048114 
1376.000000	99.055846 
1375.000000	99.061599 
1374.000000	99.067451 
1373.000000	99.075881 
1372.000000	99.087610 
1371.000000	99.100506 
1370.000000	99.111206 
1369.000000	99.118562 
1368.000000	99.124313 
1367.000000	99.130006 
1366.000000	99.135602 
1365.000000	99.140939 
1364.000000	99.146558 
1363.000000	99.152367 
1362.000000	99.157303 
1361.000000	99.161340 
1360.000000	99.166094 
1359.000000	99.172859 
1358.000000	99.181136 
1357.000000	99.189256 
1356.000000	99.195594 
1355.000000	99.199360 
1354.000000	99.201404 
1353.000000	99.203716 
1352.000000	99.207079 
1351.000000	99.210305 
1350.000000	99.211517 
1349.000000	99.211367 
1348.000000	99.212593 
1347.000000	99.215906 
1346.000000	99.219237 
1345.000000	99.221094 
1344.000000	99.222097 
1343.000000	99.222569 
1342.000000	99.221440 
1341.000000	99.218794 
1340.000000	99.217286 
1339.000000	99.219026 
1338.000000	99.222892 
1337.000000	99.226784 
1336.000000	99.230175 
1335.000000	99.233006 
1334.000000	99.234400 
1333.000000	99.234079 
1332.000000	99.233480 
1331.000000	99.233832 
1330.000000	99.234340 
1329.000000	99.233879 
1328.000000	99.233008 
1327.000000	99.232788 
1326.000000	99.232846 
1325.000000	99.232673 
1324.000000	99.232980 
1323.000000	99.233992 
1322.000000	99.234386 
1321.000000	99.233707 
1320.000000	99.234392 
1319.000000	99.238943 
1318.000000	99.245725 
1317.000000	99.249842 
1316.000000	99.248285 
1315.000000	99.242540 
1314.000000	99.236405 
1313.000000	99.232579 
1312.000000	99.231345 
1311.000000	99.231545 
1310.000000	99.232130 
1309.000000	99.232855 
1308.000000	99.233683 
1307.000000	99.234131 
1306.000000	99.233547 
1305.000000	99.232258 
1304.000000	99.231334 
1303.000000	99.231125 
1302.000000	99.231046 
1301.000000	99.230863 
1300.000000	99.231094 
1299.000000	99.231922 
1298.000000	99.232969 
1297.000000	99.234364 
1296.000000	99.236712 
1295.000000	99.239306 
1294.000000	99.239783 
1293.000000	99.236591 
1292.000000	99.230881 
1291.000000	99.225301 
1290.000000	99.221760 
1289.000000	99.220768 
1288.000000	99.221661 
1287.000000	99.222533 
1286.000000	99.221150 
1285.000000	99.217144 
1284.000000	99.212472 
1283.000000	99.208902 
1282.000000	99.206042 
1281.000000	99.202728 
1280.000000	99.199166 
1279.000000	99.196031 
1278.000000	99.192523 
1277.000000	99.187296 
1276.000000	99.180877 
1275.000000	99.175143 
1274.000000	99.170381 
1273.000000	99.164837 
1272.000000	99.157609 
1271.000000	99.150353 
1270.000000	99.145252 
1269.000000	99.142344 
1268.000000	99.139660 
1267.000000	99.135083 
1266.000000	99.127637 
1265.000000	99.117776 
1264.000000	99.107095 
1263.000000	99.097309 
1262.000000	99.088877 
1261.000000	99.080899 
1260.000000	99.072744 
1259.000000	99.065142 
1258.000000	99.059306 
1257.000000	99.055634 
1256.000000	99.053853 
1255.000000	99.053772 
1254.000000	99.054863 
1253.000000	99.055415 
1252.000000	99.053489 
1251.000000	99.049285 
1250.000000	99.045751 
1249.000000	99.046015 
1248.000000	99.050482 
1247.000000	99.056629 
1246.000000	99.060680 
1245.000000	99.058777 
1244.000000	99.048334 
1243.000000	99.031348 
1242.000000	99.016196 
1241.000000	99.012412 
1240.000000	99.021556 
1239.000000	99.034938 
1238.000000	99.042211 
1237.000000	99.040857 
1236.000000	99.035462 
1235.000000	99.029984 
1234.000000	99.024217 
1233.000000	99.016954 
1232.000000	99.008555 
1231.000000	98.999497 
1230.000000	98.989528 
1229.000000	98.979820 
1228.000000	98.973649 
1227.000000	98.973017 
1226.000000	98.975825 
1225.000000	98.977930 
1224.000000	98.977101 
1223.000000	98.973839 
1222.000000	98.969523 
1221.000000	98.965318 
1220.000000	98.962257 
1219.000000	98.960807 
1218.000000	98.960225 
1217.000000	98.959006 
1216.000000	98.955848 
1215.000000	98.949939 
1214.000000	98.940875 
1213.000000	98.928882 
1212.000000	98.914876 
1211.000000	98.900224 
1210.000000	98.886660 
1209.000000	98.875927 
1208.000000	98.868460 
1207.000000	98.862441 
1206.000000	98.855284 
1205.000000	98.846210 
1204.000000	98.836309 
1203.000000	98.826088 
1202.000000	98.814581 
1201.000000	98.801292 
1200.000000	98.787456 
1199.000000	98.774511 
1198.000000	98.762554 
1197.000000	98.750932 
1196.000000	98.738976 
1195.000000	98.725458 
1194.000000	98.708882 
1193.000000	98.689593 
1192.000000	98.670399 
1191.000000	98.653784 
1190.000000	98.639292 
1189.000000	98.624685 
1188.000000	98.608776 
1187.000000	98.592129 
1186.000000	98.575903 
1185.000000	98.560974 
1184.000000	98.547224 
1183.000000	98.532789 
1182.000000	98.515207 
1181.000000	98.494384 
1180.000000	98.473137 
1179.000000	98.453586 
1178.000000	98.434481 
1177.000000	98.413661 
1176.000000	98.391498 
1175.000000	98.369628 
1174.000000	98.347381 
1173.000000	98.322310 
1172.000000	98.294233 
1171.000000	98.266491 
1170.000000	98.242674 
1169.000000	98.223380 
1168.000000	98.206364 
1167.000000	98.189058 
1166.000000	98.171475 
1165.000000	98.157569 
1164.000000	98.152675 
1163.000000	98.158196 
1162.000000	98.169735 
1161.000000	98.181827 
1160.000000	98.192898 
1159.000000	98.203371 
1158.000000	98.210482 
1157.000000	98.208330 
1156.000000	98.193429 
1155.000000	98.168592 
1154.000000	98.141370 
1153.000000	98.119331 
1152.000000	98.105275 
1151.000000	98.094869 
1150.000000	98.079928 
1149.000000	98.056429 
1148.000000	98.028750 
1147.000000	98.004241 
1146.000000	97.984953 
1145.000000	97.967249 
1144.000000	97.948135 
1143.000000	97.928182 
1142.000000	97.908642 
1141.000000	97.889683 
1140.000000	97.872166 
1139.000000	97.857598 
1138.000000	97.844932 
1137.000000	97.830245 
1136.000000	97.811137 
1135.000000	97.789381 
1134.000000	97.767888 
1133.000000	97.746905 
1132.000000	97.724814 
1131.000000	97.701516 
1130.000000	97.679541 
1129.000000	97.661778 
1128.000000	97.648061 
1127.000000	97.633707 
1126.000000	97.612686 
1125.000000	97.583922 
1124.000000	97.553547 
1123.000000	97.528915 
1122.000000	97.511022 
1121.000000	97.494902 
1120.000000	97.476442 
1119.000000	97.455645 
1118.000000	97.433594 
1117.000000	97.409976 
1116.000000	97.384714 
1115.000000	97.359384 
1114.000000	97.335729 
1113.000000	97.314434 
1112.000000	97.295650 
1111.000000	97.278479 
1110.000000	97.259630 
1109.000000	97.235439 
1108.000000	97.206216 
1107.000000	97.176645 
1106.000000	97.150742 
1105.000000	97.127919 
1104.000000	97.104869 
1103.000000	97.079845 
1102.000000	97.054217 
1101.000000	97.031104 
1100.000000	97.012557 
1099.000000	96.997850 
1098.000000	96.984188 
1097.000000	96.969976 
1096.000000	96.956348 
1095.000000	96.943868 
1094.000000	96.929192 
1093.000000	96.907141 
1092.000000	96.875441 
1091.000000	96.835917 
1090.000000	96.792539 
1089.000000	96.750215 
1088.000000	96.713326 
1087.000000	96.682090 
1086.000000	96.651613 
1085.000000	96.617959 
1084.000000	96.583941 
1083.000000	96.555275 
1082.000000	96.532221 
1081.000000	96.509327 
1080.000000	96.482784 
1079.000000	96.453700 
1078.000000	96.424692 
1077.000000	96.398031 
1076.000000	96.377238 
1075.000000	96.365601 
1074.000000	96.361901 
1073.000000	96.360919 
1072.000000	96.357501 
1071.000000	96.345784 
1070.000000	96.316276 
1069.000000	96.261897 
1068.000000	96.190034 
1067.000000	96.123099 
1066.000000	96.081889 
1065.000000	96.069323 
1064.000000	96.071542 
1063.000000	96.070595 
1062.000000	96.053764 
1061.000000	96.016070 
1060.000000	95.960614 
1059.000000	95.897550 
1058.000000	95.839360 
1057.000000	95.794354 
1056.000000	95.763298 
1055.000000	95.740784 
1054.000000	95.719680 
1053.000000	95.696053 
1052.000000	95.670699 
1051.000000	95.645622 
1050.000000	95.620115 
1049.000000	95.591928 
1048.000000	95.561014 
1047.000000	95.530008 
1046.000000	95.502085 
1045.000000	95.479593 
1044.000000	95.462574 
1043.000000	95.446898 
1042.000000	95.426693 
1041.000000	95.401292 
1040.000000	95.377465 
1039.000000	95.362357 
1038.000000	95.356913 
1037.000000	95.358554 
1036.000000	95.366202 
1035.000000	95.378619 
1034.000000	95.391583 
1033.000000	95.401290 
1032.000000	95.407070 
1031.000000	95.406752 
1030.000000	95.394980 
1029.000000	95.373241 
1028.000000	95.356992 
1027.000000	95.362927 
1026.000000	95.389535 
1025.000000	95.418293 
1024.000000	95.433950 
1023.000000	95.436280 
1022.000000	95.432825 
1021.000000	95.428966 
1020.000000	95.427140 
1019.000000	95.428223 
1018.000000	95.429962 
1017.000000	95.428797 
1016.000000	95.425662 
1015.000000	95.425931 
1014.000000	95.432154 
1013.000000	95.440864 
1012.000000	95.447628 
1011.000000	95.451160 
1010.000000	95.451803 
1009.000000	95.450450 
1008.000000	95.450116 
1007.000000	95.454497 
1006.000000	95.463601 
1005.000000	95.474056 
1004.000000	95.484209 
1003.000000	95.495339 
1002.000000	95.507746 
1001.000000	95.519648 
1000.000000	95.530346 
999.000000	 95.540682 
998.000000	 95.550208 
997.000000	 95.557905 
996.000000	 95.565996 
995.000000	 95.578876 
994.000000	 95.597420 
993.000000	 95.617772 
992.000000	 95.636129 
991.000000	 95.651304 
990.000000	 95.662873 
989.000000	 95.670959 
988.000000	 95.678353 
987.000000	 95.689153 
986.000000	 95.704695 
985.000000	 95.723827 
984.000000	 95.746690 
983.000000	 95.774299 
982.000000	 95.804545 
981.000000	 95.832898 
980.000000	 95.857671 
979.000000	 95.881317 
978.000000	 95.906598 
977.000000	 95.934765 
976.000000	 95.966825 
975.000000	 96.002557 
974.000000	 96.038617 
973.000000	 96.071759 
972.000000	 96.103830 
971.000000	 96.139603 
970.000000	 96.179901 
969.000000	 96.220964 
968.000000	 96.260369 
967.000000	 96.299015 
966.000000	 96.337032 
965.000000	 96.372259 
964.000000	 96.403818 
963.000000	 96.433603 
962.000000	 96.463470 
961.000000	 96.493973 
960.000000	 96.525875 
959.000000	 96.559326 
958.000000	 96.591441 
957.000000	 96.618489 
956.000000	 96.640959 
955.000000	 96.663146 
954.000000	 96.687531 
953.000000	 96.712926 
952.000000	 96.738049 
951.000000	 96.762937 
950.000000	 96.786349 
949.000000	 96.805671 
948.000000	 96.820315 
947.000000	 96.831994 
946.000000	 96.841129 
945.000000	 96.846574 
944.000000	 96.849834 
943.000000	 96.856077 
942.000000	 96.869215 
941.000000	 96.888017 
940.000000	 96.907762 
939.000000	 96.923718 
938.000000	 96.933221 
937.000000	 96.937311 
936.000000	 96.940922 
935.000000	 96.949144 
934.000000	 96.962757 
933.000000	 96.978979 
932.000000	 96.995831 
931.000000	 97.013217 
930.000000	 97.030347 
929.000000	 97.045029 
928.000000	 97.055539 
927.000000	 97.061344 
926.000000	 97.063004 
925.000000	 97.063484 
924.000000	 97.067967 
923.000000	 97.079299 
922.000000	 97.094543 
921.000000	 97.108454 
920.000000	 97.118476 
919.000000	 97.123734 
918.000000	 97.122515 
917.000000	 97.115615 
916.000000	 97.109731 
915.000000	 97.111596 
914.000000	 97.119404 
913.000000	 97.125457 
912.000000	 97.127046 
911.000000	 97.129666 
910.000000	 97.139651 
909.000000	 97.158477 
908.000000	 97.183944 
907.000000	 97.211604 
906.000000	 97.235086 
905.000000	 97.250646 
904.000000	 97.262245 
903.000000	 97.277901 
902.000000	 97.301038 
901.000000	 97.329368 
900.000000	 97.360662 
899.000000	 97.393498 
898.000000	 97.422876 
897.000000	 97.442452 
896.000000	 97.452657 
895.000000	 97.461281 
894.000000	 97.474839 
893.000000	 97.494089 
892.000000	 97.518216 
891.000000	 97.547178 
890.000000	 97.578345 
889.000000	 97.606536 
888.000000	 97.629607 
887.000000	 97.649793 
886.000000	 97.668601 
885.000000	 97.685261 
884.000000	 97.700922 
883.000000	 97.718397 
882.000000	 97.736084 
881.000000	 97.748481 
880.000000	 97.755644 
879.000000	 97.766214 
878.000000	 97.787008 
877.000000	 97.814215 
876.000000	 97.838542 
875.000000	 97.854734 
874.000000	 97.862998 
873.000000	 97.866012 
872.000000	 97.868745 
871.000000	 97.877462 
870.000000	 97.894596 
869.000000	 97.916882 
868.000000	 97.940765 
867.000000	 97.966110 
866.000000	 97.992241 
865.000000	 98.014864 
864.000000	 98.031256 
863.000000	 98.045553 
862.000000	 98.063912 
861.000000	 98.085398 
860.000000	 98.101988 
859.000000	 98.108017 
858.000000	 98.106806 
857.000000	 98.107436 
856.000000	 98.117132 
855.000000	 98.137178 
854.000000	 98.163641 
853.000000	 98.190200 
852.000000	 98.211195 
851.000000	 98.224445 
850.000000	 98.232821 
849.000000	 98.242295 
848.000000	 98.256531 
847.000000	 98.273130 
846.000000	 98.286559 
845.000000	 98.294678 
844.000000	 98.300245 
843.000000	 98.306014 
842.000000	 98.311672 
841.000000	 98.316501 
840.000000	 98.321011 
839.000000	 98.323589 
838.000000	 98.319628 
837.000000	 98.307903 
836.000000	 98.294760 
835.000000	 98.287535 
834.000000	 98.286192 
833.000000	 98.286470 
832.000000	 98.289035 
831.000000	 98.298517 
830.000000	 98.313145 
829.000000	 98.322466 
828.000000	 98.319016 
827.000000	 98.308106 
826.000000	 98.302110 
825.000000	 98.306921 
824.000000	 98.317179 
823.000000	 98.323944 
822.000000	 98.324539 
821.000000	 98.323970 
820.000000	 98.327340 
819.000000	 98.332989 
818.000000	 98.335343 
817.000000	 98.333566 
816.000000	 98.332739 
815.000000	 98.334482 
814.000000	 98.331032 
813.000000	 98.313130 
812.000000	 98.280573 
811.000000	 98.239757 
810.000000	 98.192905 
809.000000	 98.135409 
808.000000	 98.063210 
807.000000	 97.977768 
806.000000	 97.883871 
805.000000	 97.787223 
804.000000	 97.694577 
803.000000	 97.611744 
802.000000	 97.540417 
801.000000	 97.480121 
800.000000	 97.432788 
799.000000	 97.401633 
798.000000	 97.386617 
797.000000	 97.385151 
796.000000	 97.395464 
795.000000	 97.414543 
794.000000	 97.435312 
793.000000	 97.452022 
792.000000	 97.466651 
791.000000	 97.484006 
790.000000	 97.502232 
789.000000	 97.513942 
788.000000	 97.514406 
787.000000	 97.502373 
786.000000	 97.475874 
785.000000	 97.435540 
784.000000	 97.390731 
783.000000	 97.353679 
782.000000	 97.326883 
781.000000	 97.303393 
780.000000	 97.279268 
779.000000	 97.257996 
778.000000	 97.242992 
777.000000	 97.234629 
776.000000	 97.235698 
775.000000	 97.250812 
774.000000	 97.277848 
773.000000	 97.307654 
772.000000	 97.334788 
771.000000	 97.361887 
770.000000	 97.391456 
769.000000	 97.419947 
768.000000	 97.442199 
767.000000	 97.456245 
766.000000	 97.462630 
765.000000	 97.464681 
764.000000	 97.469881 
763.000000	 97.483963 
762.000000	 97.501961 
761.000000	 97.511718 
760.000000	 97.508577 
759.000000	 97.501289 
758.000000	 97.502125 
757.000000	 97.516070 
756.000000	 97.539423 
755.000000	 97.562305 
754.000000	 97.572926 
753.000000	 97.567941 
752.000000	 97.560327 
751.000000	 97.569378 
750.000000	 97.599796 
749.000000	 97.636172 
748.000000	 97.659866 
747.000000	 97.665561 
746.000000	 97.660567 
745.000000	 97.655247 
744.000000	 97.657017 
743.000000	 97.667874 
742.000000	 97.684481 
741.000000	 97.703872 
740.000000	 97.728697 
739.000000	 97.761873 
738.000000	 97.797617 
737.000000	 97.824964 
736.000000	 97.839449 
735.000000	 97.844259 
734.000000	 97.841634 
733.000000	 97.832848 
732.000000	 97.826488 
731.000000	 97.834902 
730.000000	 97.858509 
729.000000	 97.883203 
728.000000	 97.897475 
727.000000	 97.903689 
726.000000	 97.908985 
725.000000	 97.913803 
724.000000	 97.914689 
723.000000	 97.911657 
722.000000	 97.907600 
721.000000	 97.905436 
720.000000	 97.909132 
719.000000	 97.921828 
718.000000	 97.939860 
717.000000	 97.953978 
716.000000	 97.958361 
715.000000	 97.954016 
714.000000	 97.944477 
713.000000	 97.935591 
712.000000	 97.938577 
711.000000	 97.962175 
710.000000	 97.998574 
709.000000	 98.026949 
708.000000	 98.034998 
707.000000	 98.028576 
706.000000	 98.017245 
705.000000	 98.000646 
704.000000	 97.975112 
703.000000	 97.944588 
702.000000	 97.916623 
701.000000	 97.892443 
700.000000	 97.866915 
699.000000	 97.834219 
698.000000	 97.791592 
697.000000	 97.743584 
696.000000	 97.703947 
695.000000	 97.685781 
694.000000	 97.687582 
693.000000	 97.697226 
692.000000	 97.710560 
691.000000	 97.734314 
690.000000	 97.768465 
689.000000	 97.799310 
688.000000	 97.816784 
687.000000	 97.826943 
686.000000	 97.838312 
685.000000	 97.847525 
684.000000	 97.848308 
683.000000	 97.844226 
682.000000	 97.844102 
681.000000	 97.851868 
680.000000	 97.865152 
679.000000	 97.876010 
678.000000	 97.872372 
677.000000	 97.851538 
676.000000	 97.834684 
675.000000	 97.848152 
674.000000	 97.888488 
673.000000	 97.923271 
672.000000	 97.931304 
671.000000	 97.925300 
670.000000	 97.930450 
669.000000	 97.955109 
668.000000	 97.978686 
667.000000	 97.982755 
666.000000	 97.976586 
665.000000	 97.966355 
664.000000	 97.957568 
663.000000	 97.966157 
662.000000	 97.996655 
661.000000	 98.025845 
660.000000	 98.026227 
659.000000	 97.996317 
658.000000	 97.954009 
657.000000	 97.910754 
656.000000	 97.869019 
655.000000	 97.834817 
654.000000	 97.815906 
653.000000	 97.812038 
652.000000	 97.818906 
651.000000	 97.834178 
650.000000	 97.849194 

