4000.000000	98.860483 
3999.000000	98.858542 
3998.000000	98.856922 
3997.000000	98.857740 
3996.000000	98.860569 
3995.000000	98.863285 
3994.000000	98.864625 
3993.000000	98.865040 
3992.000000	98.865146 
3991.000000	98.864350 
3990.000000	98.861593 
3989.000000	98.856895 
3988.000000	98.851717 
3987.000000	98.848061 
3986.000000	98.847394 
3985.000000	98.849966 
3984.000000	98.854723 
3983.000000	98.860196 
3982.000000	98.865715 
3981.000000	98.871601 
3980.000000	98.877980 
3979.000000	98.883752 
3978.000000	98.887215 
3977.000000	98.887559 
3976.000000	98.885202 
3975.000000	98.880879 
3974.000000	98.874997 
3973.000000	98.868076 
3972.000000	98.861221 
3971.000000	98.855969 
3970.000000	98.853920 
3969.000000	98.855783 
3968.000000	98.860605 
3967.000000	98.866009 
3966.000000	98.869775 
3965.000000	98.871130 
3964.000000	98.870643 
3963.000000	98.869467 
3962.000000	98.868797 
3961.000000	98.869317 
3960.000000	98.870122 
3959.000000	98.868991 
3958.000000	98.865250 
3957.000000	98.861120 
3956.000000	98.859666 
3955.000000	98.861358 
3954.000000	98.863974 
3953.000000	98.865232 
3952.000000	98.864455 
3951.000000	98.862384 
3950.000000	98.859723 
3949.000000	98.856537 
3948.000000	98.853099 
3947.000000	98.850823 
3946.000000	98.850921 
3945.000000	98.852608 
3944.000000	98.853809 
3943.000000	98.853565 
3942.000000	98.852928 
3941.000000	98.853318 
3940.000000	98.853958 
3939.000000	98.852724 
3938.000000	98.850200 
3937.000000	98.849210 
3936.000000	98.850950 
3935.000000	98.852930 
3934.000000	98.852803 
3933.000000	98.852357 
3932.000000	98.854849 
3931.000000	98.860245 
3930.000000	98.864891 
3929.000000	98.866094 
3928.000000	98.864762 
3927.000000	98.862176 
3926.000000	98.858018 
3925.000000	98.853108 
3924.000000	98.851024 
3923.000000	98.853210 
3922.000000	98.855229 
3921.000000	98.852928 
3920.000000	98.848992 
3919.000000	98.848277 
3918.000000	98.850133 
3917.000000	98.850527 
3916.000000	98.849761 
3915.000000	98.851699 
3914.000000	98.856389 
3913.000000	98.859758 
3912.000000	98.859913 
3911.000000	98.857613 
3910.000000	98.854737 
3909.000000	98.851811 
3908.000000	98.849851 
3907.000000	98.849671 
3906.000000	98.850603 
3905.000000	98.850256 
3904.000000	98.847540 
3903.000000	98.845266 
3902.000000	98.845936 
3901.000000	98.846315 
3900.000000	98.842264 
3899.000000	98.836090 
3898.000000	98.832788 
3897.000000	98.832227 
3896.000000	98.830190 
3895.000000	98.826688 
3894.000000	98.828141 
3893.000000	98.836843 
3892.000000	98.845460 
3891.000000	98.846577 
3890.000000	98.848148 
3889.000000	98.857724 
3888.000000	98.867170 
3887.000000	98.865603 
3886.000000	98.854383 
3885.000000	98.845294 
3884.000000	98.848353 
3883.000000	98.855928 
3882.000000	98.853777 
3881.000000	98.841838 
3880.000000	98.831370 
3879.000000	98.832137 
3878.000000	98.843959 
3877.000000	98.855563 
3876.000000	98.857857 
3875.000000	98.851235 
3874.000000	98.843824 
3873.000000	98.844459 
3872.000000	98.849140 
3871.000000	98.843759 
3870.000000	98.826043 
3869.000000	98.815519 
3868.000000	98.828571 
3867.000000	98.848644 
3866.000000	98.851868 
3865.000000	98.842771 
3864.000000	98.839776 
3863.000000	98.845359 
3862.000000	98.848591 
3861.000000	98.843547 
3860.000000	98.835777 
3859.000000	98.828132 
3858.000000	98.818528 
3857.000000	98.806536 
3856.000000	98.800331 
3855.000000	98.809750 
3854.000000	98.824254 
3853.000000	98.820930 
3852.000000	98.816605 
3851.000000	98.832762 
3850.000000	98.849953 
3849.000000	98.854383 
3848.000000	98.854184 
3847.000000	98.856726 
3846.000000	98.859820 
3845.000000	98.859271 
3844.000000	98.854928 
3843.000000	98.850185 
3842.000000	98.848982 
3841.000000	98.849822 
3840.000000	98.849928 
3839.000000	98.849285 
3838.000000	98.849415 
3837.000000	98.849632 
3836.000000	98.849834 
3835.000000	98.849990 
3834.000000	98.849381 
3833.000000	98.847951 
3832.000000	98.847632 
3831.000000	98.850710 
3830.000000	98.857014 
3829.000000	98.862075 
3828.000000	98.860219 
3827.000000	98.850382 
3826.000000	98.840838 
3825.000000	98.841723 
3824.000000	98.852806 
3823.000000	98.863633 
3822.000000	98.864441 
3821.000000	98.852660 
3820.000000	98.844909 
3819.000000	98.854529 
3818.000000	98.864173 
3817.000000	98.857253 
3816.000000	98.840685 
3815.000000	98.833501 
3814.000000	98.842379 
3813.000000	98.850497 
3812.000000	98.844256 
3811.000000	98.834228 
3810.000000	98.836236 
3809.000000	98.850123 
3808.000000	98.860755 
3807.000000	98.857966 
3806.000000	98.852140 
3805.000000	98.857145 
3804.000000	98.864822 
3803.000000	98.860145 
3802.000000	98.843418 
3801.000000	98.825938 
3800.000000	98.823837 
3799.000000	98.834387 
3798.000000	98.836973 
3797.000000	98.827587 
3796.000000	98.819476 
3795.000000	98.822761 
3794.000000	98.833469 
3793.000000	98.842526 
3792.000000	98.848160 
3791.000000	98.854072 
3790.000000	98.859737 
3789.000000	98.861999 
3788.000000	98.861739 
3787.000000	98.863309 
3786.000000	98.867261 
3785.000000	98.870197 
3784.000000	98.871717 
3783.000000	98.874889 
3782.000000	98.879005 
3781.000000	98.879019 
3780.000000	98.872554 
3779.000000	98.863046 
3778.000000	98.857161 
3777.000000	98.855737 
3776.000000	98.853130 
3775.000000	98.847278 
3774.000000	98.844672 
3773.000000	98.850299 
3772.000000	98.859346 
3771.000000	98.862511 
3770.000000	98.858194 
3769.000000	98.854198 
3768.000000	98.856572 
3767.000000	98.860014 
3766.000000	98.857335 
3765.000000	98.851592 
3764.000000	98.852056 
3763.000000	98.859864 
3762.000000	98.865320 
3761.000000	98.863472 
3760.000000	98.861272 
3759.000000	98.862843 
3758.000000	98.863731 
3757.000000	98.860767 
3756.000000	98.857867 
3755.000000	98.857321 
3754.000000	98.856733 
3753.000000	98.857162 
3752.000000	98.862875 
3751.000000	98.866216 
3750.000000	98.852705 
3749.000000	98.829951 
3748.000000	98.818719 
3747.000000	98.819685 
3746.000000	98.819632 
3745.000000	98.811231 
3744.000000	98.797959 
3743.000000	98.802518 
3742.000000	98.826911 
3741.000000	98.838613 
3740.000000	98.830397 
3739.000000	98.822963 
3738.000000	98.827871 
3737.000000	98.836414 
3736.000000	98.840387 
3735.000000	98.845377 
3734.000000	98.854522 
3733.000000	98.857869 
3732.000000	98.850780 
3731.000000	98.845343 
3730.000000	98.851008 
3729.000000	98.860088 
3728.000000	98.861428 
3727.000000	98.857370 
3726.000000	98.858080 
3725.000000	98.866034 
3724.000000	98.871810 
3723.000000	98.869052 
3722.000000	98.862321 
3721.000000	98.858837 
3720.000000	98.860484 
3719.000000	98.862571 
3718.000000	98.860672 
3717.000000	98.855194 
3716.000000	98.849103 
3715.000000	98.842434 
3714.000000	98.834437 
3713.000000	98.827936 
3712.000000	98.824605 
3711.000000	98.821568 
3710.000000	98.818633 
3709.000000	98.817799 
3708.000000	98.818407 
3707.000000	98.818612 
3706.000000	98.817881 
3705.000000	98.816220 
3704.000000	98.813496 
3703.000000	98.810362 
3702.000000	98.807442 
3701.000000	98.805562 
3700.000000	98.807102 
3699.000000	98.810330 
3698.000000	98.807899 
3697.000000	98.797096 
3696.000000	98.784092 
3695.000000	98.775089 
3694.000000	98.768845 
3693.000000	98.762596 
3692.000000	98.759373 
3691.000000	98.762558 
3690.000000	98.766565 
3689.000000	98.760480 
3688.000000	98.746864 
3687.000000	98.741418 
3686.000000	98.747710 
3685.000000	98.753259 
3684.000000	98.751434 
3683.000000	98.747685 
3682.000000	98.746403 
3681.000000	98.742553 
3680.000000	98.730792 
3679.000000	98.717313 
3678.000000	98.709718 
3677.000000	98.706864 
3676.000000	98.700688 
3675.000000	98.691970 
3674.000000	98.699404 
3673.000000	98.721597 
3672.000000	98.731855 
3671.000000	98.725665 
3670.000000	98.718401 
3669.000000	98.717965 
3668.000000	98.722474 
3667.000000	98.723543 
3666.000000	98.718106 
3665.000000	98.713147 
3664.000000	98.715110 
3663.000000	98.722193 
3662.000000	98.728275 
3661.000000	98.730400 
3660.000000	98.731099 
3659.000000	98.734400 
3658.000000	98.739786 
3657.000000	98.742998 
3656.000000	98.741746 
3655.000000	98.743415 
3654.000000	98.752141 
3653.000000	98.759500 
3652.000000	98.760883 
3651.000000	98.764496 
3650.000000	98.773181 
3649.000000	98.774437 
3648.000000	98.762707 
3647.000000	98.750582 
3646.000000	98.750148 
3645.000000	98.759439 
3644.000000	98.769771 
3643.000000	98.776405 
3642.000000	98.781670 
3641.000000	98.788909 
3640.000000	98.797947 
3639.000000	98.806724 
3638.000000	98.816029 
3637.000000	98.828178 
3636.000000	98.839681 
3635.000000	98.842818 
3634.000000	98.836128 
3633.000000	98.828212 
3632.000000	98.826326 
3631.000000	98.829636 
3630.000000	98.834356 
3629.000000	98.833456 
3628.000000	98.826326 
3627.000000	98.825690 
3626.000000	98.830310 
3625.000000	98.830576 
3624.000000	98.829989 
3623.000000	98.835268 
3622.000000	98.843982 
3621.000000	98.848615 
3620.000000	98.846364 
3619.000000	98.839932 
3618.000000	98.834888 
3617.000000	98.835281 
3616.000000	98.838086 
3615.000000	98.837484 
3614.000000	98.831964 
3613.000000	98.824870 
3612.000000	98.820419 
3611.000000	98.819271 
3610.000000	98.818825 
3609.000000	98.818295 
3608.000000	98.819408 
3607.000000	98.823275 
3606.000000	98.828671 
3605.000000	98.833177 
3604.000000	98.836350 
3603.000000	98.839379 
3602.000000	98.841860 
3601.000000	98.843129 
3600.000000	98.845155 
3599.000000	98.849788 
3598.000000	98.854470 
3597.000000	98.856141 
3596.000000	98.854002 
3595.000000	98.849429 
3594.000000	98.844109 
3593.000000	98.840704 
3592.000000	98.841200 
3591.000000	98.845489 
3590.000000	98.851619 
3589.000000	98.857333 
3588.000000	98.859418 
3587.000000	98.856077 
3586.000000	98.850876 
3585.000000	98.847436 
3584.000000	98.844919 
3583.000000	98.842268 
3582.000000	98.839798 
3581.000000	98.837551 
3580.000000	98.834976 
3579.000000	98.832350 
3578.000000	98.829984 
3577.000000	98.828134 
3576.000000	98.827082 
3575.000000	98.827114 
3574.000000	98.828267 
3573.000000	98.830027 
3572.000000	98.831863 
3571.000000	98.833140 
3570.000000	98.832740 
3569.000000	98.829486 
3568.000000	98.823852 
3567.000000	98.818553 
3566.000000	98.817884 
3565.000000	98.823471 
3564.000000	98.830718 
3563.000000	98.834592 
3562.000000	98.835147 
3561.000000	98.835351 
3560.000000	98.836741 
3559.000000	98.838343 
3558.000000	98.838432 
3557.000000	98.836523 
3556.000000	98.834305 
3555.000000	98.833774 
3554.000000	98.835111 
3553.000000	98.836549 
3552.000000	98.836639 
3551.000000	98.835426 
3550.000000	98.833010 
3549.000000	98.829050 
3548.000000	98.825049 
3547.000000	98.824119 
3546.000000	98.827336 
3545.000000	98.832485 
3544.000000	98.836766 
3543.000000	98.838890 
3542.000000	98.839128 
3541.000000	98.838540 
3540.000000	98.838747 
3539.000000	98.840766 
3538.000000	98.844037 
3537.000000	98.846820 
3536.000000	98.847551 
3535.000000	98.845705 
3534.000000	98.841270 
3533.000000	98.835315 
3532.000000	98.830324 
3531.000000	98.828900 
3530.000000	98.830653 
3529.000000	98.832424 
3528.000000	98.832215 
3527.000000	98.831714 
3526.000000	98.833323 
3525.000000	98.836428 
3524.000000	98.838307 
3523.000000	98.837651 
3522.000000	98.835758 
3521.000000	98.834368 
3520.000000	98.833884 
3519.000000	98.833947 
3518.000000	98.834587 
3517.000000	98.836006 
3516.000000	98.837597 
3515.000000	98.838590 
3514.000000	98.839371 
3513.000000	98.841083 
3512.000000	98.843379 
3511.000000	98.844054 
3510.000000	98.841330 
3509.000000	98.836336 
3508.000000	98.832281 
3507.000000	98.831097 
3506.000000	98.831443 
3505.000000	98.830627 
3504.000000	98.827624 
3503.000000	98.824315 
3502.000000	98.824257 
3501.000000	98.829767 
3500.000000	98.839345 
3499.000000	98.847821 
3498.000000	98.849758 
3497.000000	98.843753 
3496.000000	98.833720 
3495.000000	98.825524 
3494.000000	98.822443 
3493.000000	98.823747 
3492.000000	98.826634 
3491.000000	98.828838 
3490.000000	98.829785 
3489.000000	98.830233 
3488.000000	98.831105 
3487.000000	98.832396 
3486.000000	98.833097 
3485.000000	98.832513 
3484.000000	98.831448 
3483.000000	98.831635 
3482.000000	98.833524 
3481.000000	98.835352 
3480.000000	98.834831 
3479.000000	98.831666 
3478.000000	98.827881 
3477.000000	98.825537 
3476.000000	98.824516 
3475.000000	98.822970 
3474.000000	98.820231 
3473.000000	98.818401 
3472.000000	98.820223 
3471.000000	98.825816 
3470.000000	98.832355 
3469.000000	98.836739 
3468.000000	98.837906 
3467.000000	98.836772 
3466.000000	98.834774 
3465.000000	98.832770 
3464.000000	98.830904 
3463.000000	98.829005 
3462.000000	98.826935 
3461.000000	98.824720 
3460.000000	98.822404 
3459.000000	98.820060 
3458.000000	98.818125 
3457.000000	98.817344 
3456.000000	98.817993 
3455.000000	98.819494 
3454.000000	98.820883 
3453.000000	98.821955 
3452.000000	98.823518 
3451.000000	98.826439 
3450.000000	98.830248 
3449.000000	98.833110 
3448.000000	98.833142 
3447.000000	98.829782 
3446.000000	98.824249 
3445.000000	98.819004 
3444.000000	98.816587 
3443.000000	98.818375 
3442.000000	98.823598 
3441.000000	98.829704 
3440.000000	98.834326 
3439.000000	98.836683 
3438.000000	98.837121 
3437.000000	98.835842 
3436.000000	98.832897 
3435.000000	98.829380 
3434.000000	98.827339 
3433.000000	98.828162 
3432.000000	98.831113 
3431.000000	98.833800 
3430.000000	98.833965 
3429.000000	98.831143 
3428.000000	98.826742 
3427.000000	98.822434 
3426.000000	98.818822 
3425.000000	98.815919 
3424.000000	98.814446 
3423.000000	98.815626 
3422.000000	98.819422 
3421.000000	98.823686 
3420.000000	98.825767 
3419.000000	98.824980 
3418.000000	98.823141 
3417.000000	98.822659 
3416.000000	98.824212 
3415.000000	98.826235 
3414.000000	98.826580 
3413.000000	98.824594 
3412.000000	98.821511 
3411.000000	98.819075 
3410.000000	98.818366 
3409.000000	98.819757 
3408.000000	98.822956 
3407.000000	98.826495 
3406.000000	98.828196 
3405.000000	98.827157 
3404.000000	98.825005 
3403.000000	98.824546 
3402.000000	98.827209 
3401.000000	98.832001 
3400.000000	98.836468 
3399.000000	98.838626 
3398.000000	98.838598 
3397.000000	98.838598 
3396.000000	98.840545 
3395.000000	98.843704 
3394.000000	98.845591 
3393.000000	98.845243 
3392.000000	98.844303 
3391.000000	98.844425 
3390.000000	98.844986 
3389.000000	98.844351 
3388.000000	98.842217 
3387.000000	98.839392 
3386.000000	98.836174 
3385.000000	98.832447 
3384.000000	98.828925 
3383.000000	98.826945 
3382.000000	98.826857 
3381.000000	98.827555 
3380.000000	98.827505 
3379.000000	98.825857 
3378.000000	98.822948 
3377.000000	98.820495 
3376.000000	98.820890 
3375.000000	98.825342 
3374.000000	98.832568 
3373.000000	98.839674 
3372.000000	98.844332 
3371.000000	98.845929 
3370.000000	98.845184 
3369.000000	98.843355 
3368.000000	98.841658 
3367.000000	98.840647 
3366.000000	98.839827 
3365.000000	98.838162 
3364.000000	98.835181 
3363.000000	98.831511 
3362.000000	98.828382 
3361.000000	98.826612 
3360.000000	98.825933 
3359.000000	98.825330 
3358.000000	98.824350 
3357.000000	98.823933 
3356.000000	98.825328 
3355.000000	98.828094 
3354.000000	98.830158 
3353.000000	98.830379 
3352.000000	98.830293 
3351.000000	98.832520 
3350.000000	98.837888 
3349.000000	98.844720 
3348.000000	98.850505 
3347.000000	98.853537 
3346.000000	98.853401 
3345.000000	98.850949 
3344.000000	98.847808 
3343.000000	98.845184 
3342.000000	98.843161 
3341.000000	98.841653 
3340.000000	98.841512 
3339.000000	98.843598 
3338.000000	98.846732 
3337.000000	98.847849 
3336.000000	98.844985 
3335.000000	98.839700 
3334.000000	98.835866 
3333.000000	98.836092 
3332.000000	98.839462 
3331.000000	98.842591 
3330.000000	98.842912 
3329.000000	98.841130 
3328.000000	98.840369 
3327.000000	98.842585 
3326.000000	98.846177 
3325.000000	98.847917 
3324.000000	98.846990 
3323.000000	98.846036 
3322.000000	98.847733 
3321.000000	98.851257 
3320.000000	98.852977 
3319.000000	98.850507 
3318.000000	98.845310 
3317.000000	98.841199 
3316.000000	98.840723 
3315.000000	98.843179 
3314.000000	98.845758 
3313.000000	98.846324 
3312.000000	98.845237 
3311.000000	98.844799 
3310.000000	98.846977 
3309.000000	98.851537 
3308.000000	98.856379 
3307.000000	98.859592 
3306.000000	98.860852 
3305.000000	98.860661 
3304.000000	98.858831 
3303.000000	98.854723 
3302.000000	98.849130 
3301.000000	98.844892 
3300.000000	98.844657 
3299.000000	98.848267 
3298.000000	98.852947 
3297.000000	98.855968 
3296.000000	98.856600 
3295.000000	98.855823 
3294.000000	98.855116 
3293.000000	98.855660 
3292.000000	98.857762 
3291.000000	98.860496 
3290.000000	98.862295 
3289.000000	98.862311 
3288.000000	98.861067 
3287.000000	98.859728 
3286.000000	98.859013 
3285.000000	98.858902 
3284.000000	98.858883 
3283.000000	98.858267 
3282.000000	98.856683 
3281.000000	98.854395 
3280.000000	98.851913 
3279.000000	98.849489 
3278.000000	98.847429 
3277.000000	98.846609 
3276.000000	98.847885 
3275.000000	98.851001 
3274.000000	98.854790 
3273.000000	98.858343 
3272.000000	98.861004 
3271.000000	98.861313 
3270.000000	98.857450 
3269.000000	98.849723 
3268.000000	98.841768 
3267.000000	98.838127 
3266.000000	98.840514 
3265.000000	98.846798 
3264.000000	98.853243 
3263.000000	98.857481 
3262.000000	98.859917 
3261.000000	98.862604 
3260.000000	98.866563 
3259.000000	98.870191 
3258.000000	98.870660 
3257.000000	98.866726 
3256.000000	98.859755 
3255.000000	98.852357 
3254.000000	98.846935 
3253.000000	98.845339 
3252.000000	98.848218 
3251.000000	98.853891 
3250.000000	98.858940 
3249.000000	98.860974 
3248.000000	98.860361 
3247.000000	98.858768 
3246.000000	98.856866 
3245.000000	98.854368 
3244.000000	98.851713 
3243.000000	98.850620 
3242.000000	98.852976 
3241.000000	98.859371 
3240.000000	98.868156 
3239.000000	98.875629 
3238.000000	98.878153 
3237.000000	98.875060 
3236.000000	98.869275 
3235.000000	98.864517 
3234.000000	98.862190 
3233.000000	98.861473 
3232.000000	98.861574 
3231.000000	98.862740 
3230.000000	98.865224 
3229.000000	98.868231 
3228.000000	98.870115 
3227.000000	98.869255 
3226.000000	98.865076 
3225.000000	98.859032 
3224.000000	98.854395 
3223.000000	98.854040 
3222.000000	98.857961 
3221.000000	98.863258 
3220.000000	98.866692 
3219.000000	98.867021 
3218.000000	98.865040 
3217.000000	98.862006 
3216.000000	98.858654 
3215.000000	98.855538 
3214.000000	98.853532 
3213.000000	98.853441 
3212.000000	98.855244 
3211.000000	98.858221 
3210.000000	98.861931 
3209.000000	98.866585 
3208.000000	98.872042 
3207.000000	98.876813 
3206.000000	98.878989 
3205.000000	98.878320 
3204.000000	98.876666 
3203.000000	98.875963 
3202.000000	98.876332 
3201.000000	98.876638 
3200.000000	98.876332 
3199.000000	98.875900 
3198.000000	98.875759 
3197.000000	98.875659 
3196.000000	98.875520 
3195.000000	98.876033 
3194.000000	98.877689 
3193.000000	98.879528 
3192.000000	98.879731 
3191.000000	98.877778 
3190.000000	98.875463 
3189.000000	98.875186 
3188.000000	98.877323 
3187.000000	98.879769 
3186.000000	98.880139 
3185.000000	98.877797 
3184.000000	98.873781 
3183.000000	98.869531 
3182.000000	98.866166 
3181.000000	98.864326 
3180.000000	98.864005 
3179.000000	98.864560 
3178.000000	98.865183 
3177.000000	98.865198 
3176.000000	98.863863 
3175.000000	98.860765 
3174.000000	98.857174 
3173.000000	98.856201 
3172.000000	98.860100 
3171.000000	98.867328 
3170.000000	98.873562 
3169.000000	98.876125 
3168.000000	98.876447 
3167.000000	98.877695 
3166.000000	98.880996 
3165.000000	98.884815 
3164.000000	98.887348 
3163.000000	98.888352 
3162.000000	98.888648 
3161.000000	98.888890 
3160.000000	98.889334 
3159.000000	98.890187 
3158.000000	98.891454 
3157.000000	98.892534 
3156.000000	98.892541 
3155.000000	98.891279 
3154.000000	98.889750 
3153.000000	98.889367 
3152.000000	98.890561 
3151.000000	98.892235 
3150.000000	98.892741 
3149.000000	98.891423 
3148.000000	98.889209 
3147.000000	98.887722 
3146.000000	98.887784 
3145.000000	98.888735 
3144.000000	98.889278 
3143.000000	98.889127 
3142.000000	98.889657 
3141.000000	98.892508 
3140.000000	98.897396 
3139.000000	98.901894 
3138.000000	98.903858 
3137.000000	98.903578 
3136.000000	98.902918 
3135.000000	98.902753 
3134.000000	98.902193 
3133.000000	98.900285 
3132.000000	98.897605 
3131.000000	98.895707 
3130.000000	98.895339 
3129.000000	98.895626 
3128.000000	98.895098 
3127.000000	98.893419 
3126.000000	98.891899 
3125.000000	98.892132 
3124.000000	98.894257 
3123.000000	98.896735 
3122.000000	98.897955 
3121.000000	98.897986 
3120.000000	98.898486 
3119.000000	98.900832 
3118.000000	98.904386 
3117.000000	98.906634 
3116.000000	98.905274 
3115.000000	98.900490 
3114.000000	98.894965 
3113.000000	98.891339 
3112.000000	98.889992 
3111.000000	98.889884 
3110.000000	98.890816 
3109.000000	98.893334 
3108.000000	98.896322 
3107.000000	98.896579 
3106.000000	98.892039 
3105.000000	98.884693 
3104.000000	98.879231 
3103.000000	98.879045 
3102.000000	98.884178 
3101.000000	98.892318 
3100.000000	98.900317 
3099.000000	98.905099 
3098.000000	98.905186 
3097.000000	98.902204 
3096.000000	98.899736 
3095.000000	98.899920 
3094.000000	98.901897 
3093.000000	98.903879 
3092.000000	98.905408 
3091.000000	98.906822 
3090.000000	98.907747 
3089.000000	98.907693 
3088.000000	98.907667 
3087.000000	98.909587 
3086.000000	98.913702 
3085.000000	98.917659 
3084.000000	98.918827 
3083.000000	98.917060 
3082.000000	98.914666 
3081.000000	98.913929 
3080.000000	98.915075 
3079.000000	98.916535 
3078.000000	98.916567 
3077.000000	98.914349 
3076.000000	98.910141 
3075.000000	98.905233 
3074.000000	98.901556 
3073.000000	98.900531 
3072.000000	98.902031 
3071.000000	98.904911 
3070.000000	98.908435 
3069.000000	98.912248 
3068.000000	98.914821 
3067.000000	98.913430 
3066.000000	98.906980 
3065.000000	98.898148 
3064.000000	98.891402 
3063.000000	98.889073 
3062.000000	98.890352 
3061.000000	98.893461 
3060.000000	98.897238 
3059.000000	98.900832 
3058.000000	98.903547 
3057.000000	98.905489 
3056.000000	98.907233 
3055.000000	98.908680 
3054.000000	98.909291 
3053.000000	98.909489 
3052.000000	98.910423 
3051.000000	98.911983 
3050.000000	98.912408 
3049.000000	98.910378 
3048.000000	98.906259 
3047.000000	98.900841 
3046.000000	98.894369 
3045.000000	98.887701 
3044.000000	98.882903 
3043.000000	98.881207 
3042.000000	98.881153 
3041.000000	98.879971 
3040.000000	98.876607 
3039.000000	98.872613 
3038.000000	98.870377 
3037.000000	98.870995 
3036.000000	98.873374 
3035.000000	98.874822 
3034.000000	98.873019 
3033.000000	98.867903 
3032.000000	98.861246 
3031.000000	98.854286 
3030.000000	98.846499 
3029.000000	98.836965 
3028.000000	98.826012 
3027.000000	98.815054 
3026.000000	98.805542 
3025.000000	98.798420 
3024.000000	98.793599 
3023.000000	98.789187 
3022.000000	98.782157 
3021.000000	98.771013 
3020.000000	98.757637 
3019.000000	98.745800 
3018.000000	98.737998 
3017.000000	98.733974 
3016.000000	98.731457 
3015.000000	98.727514 
3014.000000	98.719877 
3013.000000	98.708091 
3012.000000	98.693345 
3011.000000	98.676800 
3010.000000	98.658620 
3009.000000	98.639144 
3008.000000	98.620241 
3007.000000	98.604518 
3006.000000	98.593275 
3005.000000	98.585602 
3004.000000	98.578912 
3003.000000	98.569998 
3002.000000	98.556632 
3001.000000	98.539518 
3000.000000	98.522317 
2999.000000	98.508550 
2998.000000	98.498679 
2997.000000	98.491084 
2996.000000	98.485110 
2995.000000	98.481094 
2994.000000	98.476958 
2993.000000	98.467108 
2992.000000	98.447060 
2991.000000	98.419102 
2990.000000	98.391898 
2989.000000	98.373711 
2988.000000	98.366391 
2987.000000	98.366133 
2986.000000	98.368943 
2985.000000	98.374005 
2984.000000	98.381889 
2983.000000	98.391430 
2982.000000	98.399788 
2981.000000	98.404921 
2980.000000	98.406745 
2979.000000	98.405990 
2978.000000	98.403229 
2977.000000	98.399318 
2976.000000	98.395581 
2975.000000	98.392742 
2974.000000	98.390256 
2973.000000	98.387357 
2972.000000	98.384426 
2971.000000	98.382811 
2970.000000	98.383605 
2969.000000	98.387017 
2968.000000	98.392692 
2967.000000	98.400250 
2966.000000	98.409513 
2965.000000	98.420246 
2964.000000	98.431609 
2963.000000	98.442137 
2962.000000	98.450828 
2961.000000	98.458197 
2960.000000	98.465726 
2959.000000	98.474360 
2958.000000	98.484088 
2957.000000	98.494611 
2956.000000	98.505182 
2955.000000	98.513791 
2954.000000	98.518257 
2953.000000	98.519288 
2952.000000	98.521392 
2951.000000	98.529082 
2950.000000	98.541990 
2949.000000	98.554642 
2948.000000	98.561352 
2947.000000	98.561064 
2946.000000	98.557576 
2945.000000	98.555559 
2944.000000	98.556630 
2943.000000	98.558937 
2942.000000	98.559943 
2941.000000	98.559009 
2940.000000	98.557070 
2939.000000	98.554551 
2938.000000	98.550694 
2937.000000	98.545117 
2936.000000	98.539238 
2935.000000	98.535569 
2934.000000	98.535769 
2933.000000	98.539461 
2932.000000	98.544408 
2931.000000	98.547655 
2930.000000	98.547062 
2929.000000	98.542449 
2928.000000	98.535589 
2927.000000	98.529228 
2926.000000	98.525930 
2925.000000	98.526903 
2924.000000	98.531031 
2923.000000	98.535368 
2922.000000	98.537497 
2921.000000	98.537432 
2920.000000	98.536670 
2919.000000	98.535912 
2918.000000	98.534763 
2917.000000	98.533273 
2916.000000	98.532279 
2915.000000	98.532046 
2914.000000	98.531867 
2913.000000	98.531381 
2912.000000	98.531117 
2911.000000	98.531200 
2910.000000	98.530607 
2909.000000	98.528438 
2908.000000	98.524986 
2907.000000	98.520806 
2906.000000	98.515434 
2905.000000	98.507684 
2904.000000	98.496915 
2903.000000	98.483952 
2902.000000	98.471787 
2901.000000	98.465405 
2900.000000	98.469287 
2899.000000	98.483409 
2898.000000	98.501902 
2897.000000	98.517301 
2896.000000	98.526325 
2895.000000	98.531389 
2894.000000	98.536843 
2893.000000	98.544389 
2892.000000	98.552012 
2891.000000	98.556582 
2890.000000	98.557152 
2889.000000	98.555805 
2888.000000	98.555423 
2887.000000	98.557020 
2886.000000	98.559735 
2885.000000	98.562956 
2884.000000	98.567271 
2883.000000	98.573217 
2882.000000	98.580335 
2881.000000	98.588141 
2880.000000	98.597070 
2879.000000	98.607637 
2878.000000	98.619312 
2877.000000	98.630915 
2876.000000	98.641465 
2875.000000	98.649894 
2874.000000	98.654717 
2873.000000	98.655305 
2872.000000	98.653444 
2871.000000	98.652642 
2870.000000	98.655524 
2869.000000	98.662073 
2868.000000	98.670291 
2867.000000	98.678309 
2866.000000	98.686140 
2865.000000	98.695602 
2864.000000	98.708086 
2863.000000	98.722159 
2862.000000	98.733997 
2861.000000	98.740825 
2860.000000	98.743649 
2859.000000	98.746146 
2858.000000	98.751221 
2857.000000	98.759040 
2856.000000	98.767781 
2855.000000	98.775616 
2854.000000	98.782121 
2853.000000	98.788249 
2852.000000	98.794965 
2851.000000	98.801998 
2850.000000	98.808420 
2849.000000	98.814356 
2848.000000	98.821164 
2847.000000	98.829457 
2846.000000	98.837676 
2845.000000	98.843354 
2844.000000	98.845542 
2843.000000	98.845749 
2842.000000	98.846912 
2841.000000	98.851426 
2840.000000	98.859204 
2839.000000	98.867134 
2838.000000	98.871285 
2837.000000	98.870455 
2836.000000	98.867183 
2835.000000	98.865039 
2834.000000	98.865646 
2833.000000	98.868548 
2832.000000	98.872697 
2831.000000	98.877044 
2830.000000	98.880709 
2829.000000	98.883833 
2828.000000	98.887758 
2827.000000	98.893097 
2826.000000	98.897970 
2825.000000	98.899472 
2824.000000	98.897034 
2823.000000	98.893490 
2822.000000	98.892579 
2821.000000	98.895805 
2820.000000	98.901578 
2819.000000	98.906815 
2818.000000	98.909455 
2817.000000	98.909866 
2816.000000	98.909847 
2815.000000	98.910312 
2814.000000	98.910546 
2813.000000	98.909879 
2812.000000	98.908997 
2811.000000	98.908798 
2810.000000	98.908813 
2809.000000	98.908001 
2808.000000	98.906655 
2807.000000	98.906348 
2806.000000	98.908065 
2805.000000	98.911314 
2804.000000	98.914991 
2803.000000	98.918221 
2802.000000	98.920403 
2801.000000	98.921294 
2800.000000	98.921269 
2799.000000	98.921023 
2798.000000	98.921058 
2797.000000	98.921733 
2796.000000	98.923257 
2795.000000	98.924954 
2794.000000	98.925106 
2793.000000	98.922615 
2792.000000	98.918649 
2791.000000	98.915735 
2790.000000	98.915357 
2789.000000	98.917288 
2788.000000	98.920796 
2787.000000	98.925243 
2786.000000	98.929587 
2785.000000	98.932717 
2784.000000	98.934603 
2783.000000	98.935932 
2782.000000	98.936418 
2781.000000	98.934853 
2780.000000	98.931367 
2779.000000	98.928289 
2778.000000	98.927723 
2777.000000	98.929184 
2776.000000	98.930587 
2775.000000	98.930831 
2774.000000	98.930287 
2773.000000	98.929351 
2772.000000	98.927907 
2771.000000	98.926275 
2770.000000	98.925659 
2769.000000	98.927246 
2768.000000	98.931279 
2767.000000	98.936921 
2766.000000	98.942464 
2765.000000	98.945801 
2764.000000	98.945640 
2763.000000	98.942752 
2762.000000	98.939657 
2761.000000	98.938741 
2760.000000	98.940711 
2759.000000	98.944592 
2758.000000	98.948620 
2757.000000	98.951151 
2756.000000	98.951623 
2755.000000	98.951083 
2754.000000	98.951153 
2753.000000	98.951961 
2752.000000	98.951715 
2751.000000	98.949076 
2750.000000	98.945368 
2749.000000	98.943356 
2748.000000	98.943946 
2747.000000	98.945229 
2746.000000	98.944984 
2745.000000	98.943097 
2744.000000	98.941055 
2743.000000	98.939994 
2742.000000	98.940021 
2741.000000	98.940758 
2740.000000	98.941644 
2739.000000	98.941998 
2738.000000	98.941607 
2737.000000	98.941191 
2736.000000	98.941671 
2735.000000	98.943033 
2734.000000	98.944373 
2733.000000	98.944983 
2732.000000	98.944997 
2731.000000	98.945105 
2730.000000	98.945978 
2729.000000	98.947792 
2728.000000	98.949983 
2727.000000	98.951724 
2726.000000	98.952922 
2725.000000	98.954358 
2724.000000	98.956503 
2723.000000	98.958744 
2722.000000	98.960216 
2721.000000	98.960723 
2720.000000	98.960200 
2719.000000	98.958084 
2718.000000	98.954331 
2717.000000	98.950586 
2716.000000	98.949215 
2715.000000	98.951298 
2714.000000	98.956263 
2713.000000	98.962739 
2712.000000	98.968613 
2711.000000	98.971217 
2710.000000	98.969517 
2709.000000	98.965989 
2708.000000	98.964297 
2707.000000	98.964794 
2706.000000	98.964256 
2705.000000	98.960669 
2704.000000	98.956231 
2703.000000	98.954297 
2702.000000	98.954963 
2701.000000	98.955361 
2700.000000	98.953549 
2699.000000	98.950532 
2698.000000	98.948670 
2697.000000	98.949276 
2696.000000	98.951871 
2695.000000	98.955150 
2694.000000	98.958393 
2693.000000	98.961772 
2692.000000	98.965013 
2691.000000	98.966451 
2690.000000	98.964777 
2689.000000	98.961673 
2688.000000	98.960811 
2687.000000	98.963447 
2686.000000	98.966531 
2685.000000	98.966376 
2684.000000	98.962935 
2683.000000	98.959217 
2682.000000	98.957641 
2681.000000	98.958594 
2680.000000	98.961568 
2679.000000	98.965641 
2678.000000	98.969015 
2677.000000	98.970002 
2676.000000	98.968976 
2675.000000	98.968157 
2674.000000	98.969039 
2673.000000	98.970862 
2672.000000	98.971743 
2671.000000	98.970422 
2670.000000	98.966668 
2669.000000	98.960931 
2668.000000	98.954303 
2667.000000	98.948466 
2666.000000	98.945127 
2665.000000	98.945233 
2664.000000	98.948448 
2663.000000	98.953238 
2662.000000	98.957817 
2661.000000	98.961362 
2660.000000	98.964035 
2659.000000	98.965622 
2658.000000	98.964942 
2657.000000	98.961477 
2656.000000	98.957154 
2655.000000	98.955246 
2654.000000	98.957099 
2653.000000	98.960593 
2652.000000	98.962361 
2651.000000	98.961222 
2650.000000	98.958998 
2649.000000	98.957962 
2648.000000	98.957988 
2647.000000	98.956924 
2646.000000	98.953875 
2645.000000	98.951057 
2644.000000	98.951233 
2643.000000	98.953924 
2642.000000	98.955928 
2641.000000	98.955765 
2640.000000	98.955654 
2639.000000	98.958184 
2638.000000	98.962772 
2637.000000	98.966779 
2636.000000	98.968704 
2635.000000	98.968585 
2634.000000	98.966511 
2633.000000	98.962968 
2632.000000	98.960092 
2631.000000	98.960197 
2630.000000	98.962758 
2629.000000	98.964610 
2628.000000	98.963564 
2627.000000	98.960556 
2626.000000	98.958017 
2625.000000	98.957430 
2624.000000	98.958680 
2623.000000	98.960414 
2622.000000	98.960572 
2621.000000	98.957802 
2620.000000	98.952953 
2619.000000	98.948362 
2618.000000	98.945433 
2617.000000	98.943814 
2616.000000	98.943005 
2615.000000	98.943377 
2614.000000	98.944968 
2613.000000	98.946462 
2612.000000	98.946389 
2611.000000	98.944880 
2610.000000	98.943617 
2609.000000	98.944407 
2608.000000	98.948143 
2607.000000	98.954574 
2606.000000	98.962416 
2605.000000	98.969680 
2604.000000	98.974189 
2603.000000	98.974210 
2602.000000	98.969516 
2601.000000	98.962515 
2600.000000	98.957503 
2599.000000	98.957313 
2598.000000	98.960596 
2597.000000	98.963268 
2596.000000	98.962425 
2595.000000	98.957798 
2594.000000	98.950123 
2593.000000	98.940550 
2592.000000	98.932227 
2591.000000	98.929891 
2590.000000	98.935721 
2589.000000	98.946507 
2588.000000	98.956604 
2587.000000	98.963060 
2586.000000	98.966289 
2585.000000	98.966610 
2584.000000	98.962843 
2583.000000	98.955030 
2582.000000	98.946353 
2581.000000	98.940492 
2580.000000	98.937838 
2579.000000	98.935837 
2578.000000	98.932810 
2577.000000	98.929913 
2576.000000	98.929116 
2575.000000	98.930713 
2574.000000	98.933679 
2573.000000	98.937403 
2572.000000	98.941644 
2571.000000	98.945176 
2570.000000	98.946058 
2569.000000	98.943846 
2568.000000	98.940595 
2567.000000	98.938873 
2566.000000	98.939214 
2565.000000	98.940103 
2564.000000	98.940074 
2563.000000	98.939062 
2562.000000	98.937764 
2561.000000	98.936539 
2560.000000	98.935406 
2559.000000	98.934514 
2558.000000	98.933722 
2557.000000	98.931796 
2556.000000	98.927387 
2555.000000	98.921831 
2554.000000	98.919990 
2553.000000	98.926159 
2552.000000	98.938649 
2551.000000	98.950201 
2550.000000	98.954876 
2549.000000	98.953138 
2548.000000	98.949040 
2547.000000	98.944361 
2546.000000	98.938179 
2545.000000	98.931222 
2544.000000	98.927083 
2543.000000	98.928152 
2542.000000	98.932717 
2541.000000	98.937355 
2540.000000	98.940467 
2539.000000	98.942184 
2538.000000	98.942217 
2537.000000	98.939514 
2536.000000	98.933770 
2535.000000	98.926540 
2534.000000	98.921057 
2533.000000	98.920683 
2532.000000	98.926202 
2531.000000	98.934394 
2530.000000	98.940707 
2529.000000	98.943694 
2528.000000	98.945292 
2527.000000	98.946602 
2526.000000	98.946055 
2525.000000	98.943074 
2524.000000	98.941032 
2523.000000	98.943961 
2522.000000	98.951545 
2521.000000	98.959700 
2520.000000	98.965279 
2519.000000	98.967900 
2518.000000	98.967761 
2517.000000	98.964476 
2516.000000	98.958724 
2515.000000	98.953085 
2514.000000	98.950125 
2513.000000	98.950248 
2512.000000	98.951506 
2511.000000	98.950814 
2510.000000	98.945873 
2509.000000	98.937468 
2508.000000	98.929942 
2507.000000	98.927763 
2506.000000	98.930895 
2505.000000	98.934511 
2504.000000	98.933934 
2503.000000	98.929112 
2502.000000	98.923867 
2501.000000	98.921869 
2500.000000	98.924370 
2499.000000	98.931076 
2498.000000	98.941441 
2497.000000	98.954212 
2496.000000	98.966369 
2495.000000	98.973655 
2494.000000	98.972811 
2493.000000	98.963493 
2492.000000	98.948370 
2491.000000	98.931985 
2490.000000	98.919301 
2489.000000	98.913688 
2488.000000	98.914715 
2487.000000	98.918272 
2486.000000	98.920419 
2485.000000	98.921447 
2484.000000	98.925037 
2483.000000	98.933207 
2482.000000	98.943335 
2481.000000	98.950753 
2480.000000	98.953190 
2479.000000	98.951852 
2478.000000	98.949085 
2477.000000	98.946132 
2476.000000	98.942897 
2475.000000	98.939132 
2474.000000	98.935759 
2473.000000	98.934986 
2472.000000	98.938457 
2471.000000	98.945043 
2470.000000	98.951099 
2469.000000	98.953188 
2468.000000	98.950152 
2467.000000	98.942931 
2466.000000	98.933972 
2465.000000	98.927195 
2464.000000	98.926522 
2463.000000	98.932513 
2462.000000	98.940838 
2461.000000	98.945522 
2460.000000	98.944051 
2459.000000	98.939040 
2458.000000	98.935299 
2457.000000	98.935656 
2456.000000	98.938914 
2455.000000	98.940997 
2454.000000	98.938351 
2453.000000	98.930888 
2452.000000	98.921755 
2451.000000	98.914336 
2450.000000	98.909966 
2449.000000	98.908297 
2448.000000	98.908590 
2447.000000	98.910187 
2446.000000	98.912843 
2445.000000	98.917352 
2444.000000	98.924876 
2443.000000	98.934731 
2442.000000	98.943582 
2441.000000	98.947855 
2440.000000	98.946713 
2439.000000	98.942172 
2438.000000	98.937042 
2437.000000	98.933392 
2436.000000	98.931985 
2435.000000	98.931725 
2434.000000	98.929859 
2433.000000	98.924064 
2432.000000	98.914949 
2431.000000	98.906137 
2430.000000	98.901676 
2429.000000	98.903386 
2428.000000	98.910401 
2427.000000	98.920517 
2426.000000	98.931310 
2425.000000	98.939870 
2424.000000	98.942587 
2423.000000	98.937145 
2422.000000	98.925655 
2421.000000	98.914585 
2420.000000	98.909895 
2419.000000	98.912333 
2418.000000	98.918204 
2417.000000	98.923646 
2416.000000	98.926678 
2415.000000	98.926362 
2414.000000	98.922958 
2413.000000	98.919149 
2412.000000	98.918368 
2411.000000	98.920842 
2410.000000	98.923204 
2409.000000	98.922958 
2408.000000	98.921520 
2407.000000	98.921885 
2406.000000	98.925174 
2405.000000	98.930627 
2404.000000	98.936954 
2403.000000	98.941970 
2402.000000	98.942569 
2401.000000	98.937370 
2400.000000	98.928796 
2399.000000	98.920909 
2398.000000	98.915766 
2397.000000	98.913249 
2396.000000	98.913547 
2395.000000	98.917687 
2394.000000	98.925421 
2393.000000	98.934087 
2392.000000	98.940359 
2391.000000	98.942883 
2390.000000	98.943126 
2389.000000	98.943818 
2388.000000	98.946369 
2387.000000	98.949747 
2386.000000	98.952166 
2385.000000	98.953488 
2384.000000	98.955075 
2383.000000	98.957577 
2382.000000	98.960309 
2381.000000	98.962868 
2380.000000	98.965460 
2379.000000	98.966984 
2378.000000	98.964989 
2377.000000	98.959225 
2376.000000	98.953556 
2375.000000	98.952218 
2374.000000	98.955180 
2373.000000	98.959351 
2372.000000	98.963714 
2371.000000	98.970776 
2370.000000	98.982577 
2369.000000	98.996706 
2368.000000	99.006530 
2367.000000	99.005573 
2366.000000	98.993395 
2365.000000	98.977968 
2364.000000	98.969859 
2363.000000	98.972349 
2362.000000	98.979376 
2361.000000	98.983315 
2360.000000	98.982026 
2359.000000	98.979326 
2358.000000	98.980154 
2357.000000	98.987297 
2356.000000	98.999615 
2355.000000	99.012473 
2354.000000	99.021390 
2353.000000	99.023658 
2352.000000	99.019712 
2351.000000	99.010742 
2350.000000	98.997095 
2349.000000	98.981218 
2348.000000	98.968955 
2347.000000	98.966551 
2346.000000	98.972129 
2345.000000	98.977133 
2344.000000	98.976839 
2343.000000	98.974065 
2342.000000	98.973989 
2341.000000	98.976833 
2340.000000	98.979591 
2339.000000	98.979544 
2338.000000	98.977375 
2337.000000	98.975619 
2336.000000	98.976058 
2335.000000	98.978205 
2334.000000	98.980523 
2333.000000	98.980650 
2332.000000	98.976721 
2331.000000	98.968667 
2330.000000	98.959012 
2329.000000	98.952547 
2328.000000	98.951770 
2327.000000	98.956069 
2326.000000	98.960357 
2325.000000	98.959518 
2324.000000	98.952614 
2323.000000	98.944469 
2322.000000	98.942329 
2321.000000	98.948472 
2320.000000	98.958622 
2319.000000	98.965329 
2318.000000	98.964781 
2317.000000	98.959015 
2316.000000	98.952861 
2315.000000	98.949239 
2314.000000	98.947579 
2313.000000	98.946818 
2312.000000	98.947152 
2311.000000	98.949844 
2310.000000	98.954867 
2309.000000	98.960851 
2308.000000	98.965046 
2307.000000	98.964544 
2306.000000	98.958058 
2305.000000	98.948127 
2304.000000	98.939468 
2303.000000	98.934501 
2302.000000	98.931558 
2301.000000	98.928327 
2300.000000	98.924698 
2299.000000	98.921159 
2298.000000	98.916458 
2297.000000	98.910128 
2296.000000	98.904778 
2295.000000	98.903706 
2294.000000	98.906090 
2293.000000	98.908188 
2292.000000	98.908039 
2291.000000	98.907042 
2290.000000	98.906460 
2289.000000	98.905597 
2288.000000	98.903670 
2287.000000	98.901235 
2286.000000	98.898757 
2285.000000	98.895467 
2284.000000	98.890574 
2283.000000	98.884129 
2282.000000	98.876274 
2281.000000	98.866866 
2280.000000	98.857108 
2279.000000	98.850546 
2278.000000	98.851332 
2277.000000	98.860483 
2276.000000	98.873831 
2275.000000	98.884481 
2274.000000	98.888245 
2273.000000	98.886162 
2272.000000	98.880690 
2271.000000	98.871429 
2270.000000	98.857962 
2269.000000	98.845810 
2268.000000	98.843834 
2267.000000	98.853807 
2266.000000	98.866965 
2265.000000	98.873601 
2264.000000	98.872328 
2263.000000	98.867623 
2262.000000	98.863233 
2261.000000	98.861945 
2260.000000	98.866626 
2259.000000	98.875330 
2258.000000	98.878783 
2257.000000	98.869431 
2256.000000	98.851576 
2255.000000	98.836446 
2254.000000	98.828844 
2253.000000	98.825062 
2252.000000	98.822797 
2251.000000	98.825258 
2250.000000	98.834091 
2249.000000	98.844968 
2248.000000	98.852910 
2247.000000	98.857223 
2246.000000	98.858509 
2245.000000	98.854975 
2244.000000	98.844903 
2243.000000	98.830620 
2242.000000	98.817690 
2241.000000	98.811048 
2240.000000	98.812056 
2239.000000	98.817444 
2238.000000	98.820823 
2237.000000	98.816994 
2236.000000	98.805222 
2235.000000	98.787910 
2234.000000	98.768458 
2233.000000	98.752563 
2232.000000	98.748076 
2231.000000	98.758390 
2230.000000	98.777026 
2229.000000	98.793353 
2228.000000	98.803343 
2227.000000	98.810267 
2226.000000	98.815625 
2225.000000	98.815524 
2224.000000	98.807360 
2223.000000	98.795011 
2222.000000	98.785132 
2221.000000	98.781459 
2220.000000	98.783995 
2219.000000	98.790699 
2218.000000	98.798540 
2217.000000	98.805342 
2216.000000	98.811702 
2215.000000	98.819115 
2214.000000	98.825867 
2213.000000	98.827103 
2212.000000	98.819802 
2211.000000	98.806608 
2210.000000	98.795026 
2209.000000	98.793043 
2208.000000	98.802645 
2207.000000	98.815735 
2206.000000	98.819362 
2205.000000	98.807957 
2204.000000	98.788217 
2203.000000	98.770046 
2202.000000	98.757272 
2201.000000	98.750153 
2200.000000	98.750158 
2199.000000	98.755422 
2198.000000	98.756647 
2197.000000	98.746775 
2196.000000	98.732797 
2195.000000	98.729390 
2194.000000	98.741590 
2193.000000	98.760888 
2192.000000	98.776904 
2191.000000	98.784742 
2190.000000	98.781790 
2189.000000	98.767423 
2188.000000	98.748209 
2187.000000	98.735550 
2186.000000	98.735436 
2185.000000	98.744975 
2184.000000	98.758162 
2183.000000	98.768827 
2182.000000	98.769891 
2181.000000	98.759561 
2180.000000	98.748347 
2179.000000	98.749653 
2178.000000	98.762157 
2177.000000	98.770500 
2176.000000	98.764789 
2175.000000	98.750424 
2174.000000	98.736717 
2173.000000	98.725935 
2172.000000	98.717115 
2171.000000	98.711253 
2170.000000	98.708204 
2169.000000	98.706147 
2168.000000	98.707914 
2167.000000	98.719984 
2166.000000	98.740644 
2165.000000	98.756777 
2164.000000	98.758168 
2163.000000	98.748588 
2162.000000	98.738293 
2161.000000	98.733080 
2160.000000	98.734617 
2159.000000	98.742445 
2158.000000	98.750175 
2157.000000	98.749517 
2156.000000	98.743282 
2155.000000	98.743746 
2154.000000	98.754289 
2153.000000	98.762937 
2152.000000	98.758935 
2151.000000	98.747278 
2150.000000	98.741070 
2149.000000	98.746675 
2148.000000	98.761903 
2147.000000	98.781771 
2146.000000	98.799162 
2145.000000	98.805864 
2144.000000	98.800859 
2143.000000	98.793565 
2142.000000	98.792985 
2141.000000	98.797704 
2140.000000	98.801699 
2139.000000	98.804830 
2138.000000	98.810056 
2137.000000	98.813848 
2136.000000	98.808563 
2135.000000	98.794823 
2134.000000	98.784435 
2133.000000	98.788143 
2132.000000	98.803759 
2131.000000	98.818326 
2130.000000	98.820394 
2129.000000	98.809961 
2128.000000	98.797590 
2127.000000	98.793531 
2126.000000	98.798054 
2125.000000	98.804086 
2124.000000	98.808440 
2123.000000	98.815945 
2122.000000	98.830651 
2121.000000	98.847404 
2120.000000	98.856370 
2119.000000	98.853793 
2118.000000	98.844603 
2117.000000	98.835932 
2116.000000	98.831599 
2115.000000	98.832060 
2114.000000	98.835850 
2113.000000	98.839889 
2112.000000	98.840469 
2111.000000	98.835417 
2110.000000	98.825596 
2109.000000	98.815015 
2108.000000	98.809174 
2107.000000	98.810819 
2106.000000	98.815719 
2105.000000	98.814488 
2104.000000	98.801200 
2103.000000	98.780166 
2102.000000	98.762987 
2101.000000	98.758982 
2100.000000	98.768242 
2099.000000	98.782544 
2098.000000	98.792676 
2097.000000	98.796207 
2096.000000	98.798442 
2095.000000	98.804056 
2094.000000	98.808706 
2093.000000	98.803044 
2092.000000	98.785662 
2091.000000	98.767460 
2090.000000	98.760795 
2089.000000	98.767039 
2088.000000	98.777180 
2087.000000	98.782395 
2086.000000	98.780954 
2085.000000	98.776598 
2084.000000	98.773754 
2083.000000	98.774150 
2082.000000	98.776040 
2081.000000	98.776559 
2080.000000	98.775502 
2079.000000	98.775770 
2078.000000	98.779904 
2077.000000	98.788010 
2076.000000	98.799460 
2075.000000	98.813345 
2074.000000	98.825628 
2073.000000	98.829815 
2072.000000	98.823416 
2071.000000	98.811246 
2070.000000	98.799893 
2069.000000	98.791382 
2068.000000	98.784616 
2067.000000	98.779827 
2066.000000	98.777837 
2065.000000	98.776861 
2064.000000	98.774273 
2063.000000	98.770821 
2062.000000	98.769936 
2061.000000	98.773623 
2060.000000	98.781304 
2059.000000	98.791215 
2058.000000	98.800231 
2057.000000	98.803788 
2056.000000	98.799188 
2055.000000	98.788570 
2054.000000	98.776742 
2053.000000	98.767459 
2052.000000	98.763102 
2051.000000	98.765154 
2050.000000	98.771320 
2049.000000	98.773429 
2048.000000	98.763173 
2047.000000	98.740986 
2046.000000	98.715893 
2045.000000	98.696719 
2044.000000	98.686291 
2043.000000	98.683218 
2042.000000	98.685275 
2041.000000	98.690098 
2040.000000	98.695428 
2039.000000	98.699843 
2038.000000	98.702177 
2037.000000	98.701067 
2036.000000	98.696778 
2035.000000	98.692245 
2034.000000	98.689974 
2033.000000	98.688647 
2032.000000	98.684825 
2031.000000	98.676842 
2030.000000	98.665407 
2029.000000	98.652496 
2028.000000	98.641575 
2027.000000	98.637264 
2026.000000	98.642195 
2025.000000	98.655008 
2024.000000	98.671633 
2023.000000	98.686154 
2022.000000	98.690268 
2021.000000	98.677487 
2020.000000	98.652603 
2019.000000	98.632794 
2018.000000	98.633388 
2017.000000	98.652245 
2016.000000	98.672529 
2015.000000	98.681359 
2014.000000	98.680563 
2013.000000	98.679665 
2012.000000	98.683886 
2011.000000	98.690616 
2010.000000	98.695190 
2009.000000	98.698065 
2008.000000	98.705482 
2007.000000	98.721709 
2006.000000	98.740667 
2005.000000	98.749463 
2004.000000	98.742255 
2003.000000	98.727398 
2002.000000	98.718782 
2001.000000	98.721932 
2000.000000	98.730842 
1999.000000	98.735716 
1998.000000	98.732052 
1997.000000	98.724114 
1996.000000	98.720658 
1995.000000	98.726304 
1994.000000	98.736484 
1993.000000	98.741698 
1992.000000	98.737073 
1991.000000	98.726331 
1990.000000	98.716074 
1989.000000	98.710321 
1988.000000	98.710984 
1987.000000	98.717521 
1986.000000	98.723617 
1985.000000	98.719895 
1984.000000	98.704666 
1983.000000	98.688502 
1982.000000	98.683040 
1981.000000	98.686655 
1980.000000	98.686769 
1979.000000	98.675535 
1978.000000	98.659182 
1977.000000	98.650159 
1976.000000	98.652110 
1975.000000	98.657026 
1974.000000	98.657310 
1973.000000	98.657139 
1972.000000	98.668484 
1971.000000	98.695128 
1970.000000	98.723582 
1969.000000	98.733807 
1968.000000	98.719598 
1967.000000	98.695554 
1966.000000	98.681832 
1965.000000	98.685379 
1964.000000	98.698637 
1963.000000	98.711331 
1962.000000	98.718360 
1961.000000	98.719675 
1960.000000	98.717958 
1959.000000	98.716780 
1958.000000	98.718721 
1957.000000	98.724105 
1956.000000	98.731802 
1955.000000	98.740577 
1954.000000	98.748861 
1953.000000	98.754221 
1952.000000	98.753819 
1951.000000	98.746857 
1950.000000	98.736427 
1949.000000	98.728341 
1948.000000	98.727570 
1947.000000	98.733323 
1946.000000	98.737785 
1945.000000	98.732524 
1944.000000	98.717643 
1943.000000	98.703474 
1942.000000	98.701127 
1941.000000	98.711587 
1940.000000	98.726141 
1939.000000	98.736339 
1938.000000	98.741657 
1937.000000	98.748396 
1936.000000	98.761190 
1935.000000	98.775477 
1934.000000	98.781215 
1933.000000	98.775699 
1932.000000	98.768624 
1931.000000	98.771991 
1930.000000	98.786134 
1929.000000	98.800196 
1928.000000	98.806729 
1927.000000	98.807800 
1926.000000	98.808078 
1925.000000	98.807243 
1924.000000	98.803455 
1923.000000	98.800074 
1922.000000	98.801684 
1921.000000	98.806868 
1920.000000	98.809691 
1919.000000	98.806530 
1918.000000	98.798204 
1917.000000	98.787601 
1916.000000	98.778428 
1915.000000	98.773993 
1914.000000	98.775337 
1913.000000	98.781058 
1912.000000	98.788377 
1911.000000	98.794803 
1910.000000	98.797588 
1909.000000	98.795327 
1908.000000	98.792409 
1907.000000	98.795638 
1906.000000	98.806250 
1905.000000	98.816722 
1904.000000	98.818952 
1903.000000	98.813864 
1902.000000	98.807472 
1901.000000	98.803001 
1900.000000	98.800799 
1899.000000	98.801124 
1898.000000	98.804091 
1897.000000	98.807938 
1896.000000	98.810850 
1895.000000	98.813722 
1894.000000	98.817050 
1893.000000	98.818616 
1892.000000	98.817339 
1891.000000	98.815962 
1890.000000	98.816282 
1889.000000	98.815201 
1888.000000	98.810669 
1887.000000	98.806895 
1886.000000	98.808739 
1885.000000	98.815137 
1884.000000	98.821235 
1883.000000	98.824905 
1882.000000	98.826482 
1881.000000	98.825464 
1880.000000	98.823100 
1879.000000	98.823902 
1878.000000	98.831082 
1877.000000	98.841783 
1876.000000	98.849622 
1875.000000	98.852263 
1874.000000	98.852188 
1873.000000	98.850748 
1872.000000	98.846939 
1871.000000	98.841082 
1870.000000	98.835144 
1869.000000	98.829015 
1868.000000	98.822646 
1867.000000	98.820655 
1866.000000	98.826235 
1865.000000	98.834407 
1864.000000	98.836519 
1863.000000	98.829260 
1862.000000	98.817265 
1861.000000	98.807511 
1860.000000	98.804271 
1859.000000	98.808760 
1858.000000	98.818969 
1857.000000	98.829416 
1856.000000	98.835256 
1855.000000	98.837460 
1854.000000	98.840342 
1853.000000	98.844163 
1852.000000	98.846135 
1851.000000	98.844544 
1850.000000	98.841359 
1849.000000	98.841283 
1848.000000	98.847092 
1847.000000	98.856968 
1846.000000	98.865205 
1845.000000	98.866670 
1844.000000	98.861423 
1843.000000	98.856424 
1842.000000	98.857025 
1841.000000	98.860625 
1840.000000	98.862908 
1839.000000	98.862165 
1838.000000	98.859085 
1837.000000	98.854743 
1836.000000	98.850682 
1835.000000	98.849405 
1834.000000	98.851080 
1833.000000	98.852793 
1832.000000	98.851951 
1831.000000	98.847742 
1830.000000	98.841766 
1829.000000	98.838030 
1828.000000	98.838765 
1827.000000	98.841660 
1826.000000	98.843740 
1825.000000	98.844567 
1824.000000	98.844645 
1823.000000	98.843879 
1822.000000	98.840668 
1821.000000	98.834340 
1820.000000	98.828373 
1819.000000	98.828733 
1818.000000	98.838502 
1817.000000	98.851722 
1816.000000	98.858785 
1815.000000	98.858527 
1814.000000	98.857231 
1813.000000	98.859586 
1812.000000	98.863472 
1811.000000	98.866274 
1810.000000	98.870498 
1809.000000	98.876480 
1808.000000	98.879551 
1807.000000	98.877172 
1806.000000	98.872221 
1805.000000	98.868324 
1804.000000	98.866540 
1803.000000	98.866909 
1802.000000	98.867291 
1801.000000	98.863763 
1800.000000	98.854348 
1799.000000	98.844315 
1798.000000	98.842141 
1797.000000	98.848869 
1796.000000	98.858672 
1795.000000	98.866476 
1794.000000	98.870961 
1793.000000	98.872180 
1792.000000	98.868700 
1791.000000	98.862877 
1790.000000	98.860322 
1789.000000	98.861418 
1788.000000	98.863679 
1787.000000	98.867081 
1786.000000	98.872716 
1785.000000	98.877614 
1784.000000	98.877186 
1783.000000	98.872296 
1782.000000	98.865935 
1781.000000	98.860949 
1780.000000	98.857129 
1779.000000	98.852678 
1778.000000	98.848850 
1777.000000	98.848230 
1776.000000	98.852560 
1775.000000	98.858743 
1774.000000	98.861609 
1773.000000	98.861121 
1772.000000	98.860645 
1771.000000	98.861486 
1770.000000	98.863026 
1769.000000	98.864250 
1768.000000	98.864961 
1767.000000	98.864894 
1766.000000	98.863100 
1765.000000	98.860007 
1764.000000	98.856806 
1763.000000	98.854954 
1762.000000	98.854254 
1761.000000	98.854649 
1760.000000	98.855901 
1759.000000	98.857660 
1758.000000	98.860647 
1757.000000	98.866416 
1756.000000	98.874816 
1755.000000	98.880593 
1754.000000	98.879652 
1753.000000	98.875125 
1752.000000	98.874061 
1751.000000	98.875316 
1750.000000	98.871940 
1749.000000	98.863786 
1748.000000	98.858486 
1747.000000	98.859997 
1746.000000	98.863296 
1745.000000	98.864825 
1744.000000	98.865279 
1743.000000	98.865476 
1742.000000	98.864870 
1741.000000	98.863164 
1740.000000	98.861706 
1739.000000	98.863787 
1738.000000	98.870009 
1737.000000	98.875663 
1736.000000	98.876582 
1735.000000	98.877321 
1734.000000	98.878971 
1733.000000	98.877907 
1732.000000	98.875897 
1731.000000	98.872243 
1730.000000	98.865882 
1729.000000	98.859191 
1728.000000	98.855281 
1727.000000	98.855087 
1726.000000	98.857286 
1725.000000	98.862052 
1724.000000	98.867524 
1723.000000	98.871446 
1722.000000	98.873754 
1721.000000	98.873674 
1720.000000	98.870470 
1719.000000	98.867748 
1718.000000	98.871100 
1717.000000	98.875443 
1716.000000	98.872365 
1715.000000	98.866454 
1714.000000	98.865794 
1713.000000	98.868901 
1712.000000	98.869823 
1711.000000	98.868750 
1710.000000	98.869819 
1709.000000	98.872899 
1708.000000	98.874185 
1707.000000	98.872219 
1706.000000	98.871618 
1705.000000	98.873977 
1704.000000	98.875659 
1703.000000	98.874178 
1702.000000	98.872088 
1701.000000	98.875579 
1700.000000	98.876045 
1699.000000	98.870109 
1698.000000	98.868127 
1697.000000	98.868998 
1696.000000	98.868539 
1695.000000	98.867262 
1694.000000	98.867750 
1693.000000	98.868673 
1692.000000	98.866058 
1691.000000	98.863079 
1690.000000	98.863917 
1689.000000	98.867538 
1688.000000	98.871784 
1687.000000	98.873773 
1686.000000	98.874896 
1685.000000	98.879484 
1684.000000	98.880924 
1683.000000	98.877624 
1682.000000	98.873908 
1681.000000	98.867912 
1680.000000	98.863823 
1679.000000	98.865305 
1678.000000	98.867353 
1677.000000	98.865878 
1676.000000	98.864760 
1675.000000	98.868027 
1674.000000	98.872087 
1673.000000	98.875062 
1672.000000	98.877358 
1671.000000	98.880890 
1670.000000	98.883710 
1669.000000	98.880651 
1668.000000	98.875923 
1667.000000	98.874464 
1666.000000	98.874132 
1665.000000	98.872528 
1664.000000	98.870841 
1663.000000	98.871797 
1662.000000	98.872443 
1661.000000	98.870582 
1660.000000	98.871163 
1659.000000	98.877801 
1658.000000	98.887837 
1657.000000	98.894354 
1656.000000	98.893727 
1655.000000	98.884942 
1654.000000	98.878759 
1653.000000	98.873528 
1652.000000	98.867841 
1651.000000	98.872960 
1650.000000	98.879855 
1649.000000	98.880353 
1648.000000	98.879638 
1647.000000	98.879585 
1646.000000	98.878187 
1645.000000	98.876515 
1644.000000	98.877015 
1643.000000	98.880237 
1642.000000	98.883662 
1641.000000	98.884683 
1640.000000	98.883267 
1639.000000	98.880339 
1638.000000	98.877345 
1637.000000	98.877242 
1636.000000	98.881877 
1635.000000	98.885912 
1634.000000	98.886766 
1633.000000	98.884883 
1632.000000	98.879013 
1631.000000	98.871823 
1630.000000	98.866539 
1629.000000	98.864185 
1628.000000	98.864954 
1627.000000	98.868529 
1626.000000	98.871663 
1625.000000	98.871779 
1624.000000	98.870881 
1623.000000	98.871798 
1622.000000	98.873101 
1621.000000	98.872639 
1620.000000	98.871209 
1619.000000	98.869605 
1618.000000	98.868727 
1617.000000	98.867454 
1616.000000	98.867556 
1615.000000	98.873247 
1614.000000	98.881092 
1613.000000	98.885308 
1612.000000	98.887572 
1611.000000	98.891764 
1610.000000	98.894751 
1609.000000	98.892107 
1608.000000	98.887237 
1607.000000	98.886318 
1606.000000	98.887587 
1605.000000	98.886956 
1604.000000	98.885790 
1603.000000	98.885985 
1602.000000	98.886413 
1601.000000	98.886312 
1600.000000	98.888108 
1599.000000	98.892841 
1598.000000	98.897106 
1597.000000	98.897805 
1596.000000	98.895847 
1595.000000	98.893513 
1594.000000	98.890712 
1593.000000	98.887434 
1592.000000	98.886719 
1591.000000	98.890789 
1590.000000	98.896478 
1589.000000	98.899378 
1588.000000	98.900286 
1587.000000	98.902774 
1586.000000	98.906328 
1585.000000	98.906829 
1584.000000	98.905284 
1583.000000	98.904732 
1582.000000	98.903975 
1581.000000	98.901138 
1580.000000	98.897629 
1579.000000	98.893554 
1578.000000	98.886676 
1577.000000	98.879064 
1576.000000	98.876126 
1575.000000	98.880944 
1574.000000	98.888635 
1573.000000	98.892692 
1572.000000	98.892983 
1571.000000	98.894588 
1570.000000	98.897904 
1569.000000	98.898488 
1568.000000	98.898749 
1567.000000	98.899642 
1566.000000	98.897963 
1565.000000	98.893417 
1564.000000	98.891444 
1563.000000	98.891005 
1562.000000	98.887700 
1561.000000	98.878441 
1560.000000	98.880669 
1559.000000	98.891654 
1558.000000	98.892924 
1557.000000	98.892467 
1556.000000	98.894472 
1555.000000	98.896799 
1554.000000	98.898074 
1553.000000	98.897483 
1552.000000	98.895956 
1551.000000	98.893314 
1550.000000	98.891945 
1549.000000	98.893323 
1548.000000	98.896560 
1547.000000	98.898533 
1546.000000	98.895531 
1545.000000	98.887576 
1544.000000	98.879655 
1543.000000	98.877902 
1542.000000	98.884955 
1541.000000	98.896742 
1540.000000	98.901532 
1539.000000	98.897893 
1538.000000	98.895654 
1537.000000	98.896219 
1536.000000	98.895689 
1535.000000	98.896296 
1534.000000	98.898958 
1533.000000	98.899228 
1532.000000	98.895432 
1531.000000	98.891798 
1530.000000	98.891673 
1529.000000	98.893187 
1528.000000	98.892745 
1527.000000	98.891094 
1526.000000	98.891441 
1525.000000	98.893921 
1524.000000	98.895292 
1523.000000	98.895063 
1522.000000	98.897298 
1521.000000	98.901070 
1520.000000	98.901910 
1519.000000	98.898023 
1518.000000	98.890586 
1517.000000	98.884152 
1516.000000	98.881400 
1515.000000	98.881109 
1514.000000	98.881271 
1513.000000	98.882630 
1512.000000	98.885370 
1511.000000	98.886761 
1510.000000	98.885516 
1509.000000	98.882290 
1508.000000	98.881933 
1507.000000	98.885656 
1506.000000	98.888377 
1505.000000	98.887223 
1504.000000	98.884778 
1503.000000	98.882227 
1502.000000	98.880497 
1501.000000	98.879959 
1500.000000	98.878210 
1499.000000	98.872582 
1498.000000	98.865746 
1497.000000	98.863110 
1496.000000	98.863587 
1495.000000	98.866601 
1494.000000	98.874199 
1493.000000	98.884912 
1492.000000	98.894729 
1491.000000	98.901255 
1490.000000	98.903768 
1489.000000	98.901586 
1488.000000	98.893743 
1487.000000	98.884338 
1486.000000	98.878346 
1485.000000	98.873138 
1484.000000	98.866906 
1483.000000	98.861564 
1482.000000	98.860810 
1481.000000	98.864560 
1480.000000	98.867914 
1479.000000	98.867977 
1478.000000	98.866296 
1477.000000	98.864748 
1476.000000	98.862405 
1475.000000	98.860859 
1474.000000	98.863114 
1473.000000	98.868374 
1472.000000	98.870692 
1471.000000	98.868157 
1470.000000	98.864463 
1469.000000	98.860694 
1468.000000	98.855676 
1467.000000	98.850511 
1466.000000	98.847841 
1465.000000	98.848458 
1464.000000	98.850503 
1463.000000	98.851054 
1462.000000	98.850356 
1461.000000	98.849566 
1460.000000	98.849400 
1459.000000	98.848535 
1458.000000	98.845550 
1457.000000	98.837477 
1456.000000	98.825159 
1455.000000	98.814750 
1454.000000	98.808261 
1453.000000	98.807075 
1452.000000	98.812466 
1451.000000	98.821279 
1450.000000	98.829118 
1449.000000	98.834399 
1448.000000	98.836669 
1447.000000	98.836855 
1446.000000	98.835458 
1445.000000	98.834892 
1444.000000	98.837165 
1443.000000	98.840462 
1442.000000	98.843260 
1441.000000	98.845822 
1440.000000	98.848423 
1439.000000	98.849038 
1438.000000	98.849329 
1437.000000	98.852579 
1436.000000	98.856086 
1435.000000	98.854645 
1434.000000	98.848769 
1433.000000	98.841983 
1432.000000	98.836870 
1431.000000	98.832829 
1430.000000	98.828720 
1429.000000	98.826071 
1428.000000	98.824827 
1427.000000	98.823018 
1426.000000	98.818100 
1425.000000	98.812752 
1424.000000	98.811388 
1423.000000	98.811006 
1422.000000	98.805863 
1421.000000	98.795408 
1420.000000	98.784604 
1419.000000	98.774663 
1418.000000	98.764795 
1417.000000	98.756290 
1416.000000	98.747603 
1415.000000	98.736187 
1414.000000	98.722202 
1413.000000	98.708633 
1412.000000	98.698018 
1411.000000	98.688923 
1410.000000	98.679282 
1409.000000	98.669888 
1408.000000	98.662276 
1407.000000	98.658220 
1406.000000	98.658046 
1405.000000	98.661882 
1404.000000	98.669941 
1403.000000	98.680373 
1402.000000	98.691807 
1401.000000	98.704683 
1400.000000	98.718972 
1399.000000	98.729886 
1398.000000	98.730160 
1397.000000	98.715325 
1396.000000	98.686467 
1395.000000	98.654580 
1394.000000	98.637894 
1393.000000	98.648076 
1392.000000	98.678416 
1391.000000	98.710980 
1390.000000	98.731819 
1389.000000	98.737642 
1388.000000	98.732737 
1387.000000	98.723079 
1386.000000	98.713341 
1385.000000	98.706729 
1384.000000	98.704399 
1383.000000	98.704151 
1382.000000	98.703007 
1381.000000	98.700682 
1380.000000	98.700680 
1379.000000	98.706455 
1378.000000	98.717048 
1377.000000	98.728419 
1376.000000	98.737878 
1375.000000	98.745425 
1374.000000	98.751789 
1373.000000	98.758522 
1372.000000	98.766986 
1371.000000	98.776736 
1370.000000	98.784770 
1369.000000	98.789041 
1368.000000	98.791137 
1367.000000	98.793632 
1366.000000	98.797528 
1365.000000	98.802843 
1364.000000	98.809994 
1363.000000	98.818686 
1362.000000	98.826596 
1361.000000	98.831255 
1360.000000	98.832933 
1359.000000	98.834286 
1358.000000	98.837454 
1357.000000	98.842586 
1356.000000	98.848258 
1355.000000	98.852777 
1354.000000	98.855808 
1353.000000	98.858547 
1352.000000	98.861463 
1351.000000	98.864229 
1350.000000	98.865750 
1349.000000	98.866326 
1348.000000	98.867500 
1347.000000	98.869209 
1346.000000	98.869995 
1345.000000	98.869729 
1344.000000	98.870033 
1343.000000	98.871512 
1342.000000	98.873104 
1341.000000	98.874663 
1340.000000	98.877698 
1339.000000	98.882092 
1338.000000	98.885040 
1337.000000	98.885086 
1336.000000	98.884001 
1335.000000	98.883474 
1334.000000	98.882864 
1333.000000	98.881500 
1332.000000	98.880684 
1331.000000	98.881417 
1330.000000	98.881996 
1329.000000	98.880543 
1328.000000	98.878135 
1327.000000	98.877169 
1326.000000	98.877539 
1325.000000	98.877764 
1324.000000	98.878215 
1323.000000	98.880284 
1322.000000	98.883692 
1321.000000	98.886853 
1320.000000	98.889375 
1319.000000	98.892000 
1318.000000	98.894350 
1317.000000	98.894643 
1316.000000	98.892070 
1315.000000	98.888027 
1314.000000	98.884608 
1313.000000	98.882603 
1312.000000	98.881251 
1311.000000	98.879709 
1310.000000	98.878369 
1309.000000	98.878603 
1308.000000	98.880841 
1307.000000	98.883523 
1306.000000	98.884218 
1305.000000	98.882405 
1304.000000	98.880020 
1303.000000	98.879048 
1302.000000	98.879658 
1301.000000	98.880814 
1300.000000	98.881860 
1299.000000	98.882969 
1298.000000	98.884739 
1297.000000	98.887380 
1296.000000	98.889960 
1295.000000	98.890620 
1294.000000	98.888425 
1293.000000	98.884769 
1292.000000	98.881895 
1291.000000	98.880436 
1290.000000	98.879594 
1289.000000	98.879194 
1288.000000	98.879779 
1287.000000	98.880669 
1286.000000	98.879939 
1285.000000	98.876873 
1284.000000	98.872682 
1283.000000	98.868309 
1282.000000	98.863282 
1281.000000	98.857408 
1280.000000	98.852090 
1279.000000	98.848641 
1278.000000	98.846643 
1277.000000	98.845060 
1276.000000	98.843802 
1275.000000	98.842811 
1274.000000	98.840661 
1273.000000	98.835780 
1272.000000	98.828694 
1271.000000	98.821855 
1270.000000	98.817224 
1269.000000	98.814660 
1268.000000	98.812322 
1267.000000	98.807858 
1266.000000	98.799982 
1265.000000	98.789735 
1264.000000	98.779771 
1263.000000	98.771815 
1262.000000	98.765283 
1261.000000	98.758827 
1260.000000	98.752598 
1259.000000	98.747781 
1258.000000	98.744480 
1257.000000	98.741326 
1256.000000	98.737278 
1255.000000	98.732956 
1254.000000	98.729830 
1253.000000	98.728475 
1252.000000	98.728208 
1251.000000	98.728496 
1250.000000	98.730280 
1249.000000	98.735267 
1248.000000	98.743722 
1247.000000	98.753127 
1246.000000	98.759118 
1245.000000	98.757547 
1244.000000	98.746669 
1243.000000	98.729751 
1242.000000	98.715712 
1241.000000	98.713910 
1240.000000	98.725712 
1239.000000	98.742328 
1238.000000	98.752993 
1237.000000	98.754479 
1236.000000	98.750913 
1235.000000	98.746471 
1234.000000	98.741716 
1233.000000	98.736093 
1232.000000	98.729858 
1231.000000	98.722876 
1230.000000	98.714976 
1229.000000	98.708644 
1228.000000	98.708371 
1227.000000	98.715573 
1226.000000	98.726143 
1225.000000	98.734613 
1224.000000	98.739141 
1223.000000	98.741278 
1222.000000	98.742946 
1221.000000	98.745458 
1220.000000	98.750052 
1219.000000	98.757193 
1218.000000	98.765617 
1217.000000	98.773268 
1216.000000	98.778918 
1215.000000	98.782451 
1214.000000	98.784289 
1213.000000	98.785071 
1212.000000	98.785298 
1211.000000	98.785240 
1210.000000	98.785754 
1209.000000	98.788561 
1208.000000	98.794336 
1207.000000	98.800845 
1206.000000	98.804767 
1205.000000	98.805368 
1204.000000	98.804775 
1203.000000	98.804769 
1202.000000	98.805310 
1201.000000	98.806208 
1200.000000	98.807989 
1199.000000	98.810525 
1198.000000	98.812821 
1197.000000	98.814585 
1196.000000	98.815940 
1195.000000	98.815395 
1194.000000	98.810778 
1193.000000	98.803094 
1192.000000	98.796776 
1191.000000	98.794590 
1190.000000	98.794453 
1189.000000	98.792958 
1188.000000	98.790027 
1187.000000	98.788174 
1186.000000	98.788813 
1185.000000	98.791244 
1184.000000	98.794036 
1183.000000	98.795638 
1182.000000	98.794774 
1181.000000	98.792024 
1180.000000	98.790074 
1179.000000	98.790760 
1178.000000	98.792735 
1177.000000	98.793578 
1176.000000	98.793033 
1175.000000	98.792230 
1174.000000	98.790591 
1173.000000	98.786094 
1172.000000	98.778897 
1171.000000	98.772674 
1170.000000	98.771220 
1169.000000	98.774278 
1168.000000	98.777365 
1167.000000	98.775836 
1166.000000	98.769352 
1165.000000	98.762395 
1164.000000	98.759970 
1163.000000	98.762869 
1162.000000	98.767748 
1161.000000	98.771508 
1160.000000	98.774173 
1159.000000	98.777100 
1158.000000	98.779882 
1157.000000	98.780114 
1156.000000	98.775662 
1155.000000	98.766863 
1154.000000	98.757270 
1153.000000	98.752029 
1152.000000	98.753846 
1151.000000	98.759930 
1150.000000	98.764308 
1149.000000	98.763870 
1148.000000	98.760822 
1147.000000	98.758775 
1146.000000	98.758160 
1145.000000	98.756442 
1144.000000	98.751327 
1143.000000	98.742577 
1142.000000	98.732099 
1141.000000	98.723539 
1140.000000	98.720592 
1139.000000	98.723976 
1138.000000	98.730243 
1137.000000	98.734404 
1136.000000	98.733536 
1135.000000	98.727945 
1134.000000	98.720136 
1133.000000	98.712959 
1132.000000	98.707488 
1131.000000	98.702365 
1130.000000	98.696441 
1129.000000	98.691710 
1128.000000	98.691076 
1127.000000	98.692824 
1126.000000	98.690675 
1125.000000	98.681380 
1124.000000	98.669599 
1123.000000	98.662498 
1122.000000	98.661186 
1121.000000	98.660279 
1120.000000	98.654789 
1119.000000	98.644601 
1118.000000	98.632800 
1117.000000	98.622458 
1116.000000	98.615277 
1115.000000	98.611170 
1114.000000	98.608465 
1113.000000	98.605675 
1112.000000	98.602837 
1111.000000	98.599747 
1110.000000	98.593467 
1109.000000	98.580097 
1108.000000	98.559596 
1107.000000	98.537486 
1106.000000	98.520552 
1105.000000	98.511077 
1104.000000	98.505779 
1103.000000	98.499975 
1102.000000	98.492251 
1101.000000	98.485103 
1100.000000	98.481073 
1099.000000	98.479622 
1098.000000	98.478234 
1097.000000	98.475796 
1096.000000	98.473044 
1095.000000	98.469491 
1094.000000	98.462074 
1093.000000	98.447613 
1092.000000	98.425252 
1091.000000	98.396138 
1090.000000	98.362602 
1089.000000	98.328317 
1088.000000	98.297167 
1087.000000	98.270517 
1086.000000	98.246835 
1085.000000	98.224858 
1084.000000	98.205191 
1083.000000	98.187554 
1082.000000	98.168900 
1081.000000	98.146584 
1080.000000	98.121773 
1079.000000	98.097667 
1078.000000	98.076035 
1077.000000	98.057897 
1076.000000	98.045910 
1075.000000	98.042990 
1074.000000	98.049216 
1073.000000	98.062005 
1072.000000	98.077273 
1071.000000	98.087530 
1070.000000	98.081918 
1069.000000	98.054586 
1068.000000	98.014419 
1067.000000	97.982440 
1066.000000	97.976289 
1065.000000	97.997380 
1064.000000	98.032674 
1063.000000	98.065348 
1062.000000	98.082765 
1061.000000	98.078998 
1060.000000	98.055723 
1059.000000	98.022485 
1058.000000	97.993108 
1057.000000	97.977842 
1056.000000	97.977279 
1055.000000	97.984009 
1054.000000	97.990429 
1053.000000	97.994734 
1052.000000	97.999521 
1051.000000	98.006485 
1050.000000	98.014667 
1049.000000	98.022821 
1048.000000	98.030447 
1047.000000	98.036774 
1046.000000	98.041773 
1045.000000	98.047886 
1044.000000	98.057659 
1043.000000	98.069627 
1042.000000	98.079775 
1041.000000	98.087562 
1040.000000	98.097158 
1039.000000	98.111944 
1038.000000	98.131328 
1037.000000	98.154144 
1036.000000	98.181100 
1035.000000	98.211697 
1034.000000	98.242173 
1033.000000	98.268600 
1032.000000	98.288531 
1031.000000	98.298187 
1030.000000	98.293667 
1029.000000	98.279371 
1028.000000	98.270766 
1027.000000	98.282065 
1026.000000	98.311584 
1025.000000	98.343765 
1024.000000	98.364828 
1023.000000	98.372573 
1022.000000	98.372857 
1021.000000	98.372403 
1020.000000	98.375887 
1019.000000	98.385127 
1018.000000	98.398076 
1017.000000	98.410479 
1016.000000	98.420148 
1015.000000	98.428676 
1014.000000	98.438592 
1013.000000	98.450078 
1012.000000	98.460764 
1011.000000	98.467870 
1010.000000	98.470882 
1009.000000	98.472992 
1008.000000	98.479073 
1007.000000	98.490887 
1006.000000	98.504992 
1005.000000	98.516741 
1004.000000	98.525302 
1003.000000	98.533154 
1002.000000	98.541862 
1001.000000	98.550628 
1000.000000	98.558402 
999.000000	 98.565079 
998.000000	 98.570629 
997.000000	 98.575063 
996.000000	 98.579519 
995.000000	 98.585781 
994.000000	 98.594310 
993.000000	 98.603732 
992.000000	 98.612274 
991.000000	 98.618770 
990.000000	 98.622572 
989.000000	 98.623672 
988.000000	 98.622989 
987.000000	 98.622015 
986.000000	 98.622330 
985.000000	 98.625521 
984.000000	 98.632419 
983.000000	 98.641584 
982.000000	 98.649586 
981.000000	 98.653897 
980.000000	 98.654916 
979.000000	 98.654707 
978.000000	 98.655018 
977.000000	 98.657236 
976.000000	 98.662403 
975.000000	 98.669645 
974.000000	 98.675903 
973.000000	 98.679132 
972.000000	 98.680963 
971.000000	 98.684644 
970.000000	 98.691067 
969.000000	 98.698281 
968.000000	 98.704246 
967.000000	 98.708661 
966.000000	 98.712618 
965.000000	 98.717486 
964.000000	 98.723463 
963.000000	 98.728535 
962.000000	 98.730162 
961.000000	 98.728915 
960.000000	 98.728695 
959.000000	 98.731822 
958.000000	 98.735630 
957.000000	 98.736058 
956.000000	 98.733352 
955.000000	 98.731728 
954.000000	 98.734040 
953.000000	 98.739219 
952.000000	 98.744828 
951.000000	 98.749829 
950.000000	 98.754261 
949.000000	 98.757750 
948.000000	 98.759176 
947.000000	 98.757353 
946.000000	 98.751864 
945.000000	 98.743503 
944.000000	 98.734023 
943.000000	 98.725826 
942.000000	 98.722120 
941.000000	 98.725790 
940.000000	 98.735708 
939.000000	 98.744782 
938.000000	 98.745386 
937.000000	 98.738085 
936.000000	 98.732009 
935.000000	 98.734814 
934.000000	 98.744797 
933.000000	 98.754777 
932.000000	 98.760845 
931.000000	 98.764268 
930.000000	 98.766973 
929.000000	 98.768700 
928.000000	 98.767942 
927.000000	 98.763287 
926.000000	 98.754555 
925.000000	 98.744521 
924.000000	 98.738403 
923.000000	 98.739471 
922.000000	 98.745702 
921.000000	 98.752155 
920.000000	 98.755314 
919.000000	 98.753816 
918.000000	 98.747440 
917.000000	 98.738106 
916.000000	 98.730132 
915.000000	 98.726323 
914.000000	 98.724442 
913.000000	 98.719947 
912.000000	 98.711562 
911.000000	 98.702230 
910.000000	 98.695938 
909.000000	 98.695676 
908.000000	 98.702687 
907.000000	 98.714443 
906.000000	 98.724226 
905.000000	 98.725858 
904.000000	 98.718935 
903.000000	 98.708100 
902.000000	 98.698608 
901.000000	 98.694079 
900.000000	 98.695944 
899.000000	 98.701689 
898.000000	 98.705088 
897.000000	 98.701751 
896.000000	 98.693542 
895.000000	 98.684948 
894.000000	 98.676987 
893.000000	 98.668366 
892.000000	 98.661258 
891.000000	 98.661266 
890.000000	 98.671083 
889.000000	 98.687140 
888.000000	 98.702778 
887.000000	 98.712693 
886.000000	 98.715517 
885.000000	 98.714890 
884.000000	 98.716917 
883.000000	 98.723444 
882.000000	 98.728820 
881.000000	 98.726682 
880.000000	 98.718941 
879.000000	 98.714201 
878.000000	 98.717887 
877.000000	 98.727775 
876.000000	 98.738508 
875.000000	 98.745834 
874.000000	 98.746615 
873.000000	 98.739803 
872.000000	 98.728775 
871.000000	 98.719269 
870.000000	 98.714227 
869.000000	 98.713447 
868.000000	 98.717738 
867.000000	 98.728895 
866.000000	 98.744791 
865.000000	 98.759051 
864.000000	 98.767787 
863.000000	 98.773608 
862.000000	 98.780893 
861.000000	 98.789643 
860.000000	 98.796474 
859.000000	 98.799829 
858.000000	 98.801296 
857.000000	 98.802306 
856.000000	 98.802331 
855.000000	 98.801289 
854.000000	 98.801728 
853.000000	 98.806357 
852.000000	 98.813576 
851.000000	 98.817816 
850.000000	 98.815832 
849.000000	 98.811194 
848.000000	 98.810390 
847.000000	 98.815529 
846.000000	 98.823277 
845.000000	 98.829899 
844.000000	 98.833810 
843.000000	 98.833873 
842.000000	 98.829994 
841.000000	 98.825935 
840.000000	 98.826424 
839.000000	 98.829925 
838.000000	 98.829498 
837.000000	 98.823280 
836.000000	 98.818478 
835.000000	 98.820995 
834.000000	 98.826514 
833.000000	 98.827764 
832.000000	 98.826302 
831.000000	 98.829289 
830.000000	 98.836264 
829.000000	 98.837467 
828.000000	 98.827141 
827.000000	 98.812199 
826.000000	 98.804416 
825.000000	 98.807923 
824.000000	 98.817429 
823.000000	 98.825781 
822.000000	 98.830260 
821.000000	 98.832635 
820.000000	 98.835119 
819.000000	 98.837446 
818.000000	 98.838750 
817.000000	 98.841303 
816.000000	 98.848783 
815.000000	 98.859462 
814.000000	 98.865075 
813.000000	 98.859905 
812.000000	 98.848158 
811.000000	 98.838400 
810.000000	 98.832894 
809.000000	 98.826664 
808.000000	 98.815606 
807.000000	 98.800991 
806.000000	 98.786426 
805.000000	 98.774428 
804.000000	 98.766498 
803.000000	 98.763487 
802.000000	 98.764987 
801.000000	 98.769556 
800.000000	 98.775165 
799.000000	 98.779077 
798.000000	 98.779645 
797.000000	 98.779104 
796.000000	 98.781147 
795.000000	 98.784449 
794.000000	 98.783271 
793.000000	 98.777235 
792.000000	 98.775145 
791.000000	 98.784212 
790.000000	 98.799630 
789.000000	 98.810318 
788.000000	 98.811469 
787.000000	 98.805532 
786.000000	 98.794256 
785.000000	 98.777201 
784.000000	 98.757203 
783.000000	 98.740675 
782.000000	 98.731717 
781.000000	 98.729804 
780.000000	 98.732221 
779.000000	 98.734622 
778.000000	 98.731377 
777.000000	 98.721021 
776.000000	 98.710250 
775.000000	 98.707242 
774.000000	 98.711909 
773.000000	 98.717785 
772.000000	 98.722262 
771.000000	 98.729052 
770.000000	 98.741063 
769.000000	 98.756317 
768.000000	 98.770841 
767.000000	 98.781166 
766.000000	 98.785228 
765.000000	 98.785768 
764.000000	 98.791062 
763.000000	 98.806054 
762.000000	 98.823452 
761.000000	 98.829950 
760.000000	 98.821570 
759.000000	 98.807482 
758.000000	 98.798986 
757.000000	 98.799884 
756.000000	 98.806568 
755.000000	 98.810856 
754.000000	 98.803339 
753.000000	 98.781800 
752.000000	 98.757905 
751.000000	 98.749100 
750.000000	 98.761099 
749.000000	 98.782642 
748.000000	 98.798357 
747.000000	 98.801756 
746.000000	 98.795497 
745.000000	 98.785553 
744.000000	 98.777787 
743.000000	 98.775321 
742.000000	 98.776351 
741.000000	 98.777482 
740.000000	 98.779828 
739.000000	 98.787813 
738.000000	 98.801314 
737.000000	 98.813143 
736.000000	 98.815056 
735.000000	 98.803538 
734.000000	 98.781356 
733.000000	 98.758180 
732.000000	 98.748008 
731.000000	 98.758883 
730.000000	 98.783689 
729.000000	 98.806297 
728.000000	 98.817818 
727.000000	 98.821153 
726.000000	 98.820238 
725.000000	 98.813893 
724.000000	 98.802099 
723.000000	 98.790176 
722.000000	 98.783118 
721.000000	 98.781577 
720.000000	 98.785754 
719.000000	 98.796340 
718.000000	 98.808656 
717.000000	 98.813239 
716.000000	 98.805968 
715.000000	 98.792414 
714.000000	 98.779853 
713.000000	 98.770947 
712.000000	 98.768340 
711.000000	 98.777454 
710.000000	 98.798253 
709.000000	 98.819015 
708.000000	 98.825134 
707.000000	 98.812522 
706.000000	 98.788224 
705.000000	 98.762006 
704.000000	 98.741988 
703.000000	 98.734176 
702.000000	 98.740615 
701.000000	 98.757443 
700.000000	 98.776649 
699.000000	 98.790536 
698.000000	 98.794646 
697.000000	 98.789783 
696.000000	 98.781535 
695.000000	 98.774418 
694.000000	 98.768328 
693.000000	 98.763198 
692.000000	 98.764175 
691.000000	 98.777044 
690.000000	 98.798838 
689.000000	 98.820398 
688.000000	 98.837302 
687.000000	 98.849602 
686.000000	 98.852534 
685.000000	 98.838398 
684.000000	 98.810346 
683.000000	 98.785050 
682.000000	 98.776774 
681.000000	 98.784633 
680.000000	 98.796661 
679.000000	 98.800791 
678.000000	 98.790408 
677.000000	 98.767879 
676.000000	 98.749159 
675.000000	 98.751486 
674.000000	 98.771776 
673.000000	 98.786327 
672.000000	 98.779161 
671.000000	 98.761846 
670.000000	 98.762719 
669.000000	 98.796673 
668.000000	 98.829295 
667.000000	 98.828977 
666.000000	 98.809487 
665.000000	 98.778392 
664.000000	 98.746739 
663.000000	 98.736506 
662.000000	 98.751901 
661.000000	 98.767472 
660.000000	 98.760037 
659.000000	 98.737767 
658.000000	 98.720565 
657.000000	 98.708864 
656.000000	 98.693577 
655.000000	 98.679865 
654.000000	 98.679180 
653.000000	 98.688939 
652.000000	 98.698295 
651.000000	 98.703718 
650.000000	 98.705840 

