4000.000000	101.105205 
3999.000000	101.104871 
3998.000000	101.104549 
3997.000000	101.104657 
3996.000000	101.105172 
3995.000000	101.105732 
3994.000000	101.106080 
3993.000000	101.106300 
3992.000000	101.106612 
3991.000000	101.106921 
3990.000000	101.106689 
3989.000000	101.105413 
3988.000000	101.103260 
3987.000000	101.101168 
3986.000000	101.100044 
3985.000000	101.100076 
3984.000000	101.100874 
3983.000000	101.102021 
3982.000000	101.103402 
3981.000000	101.104940 
3980.000000	101.106388 
3979.000000	101.107470 
3978.000000	101.108008 
3977.000000	101.107845 
3976.000000	101.106915 
3975.000000	101.105467 
3974.000000	101.103891 
3973.000000	101.102389 
3972.000000	101.101068 
3971.000000	101.100216 
3970.000000	101.100150 
3969.000000	101.100768 
3968.000000	101.101548 
3967.000000	101.101962 
3966.000000	101.101798 
3965.000000	101.101115 
3964.000000	101.100149 
3963.000000	101.099279 
3962.000000	101.098814 
3961.000000	101.098726 
3960.000000	101.098723 
3959.000000	101.098547 
3958.000000	101.098138 
3957.000000	101.097551 
3956.000000	101.096934 
3955.000000	101.096449 
3954.000000	101.096123 
3953.000000	101.095834 
3952.000000	101.095454 
3951.000000	101.094987 
3950.000000	101.094512 
3949.000000	101.094074 
3948.000000	101.093661 
3947.000000	101.093257 
3946.000000	101.092885 
3945.000000	101.092570 
3944.000000	101.092275 
3943.000000	101.091953 
3942.000000	101.091607 
3941.000000	101.091254 
3940.000000	101.090899 
3939.000000	101.090548 
3938.000000	101.090200 
3937.000000	101.089855 
3936.000000	101.089511 
3935.000000	101.089175 
3934.000000	101.088856 
3933.000000	101.088561 
3932.000000	101.088294 
3931.000000	101.088050 
3930.000000	101.087823 
3929.000000	101.087606 
3928.000000	101.087396 
3927.000000	101.087192 
3926.000000	101.086992 
3925.000000	101.086795 
3924.000000	101.086598 
3923.000000	101.086405 
3922.000000	101.086221 
3921.000000	101.086044 
3920.000000	101.085865 
3919.000000	101.085678 
3918.000000	101.085486 
3917.000000	101.085302 
3916.000000	101.085134 
3915.000000	101.084978 
3914.000000	101.084827 
3913.000000	101.084672 
3912.000000	101.084514 
3911.000000	101.084354 
3910.000000	101.084191 
3909.000000	101.084023 
3908.000000	101.083857 
3907.000000	101.083701 
3906.000000	101.083557 
3905.000000	101.083414 
3904.000000	101.083256 
3903.000000	101.083074 
3902.000000	101.082875 
3901.000000	101.082668 
3900.000000	101.082461 
3899.000000	101.082249 
3898.000000	101.082019 
3897.000000	101.081772 
3896.000000	101.081524 
3895.000000	101.081294 
3894.000000	101.081084 
3893.000000	101.080894 
3892.000000	101.080718 
3891.000000	101.080553 
3890.000000	101.080387 
3889.000000	101.080208 
3888.000000	101.080010 
3887.000000	101.079797 
3886.000000	101.079570 
3885.000000	101.079325 
3884.000000	101.079061 
3883.000000	101.078794 
3882.000000	101.078538 
3881.000000	101.078296 
3880.000000	101.078059 
3879.000000	101.077823 
3878.000000	101.077596 
3877.000000	101.077390 
3876.000000	101.077207 
3875.000000	101.077039 
3874.000000	101.076869 
3873.000000	101.076689 
3872.000000	101.076510 
3871.000000	101.076352 
3870.000000	101.076218 
3869.000000	101.076099 
3868.000000	101.075989 
3867.000000	101.075896 
3866.000000	101.075825 
3865.000000	101.075760 
3864.000000	101.075682 
3863.000000	101.075597 
3862.000000	101.075525 
3861.000000	101.075476 
3860.000000	101.075440 
3859.000000	101.075413 
3858.000000	101.075398 
3857.000000	101.075407 
3856.000000	101.075448 
3855.000000	101.075527 
3854.000000	101.075633 
3853.000000	101.075739 
3852.000000	101.075825 
3851.000000	101.075892 
3850.000000	101.075944 
3849.000000	101.075984 
3848.000000	101.076011 
3847.000000	101.076025 
3846.000000	101.076028 
3845.000000	101.076026 
3844.000000	101.076029 
3843.000000	101.076040 
3842.000000	101.076055 
3841.000000	101.076065 
3840.000000	101.076064 
3839.000000	101.076053 
3838.000000	101.076029 
3837.000000	101.075986 
3836.000000	101.075913 
3835.000000	101.075803 
3834.000000	101.075660 
3833.000000	101.075497 
3832.000000	101.075323 
3831.000000	101.075144 
3830.000000	101.074959 
3829.000000	101.074762 
3828.000000	101.074554 
3827.000000	101.074339 
3826.000000	101.074121 
3825.000000	101.073895 
3824.000000	101.073660 
3823.000000	101.073423 
3822.000000	101.073196 
3821.000000	101.072974 
3820.000000	101.072733 
3819.000000	101.072463 
3818.000000	101.072174 
3817.000000	101.071882 
3816.000000	101.071579 
3815.000000	101.071248 
3814.000000	101.070883 
3813.000000	101.070502 
3812.000000	101.070114 
3811.000000	101.069720 
3810.000000	101.069316 
3809.000000	101.068911 
3808.000000	101.068519 
3807.000000	101.068145 
3806.000000	101.067781 
3805.000000	101.067416 
3804.000000	101.067060 
3803.000000	101.066730 
3802.000000	101.066432 
3801.000000	101.066146 
3800.000000	101.065864 
3799.000000	101.065599 
3798.000000	101.065367 
3797.000000	101.065169 
3796.000000	101.064989 
3795.000000	101.064829 
3794.000000	101.064703 
3793.000000	101.064623 
3792.000000	101.064586 
3791.000000	101.064575 
3790.000000	101.064583 
3789.000000	101.064601 
3788.000000	101.064630 
3787.000000	101.064671 
3786.000000	101.064726 
3785.000000	101.064783 
3784.000000	101.064829 
3783.000000	101.064857 
3782.000000	101.064876 
3781.000000	101.064893 
3780.000000	101.064903 
3779.000000	101.064896 
3778.000000	101.064881 
3777.000000	101.064874 
3776.000000	101.064884 
3775.000000	101.064908 
3774.000000	101.064942 
3773.000000	101.064992 
3772.000000	101.065066 
3771.000000	101.065158 
3770.000000	101.065255 
3769.000000	101.065350 
3768.000000	101.065450 
3767.000000	101.065567 
3766.000000	101.065698 
3765.000000	101.065831 
3764.000000	101.065959 
3763.000000	101.066085 
3762.000000	101.066217 
3761.000000	101.066350 
3760.000000	101.066469 
3759.000000	101.066568 
3758.000000	101.066653 
3757.000000	101.066725 
3756.000000	101.066767 
3755.000000	101.066763 
3754.000000	101.066712 
3753.000000	101.066620 
3752.000000	101.066486 
3751.000000	101.066305 
3750.000000	101.066087 
3749.000000	101.065843 
3748.000000	101.065574 
3747.000000	101.065274 
3746.000000	101.064945 
3745.000000	101.064594 
3744.000000	101.064210 
3743.000000	101.063785 
3742.000000	101.063340 
3741.000000	101.062894 
3740.000000	101.062445 
3739.000000	101.061972 
3738.000000	101.061466 
3737.000000	101.060939 
3736.000000	101.060400 
3735.000000	101.059844 
3734.000000	101.059260 
3733.000000	101.058645 
3732.000000	101.057995 
3731.000000	101.057303 
3730.000000	101.056561 
3729.000000	101.055771 
3728.000000	101.054940 
3727.000000	101.054072 
3726.000000	101.053166 
3725.000000	101.052217 
3724.000000	101.051222 
3723.000000	101.050179 
3722.000000	101.049082 
3721.000000	101.047930 
3720.000000	101.046718 
3719.000000	101.045439 
3718.000000	101.044092 
3717.000000	101.042683 
3716.000000	101.041217 
3715.000000	101.039702 
3714.000000	101.038157 
3713.000000	101.036607 
3712.000000	101.035070 
3711.000000	101.033548 
3710.000000	101.032035 
3709.000000	101.030524 
3708.000000	101.029002 
3707.000000	101.027455 
3706.000000	101.025872 
3705.000000	101.024256 
3704.000000	101.022611 
3703.000000	101.020948 
3702.000000	101.019287 
3701.000000	101.017645 
3700.000000	101.016012 
3699.000000	101.014368 
3698.000000	101.012717 
3697.000000	101.011076 
3696.000000	101.009422 
3695.000000	101.007744 
3694.000000	101.006093 
3693.000000	101.004512 
3692.000000	101.002976 
3691.000000	101.001439 
3690.000000	100.999915 
3689.000000	100.998430 
3688.000000	100.996971 
3687.000000	100.995511 
3686.000000	100.994049 
3685.000000	100.992612 
3684.000000	100.991207 
3683.000000	100.989814 
3682.000000	100.988423 
3681.000000	100.987066 
3680.000000	100.985765 
3679.000000	100.984507 
3678.000000	100.983273 
3677.000000	100.982131 
3676.000000	100.981151 
3675.000000	100.980316 
3674.000000	100.979544 
3673.000000	100.978823 
3672.000000	100.978179 
3671.000000	100.977603 
3670.000000	100.977034 
3669.000000	100.976438 
3668.000000	100.975837 
3667.000000	100.975283 
3666.000000	100.974795 
3665.000000	100.974368 
3664.000000	100.974001 
3663.000000	100.973710 
3662.000000	100.973502 
3661.000000	100.973362 
3660.000000	100.973263 
3659.000000	100.973197 
3658.000000	100.973175 
3657.000000	100.973204 
3656.000000	100.973283 
3655.000000	100.973406 
3654.000000	100.973565 
3653.000000	100.973753 
3652.000000	100.973958 
3651.000000	100.974160 
3650.000000	100.974345 
3649.000000	100.974513 
3648.000000	100.974687 
3647.000000	100.974890 
3646.000000	100.975132 
3645.000000	100.975415 
3644.000000	100.975741 
3643.000000	100.976106 
3642.000000	100.976503 
3641.000000	100.976929 
3640.000000	100.977388 
3639.000000	100.977883 
3638.000000	100.978408 
3637.000000	100.978947 
3636.000000	100.979487 
3635.000000	100.980017 
3634.000000	100.980523 
3633.000000	100.981003 
3632.000000	100.981465 
3631.000000	100.981933 
3630.000000	100.982417 
3629.000000	100.982912 
3628.000000	100.983406 
3627.000000	100.983914 
3626.000000	100.984448 
3625.000000	100.985006 
3624.000000	100.985566 
3623.000000	100.986108 
3622.000000	100.986624 
3621.000000	100.987118 
3620.000000	100.987593 
3619.000000	100.988046 
3618.000000	100.988478 
3617.000000	100.988893 
3616.000000	100.989295 
3615.000000	100.989678 
3614.000000	100.990038 
3613.000000	100.990370 
3612.000000	100.990678 
3611.000000	100.990952 
3610.000000	100.991174 
3609.000000	100.991375 
3608.000000	100.991585 
3607.000000	100.991804 
3606.000000	100.992074 
3605.000000	100.992464 
3604.000000	100.992943 
3603.000000	100.993345 
3602.000000	100.993571 
3601.000000	100.993736 
3600.000000	100.994017 
3599.000000	100.994509 
3598.000000	100.995183 
3597.000000	100.995832 
3596.000000	100.996130 
3595.000000	100.996017 
3594.000000	100.995809 
3593.000000	100.996000 
3592.000000	100.996874 
3591.000000	100.998269 
3590.000000	100.999762 
3589.000000	101.000816 
3588.000000	101.000732 
3587.000000	100.999244 
3586.000000	100.997280 
3585.000000	100.996061 
3584.000000	100.995805 
3583.000000	100.995859 
3582.000000	100.995571 
3581.000000	100.994863 
3580.000000	100.993928 
3579.000000	100.992837 
3578.000000	100.991588 
3577.000000	100.990422 
3576.000000	100.989810 
3575.000000	100.990034 
3574.000000	100.990913 
3573.000000	100.991920 
3572.000000	100.992587 
3571.000000	100.992579 
3570.000000	100.991766 
3569.000000	100.990340 
3568.000000	100.988642 
3567.000000	100.987148 
3566.000000	100.986639 
3565.000000	100.987531 
3564.000000	100.989292 
3563.000000	100.990814 
3562.000000	100.991363 
3561.000000	100.991032 
3560.000000	100.990436 
3559.000000	100.990026 
3558.000000	100.989763 
3557.000000	100.989371 
3556.000000	100.988732 
3555.000000	100.988002 
3554.000000	100.987504 
3553.000000	100.987375 
3552.000000	100.987365 
3551.000000	100.987113 
3550.000000	100.986568 
3549.000000	100.986014 
3548.000000	100.985688 
3547.000000	100.985584 
3546.000000	100.985668 
3545.000000	100.986009 
3544.000000	100.986599 
3543.000000	100.987246 
3542.000000	100.987750 
3541.000000	100.988005 
3540.000000	100.987944 
3539.000000	100.987573 
3538.000000	100.987047 
3537.000000	100.986590 
3536.000000	100.986286 
3535.000000	100.986057 
3534.000000	100.985817 
3533.000000	100.985567 
3532.000000	100.985334 
3531.000000	100.985147 
3530.000000	100.985054 
3529.000000	100.985084 
3528.000000	100.985178 
3527.000000	100.985226 
3526.000000	100.985182 
3525.000000	100.985077 
3524.000000	100.984949 
3523.000000	100.984815 
3522.000000	100.984679 
3521.000000	100.984542 
3520.000000	100.984398 
3519.000000	100.984248 
3518.000000	100.984095 
3517.000000	100.983942 
3516.000000	100.983788 
3515.000000	100.983635 
3514.000000	100.983480 
3513.000000	100.983321 
3512.000000	100.983152 
3511.000000	100.982971 
3510.000000	100.982778 
3509.000000	100.982575 
3508.000000	100.982367 
3507.000000	100.982155 
3506.000000	100.981936 
3505.000000	100.981704 
3504.000000	100.981458 
3503.000000	100.981204 
3502.000000	100.980948 
3501.000000	100.980695 
3500.000000	100.980444 
3499.000000	100.980186 
3498.000000	100.979911 
3497.000000	100.979620 
3496.000000	100.979317 
3495.000000	100.979014 
3494.000000	100.978714 
3493.000000	100.978420 
3492.000000	100.978128 
3491.000000	100.977836 
3490.000000	100.977547 
3489.000000	100.977263 
3488.000000	100.976981 
3487.000000	100.976697 
3486.000000	100.976405 
3485.000000	100.976101 
3484.000000	100.975788 
3483.000000	100.975467 
3482.000000	100.975138 
3481.000000	100.974802 
3480.000000	100.974456 
3479.000000	100.974102 
3478.000000	100.973742 
3477.000000	100.973386 
3476.000000	100.973044 
3475.000000	100.972707 
3474.000000	100.972361 
3473.000000	100.972022 
3472.000000	100.971736 
3471.000000	100.971530 
3470.000000	100.971363 
3469.000000	100.971147 
3468.000000	100.970828 
3467.000000	100.970410 
3466.000000	100.969913 
3465.000000	100.969350 
3464.000000	100.968762 
3463.000000	100.968192 
3462.000000	100.967618 
3461.000000	100.966959 
3460.000000	100.966206 
3459.000000	100.965539 
3458.000000	100.965202 
3457.000000	100.965236 
3456.000000	100.965403 
3455.000000	100.965363 
3454.000000	100.964960 
3453.000000	100.964390 
3452.000000	100.963971 
3451.000000	100.963854 
3450.000000	100.963989 
3449.000000	100.964243 
3448.000000	100.964361 
3447.000000	100.964020 
3446.000000	100.963178 
3445.000000	100.962283 
3444.000000	100.961867 
3443.000000	100.961930 
3442.000000	100.961963 
3441.000000	100.961583 
3440.000000	100.960956 
3439.000000	100.960486 
3438.000000	100.960298 
3437.000000	100.960176 
3436.000000	100.959892 
3435.000000	100.959425 
3434.000000	100.958927 
3433.000000	100.958593 
3432.000000	100.958476 
3431.000000	100.958429 
3430.000000	100.958233 
3429.000000	100.957774 
3428.000000	100.957077 
3427.000000	100.956213 
3426.000000	100.955283 
3425.000000	100.954448 
3424.000000	100.953874 
3423.000000	100.953608 
3422.000000	100.953508 
3421.000000	100.953302 
3420.000000	100.952808 
3419.000000	100.952142 
3418.000000	100.951682 
3417.000000	100.951707 
3416.000000	100.952104 
3415.000000	100.952443 
3414.000000	100.952391 
3413.000000	100.952009 
3412.000000	100.951594 
3411.000000	100.951375 
3410.000000	100.951393 
3409.000000	100.951574 
3408.000000	100.951779 
3407.000000	100.951807 
3406.000000	100.951479 
3405.000000	100.950800 
3404.000000	100.950045 
3403.000000	100.949628 
3402.000000	100.949773 
3401.000000	100.950301 
3400.000000	100.950736 
3399.000000	100.950755 
3398.000000	100.950473 
3397.000000	100.950272 
3396.000000	100.950404 
3395.000000	100.950809 
3394.000000	100.951276 
3393.000000	100.951648 
3392.000000	100.951859 
3391.000000	100.951862 
3390.000000	100.951623 
3389.000000	100.951175 
3388.000000	100.950636 
3387.000000	100.950162 
3386.000000	100.949841 
3385.000000	100.949624 
3384.000000	100.949397 
3383.000000	100.949149 
3382.000000	100.948985 
3381.000000	100.948911 
3380.000000	100.948718 
3379.000000	100.948227 
3378.000000	100.947629 
3377.000000	100.947433 
3376.000000	100.948023 
3375.000000	100.949336 
3374.000000	100.950894 
3373.000000	100.952095 
3372.000000	100.952563 
3371.000000	100.952293 
3370.000000	100.951586 
3369.000000	100.950837 
3368.000000	100.950293 
3367.000000	100.949986 
3366.000000	100.949818 
3365.000000	100.949684 
3364.000000	100.949554 
3363.000000	100.949494 
3362.000000	100.949581 
3361.000000	100.949739 
3360.000000	100.949704 
3359.000000	100.949256 
3358.000000	100.948530 
3357.000000	100.947977 
3356.000000	100.947937 
3355.000000	100.948295 
3354.000000	100.948633 
3353.000000	100.948686 
3352.000000	100.948563 
3351.000000	100.948550 
3350.000000	100.948819 
3349.000000	100.949357 
3348.000000	100.950058 
3347.000000	100.950775 
3346.000000	100.951325 
3345.000000	100.951566 
3344.000000	100.951498 
3343.000000	100.951275 
3342.000000	100.951085 
3341.000000	100.951030 
3340.000000	100.951137 
3339.000000	100.951375 
3338.000000	100.951610 
3337.000000	100.951628 
3336.000000	100.951332 
3335.000000	100.950900 
3334.000000	100.950698 
3333.000000	100.950934 
3332.000000	100.951488 
3331.000000	100.952030 
3330.000000	100.952347 
3329.000000	100.952507 
3328.000000	100.952706 
3327.000000	100.953059 
3326.000000	100.953510 
3325.000000	100.953894 
3324.000000	100.954104 
3323.000000	100.954193 
3322.000000	100.954302 
3321.000000	100.954480 
3320.000000	100.954616 
3319.000000	100.954589 
3318.000000	100.954438 
3317.000000	100.954340 
3316.000000	100.954426 
3315.000000	100.954669 
3314.000000	100.954955 
3313.000000	100.955198 
3312.000000	100.955395 
3311.000000	100.955592 
3310.000000	100.955834 
3309.000000	100.956134 
3308.000000	100.956456 
3307.000000	100.956736 
3306.000000	100.956920 
3305.000000	100.956974 
3304.000000	100.956859 
3303.000000	100.956571 
3302.000000	100.956220 
3301.000000	100.956022 
3300.000000	100.956138 
3299.000000	100.956541 
3298.000000	100.957006 
3297.000000	100.957285 
3296.000000	100.957301 
3295.000000	100.957190 
3294.000000	100.957194 
3293.000000	100.957451 
3292.000000	100.957887 
3291.000000	100.958279 
3290.000000	100.958430 
3289.000000	100.958271 
3288.000000	100.957832 
3287.000000	100.957238 
3286.000000	100.956722 
3285.000000	100.956498 
3284.000000	100.956584 
3283.000000	100.956796 
3282.000000	100.956991 
3281.000000	100.957187 
3280.000000	100.957415 
3279.000000	100.957553 
3278.000000	100.957462 
3277.000000	100.957200 
3276.000000	100.957002 
3275.000000	100.957037 
3274.000000	100.957266 
3273.000000	100.957507 
3272.000000	100.957548 
3271.000000	100.957224 
3270.000000	100.956519 
3269.000000	100.955688 
3268.000000	100.955191 
3267.000000	100.955359 
3266.000000	100.956162 
3265.000000	100.957235 
3264.000000	100.958158 
3263.000000	100.958751 
3262.000000	100.959111 
3261.000000	100.959430 
3260.000000	100.959786 
3259.000000	100.960075 
3258.000000	100.960150 
3257.000000	100.959995 
3256.000000	100.959722 
3255.000000	100.959459 
3254.000000	100.959303 
3253.000000	100.959345 
3252.000000	100.959638 
3251.000000	100.960098 
3250.000000	100.960507 
3249.000000	100.960695 
3248.000000	100.960701 
3247.000000	100.960690 
3246.000000	100.960738 
3245.000000	100.960747 
3244.000000	100.960620 
3243.000000	100.960452 
3242.000000	100.960489 
3241.000000	100.960888 
3240.000000	100.961580 
3239.000000	100.962281 
3238.000000	100.962682 
3237.000000	100.962682 
3236.000000	100.962443 
3235.000000	100.962266 
3234.000000	100.962355 
3233.000000	100.962710 
3232.000000	100.963210 
3231.000000	100.963710 
3230.000000	100.964073 
3229.000000	100.964163 
3228.000000	100.963916 
3227.000000	100.963417 
3226.000000	100.962870 
3225.000000	100.962465 
3224.000000	100.962286 
3223.000000	100.962328 
3222.000000	100.962528 
3221.000000	100.962805 
3220.000000	100.963097 
3219.000000	100.963364 
3218.000000	100.963523 
3217.000000	100.963412 
3216.000000	100.962936 
3215.000000	100.962282 
3214.000000	100.961877 
3213.000000	100.962042 
3212.000000	100.962715 
3211.000000	100.963569 
3210.000000	100.964410 
3209.000000	100.965283 
3208.000000	100.966151 
3207.000000	100.966671 
3206.000000	100.966506 
3205.000000	100.965835 
3204.000000	100.965379 
3203.000000	100.965753 
3202.000000	100.966906 
3201.000000	100.968272 
3200.000000	100.969362 
3199.000000	100.969984 
3198.000000	100.970022 
3197.000000	100.969433 
3196.000000	100.968550 
3195.000000	100.968017 
3194.000000	100.968116 
3193.000000	100.968335 
3192.000000	100.967923 
3191.000000	100.966787 
3190.000000	100.965581 
3189.000000	100.965002 
3188.000000	100.965232 
3187.000000	100.965998 
3186.000000	100.966827 
3185.000000	100.967222 
3184.000000	100.966896 
3183.000000	100.965977 
3182.000000	100.964916 
3181.000000	100.964129 
3180.000000	100.963737 
3179.000000	100.963684 
3178.000000	100.963900 
3177.000000	100.964233 
3176.000000	100.964402 
3175.000000	100.964284 
3174.000000	100.964235 
3173.000000	100.964866 
3172.000000	100.966366 
3171.000000	100.968142 
3170.000000	100.969231 
3169.000000	100.969223 
3168.000000	100.968654 
3167.000000	100.968498 
3166.000000	100.969223 
3165.000000	100.970452 
3164.000000	100.971470 
3163.000000	100.971938 
3162.000000	100.972044 
3161.000000	100.972147 
3160.000000	100.972413 
3159.000000	100.972764 
3158.000000	100.972980 
3157.000000	100.972856 
3156.000000	100.972370 
3155.000000	100.971780 
3154.000000	100.971478 
3153.000000	100.971670 
3152.000000	100.972227 
3151.000000	100.972801 
3150.000000	100.973059 
3149.000000	100.972848 
3148.000000	100.972285 
3147.000000	100.971736 
3146.000000	100.971557 
3145.000000	100.971765 
3144.000000	100.972079 
3143.000000	100.972393 
3142.000000	100.973033 
3141.000000	100.974318 
3140.000000	100.975970 
3139.000000	100.977202 
3138.000000	100.977433 
3137.000000	100.976769 
3136.000000	100.975820 
3135.000000	100.975097 
3134.000000	100.974659 
3133.000000	100.974305 
3132.000000	100.973957 
3131.000000	100.973713 
3130.000000	100.973553 
3129.000000	100.973161 
3128.000000	100.972260 
3127.000000	100.971099 
3126.000000	100.970407 
3125.000000	100.970685 
3124.000000	100.971712 
3123.000000	100.972769 
3122.000000	100.973352 
3121.000000	100.973551 
3120.000000	100.973786 
3119.000000	100.974392 
3118.000000	100.975330 
3117.000000	100.976132 
3116.000000	100.976206 
3115.000000	100.975379 
3114.000000	100.974142 
3113.000000	100.973208 
3112.000000	100.972775 
3111.000000	100.972469 
3110.000000	100.972001 
3109.000000	100.971552 
3108.000000	100.971340 
3107.000000	100.971184 
3106.000000	100.970831 
3105.000000	100.970484 
3104.000000	100.970632 
3103.000000	100.971476 
3102.000000	100.972809 
3101.000000	100.974277 
3100.000000	100.975489 
3099.000000	100.976013 
3098.000000	100.975614 
3097.000000	100.974580 
3096.000000	100.973636 
3095.000000	100.973350 
3094.000000	100.973699 
3093.000000	100.974262 
3092.000000	100.974665 
3091.000000	100.974767 
3090.000000	100.974553 
3089.000000	100.974085 
3088.000000	100.973632 
3087.000000	100.973625 
3086.000000	100.974296 
3085.000000	100.975364 
3084.000000	100.976238 
3083.000000	100.976583 
3082.000000	100.976581 
3081.000000	100.976588 
3080.000000	100.976629 
3079.000000	100.976383 
3078.000000	100.975558 
3077.000000	100.974151 
3076.000000	100.972460 
3075.000000	100.970990 
3074.000000	100.970265 
3073.000000	100.970481 
3072.000000	100.971323 
3071.000000	100.972351 
3070.000000	100.973470 
3069.000000	100.974553 
3068.000000	100.974734 
3067.000000	100.972824 
3066.000000	100.968783 
3065.000000	100.964301 
3064.000000	100.961329 
3063.000000	100.960369 
3062.000000	100.960619 
3061.000000	100.961255 
3060.000000	100.962116 
3059.000000	100.963458 
3058.000000	100.965598 
3057.000000	100.968545 
3056.000000	100.971510 
3055.000000	100.973075 
3054.000000	100.972409 
3053.000000	100.970177 
3052.000000	100.967903 
3051.000000	100.966635 
3050.000000	100.966454 
3049.000000	100.966741 
3048.000000	100.966361 
3047.000000	100.964040 
3046.000000	100.959539 
3045.000000	100.954489 
3044.000000	100.951273 
3043.000000	100.950715 
3042.000000	100.951329 
3041.000000	100.951000 
3040.000000	100.949071 
3039.000000	100.946631 
3038.000000	100.945190 
3037.000000	100.945284 
3036.000000	100.946055 
3035.000000	100.945949 
3034.000000	100.943861 
3033.000000	100.939802 
3032.000000	100.934575 
3031.000000	100.929107 
3030.000000	100.924056 
3029.000000	100.919694 
3028.000000	100.915973 
3027.000000	100.912783 
3026.000000	100.910220 
3025.000000	100.908298 
3024.000000	100.906166 
3023.000000	100.902129 
3022.000000	100.895125 
3021.000000	100.886084 
3020.000000	100.877402 
3019.000000	100.871069 
3018.000000	100.867549 
3017.000000	100.865998 
3016.000000	100.864773 
3015.000000	100.862012 
3014.000000	100.856719 
3013.000000	100.849569 
3012.000000	100.842057 
3011.000000	100.834623 
3010.000000	100.826254 
3009.000000	100.816242 
3008.000000	100.805690 
3007.000000	100.796741 
3006.000000	100.790592 
3005.000000	100.786628 
3004.000000	100.783055 
3003.000000	100.777995 
3002.000000	100.770470 
3001.000000	100.761147 
3000.000000	100.752125 
2999.000000	100.745317 
2998.000000	100.740811 
2997.000000	100.737337 
2996.000000	100.734344 
2995.000000	100.732584 
2994.000000	100.731863 
2993.000000	100.729099 
2992.000000	100.720378 
2991.000000	100.705470 
2990.000000	100.689299 
2989.000000	100.677887 
2988.000000	100.673309 
2987.000000	100.673290 
2986.000000	100.674732 
2985.000000	100.676639 
2984.000000	100.679557 
2983.000000	100.683451 
2982.000000	100.687082 
2981.000000	100.689148 
2980.000000	100.689460 
2979.000000	100.688975 
2978.000000	100.688860 
2977.000000	100.689442 
2976.000000	100.689994 
2975.000000	100.689675 
2974.000000	100.688607 
2973.000000	100.687691 
2972.000000	100.687433 
2971.000000	100.687443 
2970.000000	100.687262 
2969.000000	100.687256 
2968.000000	100.688440 
2967.000000	100.691623 
2966.000000	100.696763 
2965.000000	100.702970 
2964.000000	100.709145 
2963.000000	100.714851 
2962.000000	100.720407 
2961.000000	100.725799 
2960.000000	100.729932 
2959.000000	100.731847 
2958.000000	100.732607 
2957.000000	100.734801 
2956.000000	100.739508 
2955.000000	100.744548 
2954.000000	100.746638 
2953.000000	100.745191 
2952.000000	100.743363 
2951.000000	100.745295 
2950.000000	100.752410 
2949.000000	100.762205 
2948.000000	100.770422 
2947.000000	100.774575 
2946.000000	100.775388 
2945.000000	100.775167 
2944.000000	100.775274 
2943.000000	100.775611 
2942.000000	100.776055 
2941.000000	100.776973 
2940.000000	100.778061 
2939.000000	100.778065 
2938.000000	100.776420 
2937.000000	100.774287 
2936.000000	100.773222 
2935.000000	100.773585 
2934.000000	100.775012 
2933.000000	100.777482 
2932.000000	100.780685 
2931.000000	100.783043 
2930.000000	100.782833 
2929.000000	100.780217 
2928.000000	100.777046 
2927.000000	100.774663 
2926.000000	100.772871 
2925.000000	100.771097 
2924.000000	100.769469 
2923.000000	100.768454 
2922.000000	100.768227 
2921.000000	100.768578 
2920.000000	100.768814 
2919.000000	100.767813 
2918.000000	100.764990 
2917.000000	100.761287 
2916.000000	100.758423 
2915.000000	100.757102 
2914.000000	100.756703 
2913.000000	100.756625 
2912.000000	100.756847 
2911.000000	100.757003 
2910.000000	100.756065 
2909.000000	100.753588 
2908.000000	100.750537 
2907.000000	100.748204 
2906.000000	100.746700 
2905.000000	100.744952 
2904.000000	100.741787 
2903.000000	100.736760 
2902.000000	100.730791 
2901.000000	100.726400 
2900.000000	100.726303 
2899.000000	100.731088 
2898.000000	100.738268 
2897.000000	100.744230 
2896.000000	100.747309 
2895.000000	100.748559 
2894.000000	100.749867 
2893.000000	100.752054 
2892.000000	100.754724 
2891.000000	100.757163 
2890.000000	100.758988 
2889.000000	100.760249 
2888.000000	100.761298 
2887.000000	100.762572 
2886.000000	100.764329 
2885.000000	100.766507 
2884.000000	100.768871 
2883.000000	100.771336 
2882.000000	100.774173 
2881.000000	100.777837 
2880.000000	100.782582 
2879.000000	100.788323 
2878.000000	100.794874 
2877.000000	100.802006 
2876.000000	100.809013 
2875.000000	100.814502 
2874.000000	100.817175 
2873.000000	100.817099 
2872.000000	100.816098 
2871.000000	100.816694 
2870.000000	100.820405 
2869.000000	100.826785 
2868.000000	100.833871 
2867.000000	100.839814 
2866.000000	100.844446 
2865.000000	100.849166 
2864.000000	100.855070 
2863.000000	100.861376 
2862.000000	100.866082 
2861.000000	100.868120 
2860.000000	100.868511 
2859.000000	100.869427 
2858.000000	100.872296 
2857.000000	100.876836 
2856.000000	100.881602 
2855.000000	100.885378 
2854.000000	100.888130 
2853.000000	100.890680 
2852.000000	100.893504 
2851.000000	100.896171 
2850.000000	100.898216 
2849.000000	100.900101 
2848.000000	100.902720 
2847.000000	100.906100 
2846.000000	100.909172 
2845.000000	100.910868 
2844.000000	100.911042 
2843.000000	100.910391 
2842.000000	100.909965 
2841.000000	100.910724 
2840.000000	100.912959 
2839.000000	100.915850 
2838.000000	100.917923 
2837.000000	100.918229 
2836.000000	100.917003 
2835.000000	100.915302 
2834.000000	100.914335 
2833.000000	100.915028 
2832.000000	100.917585 
2831.000000	100.921126 
2830.000000	100.924182 
2829.000000	100.926041 
2828.000000	100.927345 
2827.000000	100.929046 
2826.000000	100.931056 
2825.000000	100.932352 
2824.000000	100.932338 
2823.000000	100.931658 
2822.000000	100.931573 
2821.000000	100.932716 
2820.000000	100.934623 
2819.000000	100.936381 
2818.000000	100.937584 
2817.000000	100.938574 
2816.000000	100.939783 
2815.000000	100.941112 
2814.000000	100.942117 
2813.000000	100.942567 
2812.000000	100.942530 
2811.000000	100.942036 
2810.000000	100.941052 
2809.000000	100.939847 
2808.000000	100.939015 
2807.000000	100.938940 
2806.000000	100.939418 
2805.000000	100.939944 
2804.000000	100.940250 
2803.000000	100.940469 
2802.000000	100.940881 
2801.000000	100.941582 
2800.000000	100.942376 
2799.000000	100.942942 
2798.000000	100.943164 
2797.000000	100.943254 
2796.000000	100.943445 
2795.000000	100.943634 
2794.000000	100.943503 
2793.000000	100.942966 
2792.000000	100.942321 
2791.000000	100.941936 
2790.000000	100.941986 
2789.000000	100.942499 
2788.000000	100.943393 
2787.000000	100.944359 
2786.000000	100.944981 
2785.000000	100.945194 
2784.000000	100.945399 
2783.000000	100.945918 
2782.000000	100.946481 
2781.000000	100.946522 
2780.000000	100.945926 
2779.000000	100.945219 
2778.000000	100.945011 
2777.000000	100.945439 
2776.000000	100.946174 
2775.000000	100.946705 
2774.000000	100.946604 
2773.000000	100.945763 
2772.000000	100.944571 
2771.000000	100.943724 
2770.000000	100.943688 
2769.000000	100.944447 
2768.000000	100.945732 
2767.000000	100.947288 
2766.000000	100.948783 
2765.000000	100.949742 
2764.000000	100.949914 
2763.000000	100.949653 
2762.000000	100.949614 
2761.000000	100.950026 
2760.000000	100.950573 
2759.000000	100.951000 
2758.000000	100.951451 
2757.000000	100.952049 
2756.000000	100.952554 
2755.000000	100.952770 
2754.000000	100.952910 
2753.000000	100.953152 
2752.000000	100.953034 
2751.000000	100.951869 
2750.000000	100.949742 
2749.000000	100.947650 
2748.000000	100.946453 
2747.000000	100.946042 
2746.000000	100.945705 
2745.000000	100.945000 
2744.000000	100.944078 
2743.000000	100.943384 
2742.000000	100.943304 
2741.000000	100.943974 
2740.000000	100.945204 
2739.000000	100.946580 
2738.000000	100.947784 
2737.000000	100.948757 
2736.000000	100.949502 
2735.000000	100.949850 
2734.000000	100.949558 
2733.000000	100.948573 
2732.000000	100.947141 
2731.000000	100.945743 
2730.000000	100.944931 
2729.000000	100.945015 
2728.000000	100.945833 
2727.000000	100.946874 
2726.000000	100.947669 
2725.000000	100.948070 
2724.000000	100.948123 
2723.000000	100.947908 
2722.000000	100.947572 
2721.000000	100.947337 
2720.000000	100.947322 
2719.000000	100.947425 
2718.000000	100.947452 
2717.000000	100.947304 
2716.000000	100.947028 
2715.000000	100.946775 
2714.000000	100.946724 
2713.000000	100.946926 
2712.000000	100.947176 
2711.000000	100.947169 
2710.000000	100.946841 
2709.000000	100.946430 
2708.000000	100.946195 
2707.000000	100.946119 
2706.000000	100.945975 
2705.000000	100.945651 
2704.000000	100.945291 
2703.000000	100.945098 
2702.000000	100.945095 
2701.000000	100.945127 
2700.000000	100.945026 
2699.000000	100.944741 
2698.000000	100.944355 
2697.000000	100.944010 
2696.000000	100.943806 
2695.000000	100.943755 
2694.000000	100.943829 
2693.000000	100.943994 
2692.000000	100.944150 
2691.000000	100.944117 
2690.000000	100.943787 
2689.000000	100.943321 
2688.000000	100.943080 
2687.000000	100.943271 
2686.000000	100.943747 
2685.000000	100.944131 
2684.000000	100.944187 
2683.000000	100.944004 
2682.000000	100.943871 
2681.000000	100.943995 
2680.000000	100.944313 
2679.000000	100.944554 
2678.000000	100.944523 
2677.000000	100.944302 
2676.000000	100.944162 
2675.000000	100.944243 
2674.000000	100.944421 
2673.000000	100.944496 
2672.000000	100.944387 
2671.000000	100.944105 
2670.000000	100.943604 
2669.000000	100.942782 
2668.000000	100.941664 
2667.000000	100.940612 
2666.000000	100.940192 
2665.000000	100.940726 
2664.000000	100.941974 
2663.000000	100.943240 
2662.000000	100.944009 
2661.000000	100.944360 
2660.000000	100.944660 
2659.000000	100.945050 
2658.000000	100.945351 
2657.000000	100.945412 
2656.000000	100.945306 
2655.000000	100.945201 
2654.000000	100.945176 
2653.000000	100.945235 
2652.000000	100.945339 
2651.000000	100.945411 
2650.000000	100.945406 
2649.000000	100.945404 
2648.000000	100.945522 
2647.000000	100.945726 
2646.000000	100.945878 
2645.000000	100.945970 
2644.000000	100.946168 
2643.000000	100.946551 
2642.000000	100.947006 
2641.000000	100.947423 
2640.000000	100.947869 
2639.000000	100.948452 
2638.000000	100.949131 
2637.000000	100.949744 
2636.000000	100.950145 
2635.000000	100.950274 
2634.000000	100.950181 
2633.000000	100.950075 
2632.000000	100.950209 
2631.000000	100.950641 
2630.000000	100.951196 
2629.000000	100.951641 
2628.000000	100.951875 
2627.000000	100.951954 
2626.000000	100.952006 
2625.000000	100.952154 
2624.000000	100.952460 
2623.000000	100.952885 
2622.000000	100.953308 
2621.000000	100.953614 
2620.000000	100.953794 
2619.000000	100.953921 
2618.000000	100.954030 
2617.000000	100.954063 
2616.000000	100.953989 
2615.000000	100.953901 
2614.000000	100.953951 
2613.000000	100.954195 
2612.000000	100.954553 
2611.000000	100.954911 
2610.000000	100.955224 
2609.000000	100.955497 
2608.000000	100.955730 
2607.000000	100.955894 
2606.000000	100.955989 
2605.000000	100.956070 
2604.000000	100.956171 
2603.000000	100.956197 
2602.000000	100.955996 
2601.000000	100.955559 
2600.000000	100.955084 
2599.000000	100.954816 
2598.000000	100.954829 
2597.000000	100.954998 
2596.000000	100.955108 
2595.000000	100.954992 
2594.000000	100.954609 
2593.000000	100.954041 
2592.000000	100.953465 
2591.000000	100.953058 
2590.000000	100.952887 
2589.000000	100.952902 
2588.000000	100.952974 
2587.000000	100.952962 
2586.000000	100.952739 
2585.000000	100.952241 
2584.000000	100.951523 
2583.000000	100.950784 
2582.000000	100.950236 
2581.000000	100.949942 
2580.000000	100.949791 
2579.000000	100.949624 
2578.000000	100.949394 
2577.000000	100.949152 
2576.000000	100.948950 
2575.000000	100.948797 
2574.000000	100.948673 
2573.000000	100.948535 
2572.000000	100.948324 
2571.000000	100.948004 
2570.000000	100.947602 
2569.000000	100.947203 
2568.000000	100.946885 
2567.000000	100.946671 
2566.000000	100.946546 
2565.000000	100.946480 
2564.000000	100.946436 
2563.000000	100.946376 
2562.000000	100.946270 
2561.000000	100.946125 
2560.000000	100.945992 
2559.000000	100.945948 
2558.000000	100.946026 
2557.000000	100.946118 
2556.000000	100.946013 
2555.000000	100.945623 
2554.000000	100.945202 
2553.000000	100.945152 
2552.000000	100.945586 
2551.000000	100.946203 
2550.000000	100.946677 
2549.000000	100.947074 
2548.000000	100.947538 
2547.000000	100.947775 
2546.000000	100.947357 
2545.000000	100.946385 
2544.000000	100.945507 
2543.000000	100.945251 
2542.000000	100.945594 
2541.000000	100.946186 
2540.000000	100.946751 
2539.000000	100.947172 
2538.000000	100.947364 
2537.000000	100.947233 
2536.000000	100.946702 
2535.000000	100.945790 
2534.000000	100.944751 
2533.000000	100.944032 
2532.000000	100.943904 
2531.000000	100.944212 
2530.000000	100.944671 
2529.000000	100.945294 
2528.000000	100.946222 
2527.000000	100.947285 
2526.000000	100.948137 
2525.000000	100.948773 
2524.000000	100.949510 
2523.000000	100.950408 
2522.000000	100.951042 
2521.000000	100.950994 
2520.000000	100.950287 
2519.000000	100.949290 
2518.000000	100.948431 
2517.000000	100.948033 
2516.000000	100.948138 
2515.000000	100.948387 
2514.000000	100.948323 
2513.000000	100.947876 
2512.000000	100.947326 
2511.000000	100.946783 
2510.000000	100.946085 
2509.000000	100.945314 
2508.000000	100.944985 
2507.000000	100.945456 
2506.000000	100.946363 
2505.000000	100.946840 
2504.000000	100.946340 
2503.000000	100.945020 
2502.000000	100.943543 
2501.000000	100.942572 
2500.000000	100.942383 
2499.000000	100.942858 
2498.000000	100.943663 
2497.000000	100.944466 
2496.000000	100.945025 
2495.000000	100.945155 
2494.000000	100.944724 
2493.000000	100.943740 
2492.000000	100.942395 
2491.000000	100.940967 
2490.000000	100.939706 
2489.000000	100.938784 
2488.000000	100.938287 
2487.000000	100.938182 
2486.000000	100.938369 
2485.000000	100.938764 
2484.000000	100.939304 
2483.000000	100.939843 
2482.000000	100.940123 
2481.000000	100.939920 
2480.000000	100.939219 
2479.000000	100.938236 
2478.000000	100.937275 
2477.000000	100.936525 
2476.000000	100.935982 
2475.000000	100.935563 
2474.000000	100.935283 
2473.000000	100.935245 
2472.000000	100.935455 
2471.000000	100.935730 
2470.000000	100.935859 
2469.000000	100.935748 
2468.000000	100.935351 
2467.000000	100.934584 
2466.000000	100.933510 
2465.000000	100.932508 
2464.000000	100.932017 
2463.000000	100.932091 
2462.000000	100.932360 
2461.000000	100.932407 
2460.000000	100.932131 
2459.000000	100.931705 
2458.000000	100.931361 
2457.000000	100.931236 
2456.000000	100.931262 
2455.000000	100.931193 
2454.000000	100.930825 
2453.000000	100.930191 
2452.000000	100.929503 
2451.000000	100.928931 
2450.000000	100.928497 
2449.000000	100.928144 
2448.000000	100.927812 
2447.000000	100.927454 
2446.000000	100.927067 
2445.000000	100.926720 
2444.000000	100.926481 
2443.000000	100.926312 
2442.000000	100.926060 
2441.000000	100.925610 
2440.000000	100.924991 
2439.000000	100.924304 
2438.000000	100.923623 
2437.000000	100.922992 
2436.000000	100.922438 
2435.000000	100.921927 
2434.000000	100.921345 
2433.000000	100.920598 
2432.000000	100.919716 
2431.000000	100.918863 
2430.000000	100.918200 
2429.000000	100.917770 
2428.000000	100.917500 
2427.000000	100.917278 
2426.000000	100.917018 
2425.000000	100.916652 
2424.000000	100.916113 
2423.000000	100.915383 
2422.000000	100.914548 
2421.000000	100.913794 
2420.000000	100.913249 
2419.000000	100.912889 
2418.000000	100.912595 
2417.000000	100.912267 
2416.000000	100.911885 
2415.000000	100.911433 
2414.000000	100.910882 
2413.000000	100.910258 
2412.000000	100.909652 
2411.000000	100.909120 
2410.000000	100.908641 
2409.000000	100.908181 
2408.000000	100.907759 
2407.000000	100.907403 
2406.000000	100.907089 
2405.000000	100.906761 
2404.000000	100.906398 
2403.000000	100.906012 
2402.000000	100.905623 
2401.000000	100.905245 
2400.000000	100.904881 
2399.000000	100.904533 
2398.000000	100.904203 
2397.000000	100.903893 
2396.000000	100.903606 
2395.000000	100.903339 
2394.000000	100.903087 
2393.000000	100.902847 
2392.000000	100.902619 
2391.000000	100.902404 
2390.000000	100.902202 
2389.000000	100.902004 
2388.000000	100.901799 
2387.000000	100.901576 
2386.000000	100.901330 
2385.000000	100.901068 
2384.000000	100.900800 
2383.000000	100.900541 
2382.000000	100.900306 
2381.000000	100.900101 
2380.000000	100.899922 
2379.000000	100.899758 
2378.000000	100.899595 
2377.000000	100.899426 
2376.000000	100.899252 
2375.000000	100.899079 
2374.000000	100.898909 
2373.000000	100.898744 
2372.000000	100.898588 
2371.000000	100.898442 
2370.000000	100.898308 
2369.000000	100.898177 
2368.000000	100.898041 
2367.000000	100.897890 
2366.000000	100.897726 
2365.000000	100.897558 
2364.000000	100.897401 
2363.000000	100.897267 
2362.000000	100.897158 
2361.000000	100.897070 
2360.000000	100.896995 
2359.000000	100.896931 
2358.000000	100.896881 
2357.000000	100.896845 
2356.000000	100.896824 
2355.000000	100.896813 
2354.000000	100.896814 
2353.000000	100.896830 
2352.000000	100.896870 
2351.000000	100.896946 
2350.000000	100.897062 
2349.000000	100.897222 
2348.000000	100.897419 
2347.000000	100.897646 
2346.000000	100.897900 
2345.000000	100.898184 
2344.000000	100.898488 
2343.000000	100.898806 
2342.000000	100.899127 
2341.000000	100.899511 
2340.000000	100.900023 
2339.000000	100.900550 
2338.000000	100.900905 
2337.000000	100.901181 
2336.000000	100.901541 
2335.000000	100.901856 
2334.000000	100.901770 
2333.000000	100.901526 
2332.000000	100.901670 
2331.000000	100.902344 
2330.000000	100.902719 
2329.000000	100.902635 
2328.000000	100.902417 
2327.000000	100.902953 
2326.000000	100.904138 
2325.000000	100.905371 
2324.000000	100.906048 
2323.000000	100.906129 
2322.000000	100.906611 
2321.000000	100.908312 
2320.000000	100.911032 
2319.000000	100.913402 
2318.000000	100.914248 
2317.000000	100.913761 
2316.000000	100.912636 
2315.000000	100.911798 
2314.000000	100.911568 
2313.000000	100.912597 
2312.000000	100.914715 
2311.000000	100.917674 
2310.000000	100.920908 
2309.000000	100.924514 
2308.000000	100.927615 
2307.000000	100.928774 
2306.000000	100.927097 
2305.000000	100.923975 
2304.000000	100.921431 
2303.000000	100.920254 
2302.000000	100.919666 
2301.000000	100.919243 
2300.000000	100.919117 
2299.000000	100.919373 
2298.000000	100.919477 
2297.000000	100.919383 
2296.000000	100.919664 
2295.000000	100.920803 
2294.000000	100.922320 
2293.000000	100.923427 
2292.000000	100.923856 
2291.000000	100.923930 
2290.000000	100.923947 
2289.000000	100.923977 
2288.000000	100.924090 
2287.000000	100.924427 
2286.000000	100.925063 
2285.000000	100.925896 
2284.000000	100.926768 
2283.000000	100.927560 
2282.000000	100.928191 
2281.000000	100.928558 
2280.000000	100.928677 
2279.000000	100.928872 
2278.000000	100.929664 
2277.000000	100.931253 
2276.000000	100.933217 
2275.000000	100.934832 
2274.000000	100.935757 
2273.000000	100.936210 
2272.000000	100.936482 
2271.000000	100.936492 
2270.000000	100.936102 
2269.000000	100.935757 
2268.000000	100.936271 
2267.000000	100.937965 
2266.000000	100.940382 
2265.000000	100.942719 
2264.000000	100.944380 
2263.000000	100.945106 
2262.000000	100.945159 
2261.000000	100.945484 
2260.000000	100.947001 
2259.000000	100.949453 
2258.000000	100.951436 
2257.000000	100.952036 
2256.000000	100.951831 
2255.000000	100.951890 
2254.000000	100.952262 
2253.000000	100.952256 
2252.000000	100.951846 
2251.000000	100.951997 
2250.000000	100.953564 
2249.000000	100.956416 
2248.000000	100.959503 
2247.000000	100.961641 
2246.000000	100.962312 
2245.000000	100.961892 
2244.000000	100.961121 
2243.000000	100.960324 
2242.000000	100.959523 
2241.000000	100.959182 
2240.000000	100.960018 
2239.000000	100.961816 
2238.000000	100.963222 
2237.000000	100.963163 
2236.000000	100.961860 
2235.000000	100.960038 
2234.000000	100.958097 
2233.000000	100.956719 
2232.000000	100.957214 
2231.000000	100.960207 
2230.000000	100.964754 
2229.000000	100.969481 
2228.000000	100.973985 
2227.000000	100.978315 
2226.000000	100.981845 
2225.000000	100.983624 
2224.000000	100.983479 
2223.000000	100.982221 
2222.000000	100.981167 
2221.000000	100.981751 
2220.000000	100.984649 
2219.000000	100.988823 
2218.000000	100.992137 
2217.000000	100.993661 
2216.000000	100.994739 
2215.000000	100.997090 
2214.000000	101.000546 
2213.000000	101.003424 
2212.000000	101.004679 
2211.000000	101.004874 
2210.000000	101.005362 
2209.000000	101.007039 
2208.000000	101.009779 
2207.000000	101.012631 
2206.000000	101.014580 
2205.000000	101.015307 
2204.000000	101.015155 
2203.000000	101.014531 
2202.000000	101.013842 
2201.000000	101.013914 
2200.000000	101.015471 
2199.000000	101.017783 
2198.000000	101.018872 
2197.000000	101.018083 
2196.000000	101.017538 
2195.000000	101.019950 
2194.000000	101.025941 
2193.000000	101.034057 
2192.000000	101.042073 
2191.000000	101.047619 
2190.000000	101.048989 
2189.000000	101.046851 
2188.000000	101.044475 
2187.000000	101.044825 
2186.000000	101.048290 
2185.000000	101.054040 
2184.000000	101.061590 
2183.000000	101.069368 
2182.000000	101.073835 
2181.000000	101.073015 
2180.000000	101.069908 
2179.000000	101.069622 
2178.000000	101.073349 
2177.000000	101.077494 
2176.000000	101.078202 
2175.000000	101.074653 
2174.000000	101.068485 
2173.000000	101.062398 
2172.000000	101.059227 
2171.000000	101.060398 
2170.000000	101.065023 
2169.000000	101.071429 
2168.000000	101.078975 
2167.000000	101.087071 
2166.000000	101.093579 
2165.000000	101.096797 
2164.000000	101.098640 
2163.000000	101.103099 
2162.000000	101.111140 
2161.000000	101.119041 
2160.000000	101.121750 
2159.000000	101.116219 
2158.000000	101.102720 
2157.000000	101.085853 
2156.000000	101.072883 
2155.000000	101.067712 
2154.000000	101.067132 
2153.000000	101.064502 
2152.000000	101.056985 
2151.000000	101.047832 
2150.000000	101.042048 
2149.000000	101.041746 
2148.000000	101.045487 
2147.000000	101.049751 
2146.000000	101.050511 
2145.000000	101.045407 
2144.000000	101.035781 
2143.000000	101.025839 
2142.000000	101.018886 
2141.000000	101.014999 
2140.000000	101.012577 
2139.000000	101.010730 
2138.000000	101.009024 
2137.000000	101.005910 
2136.000000	100.999430 
2135.000000	100.990039 
2134.000000	100.981458 
2133.000000	100.977466 
2132.000000	100.977938 
2131.000000	100.978805 
2130.000000	100.976043 
2129.000000	100.969323 
2128.000000	100.961679 
2127.000000	100.956097 
2126.000000	100.953131 
2125.000000	100.951795 
2124.000000	100.951832 
2123.000000	100.954137 
2122.000000	100.958803 
2121.000000	100.963591 
2120.000000	100.965299 
2119.000000	100.962770 
2118.000000	100.957874 
2117.000000	100.953508 
2116.000000	100.951068 
2115.000000	100.950194 
2114.000000	100.950366 
2113.000000	100.951534 
2112.000000	100.953020 
2111.000000	100.953274 
2110.000000	100.951673 
2109.000000	100.949715 
2108.000000	100.949271 
2107.000000	100.950047 
2106.000000	100.949867 
2105.000000	100.947233 
2104.000000	100.942665 
2103.000000	100.937887 
2102.000000	100.934728 
2101.000000	100.934520 
2100.000000	100.937264 
2099.000000	100.941138 
2098.000000	100.943816 
2097.000000	100.944759 
2096.000000	100.945214 
2095.000000	100.945663 
2094.000000	100.944516 
2093.000000	100.940296 
2092.000000	100.934497 
2091.000000	100.931146 
2090.000000	100.933113 
2089.000000	100.939431 
2088.000000	100.946083 
2087.000000	100.949732 
2086.000000	100.950575 
2085.000000	100.951139 
2084.000000	100.952923 
2083.000000	100.955220 
2082.000000	100.957180 
2081.000000	100.959611 
2080.000000	100.963714 
2079.000000	100.969048 
2078.000000	100.974081 
2077.000000	100.978512 
2076.000000	100.983599 
2075.000000	100.989920 
2074.000000	100.996040 
2073.000000	100.999864 
2072.000000	101.000697 
2071.000000	100.999570 
2070.000000	100.998296 
2069.000000	100.998462 
2068.000000	101.000663 
2067.000000	101.004290 
2066.000000	101.008116 
2065.000000	101.011278 
2064.000000	101.013734 
2063.000000	101.016083 
2062.000000	101.019218 
2061.000000	101.023729 
2060.000000	101.029084 
2059.000000	101.033826 
2058.000000	101.037079 
2057.000000	101.039289 
2056.000000	101.041223 
2055.000000	101.042930 
2054.000000	101.044454 
2053.000000	101.046779 
2052.000000	101.050931 
2051.000000	101.056472 
2050.000000	101.061601 
2049.000000	101.064909 
2048.000000	101.066459 
2047.000000	101.067095 
2046.000000	101.067549 
2045.000000	101.068414 
2044.000000	101.070244 
2043.000000	101.073112 
2042.000000	101.076455 
2041.000000	101.079711 
2040.000000	101.082840 
2039.000000	101.085967 
2038.000000	101.088849 
2037.000000	101.090997 
2036.000000	101.092100 
2035.000000	101.092105 
2034.000000	101.091255 
2033.000000	101.090191 
2032.000000	101.089677 
2031.000000	101.090063 
2030.000000	101.091184 
2029.000000	101.092631 
2028.000000	101.094002 
2027.000000	101.095044 
2026.000000	101.095842 
2025.000000	101.096786 
2024.000000	101.098129 
2023.000000	101.099578 
2022.000000	101.100472 
2021.000000	101.100501 
2020.000000	101.099930 
2019.000000	101.099409 
2018.000000	101.099453 
2017.000000	101.100113 
2016.000000	101.101043 
2015.000000	101.101700 
2014.000000	101.101839 
2013.000000	101.101678 
2012.000000	101.101635 
2011.000000	101.101863 
2010.000000	101.102168 
2009.000000	101.102384 
2008.000000	101.102653 
2007.000000	101.103077 
2006.000000	101.103398 
2005.000000	101.103341 
2004.000000	101.103041 
2003.000000	101.102817 
2002.000000	101.102685 
2001.000000	101.102444 
2000.000000	101.101867 
1999.000000	101.100683 
1998.000000	101.098836 
1997.000000	101.097036 
1996.000000	101.096542 
1995.000000	101.098031 
1994.000000	101.100928 
1993.000000	101.103752 
1992.000000	101.105161 
1991.000000	101.104703 
1990.000000	101.103008 
1989.000000	101.101591 
1988.000000	101.101853 
1987.000000	101.103707 
1986.000000	101.105437 
1985.000000	101.105610 
1984.000000	101.104877 
1983.000000	101.105315 
1982.000000	101.107802 
1981.000000	101.110607 
1980.000000	101.110658 
1979.000000	101.106442 
1978.000000	101.099864 
1977.000000	101.094838 
1976.000000	101.093201 
1975.000000	101.093341 
1974.000000	101.093383 
1973.000000	101.094240 
1972.000000	101.097956 
1971.000000	101.103744 
1970.000000	101.107558 
1969.000000	101.105882 
1968.000000	101.098901 
1967.000000	101.090038 
1966.000000	101.082849 
1965.000000	101.078429 
1964.000000	101.075550 
1963.000000	101.072531 
1962.000000	101.068678 
1961.000000	101.064076 
1960.000000	101.058809 
1959.000000	101.053477 
1958.000000	101.049938 
1957.000000	101.049683 
1956.000000	101.051182 
1955.000000	101.050574 
1954.000000	101.045973 
1953.000000	101.039202 
1952.000000	101.032786 
1951.000000	101.026547 
1950.000000	101.019194 
1949.000000	101.012052 
1948.000000	101.007971 
1947.000000	101.007096 
1946.000000	101.006283 
1945.000000	101.002672 
1944.000000	100.996506 
1943.000000	100.990534 
1942.000000	100.987798 
1941.000000	100.989312 
1940.000000	100.992771 
1939.000000	100.994393 
1938.000000	100.993032 
1937.000000	100.991192 
1936.000000	100.991198 
1935.000000	100.991778 
1934.000000	100.990391 
1933.000000	100.987376 
1932.000000	100.985718 
1931.000000	100.986407 
1930.000000	100.986953 
1929.000000	100.985259 
1928.000000	100.981647 
1927.000000	100.977719 
1926.000000	100.974301 
1925.000000	100.971803 
1924.000000	100.970756 
1923.000000	100.970748 
1922.000000	100.970523 
1921.000000	100.969492 
1920.000000	100.967796 
1919.000000	100.965276 
1918.000000	100.961321 
1917.000000	100.956619 
1916.000000	100.953039 
1915.000000	100.951173 
1914.000000	100.950350 
1913.000000	100.950186 
1912.000000	100.950867 
1911.000000	100.951883 
1910.000000	100.952068 
1909.000000	100.951410 
1908.000000	100.951058 
1907.000000	100.951829 
1906.000000	100.953062 
1905.000000	100.953622 
1904.000000	100.953119 
1903.000000	100.951670 
1902.000000	100.949740 
1901.000000	100.948163 
1900.000000	100.947423 
1899.000000	100.947321 
1898.000000	100.947341 
1897.000000	100.947365 
1896.000000	100.947584 
1895.000000	100.947628 
1894.000000	100.946753 
1893.000000	100.945002 
1892.000000	100.943406 
1891.000000	100.942860 
1890.000000	100.943183 
1889.000000	100.943410 
1888.000000	100.942840 
1887.000000	100.941424 
1886.000000	100.939723 
1885.000000	100.938754 
1884.000000	100.939189 
1883.000000	100.940507 
1882.000000	100.941511 
1881.000000	100.941816 
1880.000000	100.941995 
1879.000000	100.942733 
1878.000000	100.944272 
1877.000000	100.946338 
1876.000000	100.948269 
1875.000000	100.949070 
1874.000000	100.948003 
1873.000000	100.945480 
1872.000000	100.942809 
1871.000000	100.940943 
1870.000000	100.939966 
1869.000000	100.939579 
1868.000000	100.939596 
1867.000000	100.939690 
1866.000000	100.939346 
1865.000000	100.938517 
1864.000000	100.937459 
1863.000000	100.936001 
1862.000000	100.934036 
1861.000000	100.932612 
1860.000000	100.933109 
1859.000000	100.935432 
1858.000000	100.937989 
1857.000000	100.939514 
1856.000000	100.939989 
1855.000000	100.939836 
1854.000000	100.939256 
1853.000000	100.938835 
1852.000000	100.938709 
1851.000000	100.938365 
1850.000000	100.937790 
1849.000000	100.937887 
1848.000000	100.939226 
1847.000000	100.940830 
1846.000000	100.941472 
1845.000000	100.941383 
1844.000000	100.941597 
1843.000000	100.942381 
1842.000000	100.942986 
1841.000000	100.942818 
1840.000000	100.942009 
1839.000000	100.941009 
1838.000000	100.939923 
1837.000000	100.938984 
1836.000000	100.938545 
1835.000000	100.938372 
1834.000000	100.938069 
1833.000000	100.937847 
1832.000000	100.937994 
1831.000000	100.938548 
1830.000000	100.939053 
1829.000000	100.939166 
1828.000000	100.939205 
1827.000000	100.939257 
1826.000000	100.939219 
1825.000000	100.939209 
1824.000000	100.939524 
1823.000000	100.939949 
1822.000000	100.939611 
1821.000000	100.938182 
1820.000000	100.936556 
1819.000000	100.935980 
1818.000000	100.936510 
1817.000000	100.937408 
1816.000000	100.938407 
1815.000000	100.939501 
1814.000000	100.940496 
1813.000000	100.941092 
1812.000000	100.941598 
1811.000000	100.942529 
1810.000000	100.943501 
1809.000000	100.944041 
1808.000000	100.944269 
1807.000000	100.944038 
1806.000000	100.942892 
1805.000000	100.941194 
1804.000000	100.940277 
1803.000000	100.940510 
1802.000000	100.941007 
1801.000000	100.940727 
1800.000000	100.940096 
1799.000000	100.940156 
1798.000000	100.940902 
1797.000000	100.941909 
1796.000000	100.943121 
1795.000000	100.944322 
1794.000000	100.945232 
1793.000000	100.945732 
1792.000000	100.946093 
1791.000000	100.946554 
1790.000000	100.946732 
1789.000000	100.946442 
1788.000000	100.946320 
1787.000000	100.946874 
1786.000000	100.947713 
1785.000000	100.948247 
1784.000000	100.948595 
1783.000000	100.948636 
1782.000000	100.948392 
1781.000000	100.948023 
1780.000000	100.947786 
1779.000000	100.947820 
1778.000000	100.947857 
1777.000000	100.947973 
1776.000000	100.948360 
1775.000000	100.948979 
1774.000000	100.949908 
1773.000000	100.951145 
1772.000000	100.952211 
1771.000000	100.953148 
1770.000000	100.953861 
1769.000000	100.953803 
1768.000000	100.953189 
1767.000000	100.952754 
1766.000000	100.952799 
1765.000000	100.952825 
1764.000000	100.952649 
1763.000000	100.952846 
1762.000000	100.953847 
1761.000000	100.955062 
1760.000000	100.955937 
1759.000000	100.956455 
1758.000000	100.957000 
1757.000000	100.957912 
1756.000000	100.958955 
1755.000000	100.959830 
1754.000000	100.960393 
1753.000000	100.960672 
1752.000000	100.960813 
1751.000000	100.961045 
1750.000000	100.961438 
1749.000000	100.961920 
1748.000000	100.962412 
1747.000000	100.962895 
1746.000000	100.963424 
1745.000000	100.963916 
1744.000000	100.964315 
1743.000000	100.964716 
1742.000000	100.965186 
1741.000000	100.965677 
1740.000000	100.966158 
1739.000000	100.966642 
1738.000000	100.967134 
1737.000000	100.967588 
1736.000000	100.967995 
1735.000000	100.968388 
1734.000000	100.968758 
1733.000000	100.969112 
1732.000000	100.969453 
1731.000000	100.969775 
1730.000000	100.970084 
1729.000000	100.970384 
1728.000000	100.970683 
1727.000000	100.970986 
1726.000000	100.971298 
1725.000000	100.971619 
1724.000000	100.971943 
1723.000000	100.972264 
1722.000000	100.972575 
1721.000000	100.972869 
1720.000000	100.973144 
1719.000000	100.973400 
1718.000000	100.973633 
1717.000000	100.973831 
1716.000000	100.973997 
1715.000000	100.974140 
1714.000000	100.974265 
1713.000000	100.974381 
1712.000000	100.974498 
1711.000000	100.974622 
1710.000000	100.974753 
1709.000000	100.974891 
1708.000000	100.975034 
1707.000000	100.975177 
1706.000000	100.975313 
1705.000000	100.975437 
1704.000000	100.975550 
1703.000000	100.975655 
1702.000000	100.975756 
1701.000000	100.975856 
1700.000000	100.975955 
1699.000000	100.976057 
1698.000000	100.976158 
1697.000000	100.976249 
1696.000000	100.976330 
1695.000000	100.976406 
1694.000000	100.976480 
1693.000000	100.976560 
1692.000000	100.976653 
1691.000000	100.976766 
1690.000000	100.976898 
1689.000000	100.977048 
1688.000000	100.977214 
1687.000000	100.977394 
1686.000000	100.977588 
1685.000000	100.977796 
1684.000000	100.978003 
1683.000000	100.978196 
1682.000000	100.978373 
1681.000000	100.978536 
1680.000000	100.978690 
1679.000000	100.978844 
1678.000000	100.979006 
1677.000000	100.979182 
1676.000000	100.979376 
1675.000000	100.979596 
1674.000000	100.979846 
1673.000000	100.980119 
1672.000000	100.980399 
1671.000000	100.980675 
1670.000000	100.980944 
1669.000000	100.981207 
1668.000000	100.981464 
1667.000000	100.981717 
1666.000000	100.981967 
1665.000000	100.982215 
1664.000000	100.982467 
1663.000000	100.982730 
1662.000000	100.983009 
1661.000000	100.983304 
1660.000000	100.983610 
1659.000000	100.983922 
1658.000000	100.984240 
1657.000000	100.984561 
1656.000000	100.984884 
1655.000000	100.985217 
1654.000000	100.985573 
1653.000000	100.985946 
1652.000000	100.986332 
1651.000000	100.986732 
1650.000000	100.987132 
1649.000000	100.987521 
1648.000000	100.987897 
1647.000000	100.988259 
1646.000000	100.988605 
1645.000000	100.988939 
1644.000000	100.989263 
1643.000000	100.989579 
1642.000000	100.989888 
1641.000000	100.990198 
1640.000000	100.990519 
1639.000000	100.990857 
1638.000000	100.991215 
1637.000000	100.991628 
1636.000000	100.992096 
1635.000000	100.992540 
1634.000000	100.992965 
1633.000000	100.993365 
1632.000000	100.993675 
1631.000000	100.993858 
1630.000000	100.993992 
1629.000000	100.994246 
1628.000000	100.994727 
1627.000000	100.995303 
1626.000000	100.995796 
1625.000000	100.996199 
1624.000000	100.996608 
1623.000000	100.996973 
1622.000000	100.997377 
1621.000000	100.998101 
1620.000000	100.998938 
1619.000000	100.999507 
1618.000000	100.999957 
1617.000000	101.000727 
1616.000000	101.001731 
1615.000000	101.002785 
1614.000000	101.003797 
1613.000000	101.004742 
1612.000000	101.005717 
1611.000000	101.006363 
1610.000000	101.006495 
1609.000000	101.006499 
1608.000000	101.006662 
1607.000000	101.006704 
1606.000000	101.006852 
1605.000000	101.007495 
1604.000000	101.008163 
1603.000000	101.008557 
1602.000000	101.009300 
1601.000000	101.010893 
1600.000000	101.012745 
1599.000000	101.014068 
1598.000000	101.014994 
1597.000000	101.015929 
1596.000000	101.016862 
1595.000000	101.017584 
1594.000000	101.018197 
1593.000000	101.018985 
1592.000000	101.019959 
1591.000000	101.020913 
1590.000000	101.021767 
1589.000000	101.022590 
1588.000000	101.023408 
1587.000000	101.024193 
1586.000000	101.024931 
1585.000000	101.025645 
1584.000000	101.026321 
1583.000000	101.026986 
1582.000000	101.027661 
1581.000000	101.028325 
1580.000000	101.028975 
1579.000000	101.029613 
1578.000000	101.030242 
1577.000000	101.030871 
1576.000000	101.031498 
1575.000000	101.032120 
1574.000000	101.032733 
1573.000000	101.033336 
1572.000000	101.033927 
1571.000000	101.034504 
1570.000000	101.035065 
1569.000000	101.035609 
1568.000000	101.036132 
1567.000000	101.036633 
1566.000000	101.037117 
1565.000000	101.037591 
1564.000000	101.038061 
1563.000000	101.038527 
1562.000000	101.038988 
1561.000000	101.039448 
1560.000000	101.039900 
1559.000000	101.040326 
1558.000000	101.040718 
1557.000000	101.041093 
1556.000000	101.041452 
1555.000000	101.041786 
1554.000000	101.042093 
1553.000000	101.042377 
1552.000000	101.042642 
1551.000000	101.042889 
1550.000000	101.043128 
1549.000000	101.043369 
1548.000000	101.043615 
1547.000000	101.043861 
1546.000000	101.044102 
1545.000000	101.044350 
1544.000000	101.044616 
1543.000000	101.044913 
1542.000000	101.045238 
1541.000000	101.045575 
1540.000000	101.045905 
1539.000000	101.046214 
1538.000000	101.046502 
1537.000000	101.046768 
1536.000000	101.047006 
1535.000000	101.047212 
1534.000000	101.047387 
1533.000000	101.047537 
1532.000000	101.047673 
1531.000000	101.047799 
1530.000000	101.047913 
1529.000000	101.048012 
1528.000000	101.048094 
1527.000000	101.048167 
1526.000000	101.048249 
1525.000000	101.048364 
1524.000000	101.048521 
1523.000000	101.048750 
1522.000000	101.049065 
1521.000000	101.049303 
1520.000000	101.049425 
1519.000000	101.049393 
1518.000000	101.048920 
1517.000000	101.047968 
1516.000000	101.047048 
1515.000000	101.046660 
1514.000000	101.046663 
1513.000000	101.046510 
1512.000000	101.046229 
1511.000000	101.046171 
1510.000000	101.046104 
1509.000000	101.045627 
1508.000000	101.045772 
1507.000000	101.047434 
1506.000000	101.048172 
1505.000000	101.047824 
1504.000000	101.047960 
1503.000000	101.048719 
1502.000000	101.049855 
1501.000000	101.050810 
1500.000000	101.050944 
1499.000000	101.050432 
1498.000000	101.049627 
1497.000000	101.047488 
1496.000000	101.044284 
1495.000000	101.042104 
1494.000000	101.041538 
1493.000000	101.041383 
1492.000000	101.041010 
1491.000000	101.040707 
1490.000000	101.040332 
1489.000000	101.039425 
1488.000000	101.038721 
1487.000000	101.038578 
1486.000000	101.037908 
1485.000000	101.036869 
1484.000000	101.036019 
1483.000000	101.035607 
1482.000000	101.035772 
1481.000000	101.036487 
1480.000000	101.037604 
1479.000000	101.038473 
1478.000000	101.038414 
1477.000000	101.037420 
1476.000000	101.036660 
1475.000000	101.036769 
1474.000000	101.037372 
1473.000000	101.037590 
1472.000000	101.037026 
1471.000000	101.036612 
1470.000000	101.036669 
1469.000000	101.036559 
1468.000000	101.036294 
1467.000000	101.036107 
1466.000000	101.035813 
1465.000000	101.035172 
1464.000000	101.034304 
1463.000000	101.034317 
1462.000000	101.035076 
1461.000000	101.035467 
1460.000000	101.034883 
1459.000000	101.034114 
1458.000000	101.033825 
1457.000000	101.031715 
1456.000000	101.027551 
1455.000000	101.025017 
1454.000000	101.024619 
1453.000000	101.024421 
1452.000000	101.023787 
1451.000000	101.023195 
1450.000000	101.022585 
1449.000000	101.020646 
1448.000000	101.017816 
1447.000000	101.015972 
1446.000000	101.016731 
1445.000000	101.019024 
1444.000000	101.020351 
1443.000000	101.020944 
1442.000000	101.021965 
1441.000000	101.023052 
1440.000000	101.022726 
1439.000000	101.021717 
1438.000000	101.021734 
1437.000000	101.021688 
1436.000000	101.019592 
1435.000000	101.018088 
1434.000000	101.018344 
1433.000000	101.017572 
1432.000000	101.014713 
1431.000000	101.011785 
1430.000000	101.010654 
1429.000000	101.010019 
1428.000000	101.008810 
1427.000000	101.007015 
1426.000000	101.005305 
1425.000000	101.003636 
1424.000000	101.001071 
1423.000000	100.998827 
1422.000000	100.997634 
1421.000000	100.995551 
1420.000000	100.990503 
1419.000000	100.984600 
1418.000000	100.981951 
1417.000000	100.981550 
1416.000000	100.979404 
1415.000000	100.975017 
1414.000000	100.970695 
1413.000000	100.967303 
1412.000000	100.964055 
1411.000000	100.961424 
1410.000000	100.960378 
1409.000000	100.959642 
1408.000000	100.957931 
1407.000000	100.955690 
1406.000000	100.954439 
1405.000000	100.954664 
1404.000000	100.955628 
1403.000000	100.958003 
1402.000000	100.962333 
1401.000000	100.967268 
1400.000000	100.970794 
1399.000000	100.972325 
1398.000000	100.972399 
1397.000000	100.970268 
1396.000000	100.964728 
1395.000000	100.957496 
1394.000000	100.953929 
1393.000000	100.957015 
1392.000000	100.964479 
1391.000000	100.972439 
1390.000000	100.978649 
1389.000000	100.982324 
1388.000000	100.983311 
1387.000000	100.982224 
1386.000000	100.980635 
1385.000000	100.979769 
1384.000000	100.979529 
1383.000000	100.979828 
1382.000000	100.980813 
1381.000000	100.982370 
1380.000000	100.984382 
1379.000000	100.987088 
1378.000000	100.990854 
1377.000000	100.995254 
1376.000000	100.999058 
1375.000000	101.001373 
1374.000000	101.003058 
1373.000000	101.005804 
1372.000000	101.010156 
1371.000000	101.014980 
1370.000000	101.019219 
1369.000000	101.022730 
1368.000000	101.025510 
1367.000000	101.027808 
1366.000000	101.030152 
1365.000000	101.032941 
1364.000000	101.036248 
1363.000000	101.039802 
1362.000000	101.043078 
1361.000000	101.045731 
1360.000000	101.047883 
1359.000000	101.050134 
1358.000000	101.053472 
1357.000000	101.058291 
1356.000000	101.063488 
1355.000000	101.067412 
1354.000000	101.069756 
1353.000000	101.071456 
1352.000000	101.073622 
1351.000000	101.075706 
1350.000000	101.076960 
1349.000000	101.078238 
1348.000000	101.080229 
1347.000000	101.082336 
1346.000000	101.083520 
1345.000000	101.083753 
1344.000000	101.083711 
1343.000000	101.083686 
1342.000000	101.083618 
1341.000000	101.083996 
1340.000000	101.085613 
1339.000000	101.088409 
1338.000000	101.091423 
1337.000000	101.093832 
1336.000000	101.095549 
1335.000000	101.096714 
1334.000000	101.097112 
1333.000000	101.096591 
1332.000000	101.095934 
1331.000000	101.096403 
1330.000000	101.098387 
1329.000000	101.100842 
1328.000000	101.102571 
1327.000000	101.103347 
1326.000000	101.103846 
1325.000000	101.104503 
1324.000000	101.104884 
1323.000000	101.104710 
1322.000000	101.104382 
1321.000000	101.104379 
1320.000000	101.104807 
1319.000000	101.105724 
1318.000000	101.106989 
1317.000000	101.107762 
1316.000000	101.107119 
1315.000000	101.105395 
1314.000000	101.104110 
1313.000000	101.104069 
1312.000000	101.104452 
1311.000000	101.104184 
1310.000000	101.103446 
1309.000000	101.103127 
1308.000000	101.103584 
1307.000000	101.104247 
1306.000000	101.104439 
1305.000000	101.104014 
1304.000000	101.103301 
1303.000000	101.102943 
1302.000000	101.103370 
1301.000000	101.104282 
1300.000000	101.104922 
1299.000000	101.105142 
1298.000000	101.105630 
1297.000000	101.106882 
1296.000000	101.108344 
1295.000000	101.108908 
1294.000000	101.108035 
1293.000000	101.106057 
1292.000000	101.103829 
1291.000000	101.102372 
1290.000000	101.102426 
1289.000000	101.103973 
1288.000000	101.106239 
1287.000000	101.108195 
1286.000000	101.109054 
1285.000000	101.108434 
1284.000000	101.106462 
1283.000000	101.103881 
1282.000000	101.101476 
1281.000000	101.099492 
1280.000000	101.097929 
1279.000000	101.097012 
1278.000000	101.096832 
1277.000000	101.096858 
1276.000000	101.096463 
1275.000000	101.095667 
1274.000000	101.094812 
1273.000000	101.093732 
1272.000000	101.092044 
1271.000000	101.090171 
1270.000000	101.089146 
1269.000000	101.089214 
1268.000000	101.089318 
1267.000000	101.088270 
1266.000000	101.085874 
1265.000000	101.082760 
1264.000000	101.079730 
1263.000000	101.077384 
1262.000000	101.075779 
1261.000000	101.074385 
1260.000000	101.072707 
1259.000000	101.070969 
1258.000000	101.069728 
1257.000000	101.069013 
1256.000000	101.068564 
1255.000000	101.068660 
1254.000000	101.069751 
1253.000000	101.071270 
1252.000000	101.071861 
1251.000000	101.071116 
1250.000000	101.070247 
1249.000000	101.070621 
1248.000000	101.072349 
1247.000000	101.074633 
1246.000000	101.076542 
1245.000000	101.076901 
1244.000000	101.074519 
1243.000000	101.069686 
1242.000000	101.065002 
1241.000000	101.063404 
1240.000000	101.065441 
1239.000000	101.069102 
1238.000000	101.072059 
1237.000000	101.073552 
1236.000000	101.074087 
1235.000000	101.074211 
1234.000000	101.073951 
1233.000000	101.072929 
1232.000000	101.070594 
1231.000000	101.066639 
1230.000000	101.061574 
1229.000000	101.056915 
1228.000000	101.054522 
1227.000000	101.055193 
1226.000000	101.057543 
1225.000000	101.058758 
1224.000000	101.057227 
1223.000000	101.054220 
1222.000000	101.052343 
1221.000000	101.052541 
1220.000000	101.053591 
1219.000000	101.054298 
1218.000000	101.054711 
1217.000000	101.054866 
1216.000000	101.053858 
1215.000000	101.051025 
1214.000000	101.046951 
1213.000000	101.042306 
1212.000000	101.036768 
1211.000000	101.030263 
1210.000000	101.024335 
1209.000000	101.020824 
1208.000000	101.019467 
1207.000000	101.017993 
1206.000000	101.014500 
1205.000000	101.008914 
1204.000000	101.002256 
1203.000000	100.995510 
1202.000000	100.989389 
1201.000000	100.984352 
1200.000000	100.980392 
1199.000000	100.977163 
1198.000000	100.974478 
1197.000000	100.972186 
1196.000000	100.969357 
1195.000000	100.964258 
1194.000000	100.955893 
1193.000000	100.945421 
1192.000000	100.935474 
1191.000000	100.927683 
1190.000000	100.921165 
1189.000000	100.913949 
1188.000000	100.905562 
1187.000000	100.897525 
1186.000000	100.891327 
1185.000000	100.886746 
1184.000000	100.882363 
1183.000000	100.876904 
1182.000000	100.869744 
1181.000000	100.861030 
1180.000000	100.851820 
1179.000000	100.843371 
1178.000000	100.835758 
1177.000000	100.827819 
1176.000000	100.818876 
1175.000000	100.809483 
1174.000000	100.799874 
1173.000000	100.788914 
1172.000000	100.775842 
1171.000000	100.762259 
1170.000000	100.750813 
1169.000000	100.742209 
1168.000000	100.734752 
1167.000000	100.726713 
1166.000000	100.718182 
1165.000000	100.710706 
1164.000000	100.706076 
1163.000000	100.705377 
1162.000000	100.708265 
1161.000000	100.713193 
1160.000000	100.718789 
1159.000000	100.724406 
1158.000000	100.728677 
1157.000000	100.728566 
1156.000000	100.721526 
1155.000000	100.708629 
1154.000000	100.694578 
1153.000000	100.683941 
1152.000000	100.677664 
1151.000000	100.673202 
1150.000000	100.667149 
1149.000000	100.657847 
1148.000000	100.646433 
1147.000000	100.635597 
1146.000000	100.626758 
1145.000000	100.618581 
1144.000000	100.608776 
1143.000000	100.596849 
1142.000000	100.584439 
1141.000000	100.573498 
1140.000000	100.565121 
1139.000000	100.559514 
1138.000000	100.555653 
1137.000000	100.551149 
1136.000000	100.543873 
1135.000000	100.533944 
1134.000000	100.523212 
1133.000000	100.512740 
1132.000000	100.501853 
1131.000000	100.489912 
1130.000000	100.477828 
1129.000000	100.467187 
1128.000000	100.458370 
1127.000000	100.449937 
1126.000000	100.439734 
1125.000000	100.426850 
1124.000000	100.412833 
1123.000000	100.400590 
1122.000000	100.391430 
1121.000000	100.383602 
1120.000000	100.374416 
1119.000000	100.363296 
1118.000000	100.351819 
1117.000000	100.341194 
1116.000000	100.330942 
1115.000000	100.320039 
1114.000000	100.308210 
1113.000000	100.295874 
1112.000000	100.283580 
1111.000000	100.271547 
1110.000000	100.259310 
1109.000000	100.246016 
1108.000000	100.231712 
1107.000000	100.217849 
1106.000000	100.205535 
1105.000000	100.193803 
1104.000000	100.180687 
1103.000000	100.165883 
1102.000000	100.151310 
1101.000000	100.138748 
1100.000000	100.128058 
1099.000000	100.117959 
1098.000000	100.107672 
1097.000000	100.097382 
1096.000000	100.087370 
1095.000000	100.077298 
1094.000000	100.066226 
1093.000000	100.053101 
1092.000000	100.037325 
1091.000000	100.019183 
1090.000000	99.999913  
1089.000000	99.981223  
1088.000000	99.964472  
1087.000000	99.950020  
1086.000000	99.937102  
1085.000000	99.924478  
1084.000000	99.911499  
1083.000000	99.898445  
1082.000000	99.885635  
1081.000000	99.872512  
1080.000000	99.858019  
1079.000000	99.841827  
1078.000000	99.824918  
1077.000000	99.809013  
1076.000000	99.795680  
1075.000000	99.785711  
1074.000000	99.778773  
1073.000000	99.773446  
1072.000000	99.767608  
1071.000000	99.758652  
1070.000000	99.743883  
1069.000000	99.722120  
1068.000000	99.695868  
1067.000000	99.671140  
1066.000000	99.653429  
1065.000000	99.643669  
1064.000000	99.638460  
1063.000000	99.633309  
1062.000000	99.624802  
1061.000000	99.610620  
1060.000000	99.589898  
1059.000000	99.564780  
1058.000000	99.540318  
1057.000000	99.521138  
1056.000000	99.508127  
1055.000000	99.498608  
1054.000000	99.489220  
1053.000000	99.478294  
1052.000000	99.465873  
1051.000000	99.452403  
1050.000000	99.437887  
1049.000000	99.421975  
1048.000000	99.404583  
1047.000000	99.386784  
1046.000000	99.371154  
1045.000000	99.360247  
1044.000000	99.353635  
1043.000000	99.346949  
1042.000000	99.335698  
1041.000000	99.320613  
1040.000000	99.307533  
1039.000000	99.301295  
1038.000000	99.301355  
1037.000000	99.303976  
1036.000000	99.306576  
1035.000000	99.308191  
1034.000000	99.307759  
1033.000000	99.304768  
1032.000000	99.300535  
1031.000000	99.296293  
1030.000000	99.291027  
1029.000000	99.284042  
1028.000000	99.278806  
1027.000000	99.280454  
1026.000000	99.288942  
1025.000000	99.297758  
1024.000000	99.300577  
1023.000000	99.297069  
1022.000000	99.291521  
1021.000000	99.288137  
1020.000000	99.288644  
1019.000000	99.292131  
1018.000000	99.295591  
1017.000000	99.296188  
1016.000000	99.294316  
1015.000000	99.293361  
1014.000000	99.295666  
1013.000000	99.299806  
1012.000000	99.302442  
1011.000000	99.301685  
1010.000000	99.298272  
1009.000000	99.294828  
1008.000000	99.294462  
1007.000000	99.298660  
1006.000000	99.305769  
1005.000000	99.312436  
1004.000000	99.316914  
1003.000000	99.320081  
1002.000000	99.323387  
1001.000000	99.327155  
1000.000000	99.330875  
999.000000	 99.333695  
998.000000	 99.334758  
997.000000	 99.334750  
996.000000	 99.336929  
995.000000	 99.344498  
994.000000	 99.356611  
993.000000	 99.368705  
992.000000	 99.377160  
991.000000	 99.382002  
990.000000	 99.384896  
989.000000	 99.386866  
988.000000	 99.388872  
987.000000	 99.392519  
986.000000	 99.398839  
985.000000	 99.407518  
984.000000	 99.418023  
983.000000	 99.430093  
982.000000	 99.442678  
981.000000	 99.453915  
980.000000	 99.463085  
979.000000	 99.471782  
978.000000	 99.482564  
977.000000	 99.497023  
976.000000	 99.514937  
975.000000	 99.534202  
974.000000	 99.552054  
973.000000	 99.568031  
972.000000	 99.585232  
971.000000	 99.606667  
970.000000	 99.630672  
969.000000	 99.652164  
968.000000	 99.668543  
967.000000	 99.682090  
966.000000	 99.696371  
965.000000	 99.712608  
964.000000	 99.730163  
963.000000	 99.748370  
962.000000	 99.766903  
961.000000	 99.785878  
960.000000	 99.805992  
959.000000	 99.827013  
958.000000	 99.846223  
957.000000	 99.860676  
956.000000	 99.871356  
955.000000	 99.882804  
954.000000	 99.897820  
953.000000	 99.914727  
952.000000	 99.930835  
951.000000	 99.945998  
950.000000	 99.961053  
949.000000	 99.974871  
948.000000	 99.985237  
947.000000	 99.991610  
946.000000	 99.995241  
945.000000	 99.997389  
944.000000	 99.999103  
943.000000	 100.002253 
942.000000	 100.009033 
941.000000	 100.020037 
940.000000	 100.033294 
939.000000	 100.045209 
938.000000	 100.052739 
937.000000	 100.055768 
936.000000	 100.057830 
935.000000	 100.063523 
934.000000	 100.074391 
933.000000	 100.087921 
932.000000	 100.100919 
931.000000	 100.112844 
930.000000	 100.125072 
929.000000	 100.137718 
928.000000	 100.148340 
927.000000	 100.154002 
926.000000	 100.154414 
925.000000	 100.153241 
924.000000	 100.156038 
923.000000	 100.165902 
922.000000	 100.180772 
921.000000	 100.195241 
920.000000	 100.205102 
919.000000	 100.209733 
918.000000	 100.210783 
917.000000	 100.210230 
916.000000	 100.209934 
915.000000	 100.211478 
914.000000	 100.215281 
913.000000	 100.220406 
912.000000	 100.225965 
911.000000	 100.232405 
910.000000	 100.241200 
909.000000	 100.253716 
908.000000	 100.270229 
907.000000	 100.289089 
906.000000	 100.306903 
905.000000	 100.320792 
904.000000	 100.330741 
903.000000	 100.339237 
902.000000	 100.348866 
901.000000	 100.360881 
900.000000	 100.375525 
899.000000	 100.392087 
898.000000	 100.408529 
897.000000	 100.422596 
896.000000	 100.433676 
895.000000	 100.442846 
894.000000	 100.451410 
893.000000	 100.460594 
892.000000	 100.472301 
891.000000	 100.488221 
890.000000	 100.507731 
889.000000	 100.528126 
888.000000	 100.547268 
887.000000	 100.564799 
886.000000	 100.580854 
885.000000	 100.595394 
884.000000	 100.609134 
883.000000	 100.623026 
882.000000	 100.635990 
881.000000	 100.645288 
880.000000	 100.650683 
879.000000	 100.656437 
878.000000	 100.667257 
877.000000	 100.683236 
876.000000	 100.700234 
875.000000	 100.714118 
874.000000	 100.723364 
873.000000	 100.728924 
872.000000	 100.733525 
871.000000	 100.740459 
870.000000	 100.751527 
869.000000	 100.766423 
868.000000	 100.784468 
867.000000	 100.805307 
866.000000	 100.826832 
865.000000	 100.844742 
864.000000	 100.856836 
863.000000	 100.866742 
862.000000	 100.880422 
861.000000	 100.898630 
860.000000	 100.915592 
859.000000	 100.926040 
858.000000	 100.931126 
857.000000	 100.936146 
856.000000	 100.944474 
855.000000	 100.955891 
854.000000	 100.969244 
853.000000	 100.983425 
852.000000	 100.995837 
851.000000	 101.003425 
850.000000	 101.007028 
849.000000	 101.012409 
848.000000	 101.024357 
847.000000	 101.040674 
846.000000	 101.054247 
845.000000	 101.060531 
844.000000	 101.060903 
843.000000	 101.059535 
842.000000	 101.059723 
841.000000	 101.062952 
840.000000	 101.068102 
839.000000	 101.070680 
838.000000	 101.066320 
837.000000	 101.056865 
836.000000	 101.049841 
835.000000	 101.049248 
834.000000	 101.049958 
833.000000	 101.045085 
832.000000	 101.036290 
831.000000	 101.031519 
830.000000	 101.033187 
829.000000	 101.034736 
828.000000	 101.030779 
827.000000	 101.025188 
826.000000	 101.025149 
825.000000	 101.030650 
824.000000	 101.034970 
823.000000	 101.034237 
822.000000	 101.031869 
821.000000	 101.033398 
820.000000	 101.040064 
819.000000	 101.048270 
818.000000	 101.053815 
817.000000	 101.056005 
816.000000	 101.057468 
815.000000	 101.059767 
814.000000	 101.060206 
813.000000	 101.054424 
812.000000	 101.041254 
811.000000	 101.022658 
810.000000	 100.999087 
809.000000	 100.967813 
808.000000	 100.926972 
807.000000	 100.878909 
806.000000	 100.827851 
805.000000	 100.776030 
804.000000	 100.724097 
803.000000	 100.674101 
802.000000	 100.629781 
801.000000	 100.594203 
800.000000	 100.568422 
799.000000	 100.551865 
798.000000	 100.542985 
797.000000	 100.539848 
796.000000	 100.540355 
795.000000	 100.541889 
794.000000	 100.541926 
793.000000	 100.540456 
792.000000	 100.541082 
791.000000	 100.547616 
790.000000	 100.559339 
789.000000	 100.571037 
788.000000	 100.577391 
787.000000	 100.575699 
786.000000	 100.565272 
785.000000	 100.547104 
784.000000	 100.524708 
783.000000	 100.503286 
782.000000	 100.486743 
781.000000	 100.475625 
780.000000	 100.467366 
779.000000	 100.457681 
778.000000	 100.443497 
777.000000	 100.427051 
776.000000	 100.416298 
775.000000	 100.418598 
774.000000	 100.433883 
773.000000	 100.455556 
772.000000	 100.477240 
771.000000	 100.496251 
770.000000	 100.511749 
769.000000	 100.523279 
768.000000	 100.531599 
767.000000	 100.538570 
766.000000	 100.545911 
765.000000	 100.555586 
764.000000	 100.570215 
763.000000	 100.590100 
762.000000	 100.610162 
761.000000	 100.623195 
760.000000	 100.626932 
759.000000	 100.626063 
758.000000	 100.627299 
757.000000	 100.633896 
756.000000	 100.644102 
755.000000	 100.652557 
754.000000	 100.654167 
753.000000	 100.649764 
752.000000	 100.647798 
751.000000	 100.657351 
750.000000	 100.678846 
749.000000	 100.703336 
748.000000	 100.721190 
747.000000	 100.729783 
746.000000	 100.732842 
745.000000	 100.735548 
744.000000	 100.741326 
743.000000	 100.751151 
742.000000	 100.764053 
741.000000	 100.778754 
740.000000	 100.795138 
739.000000	 100.813366 
738.000000	 100.831810 
737.000000	 100.847170 
736.000000	 100.856657 
735.000000	 100.859514 
734.000000	 100.857545 
733.000000	 100.855496 
732.000000	 100.859447 
731.000000	 100.872002 
730.000000	 100.889023 
729.000000	 100.903450 
728.000000	 100.912670 
727.000000	 100.919504 
726.000000	 100.925885 
725.000000	 100.929536 
724.000000	 100.928597 
723.000000	 100.925814 
722.000000	 100.925758 
721.000000	 100.930319 
720.000000	 100.938972 
719.000000	 100.951116 
718.000000	 100.965755 
717.000000	 100.980244 
716.000000	 100.991049 
715.000000	 100.995175 
714.000000	 100.991628 
713.000000	 100.983646 
712.000000	 100.979312 
711.000000	 100.986098 
710.000000	 101.002682 
709.000000	 101.018704 
708.000000	 101.024369 
707.000000	 101.018341 
706.000000	 101.005461 
705.000000	 100.990493 
704.000000	 100.976653 
703.000000	 100.966761 
702.000000	 100.962268 
701.000000	 100.961456 
700.000000	 100.960256 
699.000000	 100.954902 
698.000000	 100.943928 
697.000000	 100.929271 
696.000000	 100.915852 
695.000000	 100.907650 
694.000000	 100.904300 
693.000000	 100.903509 
692.000000	 100.905502 
691.000000	 100.912379 
690.000000	 100.923773 
689.000000	 100.937080 
688.000000	 100.951628 
687.000000	 100.967525 
686.000000	 100.980689 
685.000000	 100.984849 
684.000000	 100.979607 
683.000000	 100.972250 
682.000000	 100.970125 
681.000000	 100.974430 
680.000000	 100.981912 
679.000000	 100.988684 
678.000000	 100.991980 
677.000000	 100.991619 
676.000000	 100.991852 
675.000000	 100.998180 
674.000000	 101.010204 
673.000000	 101.020911 
672.000000	 101.025083 
671.000000	 101.024812 
670.000000	 101.025194 
669.000000	 101.030469 
668.000000	 101.039228 
667.000000	 101.044404 
666.000000	 101.046799 
665.000000	 101.049980 
664.000000	 101.053659 
663.000000	 101.061290 
662.000000	 101.074852 
661.000000	 101.088922 
660.000000	 101.095157 
659.000000	 101.092204 
658.000000	 101.085525 
657.000000	 101.081098 
656.000000	 101.080193 
655.000000	 101.082631 
654.000000	 101.088375 
653.000000	 101.095440 
652.000000	 101.100935 
651.000000	 101.104971 
650.000000	 101.110345 

