4000.000000	100.666290 
3999.000000	100.665442 
3998.000000	100.664351 
3997.000000	100.664417 
3996.000000	100.665344 
3995.000000	100.665857 
3994.000000	100.665388 
3993.000000	100.664894 
3992.000000	100.665928 
3991.000000	100.668647 
3990.000000	100.670812 
3989.000000	100.669524 
3988.000000	100.664403 
3987.000000	100.658375 
3986.000000	100.654917 
3985.000000	100.655170 
3984.000000	100.658023 
3983.000000	100.662218 
3982.000000	100.667271 
3981.000000	100.672824 
3980.000000	100.678317 
3979.000000	100.683546 
3978.000000	100.688493 
3977.000000	100.692324 
3976.000000	100.693454 
3975.000000	100.691048 
3974.000000	100.685567 
3973.000000	100.677962 
3972.000000	100.669787 
3971.000000	100.663779 
3970.000000	100.662800 
3969.000000	100.667135 
3968.000000	100.674068 
3967.000000	100.679993 
3966.000000	100.682442 
3965.000000	100.680714 
3964.000000	100.676072 
3963.000000	100.671632 
3962.000000	100.670345 
3961.000000	100.672183 
3960.000000	100.674792 
3959.000000	100.676556 
3958.000000	100.677913 
3957.000000	100.679288 
3956.000000	100.680141 
3955.000000	100.679724 
3954.000000	100.677685 
3953.000000	100.674378 
3952.000000	100.670849 
3951.000000	100.668719 
3950.000000	100.668647 
3949.000000	100.669499 
3948.000000	100.669396 
3947.000000	100.667366 
3946.000000	100.664527 
3945.000000	100.663914 
3944.000000	100.667654 
3943.000000	100.673380 
3942.000000	100.675565 
3941.000000	100.672044 
3940.000000	100.667176 
3939.000000	100.666665 
3938.000000	100.670856 
3937.000000	100.673799 
3936.000000	100.670877 
3935.000000	100.665001 
3934.000000	100.662405 
3933.000000	100.664593 
3932.000000	100.667393 
3931.000000	100.669078 
3930.000000	100.672601 
3929.000000	100.678266 
3928.000000	100.680622 
3927.000000	100.676194 
3926.000000	100.670600 
3925.000000	100.670617 
3924.000000	100.674165 
3923.000000	100.675897 
3922.000000	100.676622 
3921.000000	100.679566 
3920.000000	100.682429 
3919.000000	100.680042 
3918.000000	100.674002 
3917.000000	100.670398 
3916.000000	100.670324 
3915.000000	100.670044 
3914.000000	100.669715 
3913.000000	100.672200 
3912.000000	100.676957 
3911.000000	100.678712 
3910.000000	100.675900 
3909.000000	100.671678 
3908.000000	100.670026 
3907.000000	100.672736 
3906.000000	100.681485 
3905.000000	100.697426 
3904.000000	100.713959 
3903.000000	100.719609 
3902.000000	100.710761 
3901.000000	100.696674 
3900.000000	100.688308 
3899.000000	100.685293 
3898.000000	100.680560 
3897.000000	100.673199 
3896.000000	100.668694 
3895.000000	100.668586 
3894.000000	100.670073 
3893.000000	100.672373 
3892.000000	100.681817 
3891.000000	100.698818 
3890.000000	100.712190 
3889.000000	100.711018 
3888.000000	100.699817 
3887.000000	100.695998 
3886.000000	100.704397 
3885.000000	100.707622 
3884.000000	100.695049 
3883.000000	100.679399 
3882.000000	100.678146 
3881.000000	100.690389 
3880.000000	100.698119 
3879.000000	100.691751 
3878.000000	100.679475 
3877.000000	100.672238 
3876.000000	100.676049 
3875.000000	100.690169 
3874.000000	100.702534 
3873.000000	100.698475 
3872.000000	100.682482 
3871.000000	100.679109 
3870.000000	100.696889 
3869.000000	100.710576 
3868.000000	100.702065 
3867.000000	100.687362 
3866.000000	100.691763 
3865.000000	100.709939 
3864.000000	100.713666 
3863.000000	100.697812 
3862.000000	100.685669 
3861.000000	100.687101 
3860.000000	100.691936 
3859.000000	100.689263 
3858.000000	100.679682 
3857.000000	100.667543 
3856.000000	100.659167 
3855.000000	100.669798 
3854.000000	100.700673 
3853.000000	100.719137 
3852.000000	100.711695 
3851.000000	100.700082 
3850.000000	100.702044 
3849.000000	100.714315 
3848.000000	100.721429 
3847.000000	100.714932 
3846.000000	100.702679 
3845.000000	100.695997 
3844.000000	100.698383 
3843.000000	100.703133 
3842.000000	100.701829 
3841.000000	100.694404 
3840.000000	100.692058 
3839.000000	100.700359 
3838.000000	100.713131 
3837.000000	100.722101 
3836.000000	100.724341 
3835.000000	100.720011 
3834.000000	100.711501 
3833.000000	100.704775 
3832.000000	100.703552 
3831.000000	100.703936 
3830.000000	100.700774 
3829.000000	100.694083 
3828.000000	100.690519 
3827.000000	100.696238 
3826.000000	100.707252 
3825.000000	100.710875 
3824.000000	100.703587 
3823.000000	100.699220 
3822.000000	100.713965 
3821.000000	100.736323 
3820.000000	100.739364 
3819.000000	100.720344 
3818.000000	100.701209 
3817.000000	100.704343 
3816.000000	100.719580 
3815.000000	100.716934 
3814.000000	100.695763 
3813.000000	100.683031 
3812.000000	100.691466 
3811.000000	100.704657 
3810.000000	100.700976 
3809.000000	100.684322 
3808.000000	100.681098 
3807.000000	100.699832 
3806.000000	100.717079 
3805.000000	100.712542 
3804.000000	100.694481 
3803.000000	100.688631 
3802.000000	100.704315 
3801.000000	100.714087 
3800.000000	100.698799 
3799.000000	100.676471 
3798.000000	100.670192 
3797.000000	100.680922 
3796.000000	100.689155 
3795.000000	100.683314 
3794.000000	100.674379 
3793.000000	100.677627 
3792.000000	100.690431 
3791.000000	100.698047 
3790.000000	100.693977 
3789.000000	100.685342 
3788.000000	100.680401 
3787.000000	100.681022 
3786.000000	100.686722 
3785.000000	100.697330 
3784.000000	100.708959 
3783.000000	100.715092 
3782.000000	100.715344 
3781.000000	100.715914 
3780.000000	100.719967 
3779.000000	100.720530 
3778.000000	100.711138 
3777.000000	100.696216 
3776.000000	100.687411 
3775.000000	100.689896 
3774.000000	100.696629 
3773.000000	100.698247 
3772.000000	100.696900 
3771.000000	100.701109 
3770.000000	100.708566 
3769.000000	100.708382 
3768.000000	100.700316 
3767.000000	100.696333 
3766.000000	100.704645 
3765.000000	100.717957 
3764.000000	100.721897 
3763.000000	100.714891 
3762.000000	100.711154 
3761.000000	100.719443 
3760.000000	100.729118 
3759.000000	100.727176 
3758.000000	100.721746 
3757.000000	100.724698 
3756.000000	100.730978 
3755.000000	100.731119 
3754.000000	100.728819 
3753.000000	100.733788 
3752.000000	100.740315 
3751.000000	100.736808 
3750.000000	100.732792 
3749.000000	100.740701 
3748.000000	100.747033 
3747.000000	100.735328 
3746.000000	100.722545 
3745.000000	100.734473 
3744.000000	100.747848 
3743.000000	100.734710 
3742.000000	100.715021 
3741.000000	100.715618 
3740.000000	100.732544 
3739.000000	100.737517 
3738.000000	100.720056 
3737.000000	100.703213 
3736.000000	100.704609 
3735.000000	100.710918 
3734.000000	100.707748 
3733.000000	100.706218 
3732.000000	100.716777 
3731.000000	100.729286 
3730.000000	100.730398 
3729.000000	100.722349 
3728.000000	100.718389 
3727.000000	100.723522 
3726.000000	100.727439 
3725.000000	100.724293 
3724.000000	100.721800 
3723.000000	100.724434 
3722.000000	100.725115 
3721.000000	100.718227 
3720.000000	100.709354 
3719.000000	100.706589 
3718.000000	100.711960 
3717.000000	100.717831 
3716.000000	100.714419 
3715.000000	100.702074 
3714.000000	100.690434 
3713.000000	100.686605 
3712.000000	100.688100 
3711.000000	100.690035 
3710.000000	100.693195 
3709.000000	100.698271 
3708.000000	100.702765 
3707.000000	100.703046 
3706.000000	100.696384 
3705.000000	100.683743 
3704.000000	100.670264 
3703.000000	100.661499 
3702.000000	100.658866 
3701.000000	100.659301 
3700.000000	100.658552 
3699.000000	100.654975 
3698.000000	100.651352 
3697.000000	100.649823 
3696.000000	100.646202 
3695.000000	100.638459 
3694.000000	100.633394 
3693.000000	100.636584 
3692.000000	100.643037 
3691.000000	100.644278 
3690.000000	100.641557 
3689.000000	100.640244 
3688.000000	100.639225 
3687.000000	100.633930 
3686.000000	100.625476 
3685.000000	100.621379 
3684.000000	100.624359 
3683.000000	100.626094 
3682.000000	100.620279 
3681.000000	100.615938 
3680.000000	100.621205 
3679.000000	100.625073 
3678.000000	100.612827 
3677.000000	100.599099 
3676.000000	100.607997 
3675.000000	100.627392 
3674.000000	100.633728 
3673.000000	100.627860 
3672.000000	100.627987 
3671.000000	100.643863 
3670.000000	100.656011 
3669.000000	100.644264 
3668.000000	100.622032 
3667.000000	100.609804 
3666.000000	100.608236 
3665.000000	100.607497 
3664.000000	100.602419 
3663.000000	100.596299 
3662.000000	100.595683 
3661.000000	100.602443 
3660.000000	100.610870 
3659.000000	100.615217 
3658.000000	100.616191 
3657.000000	100.620446 
3656.000000	100.628616 
3655.000000	100.635603 
3654.000000	100.640676 
3653.000000	100.648767 
3652.000000	100.664245 
3651.000000	100.680013 
3650.000000	100.678682 
3649.000000	100.658811 
3648.000000	100.641495 
3647.000000	100.638360 
3646.000000	100.641490 
3645.000000	100.642575 
3644.000000	100.642618 
3643.000000	100.644632 
3642.000000	100.647152 
3641.000000	100.646871 
3640.000000	100.646728 
3639.000000	100.654084 
3638.000000	100.668879 
3637.000000	100.682346 
3636.000000	100.688890 
3635.000000	100.693448 
3634.000000	100.700060 
3633.000000	100.702934 
3632.000000	100.696175 
3631.000000	100.688211 
3630.000000	100.694573 
3629.000000	100.707119 
3628.000000	100.703505 
3627.000000	100.688168 
3626.000000	100.681635 
3625.000000	100.689852 
3624.000000	100.701530 
3623.000000	100.702136 
3622.000000	100.690167 
3621.000000	100.677811 
3620.000000	100.674639 
3619.000000	100.678040 
3618.000000	100.682865 
3617.000000	100.688287 
3616.000000	100.694260 
3615.000000	100.701427 
3614.000000	100.709258 
3613.000000	100.713121 
3612.000000	100.708556 
3611.000000	100.697814 
3610.000000	100.688328 
3609.000000	100.684544 
3608.000000	100.683770 
3607.000000	100.682037 
3606.000000	100.680430 
3605.000000	100.681054 
3604.000000	100.682120 
3603.000000	100.680415 
3602.000000	100.676795 
3601.000000	100.676602 
3600.000000	100.682073 
3599.000000	100.691237 
3598.000000	100.700934 
3597.000000	100.707834 
3596.000000	100.708882 
3595.000000	100.705668 
3594.000000	100.703143 
3593.000000	100.705854 
3592.000000	100.714161 
3591.000000	100.723598 
3590.000000	100.729120 
3589.000000	100.728374 
3588.000000	100.721095 
3587.000000	100.709044 
3586.000000	100.697988 
3585.000000	100.693743 
3584.000000	100.696126 
3583.000000	100.700059 
3582.000000	100.700532 
3581.000000	100.696849 
3580.000000	100.691385 
3579.000000	100.686500 
3578.000000	100.682901 
3577.000000	100.680423 
3576.000000	100.679183 
3575.000000	100.679891 
3574.000000	100.683472 
3573.000000	100.689893 
3572.000000	100.697754 
3571.000000	100.703285 
3570.000000	100.702257 
3569.000000	100.693953 
3568.000000	100.682096 
3567.000000	100.672665 
3566.000000	100.671729 
3565.000000	100.680963 
3564.000000	100.694410 
3563.000000	100.702781 
3562.000000	100.701115 
3561.000000	100.692204 
3560.000000	100.683134 
3559.000000	100.678296 
3558.000000	100.677188 
3557.000000	100.677256 
3556.000000	100.677065 
3555.000000	100.677143 
3554.000000	100.679496 
3553.000000	100.685195 
3552.000000	100.691955 
3551.000000	100.695560 
3550.000000	100.693915 
3549.000000	100.688738 
3548.000000	100.683033 
3547.000000	100.678644 
3546.000000	100.676842 
3545.000000	100.678741 
3544.000000	100.683601 
3543.000000	100.688362 
3542.000000	100.690286 
3541.000000	100.689100 
3540.000000	100.686681 
3539.000000	100.685570 
3538.000000	100.687589 
3537.000000	100.692303 
3536.000000	100.696380 
3535.000000	100.696490 
3534.000000	100.692399 
3533.000000	100.687034 
3532.000000	100.683075 
3531.000000	100.681189 
3530.000000	100.681274 
3529.000000	100.683546 
3528.000000	100.687352 
3527.000000	100.690485 
3526.000000	100.691325 
3525.000000	100.690320 
3524.000000	100.688574 
3523.000000	100.686394 
3522.000000	100.684183 
3521.000000	100.683156 
3520.000000	100.684152 
3519.000000	100.686635 
3518.000000	100.689059 
3517.000000	100.690291 
3516.000000	100.690450 
3515.000000	100.690839 
3514.000000	100.692537 
3513.000000	100.695324 
3512.000000	100.697638 
3511.000000	100.697554 
3510.000000	100.694575 
3509.000000	100.690648 
3508.000000	100.688699 
3507.000000	100.689958 
3506.000000	100.692787 
3505.000000	100.693589 
3504.000000	100.689238 
3503.000000	100.680578 
3502.000000	100.673473 
3501.000000	100.674120 
3500.000000	100.682388 
3499.000000	100.691268 
3498.000000	100.693440 
3497.000000	100.687922 
3496.000000	100.680305 
3495.000000	100.676865 
3494.000000	100.678891 
3493.000000	100.682571 
3492.000000	100.683608 
3491.000000	100.681172 
3490.000000	100.677750 
3489.000000	100.676231 
3488.000000	100.677335 
3487.000000	100.679635 
3486.000000	100.681495 
3485.000000	100.682517 
3484.000000	100.683432 
3483.000000	100.685127 
3482.000000	100.687426 
3481.000000	100.688728 
3480.000000	100.687391 
3479.000000	100.683913 
3478.000000	100.680990 
3477.000000	100.680512 
3476.000000	100.680935 
3475.000000	100.678943 
3474.000000	100.673988 
3473.000000	100.669546 
3472.000000	100.669338 
3471.000000	100.673376 
3470.000000	100.678387 
3469.000000	100.681380 
3468.000000	100.681730 
3467.000000	100.680126 
3466.000000	100.677141 
3465.000000	100.673462 
3464.000000	100.670278 
3463.000000	100.668393 
3462.000000	100.667249 
3461.000000	100.665661 
3460.000000	100.663474 
3459.000000	100.661946 
3458.000000	100.662369 
3457.000000	100.664693 
3456.000000	100.667373 
3455.000000	100.668629 
3454.000000	100.668120 
3453.000000	100.667510 
3452.000000	100.668528 
3451.000000	100.671108 
3450.000000	100.674171 
3449.000000	100.677404 
3448.000000	100.680845 
3447.000000	100.683185 
3446.000000	100.683004 
3445.000000	100.681590 
3444.000000	100.682133 
3443.000000	100.685407 
3442.000000	100.688005 
3441.000000	100.686278 
3440.000000	100.680961 
3439.000000	100.676331 
3438.000000	100.675253 
3437.000000	100.676616 
3436.000000	100.677500 
3435.000000	100.676737 
3434.000000	100.675828 
3433.000000	100.676864 
3432.000000	100.679660 
3431.000000	100.681691 
3430.000000	100.680897 
3429.000000	100.677619 
3428.000000	100.673615 
3427.000000	100.670105 
3426.000000	100.667661 
3425.000000	100.666902 
3424.000000	100.668071 
3423.000000	100.670175 
3422.000000	100.671425 
3421.000000	100.670699 
3420.000000	100.668319 
3419.000000	100.665727 
3418.000000	100.664589 
3417.000000	100.665702 
3416.000000	100.668207 
3415.000000	100.670219 
3414.000000	100.670758 
3413.000000	100.670700 
3412.000000	100.671419 
3411.000000	100.673095 
3410.000000	100.674924 
3409.000000	100.676226 
3408.000000	100.676586 
3407.000000	100.675539 
3406.000000	100.673056 
3405.000000	100.670240 
3404.000000	100.669006 
3403.000000	100.670933 
3402.000000	100.676047 
3401.000000	100.682387 
3400.000000	100.686925 
3399.000000	100.687719 
3398.000000	100.685479 
3397.000000	100.682688 
3396.000000	100.681150 
3395.000000	100.680714 
3394.000000	100.680483 
3393.000000	100.680410 
3392.000000	100.681055 
3391.000000	100.682247 
3390.000000	100.682940 
3389.000000	100.682602 
3388.000000	100.682107 
3387.000000	100.682748 
3386.000000	100.684480 
3385.000000	100.685709 
3384.000000	100.685162 
3383.000000	100.683593 
3382.000000	100.682790 
3381.000000	100.682984 
3380.000000	100.682217 
3379.000000	100.678906 
3378.000000	100.674452 
3377.000000	100.672370 
3376.000000	100.674909 
3375.000000	100.681059 
3374.000000	100.687941 
3373.000000	100.693431 
3372.000000	100.697101 
3371.000000	100.699077 
3370.000000	100.698988 
3369.000000	100.696635 
3368.000000	100.693234 
3367.000000	100.690953 
3366.000000	100.690725 
3365.000000	100.691020 
3364.000000	100.689461 
3363.000000	100.685694 
3362.000000	100.682038 
3361.000000	100.680951 
3360.000000	100.682289 
3359.000000	100.683705 
3358.000000	100.683614 
3357.000000	100.682954 
3356.000000	100.683644 
3355.000000	100.685858 
3354.000000	100.687637 
3353.000000	100.687198 
3352.000000	100.685021 
3351.000000	100.683345 
3350.000000	100.683967 
3349.000000	100.686973 
3348.000000	100.691362 
3347.000000	100.696151 
3346.000000	100.700608 
3345.000000	100.703917 
3344.000000	100.705253 
3343.000000	100.704348 
3342.000000	100.701747 
3341.000000	100.698601 
3340.000000	100.696338 
3339.000000	100.696010 
3338.000000	100.697281 
3337.000000	100.698217 
3336.000000	100.696964 
3335.000000	100.694027 
3334.000000	100.692204 
3333.000000	100.693680 
3332.000000	100.697469 
3331.000000	100.700324 
3330.000000	100.700214 
3329.000000	100.698440 
3328.000000	100.698200 
3327.000000	100.701349 
3326.000000	100.706701 
3325.000000	100.711299 
3324.000000	100.713211 
3323.000000	100.713118 
3322.000000	100.712960 
3321.000000	100.713233 
3320.000000	100.712199 
3319.000000	100.708076 
3318.000000	100.701664 
3317.000000	100.696218 
3316.000000	100.694704 
3315.000000	100.697436 
3314.000000	100.702258 
3313.000000	100.706683 
3312.000000	100.709837 
3311.000000	100.712636 
3310.000000	100.716296 
3309.000000	100.720796 
3308.000000	100.724923 
3307.000000	100.727677 
3306.000000	100.728961 
3305.000000	100.728614 
3304.000000	100.725675 
3303.000000	100.719679 
3302.000000	100.712569 
3301.000000	100.708301 
3300.000000	100.709806 
3299.000000	100.716380 
3298.000000	100.724108 
3297.000000	100.728756 
3296.000000	100.728658 
3295.000000	100.725598 
3294.000000	100.723157 
3293.000000	100.723814 
3292.000000	100.727180 
3291.000000	100.730777 
3290.000000	100.732395 
3289.000000	100.731642 
3288.000000	100.729607 
3287.000000	100.727643 
3286.000000	100.726411 
3285.000000	100.725497 
3284.000000	100.723929 
3283.000000	100.721511 
3282.000000	100.719463 
3281.000000	100.719168 
3280.000000	100.720466 
3279.000000	100.721810 
3278.000000	100.722127 
3277.000000	100.721990 
3276.000000	100.722793 
3275.000000	100.725367 
3274.000000	100.729487 
3273.000000	100.733885 
3272.000000	100.736343 
3271.000000	100.734634 
3270.000000	100.728482 
3269.000000	100.720676 
3268.000000	100.715547 
3267.000000	100.715972 
3266.000000	100.721603 
3265.000000	100.729441 
3264.000000	100.736071 
3263.000000	100.739882 
3262.000000	100.741566 
3261.000000	100.742591 
3260.000000	100.743369 
3259.000000	100.742965 
3258.000000	100.740587 
3257.000000	100.736881 
3256.000000	100.733256 
3255.000000	100.730452 
3254.000000	100.728593 
3253.000000	100.728376 
3252.000000	100.730922 
3251.000000	100.735923 
3250.000000	100.740756 
3249.000000	100.742580 
3248.000000	100.741232 
3247.000000	100.739166 
3246.000000	100.738454 
3245.000000	100.738599 
3244.000000	100.737936 
3243.000000	100.736590 
3242.000000	100.736979 
3241.000000	100.741208 
3240.000000	100.748369 
3239.000000	100.754561 
3238.000000	100.755859 
3237.000000	100.751733 
3236.000000	100.745619 
3235.000000	100.741789 
3234.000000	100.741624 
3233.000000	100.743170 
3232.000000	100.744089 
3231.000000	100.744162 
3230.000000	100.744431 
3229.000000	100.744821 
3228.000000	100.743725 
3227.000000	100.739773 
3226.000000	100.733486 
3225.000000	100.727223 
3224.000000	100.723898 
3223.000000	100.725355 
3222.000000	100.730997 
3221.000000	100.737891 
3220.000000	100.742959 
3219.000000	100.745163 
3218.000000	100.745210 
3217.000000	100.743713 
3216.000000	100.740717 
3215.000000	100.736866 
3214.000000	100.733880 
3213.000000	100.733305 
3212.000000	100.735300 
3211.000000	100.739111 
3210.000000	100.744245 
3209.000000	100.750455 
3208.000000	100.756701 
3207.000000	100.760936 
3206.000000	100.761563 
3205.000000	100.759103 
3204.000000	100.756123 
3203.000000	100.755231 
3202.000000	100.757182 
3201.000000	100.760991 
3200.000000	100.765384 
3199.000000	100.769327 
3198.000000	100.771457 
3197.000000	100.770539 
3196.000000	100.767253 
3195.000000	100.764418 
3194.000000	100.764185 
3193.000000	100.765475 
3192.000000	100.765340 
3191.000000	100.762721 
3190.000000	100.759663 
3189.000000	100.758761 
3188.000000	100.760585 
3187.000000	100.763809 
3186.000000	100.766670 
3185.000000	100.767786 
3184.000000	100.766503 
3183.000000	100.763169 
3182.000000	100.758874 
3181.000000	100.754651 
3180.000000	100.751177 
3179.000000	100.749198 
3178.000000	100.749293 
3177.000000	100.750629 
3176.000000	100.750813 
3175.000000	100.748271 
3174.000000	100.744713 
3173.000000	100.744130 
3172.000000	100.748754 
3171.000000	100.756463 
3170.000000	100.762748 
3169.000000	100.765173 
3168.000000	100.765437 
3167.000000	100.766869 
3166.000000	100.770496 
3165.000000	100.774281 
3164.000000	100.775999 
3163.000000	100.775730 
3162.000000	100.775229 
3161.000000	100.775772 
3160.000000	100.777428 
3159.000000	100.779889 
3158.000000	100.782735 
3157.000000	100.784782 
3156.000000	100.784353 
3155.000000	100.781065 
3154.000000	100.776933 
3153.000000	100.775017 
3152.000000	100.776834 
3151.000000	100.781167 
3150.000000	100.785220 
3149.000000	100.786930 
3148.000000	100.786604 
3147.000000	100.786548 
3146.000000	100.788676 
3145.000000	100.792227 
3144.000000	100.794369 
3143.000000	100.793518 
3142.000000	100.791407 
3141.000000	100.790980 
3140.000000	100.792606 
3139.000000	100.793419 
3138.000000	100.790574 
3137.000000	100.784559 
3136.000000	100.778945 
3135.000000	100.777037 
3134.000000	100.779088 
3133.000000	100.782687 
3132.000000	100.785359 
3131.000000	100.786200 
3130.000000	100.785248 
3129.000000	100.782533 
3128.000000	100.778554 
3127.000000	100.775055 
3126.000000	100.774272 
3125.000000	100.777089 
3124.000000	100.782211 
3123.000000	100.787339 
3122.000000	100.790943 
3121.000000	100.792870 
3120.000000	100.793935 
3119.000000	100.795255 
3118.000000	100.797225 
3117.000000	100.798821 
3116.000000	100.798556 
3115.000000	100.796394 
3114.000000	100.793925 
3113.000000	100.792221 
3112.000000	100.790469 
3111.000000	100.787709 
3110.000000	100.785104 
3109.000000	100.784817 
3108.000000	100.786579 
3107.000000	100.787110 
3106.000000	100.783904 
3105.000000	100.778424 
3104.000000	100.774503 
3103.000000	100.774631 
3102.000000	100.778740 
3101.000000	100.785145 
3100.000000	100.791207 
3099.000000	100.793940 
3098.000000	100.791987 
3097.000000	100.787490 
3096.000000	100.784835 
3095.000000	100.786774 
3094.000000	100.792096 
3093.000000	100.797269 
3092.000000	100.799655 
3091.000000	100.798944 
3090.000000	100.796467 
3089.000000	100.794191 
3088.000000	100.794093 
3087.000000	100.797265 
3086.000000	100.802799 
3085.000000	100.807923 
3084.000000	100.810102 
3083.000000	100.809269 
3082.000000	100.807676 
3081.000000	100.807372 
3080.000000	100.808225 
3079.000000	100.808493 
3078.000000	100.806681 
3077.000000	100.802626 
3076.000000	100.797454 
3075.000000	100.793046 
3074.000000	100.791081 
3073.000000	100.791910 
3072.000000	100.794431 
3071.000000	100.797556 
3070.000000	100.801230 
3069.000000	100.805098 
3068.000000	100.806890 
3067.000000	100.803925 
3066.000000	100.796665 
3065.000000	100.789361 
3064.000000	100.786236 
3063.000000	100.787684 
3062.000000	100.790719 
3061.000000	100.792445 
3060.000000	100.792552 
3059.000000	100.792868 
3058.000000	100.794979 
3057.000000	100.798330 
3056.000000	100.800780 
3055.000000	100.801164 
3054.000000	100.800683 
3053.000000	100.801118 
3052.000000	100.802242 
3051.000000	100.802269 
3050.000000	100.800561 
3049.000000	100.798229 
3048.000000	100.795876 
3047.000000	100.792350 
3046.000000	100.786674 
3045.000000	100.780091 
3044.000000	100.775109 
3043.000000	100.773036 
3042.000000	100.773157 
3041.000000	100.773924 
3040.000000	100.774364 
3039.000000	100.774579 
3038.000000	100.775411 
3037.000000	100.777382 
3036.000000	100.779670 
3035.000000	100.780518 
3034.000000	100.778742 
3033.000000	100.774513 
3032.000000	100.768672 
3031.000000	100.761940 
3030.000000	100.754972 
3029.000000	100.748327 
3028.000000	100.741819 
3027.000000	100.734599 
3026.000000	100.726585 
3025.000000	100.719204 
3024.000000	100.713750 
3023.000000	100.709280 
3022.000000	100.703150 
3021.000000	100.693720 
3020.000000	100.682002 
3019.000000	100.670768 
3018.000000	100.662478 
3017.000000	100.657680 
3016.000000	100.654647 
3015.000000	100.650535 
3014.000000	100.643307 
3013.000000	100.632728 
3012.000000	100.619599 
3011.000000	100.604633 
3010.000000	100.588504 
3009.000000	100.572554 
3008.000000	100.558627 
3007.000000	100.547981 
3006.000000	100.540536 
3005.000000	100.534940 
3004.000000	100.529010 
3003.000000	100.520475 
3002.000000	100.508291 
3001.000000	100.493711 
3000.000000	100.479705 
2999.000000	100.468806 
2998.000000	100.461382 
2997.000000	100.456242 
2996.000000	100.452593 
2995.000000	100.450223 
2994.000000	100.447048 
2993.000000	100.437866 
2992.000000	100.418180 
2991.000000	100.390197 
2990.000000	100.363268 
2989.000000	100.346447 
2988.000000	100.341122 
2987.000000	100.342206 
2986.000000	100.345314 
2985.000000	100.350317 
2984.000000	100.357979 
2983.000000	100.366111 
2982.000000	100.370875 
2981.000000	100.370629 
2980.000000	100.367090 
2979.000000	100.363258 
2978.000000	100.361200 
2977.000000	100.361133 
2976.000000	100.361414 
2975.000000	100.359611 
2974.000000	100.354487 
2973.000000	100.347015 
2972.000000	100.339233 
2971.000000	100.332556 
2970.000000	100.327602 
2969.000000	100.324938 
2968.000000	100.325178 
2967.000000	100.328548 
2966.000000	100.334781 
2965.000000	100.343113 
2964.000000	100.352122 
2963.000000	100.360184 
2962.000000	100.366729 
2961.000000	100.372525 
2960.000000	100.378246 
2959.000000	100.383458 
2958.000000	100.387787 
2957.000000	100.392205 
2956.000000	100.397718 
2955.000000	100.403061 
2954.000000	100.405434 
2953.000000	100.404361 
2952.000000	100.403753 
2951.000000	100.408766 
2950.000000	100.420419 
2949.000000	100.433904 
2948.000000	100.442634 
2947.000000	100.443867 
2946.000000	100.440282 
2945.000000	100.436391 
2944.000000	100.434284 
2943.000000	100.433109 
2942.000000	100.431463 
2941.000000	100.428722 
2940.000000	100.424175 
2939.000000	100.416633 
2938.000000	100.405856 
2937.000000	100.393514 
2936.000000	100.381927 
2935.000000	100.372361 
2934.000000	100.364931 
2933.000000	100.359159 
2932.000000	100.353689 
2931.000000	100.346203 
2930.000000	100.334879 
2929.000000	100.320054 
2928.000000	100.304111 
2927.000000	100.290073 
2926.000000	100.280491 
2925.000000	100.276539 
2924.000000	100.277275 
2923.000000	100.280422 
2922.000000	100.284736 
2921.000000	100.291036 
2920.000000	100.300142 
2919.000000	100.310729 
2918.000000	100.320359 
2917.000000	100.328002 
2916.000000	100.334340 
2915.000000	100.340181 
2914.000000	100.346051 
2913.000000	100.352959 
2912.000000	100.361730 
2911.000000	100.371178 
2910.000000	100.378399 
2909.000000	100.381548 
2908.000000	100.381544 
2907.000000	100.380519 
2906.000000	100.379288 
2905.000000	100.376843 
2904.000000	100.371937 
2903.000000	100.364754 
2902.000000	100.357986 
2901.000000	100.356555 
2900.000000	100.364738 
2899.000000	100.382354 
2898.000000	100.403551 
2897.000000	100.420596 
2896.000000	100.429619 
2895.000000	100.432909 
2894.000000	100.435700 
2893.000000	100.440934 
2892.000000	100.447259 
2891.000000	100.451625 
2890.000000	100.453081 
2889.000000	100.453522 
2888.000000	100.455164 
2887.000000	100.458337 
2886.000000	100.462225 
2885.000000	100.466836 
2884.000000	100.473135 
2883.000000	100.481368 
2882.000000	100.490289 
2881.000000	100.498409 
2880.000000	100.505510 
2879.000000	100.512736 
2878.000000	100.521468 
2877.000000	100.531977 
2876.000000	100.542574 
2875.000000	100.550074 
2874.000000	100.551988 
2873.000000	100.548954 
2872.000000	100.544783 
2871.000000	100.543667 
2870.000000	100.547284 
2869.000000	100.554353 
2868.000000	100.562393 
2867.000000	100.569634 
2866.000000	100.575851 
2865.000000	100.581990 
2864.000000	100.588759 
2863.000000	100.595013 
2862.000000	100.597740 
2861.000000	100.594543 
2860.000000	100.586588 
2859.000000	100.578507 
2858.000000	100.574624 
2857.000000	100.575378 
2856.000000	100.577939 
2855.000000	100.580254 
2854.000000	100.583556 
2853.000000	100.590415 
2852.000000	100.601253 
2851.000000	100.613958 
2850.000000	100.626735 
2849.000000	100.639924 
2848.000000	100.654467 
2847.000000	100.669622 
2846.000000	100.683172 
2845.000000	100.693547 
2844.000000	100.701084 
2843.000000	100.707502 
2842.000000	100.714744 
2841.000000	100.723936 
2840.000000	100.734566 
2839.000000	100.744480 
2838.000000	100.751172 
2837.000000	100.753436 
2836.000000	100.751964 
2835.000000	100.748990 
2834.000000	100.747632 
2833.000000	100.750634 
2832.000000	100.758353 
2831.000000	100.767932 
2830.000000	100.775442 
2829.000000	100.779277 
2828.000000	100.781070 
2827.000000	100.783294 
2826.000000	100.786671 
2825.000000	100.790082 
2824.000000	100.792340 
2823.000000	100.793598 
2822.000000	100.795247 
2821.000000	100.798599 
2820.000000	100.803432 
2819.000000	100.807959 
2818.000000	100.810674 
2817.000000	100.812023 
2816.000000	100.813572 
2815.000000	100.815643 
2814.000000	100.816841 
2813.000000	100.816196 
2812.000000	100.814666 
2811.000000	100.813783 
2810.000000	100.813667 
2809.000000	100.813455 
2808.000000	100.813157 
2807.000000	100.813790 
2806.000000	100.815616 
2805.000000	100.817430 
2804.000000	100.818178 
2803.000000	100.818517 
2802.000000	100.819944 
2801.000000	100.822615 
2800.000000	100.824853 
2799.000000	100.825030 
2798.000000	100.823473 
2797.000000	100.822084 
2796.000000	100.822268 
2795.000000	100.823704 
2794.000000	100.825171 
2793.000000	100.825981 
2792.000000	100.826185 
2791.000000	100.825846 
2790.000000	100.824994 
2789.000000	100.824365 
2788.000000	100.825270 
2787.000000	100.828122 
2786.000000	100.831569 
2785.000000	100.833773 
2784.000000	100.834374 
2783.000000	100.834516 
2782.000000	100.835089 
2781.000000	100.835740 
2780.000000	100.835842 
2779.000000	100.835679 
2778.000000	100.836147 
2777.000000	100.837684 
2776.000000	100.839932 
2775.000000	100.842041 
2774.000000	100.842847 
2773.000000	100.841226 
2772.000000	100.837125 
2771.000000	100.832312 
2770.000000	100.829503 
2769.000000	100.830531 
2768.000000	100.835431 
2767.000000	100.842767 
2766.000000	100.850109 
2765.000000	100.854652 
2764.000000	100.854826 
2763.000000	100.851905 
2762.000000	100.849179 
2761.000000	100.848967 
2760.000000	100.850937 
2759.000000	100.853474 
2758.000000	100.855591 
2757.000000	100.856875 
2756.000000	100.856817 
2755.000000	100.855507 
2754.000000	100.854323 
2753.000000	100.854528 
2752.000000	100.855459 
2751.000000	100.855411 
2750.000000	100.854123 
2749.000000	100.852968 
2748.000000	100.852527 
2747.000000	100.851443 
2746.000000	100.848311 
2745.000000	100.843722 
2744.000000	100.839741 
2743.000000	100.838032 
2742.000000	100.839008 
2741.000000	100.842108 
2740.000000	100.846221 
2739.000000	100.850270 
2738.000000	100.853918 
2737.000000	100.857510 
2736.000000	100.861066 
2735.000000	100.863700 
2734.000000	100.864317 
2733.000000	100.862619 
2732.000000	100.859325 
2731.000000	100.855820 
2730.000000	100.853630 
2729.000000	100.853626 
2728.000000	100.855408 
2727.000000	100.857793 
2726.000000	100.859944 
2725.000000	100.861629 
2724.000000	100.862690 
2723.000000	100.863140 
2722.000000	100.863805 
2721.000000	100.865763 
2720.000000	100.868717 
2719.000000	100.870776 
2718.000000	100.870337 
2717.000000	100.867652 
2716.000000	100.864429 
2715.000000	100.862726 
2714.000000	100.864225 
2713.000000	100.869129 
2712.000000	100.875014 
2711.000000	100.878132 
2710.000000	100.877145 
2709.000000	100.874812 
2708.000000	100.874785 
2707.000000	100.877232 
2706.000000	100.878827 
2705.000000	100.876802 
2704.000000	100.871883 
2703.000000	100.867150 
2702.000000	100.864908 
2701.000000	100.864907 
2700.000000	100.865146 
2699.000000	100.864127 
2698.000000	100.862280 
2697.000000	100.861064 
2696.000000	100.861051 
2695.000000	100.861771 
2694.000000	100.863258 
2693.000000	100.866130 
2692.000000	100.869461 
2691.000000	100.870288 
2690.000000	100.866960 
2689.000000	100.862187 
2688.000000	100.860870 
2687.000000	100.864936 
2686.000000	100.871670 
2685.000000	100.877057 
2684.000000	100.879429 
2683.000000	100.879705 
2682.000000	100.879516 
2681.000000	100.879791 
2680.000000	100.880338 
2679.000000	100.880088 
2678.000000	100.878167 
2677.000000	100.875070 
2676.000000	100.872445 
2675.000000	100.871518 
2674.000000	100.872127 
2673.000000	100.873379 
2672.000000	100.874710 
2671.000000	100.875958 
2670.000000	100.876653 
2669.000000	100.875749 
2668.000000	100.872504 
2667.000000	100.867879 
2666.000000	100.864718 
2665.000000	100.865707 
2664.000000	100.870845 
2663.000000	100.877556 
2662.000000	100.883493 
2661.000000	100.888280 
2660.000000	100.892029 
2659.000000	100.893522 
2658.000000	100.891444 
2657.000000	100.886945 
2656.000000	100.883384 
2655.000000	100.883241 
2654.000000	100.886016 
2653.000000	100.889064 
2652.000000	100.889748 
2651.000000	100.887208 
2650.000000	100.883189 
2649.000000	100.880948 
2648.000000	100.882229 
2647.000000	100.885500 
2646.000000	100.888202 
2645.000000	100.890196 
2644.000000	100.893228 
2643.000000	100.897279 
2642.000000	100.899814 
2641.000000	100.899489 
2640.000000	100.898544 
2639.000000	100.900069 
2638.000000	100.904181 
2637.000000	100.908278 
2636.000000	100.910050 
2635.000000	100.908943 
2634.000000	100.905554 
2633.000000	100.901232 
2632.000000	100.897925 
2631.000000	100.896972 
2630.000000	100.897891 
2629.000000	100.899171 
2628.000000	100.900069 
2627.000000	100.900803 
2626.000000	100.901397 
2625.000000	100.901583 
2624.000000	100.901897 
2623.000000	100.903673 
2622.000000	100.907358 
2621.000000	100.911486 
2620.000000	100.913825 
2619.000000	100.913174 
2618.000000	100.909855 
2617.000000	100.905050 
2616.000000	100.900290 
2615.000000	100.897283 
2614.000000	100.897290 
2613.000000	100.900090 
2612.000000	100.903814 
2611.000000	100.906416 
2610.000000	100.907438 
2609.000000	100.907972 
2608.000000	100.908931 
2607.000000	100.910129 
2606.000000	100.911479 
2605.000000	100.914067 
2604.000000	100.918669 
2603.000000	100.923472 
2602.000000	100.924968 
2601.000000	100.921857 
2600.000000	100.917076 
2599.000000	100.915057 
2598.000000	100.917530 
2597.000000	100.922612 
2596.000000	100.927067 
2595.000000	100.928317 
2594.000000	100.925064 
2593.000000	100.918044 
2592.000000	100.910724 
2591.000000	100.907660 
2590.000000	100.910750 
2589.000000	100.917512 
2588.000000	100.923748 
2587.000000	100.927260 
2586.000000	100.928010 
2585.000000	100.925689 
2584.000000	100.919419 
2583.000000	100.910383 
2582.000000	100.902743 
2581.000000	100.900186 
2580.000000	100.902136 
2579.000000	100.904654 
2578.000000	100.904798 
2577.000000	100.903075 
2576.000000	100.902013 
2575.000000	100.903614 
2574.000000	100.908101 
2573.000000	100.913703 
2572.000000	100.917251 
2571.000000	100.916165 
2570.000000	100.910698 
2569.000000	100.903932 
2568.000000	100.899328 
2567.000000	100.898477 
2566.000000	100.900816 
2565.000000	100.904512 
2564.000000	100.907614 
2563.000000	100.909307 
2562.000000	100.910339 
2561.000000	100.911803 
2560.000000	100.913808 
2559.000000	100.915858 
2558.000000	100.917592 
2557.000000	100.917858 
2556.000000	100.914362 
2555.000000	100.906837 
2554.000000	100.900045 
2553.000000	100.900296 
2552.000000	100.908048 
2551.000000	100.916858 
2550.000000	100.920918 
2549.000000	100.920769 
2548.000000	100.919772 
2547.000000	100.918141 
2546.000000	100.913982 
2545.000000	100.908471 
2544.000000	100.905901 
2543.000000	100.908479 
2542.000000	100.913902 
2541.000000	100.918591 
2540.000000	100.921143 
2539.000000	100.922057 
2538.000000	100.921730 
2537.000000	100.919510 
2536.000000	100.914061 
2535.000000	100.904938 
2534.000000	100.894697 
2533.000000	100.888572 
2532.000000	100.890127 
2531.000000	100.897305 
2530.000000	100.904356 
2529.000000	100.907747 
2528.000000	100.908838 
2527.000000	100.910999 
2526.000000	100.915940 
2525.000000	100.923104 
2524.000000	100.930816 
2523.000000	100.937147 
2522.000000	100.940746 
2521.000000	100.941655 
2520.000000	100.940780 
2519.000000	100.938526 
2518.000000	100.934769 
2517.000000	100.930156 
2516.000000	100.926248 
2515.000000	100.924076 
2514.000000	100.923464 
2513.000000	100.923786 
2512.000000	100.924162 
2511.000000	100.922685 
2510.000000	100.917101 
2509.000000	100.907622 
2508.000000	100.898373 
2507.000000	100.894521 
2506.000000	100.897408 
2505.000000	100.902872 
2504.000000	100.904881 
2503.000000	100.901005 
2502.000000	100.894333 
2501.000000	100.890208 
2500.000000	100.891635 
2499.000000	100.898068 
2498.000000	100.907558 
2497.000000	100.918338 
2496.000000	100.928237 
2495.000000	100.934419 
2494.000000	100.935046 
2493.000000	100.930638 
2492.000000	100.923212 
2491.000000	100.914897 
2490.000000	100.907757 
2489.000000	100.903461 
2488.000000	100.901904 
2487.000000	100.901253 
2486.000000	100.900731 
2485.000000	100.902449 
2484.000000	100.908856 
2483.000000	100.918842 
2482.000000	100.927836 
2481.000000	100.931718 
2480.000000	100.929764 
2479.000000	100.924257 
2478.000000	100.918400 
2477.000000	100.914329 
2476.000000	100.912015 
2475.000000	100.910189 
2474.000000	100.908891 
2473.000000	100.910340 
2472.000000	100.916282 
2471.000000	100.925191 
2470.000000	100.933218 
2469.000000	100.937246 
2468.000000	100.936102 
2467.000000	100.930104 
2466.000000	100.921539 
2465.000000	100.914925 
2464.000000	100.914165 
2463.000000	100.918666 
2462.000000	100.923650 
2461.000000	100.924841 
2460.000000	100.922035 
2459.000000	100.918269 
2458.000000	100.916879 
2457.000000	100.919428 
2456.000000	100.924922 
2455.000000	100.930259 
2454.000000	100.932309 
2453.000000	100.930228 
2452.000000	100.925613 
2451.000000	100.920763 
2450.000000	100.917384 
2449.000000	100.916337 
2448.000000	100.917267 
2447.000000	100.918653 
2446.000000	100.919550 
2445.000000	100.921293 
2444.000000	100.926094 
2443.000000	100.933656 
2442.000000	100.940348 
2441.000000	100.942272 
2440.000000	100.938536 
2439.000000	100.931604 
2438.000000	100.925469 
2437.000000	100.923374 
2436.000000	100.925695 
2435.000000	100.929129 
2434.000000	100.928895 
2433.000000	100.922810 
2432.000000	100.913272 
2431.000000	100.905016 
2430.000000	100.901238 
2429.000000	100.902047 
2428.000000	100.906069 
2427.000000	100.912534 
2426.000000	100.920961 
2425.000000	100.928866 
2424.000000	100.931396 
2423.000000	100.925285 
2422.000000	100.913413 
2421.000000	100.903598 
2420.000000	100.901630 
2419.000000	100.906509 
2418.000000	100.913212 
2417.000000	100.918353 
2416.000000	100.921469 
2415.000000	100.922407 
2414.000000	100.920592 
2413.000000	100.917069 
2412.000000	100.914719 
2411.000000	100.915207 
2410.000000	100.916990 
2409.000000	100.917362 
2408.000000	100.915799 
2407.000000	100.914537 
2406.000000	100.916147 
2405.000000	100.920868 
2404.000000	100.926057 
2403.000000	100.928163 
2402.000000	100.925528 
2401.000000	100.919372 
2400.000000	100.912177 
2399.000000	100.905760 
2398.000000	100.901162 
2397.000000	100.899390 
2396.000000	100.900998 
2395.000000	100.905176 
2394.000000	100.910172 
2393.000000	100.914627 
2392.000000	100.918089 
2391.000000	100.920696 
2390.000000	100.923110 
2389.000000	100.926267 
2388.000000	100.930239 
2387.000000	100.933577 
2386.000000	100.934680 
2385.000000	100.933665 
2384.000000	100.932199 
2383.000000	100.931769 
2382.000000	100.932872 
2381.000000	100.935400 
2380.000000	100.938358 
2379.000000	100.939394 
2378.000000	100.936217 
2377.000000	100.929302 
2376.000000	100.922664 
2375.000000	100.920648 
2374.000000	100.924470 
2373.000000	100.932105 
2372.000000	100.940905 
2371.000000	100.949803 
2370.000000	100.959281 
2369.000000	100.968678 
2368.000000	100.973637 
2367.000000	100.968767 
2366.000000	100.955013 
2365.000000	100.940740 
2364.000000	100.935176 
2363.000000	100.941390 
2362.000000	100.952349 
2361.000000	100.958464 
2360.000000	100.956433 
2359.000000	100.949344 
2358.000000	100.944276 
2357.000000	100.944058 
2356.000000	100.947286 
2355.000000	100.951423 
2354.000000	100.955473 
2353.000000	100.959622 
2352.000000	100.960638 
2351.000000	100.958677 
2350.000000	100.957978 
2349.000000	100.963195 
2348.000000	100.976770 
2347.000000	100.991031 
2346.000000	100.996307 
2345.000000	100.988885 
2344.000000	100.977564 
2343.000000	100.971634 
2342.000000	100.970568 
2341.000000	100.971730 
2340.000000	100.972032 
2339.000000	100.969841 
2338.000000	100.964295 
2337.000000	100.959292 
2336.000000	100.957800 
2335.000000	100.959653 
2334.000000	100.960204 
2333.000000	100.959538 
2332.000000	100.956602 
2331.000000	100.952054 
2330.000000	100.945142 
2329.000000	100.938381 
2328.000000	100.937694 
2327.000000	100.944729 
2326.000000	100.957228 
2325.000000	100.967264 
2324.000000	100.969343 
2323.000000	100.965053 
2322.000000	100.961341 
2321.000000	100.964921 
2320.000000	100.972636 
2319.000000	100.978175 
2318.000000	100.977119 
2317.000000	100.973079 
2316.000000	100.968898 
2315.000000	100.965672 
2314.000000	100.962655 
2313.000000	100.962177 
2312.000000	100.965490 
2311.000000	100.971759 
2310.000000	100.978913 
2309.000000	100.986345 
2308.000000	100.992186 
2307.000000	100.993037 
2306.000000	100.987379 
2305.000000	100.978735 
2304.000000	100.970760 
2303.000000	100.964156 
2302.000000	100.958328 
2301.000000	100.955667 
2300.000000	100.957401 
2299.000000	100.960134 
2298.000000	100.959672 
2297.000000	100.958408 
2296.000000	100.962690 
2295.000000	100.973097 
2294.000000	100.982795 
2293.000000	100.985788 
2292.000000	100.983595 
2291.000000	100.981371 
2290.000000	100.982251 
2289.000000	100.986190 
2288.000000	100.991949 
2287.000000	100.997276 
2286.000000	100.999711 
2285.000000	100.998619 
2284.000000	100.995795 
2283.000000	100.993205 
2282.000000	100.991287 
2281.000000	100.989581 
2280.000000	100.987686 
2279.000000	100.986271 
2278.000000	100.987844 
2277.000000	100.995261 
2276.000000	101.006925 
2275.000000	101.015966 
2274.000000	101.017014 
2273.000000	101.011944 
2272.000000	101.005509 
2271.000000	100.998049 
2270.000000	100.987940 
2269.000000	100.979126 
2268.000000	100.979191 
2267.000000	100.989709 
2266.000000	101.004124 
2265.000000	101.015722 
2264.000000	101.022736 
2263.000000	101.025464 
2262.000000	101.025192 
2261.000000	101.026663 
2260.000000	101.034980 
2259.000000	101.047407 
2258.000000	101.054021 
2257.000000	101.049985 
2256.000000	101.041893 
2255.000000	101.038652 
2254.000000	101.040245 
2253.000000	101.040181 
2252.000000	101.035697 
2251.000000	101.031084 
2250.000000	101.032148 
2249.000000	101.040458 
2248.000000	101.052222 
2247.000000	101.061499 
2246.000000	101.064942 
2245.000000	101.063803 
2244.000000	101.060790 
2243.000000	101.056526 
2242.000000	101.051520 
2241.000000	101.049192 
2240.000000	101.052245 
2239.000000	101.056943 
2238.000000	101.056199 
2237.000000	101.048319 
2236.000000	101.037879 
2235.000000	101.028296 
2234.000000	101.019542 
2233.000000	101.013786 
2232.000000	101.016536 
2231.000000	101.029604 
2230.000000	101.047887 
2229.000000	101.065505 
2228.000000	101.081025 
2227.000000	101.094782 
2226.000000	101.105376 
2225.000000	101.111072 
2224.000000	101.111253 
2223.000000	101.105458 
2222.000000	101.095020 
2221.000000	101.085985 
2220.000000	101.085020 
2219.000000	101.091533 
2218.000000	101.099384 
2217.000000	101.107119 
2216.000000	101.119810 
2215.000000	101.138595 
2214.000000	101.155263 
2213.000000	101.161081 
2212.000000	101.156176 
2211.000000	101.147280 
2210.000000	101.141206 
2209.000000	101.142857 
2208.000000	101.153304 
2207.000000	101.166055 
2206.000000	101.170485 
2205.000000	101.162848 
2204.000000	101.149667 
2203.000000	101.137821 
2202.000000	101.127321 
2201.000000	101.116843 
2200.000000	101.109229 
2199.000000	101.106332 
2198.000000	101.104415 
2197.000000	101.100897 
2196.000000	101.101357 
2195.000000	101.113542 
2194.000000	101.136866 
2193.000000	101.162321 
2192.000000	101.180406 
2191.000000	101.185890 
2190.000000	101.178778 
2189.000000	101.165792 
2188.000000	101.158092 
2187.000000	101.162781 
2186.000000	101.178084 
2185.000000	101.198210 
2184.000000	101.218430 
2183.000000	101.233135 
2182.000000	101.236112 
2181.000000	101.229229 
2180.000000	101.225300 
2179.000000	101.234363 
2178.000000	101.250313 
2177.000000	101.257395 
2176.000000	101.247932 
2175.000000	101.228548 
2174.000000	101.211095 
2173.000000	101.202781 
2172.000000	101.203266 
2171.000000	101.206531 
2170.000000	101.207090 
2169.000000	101.208331 
2168.000000	101.221861 
2167.000000	101.253255 
2166.000000	101.291040 
2165.000000	101.316632 
2164.000000	101.324964 
2163.000000	101.328200 
2162.000000	101.338205 
2161.000000	101.351885 
2160.000000	101.355608 
2159.000000	101.339654 
2158.000000	101.306570 
2157.000000	101.268674 
2156.000000	101.239010 
2155.000000	101.222792 
2154.000000	101.215471 
2153.000000	101.208370 
2152.000000	101.196892 
2151.000000	101.183993 
2150.000000	101.176774 
2149.000000	101.180236 
2148.000000	101.192653 
2147.000000	101.205364 
2146.000000	101.207938 
2145.000000	101.196029 
2144.000000	101.175195 
2143.000000	101.156416 
2142.000000	101.147649 
2141.000000	101.149091 
2140.000000	101.154982 
2139.000000	101.158631 
2138.000000	101.155636 
2137.000000	101.144076 
2136.000000	101.124602 
2135.000000	101.102152 
2134.000000	101.085948 
2133.000000	101.083422 
2132.000000	101.092066 
2131.000000	101.099773 
2130.000000	101.095832 
2129.000000	101.081119 
2128.000000	101.066079 
2127.000000	101.059115 
2126.000000	101.058915 
2125.000000	101.058363 
2124.000000	101.054299 
2123.000000	101.051805 
2122.000000	101.058155 
2121.000000	101.073006 
2120.000000	101.086494 
2119.000000	101.088985 
2118.000000	101.081613 
2117.000000	101.074547 
2116.000000	101.075174 
2115.000000	101.081455 
2114.000000	101.087560 
2113.000000	101.091514 
2112.000000	101.094415 
2111.000000	101.095674 
2110.000000	101.093541 
2109.000000	101.088953 
2108.000000	101.084870 
2107.000000	101.081958 
2106.000000	101.077720 
2105.000000	101.069720 
2104.000000	101.058121 
2103.000000	101.046263 
2102.000000	101.040353 
2101.000000	101.046030 
2100.000000	101.061959 
2099.000000	101.078708 
2098.000000	101.087066 
2097.000000	101.086526 
2096.000000	101.082686 
2095.000000	101.077937 
2094.000000	101.069181 
2093.000000	101.054533 
2092.000000	101.038448 
2091.000000	101.029251 
2090.000000	101.032652 
2089.000000	101.046333 
2088.000000	101.059955 
2087.000000	101.063529 
2086.000000	101.058003 
2085.000000	101.054898 
2084.000000	101.062798 
2083.000000	101.077498 
2082.000000	101.089162 
2081.000000	101.095243 
2080.000000	101.100659 
2079.000000	101.108297 
2078.000000	101.116789 
2077.000000	101.126967 
2076.000000	101.142605 
2075.000000	101.162704 
2074.000000	101.179408 
2073.000000	101.186003 
2072.000000	101.183338 
2071.000000	101.176609 
2070.000000	101.169471 
2069.000000	101.163166 
2068.000000	101.157858 
2067.000000	101.153059 
2066.000000	101.148779 
2065.000000	101.146677 
2064.000000	101.148069 
2063.000000	101.151499 
2062.000000	101.154984 
2061.000000	101.159457 
2060.000000	101.167140 
2059.000000	101.178022 
2058.000000	101.190724 
2057.000000	101.204130 
2056.000000	101.214690 
2055.000000	101.216153 
2054.000000	101.208435 
2053.000000	101.203547 
2052.000000	101.214686 
2051.000000	101.240099 
2050.000000	101.264013 
2049.000000	101.273352 
2048.000000	101.268627 
2047.000000	101.257851 
2046.000000	101.247714 
2045.000000	101.243433 
2044.000000	101.248424 
2043.000000	101.259776 
2042.000000	101.270063 
2041.000000	101.276626 
2040.000000	101.284274 
2039.000000	101.297177 
2038.000000	101.313723 
2037.000000	101.329993 
2036.000000	101.342195 
2035.000000	101.345368 
2034.000000	101.336885 
2033.000000	101.322382 
2032.000000	101.310814 
2031.000000	101.303268 
2030.000000	101.294826 
2029.000000	101.285905 
2028.000000	101.282180 
2027.000000	101.283436 
2026.000000	101.284243 
2025.000000	101.286108 
2024.000000	101.296732 
2023.000000	101.313820 
2022.000000	101.321321 
2021.000000	101.309095 
2020.000000	101.288084 
2019.000000	101.278474 
2018.000000	101.288202 
2017.000000	101.307680 
2016.000000	101.320944 
2015.000000	101.317931 
2014.000000	101.299884 
2013.000000	101.277952 
2012.000000	101.264124 
2011.000000	101.260740 
2010.000000	101.261935 
2009.000000	101.264739 
2008.000000	101.272577 
2007.000000	101.286145 
2006.000000	101.298464 
2005.000000	101.302333 
2004.000000	101.297606 
2003.000000	101.288603 
2002.000000	101.278290 
2001.000000	101.267930 
2000.000000	101.256798 
1999.000000	101.242495 
1998.000000	101.225834 
1997.000000	101.214041 
1996.000000	101.214911 
1995.000000	101.228684 
1994.000000	101.249366 
1993.000000	101.271224 
1992.000000	101.289510 
1991.000000	101.297741 
1990.000000	101.292174 
1989.000000	101.279475 
1988.000000	101.273145 
1987.000000	101.279809 
1986.000000	101.292961 
1985.000000	101.301913 
1984.000000	101.303412 
1983.000000	101.303624 
1982.000000	101.310918 
1981.000000	101.326904 
1980.000000	101.341000 
1979.000000	101.337977 
1978.000000	101.315536 
1977.000000	101.289662 
1976.000000	101.275744 
1975.000000	101.271017 
1974.000000	101.266025 
1973.000000	101.264949 
1972.000000	101.280259 
1971.000000	101.309800 
1970.000000	101.332925 
1969.000000	101.332121 
1968.000000	101.310748 
1967.000000	101.286579 
1966.000000	101.273248 
1965.000000	101.271273 
1964.000000	101.272502 
1963.000000	101.269118 
1962.000000	101.259905 
1961.000000	101.249201 
1960.000000	101.239636 
1959.000000	101.229397 
1958.000000	101.218745 
1957.000000	101.213323 
1956.000000	101.215875 
1955.000000	101.219513 
1954.000000	101.216106 
1953.000000	101.206830 
1952.000000	101.198609 
1951.000000	101.192502 
1950.000000	101.183903 
1949.000000	101.173352 
1948.000000	101.166437 
1947.000000	101.162579 
1946.000000	101.153140 
1945.000000	101.132799 
1944.000000	101.107330 
1943.000000	101.088435 
1942.000000	101.084414 
1941.000000	101.094961 
1940.000000	101.110981 
1939.000000	101.121232 
1938.000000	101.123074 
1937.000000	101.125105 
1936.000000	101.135014 
1935.000000	101.147219 
1934.000000	101.149928 
1933.000000	101.142068 
1932.000000	101.135864 
1931.000000	101.139640 
1930.000000	101.147070 
1929.000000	101.148348 
1928.000000	101.141176 
1927.000000	101.130475 
1926.000000	101.120887 
1925.000000	101.115565 
1924.000000	101.117153 
1923.000000	101.123655 
1922.000000	101.129154 
1921.000000	101.130545 
1920.000000	101.128475 
1919.000000	101.123105 
1918.000000	101.112864 
1917.000000	101.100567 
1916.000000	101.092667 
1915.000000	101.089898 
1914.000000	101.088506 
1913.000000	101.087554 
1912.000000	101.088897 
1911.000000	101.090338 
1910.000000	101.086181 
1909.000000	101.077241 
1908.000000	101.071148 
1907.000000	101.073314 
1906.000000	101.080930 
1905.000000	101.089054 
1904.000000	101.096030 
1903.000000	101.099272 
1902.000000	101.095756 
1901.000000	101.088308 
1900.000000	101.082761 
1899.000000	101.080471 
1898.000000	101.078180 
1897.000000	101.075861 
1896.000000	101.077774 
1895.000000	101.082657 
1894.000000	101.082721 
1893.000000	101.075712 
1892.000000	101.069116 
1891.000000	101.069933 
1890.000000	101.075733 
1889.000000	101.079028 
1888.000000	101.077140 
1887.000000	101.071890 
1886.000000	101.065758 
1885.000000	101.062188 
1884.000000	101.064223 
1883.000000	101.069887 
1882.000000	101.073991 
1881.000000	101.075050 
1880.000000	101.074875 
1879.000000	101.074625 
1878.000000	101.075251 
1877.000000	101.079245 
1876.000000	101.087917 
1875.000000	101.095659 
1874.000000	101.092906 
1873.000000	101.078196 
1872.000000	101.060980 
1871.000000	101.051155 
1870.000000	101.050725 
1869.000000	101.055375 
1868.000000	101.061268 
1867.000000	101.066167 
1866.000000	101.067386 
1865.000000	101.064659 
1864.000000	101.059995 
1863.000000	101.053021 
1862.000000	101.042219 
1861.000000	101.031888 
1860.000000	101.030712 
1859.000000	101.041120 
1858.000000	101.056039 
1857.000000	101.067759 
1856.000000	101.073954 
1855.000000	101.074883 
1854.000000	101.070469 
1853.000000	101.064249 
1852.000000	101.059321 
1851.000000	101.055202 
1850.000000	101.052436 
1849.000000	101.055098 
1848.000000	101.065416 
1847.000000	101.077237 
1846.000000	101.082258 
1845.000000	101.080138 
1844.000000	101.077197 
1843.000000	101.077737 
1842.000000	101.079632 
1841.000000	101.079466 
1840.000000	101.076947 
1839.000000	101.073447 
1838.000000	101.067935 
1837.000000	101.060387 
1836.000000	101.054112 
1835.000000	101.050648 
1834.000000	101.048343 
1833.000000	101.045963 
1832.000000	101.043126 
1831.000000	101.041756 
1830.000000	101.043758 
1829.000000	101.048919 
1828.000000	101.056199 
1827.000000	101.062068 
1826.000000	101.064066 
1825.000000	101.063387 
1824.000000	101.063356 
1823.000000	101.063855 
1822.000000	101.059720 
1821.000000	101.049177 
1820.000000	101.038296 
1819.000000	101.034415 
1818.000000	101.036023 
1817.000000	101.037111 
1816.000000	101.037359 
1815.000000	101.038659 
1814.000000	101.040430 
1813.000000	101.041107 
1812.000000	101.043420 
1811.000000	101.051152 
1810.000000	101.060442 
1809.000000	101.065783 
1808.000000	101.067498 
1807.000000	101.066375 
1806.000000	101.060250 
1805.000000	101.049903 
1804.000000	101.042021 
1803.000000	101.039317 
1802.000000	101.037937 
1801.000000	101.033492 
1800.000000	101.029110 
1799.000000	101.030193 
1798.000000	101.035185 
1797.000000	101.041077 
1796.000000	101.048226 
1795.000000	101.055134 
1794.000000	101.058424 
1793.000000	101.056686 
1792.000000	101.053846 
1791.000000	101.054606 
1790.000000	101.056379 
1789.000000	101.055175 
1788.000000	101.053239 
1787.000000	101.054233 
1786.000000	101.056887 
1785.000000	101.058242 
1784.000000	101.059557 
1783.000000	101.060054 
1782.000000	101.058693 
1781.000000	101.055097 
1780.000000	101.050275 
1779.000000	101.046302 
1778.000000	101.042809 
1777.000000	101.040608 
1776.000000	101.040481 
1775.000000	101.041521 
1774.000000	101.044250 
1773.000000	101.049084 
1772.000000	101.052350 
1771.000000	101.055157 
1770.000000	101.058442 
1769.000000	101.056874 
1768.000000	101.049634 
1767.000000	101.042078 
1766.000000	101.038770 
1765.000000	101.037392 
1764.000000	101.035361 
1763.000000	101.034130 
1762.000000	101.035179 
1761.000000	101.035557 
1760.000000	101.035062 
1759.000000	101.034732 
1758.000000	101.035182 
1757.000000	101.037814 
1756.000000	101.041064 
1755.000000	101.044714 
1754.000000	101.047475 
1753.000000	101.046094 
1752.000000	101.038409 
1751.000000	101.027058 
1750.000000	101.016165 
1749.000000	101.007490 
1748.000000	101.001173 
1747.000000	100.998078 
1746.000000	101.000671 
1745.000000	101.005125 
1744.000000	101.005875 
1743.000000	101.004105 
1742.000000	101.003607 
1741.000000	101.003359 
1740.000000	101.001746 
1739.000000	101.001025 
1738.000000	101.004959 
1737.000000	101.009662 
1736.000000	101.010837 
1735.000000	101.012527 
1734.000000	101.012550 
1733.000000	101.011288 
1732.000000	101.013816 
1731.000000	101.013678 
1730.000000	101.006999 
1729.000000	100.999507 
1728.000000	100.996030 
1727.000000	100.995566 
1726.000000	100.996840 
1725.000000	100.998451 
1724.000000	101.000753 
1723.000000	101.003722 
1722.000000	101.003946 
1721.000000	101.000584 
1720.000000	100.999145 
1719.000000	101.008825 
1718.000000	101.023854 
1717.000000	101.027197 
1716.000000	101.024166 
1715.000000	101.024461 
1714.000000	101.022504 
1713.000000	101.015876 
1712.000000	101.011165 
1711.000000	101.010102 
1710.000000	101.008021 
1709.000000	101.004563 
1708.000000	101.004369 
1707.000000	101.010457 
1706.000000	101.017652 
1705.000000	101.020454 
1704.000000	101.023482 
1703.000000	101.025937 
1702.000000	101.022289 
1701.000000	101.014968 
1700.000000	101.008205 
1699.000000	101.015406 
1698.000000	101.029472 
1697.000000	101.034313 
1696.000000	101.032124 
1695.000000	101.029391 
1694.000000	101.030433 
1693.000000	101.031923 
1692.000000	101.031339 
1691.000000	101.031272 
1690.000000	101.032810 
1689.000000	101.035825 
1688.000000	101.037499 
1687.000000	101.036284 
1686.000000	101.036382 
1685.000000	101.045364 
1684.000000	101.052876 
1683.000000	101.051134 
1682.000000	101.049112 
1681.000000	101.047266 
1680.000000	101.042755 
1679.000000	101.037546 
1678.000000	101.034434 
1677.000000	101.032965 
1676.000000	101.030441 
1675.000000	101.024704 
1674.000000	101.024258 
1673.000000	101.031638 
1672.000000	101.038519 
1671.000000	101.040850 
1670.000000	101.040163 
1669.000000	101.039042 
1668.000000	101.038529 
1667.000000	101.038036 
1666.000000	101.037064 
1665.000000	101.034944 
1664.000000	101.033741 
1663.000000	101.032595 
1662.000000	101.030645 
1661.000000	101.031044 
1660.000000	101.031401 
1659.000000	101.029513 
1658.000000	101.029347 
1657.000000	101.032778 
1656.000000	101.031879 
1655.000000	101.028207 
1654.000000	101.038887 
1653.000000	101.044629 
1652.000000	101.040540 
1651.000000	101.048211 
1650.000000	101.056276 
1649.000000	101.055329 
1648.000000	101.053258 
1647.000000	101.052831 
1646.000000	101.048738 
1645.000000	101.044842 
1644.000000	101.046796 
1643.000000	101.050376 
1642.000000	101.050769 
1641.000000	101.048041 
1640.000000	101.043122 
1639.000000	101.037997 
1638.000000	101.034114 
1637.000000	101.037378 
1636.000000	101.046400 
1635.000000	101.050060 
1634.000000	101.049500 
1633.000000	101.048109 
1632.000000	101.044777 
1631.000000	101.038479 
1630.000000	101.031262 
1629.000000	101.027562 
1628.000000	101.029264 
1627.000000	101.032015 
1626.000000	101.032560 
1625.000000	101.032168 
1624.000000	101.033367 
1623.000000	101.034590 
1622.000000	101.035996 
1621.000000	101.041238 
1620.000000	101.046567 
1619.000000	101.047080 
1618.000000	101.045646 
1617.000000	101.048301 
1616.000000	101.053044 
1615.000000	101.056209 
1614.000000	101.057375 
1613.000000	101.058037 
1612.000000	101.059945 
1611.000000	101.060821 
1610.000000	101.059139 
1609.000000	101.057142 
1608.000000	101.055578 
1607.000000	101.051563 
1606.000000	101.046643 
1605.000000	101.045109 
1604.000000	101.045685 
1603.000000	101.045782 
1602.000000	101.046689 
1601.000000	101.050640 
1600.000000	101.055826 
1599.000000	101.058798 
1598.000000	101.059889 
1597.000000	101.061111 
1596.000000	101.062144 
1595.000000	101.060999 
1594.000000	101.058349 
1593.000000	101.057588 
1592.000000	101.059913 
1591.000000	101.063088 
1590.000000	101.065807 
1589.000000	101.069326 
1588.000000	101.073505 
1587.000000	101.076049 
1586.000000	101.076066 
1585.000000	101.077068 
1584.000000	101.078456 
1583.000000	101.076009 
1582.000000	101.071262 
1581.000000	101.069746 
1580.000000	101.070938 
1579.000000	101.069910 
1578.000000	101.067660 
1577.000000	101.069205 
1576.000000	101.071276 
1575.000000	101.069676 
1574.000000	101.070708 
1573.000000	101.074063 
1572.000000	101.073704 
1571.000000	101.069979 
1570.000000	101.067420 
1569.000000	101.070304 
1568.000000	101.075113 
1567.000000	101.075793 
1566.000000	101.071941 
1565.000000	101.068890 
1564.000000	101.066143 
1563.000000	101.061635 
1562.000000	101.052860 
1561.000000	101.048192 
1560.000000	101.059430 
1559.000000	101.070336 
1558.000000	101.064857 
1557.000000	101.071049 
1556.000000	101.083769 
1555.000000	101.086498 
1554.000000	101.083479 
1553.000000	101.080776 
1552.000000	101.077804 
1551.000000	101.073545 
1550.000000	101.070493 
1549.000000	101.072471 
1548.000000	101.078706 
1547.000000	101.082078 
1546.000000	101.078300 
1545.000000	101.070196 
1544.000000	101.063858 
1543.000000	101.065959 
1542.000000	101.077854 
1541.000000	101.094224 
1540.000000	101.101315 
1539.000000	101.092823 
1538.000000	101.086868 
1537.000000	101.089501 
1536.000000	101.092166 
1535.000000	101.090499 
1534.000000	101.086626 
1533.000000	101.081206 
1532.000000	101.078000 
1531.000000	101.079816 
1530.000000	101.080793 
1529.000000	101.077694 
1528.000000	101.074404 
1527.000000	101.074742 
1526.000000	101.079584 
1525.000000	101.087751 
1524.000000	101.096918 
1523.000000	101.106375 
1522.000000	101.113752 
1521.000000	101.113013 
1520.000000	101.107099 
1519.000000	101.100679 
1518.000000	101.092032 
1517.000000	101.081876 
1516.000000	101.075985 
1515.000000	101.077341 
1514.000000	101.081045 
1513.000000	101.080226 
1512.000000	101.077123 
1511.000000	101.078299 
1510.000000	101.082044 
1509.000000	101.082246 
1508.000000	101.083497 
1507.000000	101.091479 
1506.000000	101.091725 
1505.000000	101.088692 
1504.000000	101.091936 
1503.000000	101.098579 
1502.000000	101.105089 
1501.000000	101.108388 
1500.000000	101.107141 
1499.000000	101.104274 
1498.000000	101.101867 
1497.000000	101.093102 
1496.000000	101.077629 
1495.000000	101.066333 
1494.000000	101.063045 
1493.000000	101.061461 
1492.000000	101.058442 
1491.000000	101.056458 
1490.000000	101.055257 
1489.000000	101.051430 
1488.000000	101.048379 
1487.000000	101.049094 
1486.000000	101.048335 
1485.000000	101.046057 
1484.000000	101.044297 
1483.000000	101.043224 
1482.000000	101.042832 
1481.000000	101.043598 
1480.000000	101.047093 
1479.000000	101.051796 
1478.000000	101.053808 
1477.000000	101.051384 
1476.000000	101.049239 
1475.000000	101.049958 
1474.000000	101.050977 
1473.000000	101.047647 
1472.000000	101.038994 
1471.000000	101.031726 
1470.000000	101.027836 
1469.000000	101.023228 
1468.000000	101.017994 
1467.000000	101.014858 
1466.000000	101.014638 
1465.000000	101.015826 
1464.000000	101.016219 
1463.000000	101.018574 
1462.000000	101.022728 
1461.000000	101.025295 
1460.000000	101.024285 
1459.000000	101.021880 
1458.000000	101.019066 
1457.000000	101.006717 
1456.000000	100.987953 
1455.000000	100.980566 
1454.000000	100.984422 
1453.000000	100.988756 
1452.000000	100.990076 
1451.000000	100.991078 
1450.000000	100.992724 
1449.000000	100.990637 
1448.000000	100.985653 
1447.000000	100.983633 
1446.000000	100.989188 
1445.000000	100.998386 
1444.000000	101.003826 
1443.000000	101.006189 
1442.000000	101.008919 
1441.000000	101.011835 
1440.000000	101.012188 
1439.000000	101.011591 
1438.000000	101.012762 
1437.000000	101.011970 
1436.000000	101.005538 
1435.000000	101.002090 
1434.000000	101.005658 
1433.000000	101.008485 
1432.000000	101.005946 
1431.000000	101.001950 
1430.000000	101.001795 
1429.000000	101.003319 
1428.000000	101.003718 
1427.000000	101.002676 
1426.000000	101.001604 
1425.000000	101.000152 
1424.000000	100.995580 
1423.000000	100.990981 
1422.000000	100.988503 
1421.000000	100.982417 
1420.000000	100.966462 
1419.000000	100.947617 
1418.000000	100.939834 
1417.000000	100.941224 
1416.000000	100.939045 
1415.000000	100.929940 
1414.000000	100.919524 
1413.000000	100.910455 
1412.000000	100.900646 
1411.000000	100.891201 
1410.000000	100.885257 
1409.000000	100.880391 
1408.000000	100.874242 
1407.000000	100.868975 
1406.000000	100.868328 
1405.000000	100.871283 
1404.000000	100.873300 
1403.000000	100.876928 
1402.000000	100.887061 
1401.000000	100.902185 
1400.000000	100.916249 
1399.000000	100.924944 
1398.000000	100.926634 
1397.000000	100.917010 
1396.000000	100.892744 
1395.000000	100.862722 
1394.000000	100.848681 
1393.000000	100.861740 
1392.000000	100.890255 
1391.000000	100.917648 
1390.000000	100.935741 
1389.000000	100.942912 
1388.000000	100.940505 
1387.000000	100.932498 
1386.000000	100.924776 
1385.000000	100.920013 
1384.000000	100.915672 
1383.000000	100.910632 
1382.000000	100.906695 
1381.000000	100.905447 
1380.000000	100.907263 
1379.000000	100.912103 
1378.000000	100.919889 
1377.000000	100.928838 
1376.000000	100.935809 
1375.000000	100.939375 
1374.000000	100.943124 
1373.000000	100.951674 
1372.000000	100.964726 
1371.000000	100.976847 
1370.000000	100.984278 
1369.000000	100.987961 
1368.000000	100.990118 
1367.000000	100.993000 
1366.000000	100.997990 
1365.000000	101.004679 
1364.000000	101.011754 
1363.000000	101.018274 
1362.000000	101.023903 
1361.000000	101.028564 
1360.000000	101.032007 
1359.000000	101.034628 
1358.000000	101.038716 
1357.000000	101.046152 
1356.000000	101.055233 
1355.000000	101.062075 
1354.000000	101.065127 
1353.000000	101.065806 
1352.000000	101.066912 
1351.000000	101.068767 
1350.000000	101.070385 
1349.000000	101.071897 
1348.000000	101.073216 
1347.000000	101.073936 
1346.000000	101.074387 
1345.000000	101.075768 
1344.000000	101.078105 
1343.000000	101.079547 
1342.000000	101.078813 
1341.000000	101.077612 
1340.000000	101.078945 
1339.000000	101.083183 
1338.000000	101.087684 
1337.000000	101.090134 
1336.000000	101.090923 
1335.000000	101.091921 
1334.000000	101.093645 
1333.000000	101.094551 
1332.000000	101.093339 
1331.000000	101.090842 
1330.000000	101.089300 
1329.000000	101.089754 
1328.000000	101.091245 
1327.000000	101.092074 
1326.000000	101.091809 
1325.000000	101.091261 
1324.000000	101.090878 
1323.000000	101.090883 
1322.000000	101.091663 
1321.000000	101.093312 
1320.000000	101.095484 
1319.000000	101.098213 
1318.000000	101.101631 
1317.000000	101.104632 
1316.000000	101.105243 
1315.000000	101.102888 
1314.000000	101.099093 
1313.000000	101.095422 
1312.000000	101.092261 
1311.000000	101.089997 
1310.000000	101.089693 
1309.000000	101.091288 
1308.000000	101.092942 
1307.000000	101.092863 
1306.000000	101.091493 
1305.000000	101.090705 
1304.000000	101.091337 
1303.000000	101.092940 
1302.000000	101.094681 
1301.000000	101.095679 
1300.000000	101.095301 
1299.000000	101.094276 
1298.000000	101.094496 
1297.000000	101.096836 
1296.000000	101.099744 
1295.000000	101.100746 
1294.000000	101.098853 
1293.000000	101.094797 
1292.000000	101.089970 
1291.000000	101.086000 
1290.000000	101.084428 
1289.000000	101.085604 
1288.000000	101.088049 
1287.000000	101.089525 
1286.000000	101.088689 
1285.000000	101.085577 
1284.000000	101.081006 
1283.000000	101.075901 
1282.000000	101.070661 
1281.000000	101.065348 
1280.000000	101.060607 
1279.000000	101.057812 
1278.000000	101.057425 
1277.000000	101.057761 
1276.000000	101.056636 
1275.000000	101.053745 
1274.000000	101.050183 
1273.000000	101.046062 
1272.000000	101.040593 
1271.000000	101.034492 
1270.000000	101.030029 
1269.000000	101.028003 
1268.000000	101.026335 
1267.000000	101.022600 
1266.000000	101.016401 
1265.000000	101.008637 
1264.000000	101.000271 
1263.000000	100.992576 
1262.000000	100.986644 
1261.000000	100.981952 
1260.000000	100.976862 
1259.000000	100.971270 
1258.000000	100.966917 
1257.000000	100.964339 
1256.000000	100.961947 
1255.000000	100.959236 
1254.000000	100.958426 
1253.000000	100.961118 
1252.000000	100.965284 
1251.000000	100.967790 
1250.000000	100.968621 
1249.000000	100.970437 
1248.000000	100.974738 
1247.000000	100.980368 
1246.000000	100.984717 
1245.000000	100.984411 
1244.000000	100.976567 
1243.000000	100.962598 
1242.000000	100.950263 
1241.000000	100.948304 
1240.000000	100.957809 
1239.000000	100.970719 
1238.000000	100.977851 
1237.000000	100.977041 
1236.000000	100.972659 
1235.000000	100.969171 
1234.000000	100.967236 
1233.000000	100.965172 
1232.000000	100.961699 
1231.000000	100.956473 
1230.000000	100.949548 
1229.000000	100.941918 
1228.000000	100.936207 
1227.000000	100.935024 
1226.000000	100.937957 
1225.000000	100.941469 
1224.000000	100.942719 
1223.000000	100.942563 
1222.000000	100.943744 
1221.000000	100.947089 
1220.000000	100.951002 
1219.000000	100.954040 
1218.000000	100.956094 
1217.000000	100.957025 
1216.000000	100.956103 
1215.000000	100.953398 
1214.000000	100.950052 
1213.000000	100.946296 
1212.000000	100.940748 
1211.000000	100.932968 
1210.000000	100.925445 
1209.000000	100.921469 
1208.000000	100.921435 
1207.000000	100.922347 
1206.000000	100.920884 
1205.000000	100.916358 
1204.000000	100.910794 
1203.000000	100.906687 
1202.000000	100.904781 
1201.000000	100.903783 
1200.000000	100.901989 
1199.000000	100.898855 
1198.000000	100.894800 
1197.000000	100.889823 
1196.000000	100.883115 
1195.000000	100.874161 
1194.000000	100.863781 
1193.000000	100.853871 
1192.000000	100.846029 
1191.000000	100.840107 
1190.000000	100.834067 
1189.000000	100.826075 
1188.000000	100.817134 
1187.000000	100.810698 
1186.000000	100.808840 
1185.000000	100.809673 
1184.000000	100.809597 
1183.000000	100.807183 
1182.000000	100.803603 
1181.000000	100.800079 
1180.000000	100.796536 
1179.000000	100.792491 
1178.000000	100.787883 
1177.000000	100.782960 
1176.000000	100.778268 
1175.000000	100.774229 
1174.000000	100.769653 
1173.000000	100.761546 
1172.000000	100.748210 
1171.000000	100.732336 
1170.000000	100.719097 
1169.000000	100.710842 
1168.000000	100.705121 
1167.000000	100.698192 
1166.000000	100.689162 
1165.000000	100.680574 
1164.000000	100.676290 
1163.000000	100.678965 
1162.000000	100.687979 
1161.000000	100.699348 
1160.000000	100.708683 
1159.000000	100.714466 
1158.000000	100.717552 
1157.000000	100.717674 
1156.000000	100.712508 
1155.000000	100.701229 
1154.000000	100.687552 
1153.000000	100.677488 
1152.000000	100.674114 
1151.000000	100.675086 
1150.000000	100.675066 
1149.000000	100.670451 
1148.000000	100.662062 
1147.000000	100.653475 
1146.000000	100.646671 
1145.000000	100.639753 
1144.000000	100.629476 
1143.000000	100.615495 
1142.000000	100.601185 
1141.000000	100.590494 
1140.000000	100.584922 
1139.000000	100.583070 
1138.000000	100.581611 
1137.000000	100.576858 
1136.000000	100.567110 
1135.000000	100.554136 
1134.000000	100.541225 
1133.000000	100.529328 
1132.000000	100.516505 
1131.000000	100.501885 
1130.000000	100.488600 
1129.000000	100.480836 
1128.000000	100.478085 
1127.000000	100.473906 
1126.000000	100.461454 
1125.000000	100.440121 
1124.000000	100.416085 
1123.000000	100.396354 
1122.000000	100.382839 
1121.000000	100.372271 
1120.000000	100.360681 
1119.000000	100.346580 
1118.000000	100.330535 
1117.000000	100.313805 
1116.000000	100.297920 
1115.000000	100.283802 
1114.000000	100.270453 
1113.000000	100.255923 
1112.000000	100.240215 
1111.000000	100.225232 
1110.000000	100.210999 
1109.000000	100.194170 
1108.000000	100.172559 
1107.000000	100.149526 
1106.000000	100.130727 
1105.000000	100.117233 
1104.000000	100.104618 
1103.000000	100.088659 
1102.000000	100.069920 
1101.000000	100.052134 
1100.000000	100.038619 
1099.000000	100.030525 
1098.000000	100.026511 
1097.000000	100.023587 
1096.000000	100.018661 
1095.000000	100.009981 
1094.000000	99.996876  
1093.000000	99.978635  
1092.000000	99.954558  
1091.000000	99.925077  
1090.000000	99.892179  
1089.000000	99.858868  
1088.000000	99.828534  
1087.000000	99.803942  
1086.000000	99.785586  
1085.000000	99.771389  
1084.000000	99.758717  
1083.000000	99.746049  
1082.000000	99.732218  
1081.000000	99.715452  
1080.000000	99.694757  
1079.000000	99.671784  
1078.000000	99.650161  
1077.000000	99.633255  
1076.000000	99.623236  
1075.000000	99.621337  
1074.000000	99.627503  
1073.000000	99.639514  
1072.000000	99.652304  
1071.000000	99.657600  
1070.000000	99.645858  
1069.000000	99.612786  
1068.000000	99.566431  
1067.000000	99.525710  
1066.000000	99.507622  
1065.000000	99.514306  
1064.000000	99.533359  
1063.000000	99.549359  
1062.000000	99.553254  
1061.000000	99.542887  
1060.000000	99.520012  
1059.000000	99.490000  
1058.000000	99.461907  
1057.000000	99.444175  
1056.000000	99.438547  
1055.000000	99.439218  
1054.000000	99.438747  
1053.000000	99.434391  
1052.000000	99.428407  
1051.000000	99.423359  
1050.000000	99.418857  
1049.000000	99.412852  
1048.000000	99.404417  
1047.000000	99.394887  
1046.000000	99.387533  
1045.000000	99.385712  
1044.000000	99.389368  
1043.000000	99.393500  
1042.000000	99.392864  
1041.000000	99.388896  
1040.000000	99.388987  
1039.000000	99.397721  
1038.000000	99.412024  
1037.000000	99.426873  
1036.000000	99.442162  
1035.000000	99.460604  
1034.000000	99.481762  
1033.000000	99.501929  
1032.000000	99.517608  
1031.000000	99.525679  
1030.000000	99.523399  
1029.000000	99.513765  
1028.000000	99.508952  
1027.000000	99.521399  
1026.000000	99.549989  
1025.000000	99.580022  
1024.000000	99.598225  
1023.000000	99.603722  
1022.000000	99.603901  
1021.000000	99.604879  
1020.000000	99.608590  
1019.000000	99.614950  
1018.000000	99.622824  
1017.000000	99.630541  
1016.000000	99.638026  
1015.000000	99.647246  
1014.000000	99.659045  
1013.000000	99.671032  
1012.000000	99.679836  
1011.000000	99.684091  
1010.000000	99.684707  
1009.000000	99.684270  
1008.000000	99.686903  
1007.000000	99.696135  
1006.000000	99.711169  
1005.000000	99.727052  
1004.000000	99.739959  
1003.000000	99.750842  
1002.000000	99.762960  
1001.000000	99.777562  
1000.000000	99.793072  
999.000000	 99.806790  
998.000000	 99.816438  
997.000000	 99.821971  
996.000000	 99.827110  
995.000000	 99.837217  
994.000000	 99.853857  
993.000000	 99.872627  
992.000000	 99.887722  
991.000000	 99.897355  
990.000000	 99.903536  
989.000000	 99.908109  
988.000000	 99.911237  
987.000000	 99.913468  
986.000000	 99.917424  
985.000000	 99.926595  
984.000000	 99.942450  
983.000000	 99.962576  
982.000000	 99.981930  
981.000000	 99.996884  
980.000000	 100.008216 
979.000000	 100.019809 
978.000000	 100.034963 
977.000000	 100.054564 
976.000000	 100.077474 
975.000000	 100.100730 
974.000000	 100.120311 
973.000000	 100.134495 
972.000000	 100.146630 
971.000000	 100.162319 
970.000000	 100.183350 
969.000000	 100.206221 
968.000000	 100.226752 
967.000000	 100.243907 
966.000000	 100.258825 
965.000000	 100.272709 
964.000000	 100.286786 
963.000000	 100.302317 
962.000000	 100.319285 
961.000000	 100.336339 
960.000000	 100.352601 
959.000000	 100.368051 
958.000000	 100.381905 
957.000000	 100.392775 
956.000000	 100.401157 
955.000000	 100.409810 
954.000000	 100.420826 
953.000000	 100.434005 
952.000000	 100.448434 
951.000000	 100.463103 
950.000000	 100.475268 
949.000000	 100.481367 
948.000000	 100.481407 
947.000000	 100.479886 
946.000000	 100.480170 
945.000000	 100.480329 
944.000000	 100.477323 
943.000000	 100.473378 
942.000000	 100.474588 
941.000000	 100.483447 
940.000000	 100.495466 
939.000000	 100.503487 
938.000000	 100.503864 
937.000000	 100.498858 
936.000000	 100.494809 
935.000000	 100.497926 
934.000000	 100.509963 
933.000000	 100.527159 
932.000000	 100.543823 
931.000000	 100.556841 
930.000000	 100.566436 
929.000000	 100.573445 
928.000000	 100.577144 
927.000000	 100.576048 
926.000000	 100.570501 
925.000000	 100.564276 
924.000000	 100.563037 
923.000000	 100.570019 
922.000000	 100.582803 
921.000000	 100.595127 
920.000000	 100.601908 
919.000000	 100.601758 
918.000000	 100.595689 
917.000000	 100.585922 
916.000000	 100.576206 
915.000000	 100.570404 
914.000000	 100.568937 
913.000000	 100.568336 
912.000000	 100.565929 
911.000000	 100.563718 
910.000000	 100.566356 
909.000000	 100.576454 
908.000000	 100.592732 
907.000000	 100.610977 
906.000000	 100.625542 
905.000000	 100.631966 
904.000000	 100.630517 
903.000000	 100.626793 
902.000000	 100.627532 
901.000000	 100.635719 
900.000000	 100.649669 
899.000000	 100.665022 
898.000000	 100.676927 
897.000000	 100.682453 
896.000000	 100.682442 
895.000000	 100.680393 
894.000000	 100.679036 
893.000000	 100.679222 
892.000000	 100.682080 
891.000000	 100.689596 
890.000000	 100.701882 
889.000000	 100.716166 
888.000000	 100.729869 
887.000000	 100.742706 
886.000000	 100.754824 
885.000000	 100.765495 
884.000000	 100.775002 
883.000000	 100.784897 
882.000000	 100.794342 
881.000000	 100.799225 
880.000000	 100.797869 
879.000000	 100.795132 
878.000000	 100.797419 
877.000000	 100.805410 
876.000000	 100.814853 
875.000000	 100.822429 
874.000000	 100.827313 
873.000000	 100.829141 
872.000000	 100.828649 
871.000000	 100.829161 
870.000000	 100.833634 
869.000000	 100.841257 
868.000000	 100.850199 
867.000000	 100.861715 
866.000000	 100.877291 
865.000000	 100.893435 
864.000000	 100.904711 
863.000000	 100.911630 
862.000000	 100.919840 
861.000000	 100.930362 
860.000000	 100.936389 
859.000000	 100.932771 
858.000000	 100.924222 
857.000000	 100.920298 
856.000000	 100.925382 
855.000000	 100.937226 
854.000000	 100.952106 
853.000000	 100.966514 
852.000000	 100.975554 
851.000000	 100.975655 
850.000000	 100.970075 
849.000000	 100.967388 
848.000000	 100.972507 
847.000000	 100.981817 
846.000000	 100.988539 
845.000000	 100.990099 
844.000000	 100.988316 
843.000000	 100.985428 
842.000000	 100.983446 
841.000000	 100.985357 
840.000000	 100.992171 
839.000000	 100.998535 
838.000000	 100.995966 
837.000000	 100.982803 
836.000000	 100.967778 
835.000000	 100.960749 
834.000000	 100.962200 
833.000000	 100.965509 
832.000000	 100.967670 
831.000000	 100.972076 
830.000000	 100.979750 
829.000000	 100.983780 
828.000000	 100.977193 
827.000000	 100.963608 
826.000000	 100.954166 
825.000000	 100.953671 
824.000000	 100.955357 
823.000000	 100.951622 
822.000000	 100.944861 
821.000000	 100.943204 
820.000000	 100.948673 
819.000000	 100.954914 
818.000000	 100.956487 
817.000000	 100.956301 
816.000000	 100.961271 
815.000000	 100.972109 
814.000000	 100.980879 
813.000000	 100.979631 
812.000000	 100.968478 
811.000000	 100.952723 
810.000000	 100.934098 
809.000000	 100.908625 
808.000000	 100.873086 
807.000000	 100.830164 
806.000000	 100.785644 
805.000000	 100.742987 
804.000000	 100.702801 
803.000000	 100.666221 
802.000000	 100.636308 
801.000000	 100.615956 
800.000000	 100.605597 
799.000000	 100.603166 
798.000000	 100.606082 
797.000000	 100.613176 
796.000000	 100.623994 
795.000000	 100.636196 
794.000000	 100.645591 
793.000000	 100.650233 
792.000000	 100.652915 
791.000000	 100.657617 
790.000000	 100.664736 
789.000000	 100.671728 
788.000000	 100.676616 
787.000000	 100.677815 
786.000000	 100.672132 
785.000000	 100.657263 
784.000000	 100.636267 
783.000000	 100.615899 
782.000000	 100.599799 
781.000000	 100.586133 
780.000000	 100.572193 
779.000000	 100.558136 
778.000000	 100.546186 
777.000000	 100.539907 
776.000000	 100.544559 
775.000000	 100.563367 
774.000000	 100.591471 
773.000000	 100.617859 
772.000000	 100.636202 
771.000000	 100.650924 
770.000000	 100.670061 
769.000000	 100.694460 
768.000000	 100.716862 
767.000000	 100.730341 
766.000000	 100.735454 
765.000000	 100.739717 
764.000000	 100.751210 
763.000000	 100.771464 
762.000000	 100.793151 
761.000000	 100.805802 
760.000000	 100.805159 
759.000000	 100.796822 
758.000000	 100.790719 
757.000000	 100.792485 
756.000000	 100.799297 
755.000000	 100.802363 
754.000000	 100.794461 
753.000000	 100.777856 
752.000000	 100.764669 
751.000000	 100.766536 
750.000000	 100.782977 
749.000000	 100.802074 
748.000000	 100.812861 
747.000000	 100.814689 
746.000000	 100.814789 
745.000000	 100.820076 
744.000000	 100.832266 
743.000000	 100.847814 
742.000000	 100.860929 
741.000000	 100.868744 
740.000000	 100.874395 
739.000000	 100.883034 
738.000000	 100.894449 
737.000000	 100.901936 
736.000000	 100.898846 
735.000000	 100.884475 
734.000000	 100.864534 
733.000000	 100.848839 
732.000000	 100.847495 
731.000000	 100.864055 
730.000000	 100.890797 
729.000000	 100.914511 
728.000000	 100.928119 
727.000000	 100.933732 
726.000000	 100.934847 
725.000000	 100.930880 
724.000000	 100.921053 
723.000000	 100.908718 
722.000000	 100.898967 
721.000000	 100.895285 
720.000000	 100.900332 
719.000000	 100.915744 
718.000000	 100.938375 
717.000000	 100.960045 
716.000000	 100.973229 
715.000000	 100.975069 
714.000000	 100.966477 
713.000000	 100.952163 
712.000000	 100.942590 
711.000000	 100.949129 
710.000000	 100.972227 
709.000000	 100.997898 
708.000000	 101.009567 
707.000000	 101.001076 
706.000000	 100.976499 
705.000000	 100.942539 
704.000000	 100.906947 
703.000000	 100.880551 
702.000000	 100.872050 
701.000000	 100.879013 
700.000000	 100.887672 
699.000000	 100.883669 
698.000000	 100.864034 
697.000000	 100.839160 
696.000000	 100.823077 
695.000000	 100.820658 
694.000000	 100.825151 
693.000000	 100.830122 
692.000000	 100.839371 
691.000000	 100.859373 
690.000000	 100.885665 
689.000000	 100.906064 
688.000000	 100.917491 
687.000000	 100.927770 
686.000000	 100.937599 
685.000000	 100.934993 
684.000000	 100.914769 
683.000000	 100.891953 
682.000000	 100.887529 
681.000000	 100.907095 
680.000000	 100.938369 
679.000000	 100.963363 
678.000000	 100.968901 
677.000000	 100.956062 
676.000000	 100.941987 
675.000000	 100.943775 
674.000000	 100.959812 
673.000000	 100.969724 
672.000000	 100.958210 
671.000000	 100.933227 
670.000000	 100.918819 
669.000000	 100.938450 
668.000000	 100.980841 
667.000000	 101.005862 
666.000000	 101.003672 
665.000000	 100.984884 
664.000000	 100.961633 
663.000000	 100.958747 
662.000000	 100.991388 
661.000000	 101.040825 
660.000000	 101.069768 
659.000000	 101.061520 
658.000000	 101.030172 
657.000000	 100.998559 
656.000000	 100.977640 
655.000000	 100.968345 
654.000000	 100.970272 
653.000000	 100.979109 
652.000000	 100.988915 
651.000000	 101.000770 
650.000000	 101.018259 

