4000.000000	99.372483 
3999.000000	99.372325 
3998.000000	99.372183 
3997.000000	99.372607 
3996.000000	99.373505 
3995.000000	99.374289 
3994.000000	99.374552 
3993.000000	99.374345 
3992.000000	99.373851 
3991.000000	99.373021 
3990.000000	99.371674 
3989.000000	99.369887 
3988.000000	99.368146 
3987.000000	99.367044 
3986.000000	99.366888 
3985.000000	99.367534 
3984.000000	99.368527 
3983.000000	99.369522 
3982.000000	99.370570 
3981.000000	99.371933 
3980.000000	99.373591 
3979.000000	99.375067 
3978.000000	99.375807 
3977.000000	99.375644 
3976.000000	99.374786 
3975.000000	99.373465 
3974.000000	99.371772 
3973.000000	99.369888 
3972.000000	99.368266 
3971.000000	99.367454 
3970.000000	99.367739 
3969.000000	99.368912 
3968.000000	99.370356 
3967.000000	99.371397 
3966.000000	99.371706 
3965.000000	99.371364 
3964.000000	99.370671 
3963.000000	99.369968 
3962.000000	99.369528 
3961.000000	99.369415 
3960.000000	99.369371 
3959.000000	99.369000 
3958.000000	99.368217 
3957.000000	99.367387 
3956.000000	99.366969 
3955.000000	99.367050 
3954.000000	99.367342 
3953.000000	99.367505 
3952.000000	99.367396 
3951.000000	99.367042 
3950.000000	99.366508 
3949.000000	99.365869 
3948.000000	99.365277 
3947.000000	99.364933 
3946.000000	99.364902 
3945.000000	99.365038 
3944.000000	99.365094 
3943.000000	99.364934 
3942.000000	99.364622 
3941.000000	99.364323 
3940.000000	99.364107 
3939.000000	99.363918 
3938.000000	99.363709 
3937.000000	99.363505 
3936.000000	99.363338 
3935.000000	99.363178 
3934.000000	99.362979 
3933.000000	99.362764 
3932.000000	99.362602 
3931.000000	99.362535 
3930.000000	99.362515 
3929.000000	99.362462 
3928.000000	99.362328 
3927.000000	99.362048 
3926.000000	99.361564 
3925.000000	99.360939 
3924.000000	99.360432 
3923.000000	99.360230 
3922.000000	99.360217 
3921.000000	99.360160 
3920.000000	99.360048 
3919.000000	99.360004 
3918.000000	99.359991 
3917.000000	99.359868 
3916.000000	99.359664 
3915.000000	99.359547 
3914.000000	99.359562 
3913.000000	99.359584 
3912.000000	99.359502 
3911.000000	99.359300 
3910.000000	99.359066 
3909.000000	99.358901 
3908.000000	99.358870 
3907.000000	99.358935 
3906.000000	99.359010 
3905.000000	99.359004 
3904.000000	99.358894 
3903.000000	99.358720 
3902.000000	99.358530 
3901.000000	99.358328 
3900.000000	99.358115 
3899.000000	99.357899 
3898.000000	99.357681 
3897.000000	99.357458 
3896.000000	99.357237 
3895.000000	99.357019 
3894.000000	99.356806 
3893.000000	99.356595 
3892.000000	99.356382 
3891.000000	99.356167 
3890.000000	99.355951 
3889.000000	99.355738 
3888.000000	99.355524 
3887.000000	99.355305 
3886.000000	99.355082 
3885.000000	99.354861 
3884.000000	99.354650 
3883.000000	99.354445 
3882.000000	99.354239 
3881.000000	99.354028 
3880.000000	99.353818 
3879.000000	99.353620 
3878.000000	99.353439 
3877.000000	99.353270 
3876.000000	99.353105 
3875.000000	99.352940 
3874.000000	99.352778 
3873.000000	99.352629 
3872.000000	99.352498 
3871.000000	99.352377 
3870.000000	99.352256 
3869.000000	99.352164 
3868.000000	99.352140 
3867.000000	99.352180 
3866.000000	99.352211 
3865.000000	99.352203 
3864.000000	99.352192 
3863.000000	99.352217 
3862.000000	99.352262 
3861.000000	99.352286 
3860.000000	99.352285 
3859.000000	99.352237 
3858.000000	99.352107 
3857.000000	99.351935 
3856.000000	99.351925 
3855.000000	99.352260 
3854.000000	99.352732 
3853.000000	99.352898 
3852.000000	99.353055 
3851.000000	99.353549 
3850.000000	99.354123 
3849.000000	99.354532 
3848.000000	99.354849 
3847.000000	99.355180 
3846.000000	99.355527 
3845.000000	99.355849 
3844.000000	99.356135 
3843.000000	99.356404 
3842.000000	99.356679 
3841.000000	99.356941 
3840.000000	99.357162 
3839.000000	99.357338 
3838.000000	99.357484 
3837.000000	99.357612 
3836.000000	99.357725 
3835.000000	99.357815 
3834.000000	99.357876 
3833.000000	99.357920 
3832.000000	99.357969 
3831.000000	99.358026 
3830.000000	99.358078 
3829.000000	99.358113 
3828.000000	99.358129 
3827.000000	99.358129 
3826.000000	99.358114 
3825.000000	99.358091 
3824.000000	99.358071 
3823.000000	99.358055 
3822.000000	99.358029 
3821.000000	99.357979 
3820.000000	99.357904 
3819.000000	99.357815 
3818.000000	99.357712 
3817.000000	99.357591 
3816.000000	99.357455 
3815.000000	99.357314 
3814.000000	99.357173 
3813.000000	99.357024 
3812.000000	99.356860 
3811.000000	99.356688 
3810.000000	99.356519 
3809.000000	99.356355 
3808.000000	99.356189 
3807.000000	99.356017 
3806.000000	99.355846 
3805.000000	99.355681 
3804.000000	99.355521 
3803.000000	99.355361 
3802.000000	99.355201 
3801.000000	99.355054 
3800.000000	99.354933 
3799.000000	99.354845 
3798.000000	99.354782 
3797.000000	99.354742 
3796.000000	99.354729 
3795.000000	99.354748 
3794.000000	99.354801 
3793.000000	99.354884 
3792.000000	99.354988 
3791.000000	99.355105 
3790.000000	99.355233 
3789.000000	99.355374 
3788.000000	99.355531 
3787.000000	99.355712 
3786.000000	99.355904 
3785.000000	99.356069 
3784.000000	99.356199 
3783.000000	99.356325 
3782.000000	99.356447 
3781.000000	99.356493 
3780.000000	99.356430 
3779.000000	99.356304 
3778.000000	99.356202 
3777.000000	99.356159 
3776.000000	99.356150 
3775.000000	99.356171 
3774.000000	99.356246 
3773.000000	99.356362 
3772.000000	99.356466 
3771.000000	99.356508 
3770.000000	99.356494 
3769.000000	99.356455 
3768.000000	99.356415 
3767.000000	99.356371 
3766.000000	99.356313 
3765.000000	99.356250 
3764.000000	99.356197 
3763.000000	99.356160 
3762.000000	99.356126 
3761.000000	99.356079 
3760.000000	99.356018 
3759.000000	99.355947 
3758.000000	99.355839 
3757.000000	99.355661 
3756.000000	99.355422 
3755.000000	99.355142 
3754.000000	99.354836 
3753.000000	99.354541 
3752.000000	99.354291 
3751.000000	99.353970 
3750.000000	99.353405 
3749.000000	99.352653 
3748.000000	99.351960 
3747.000000	99.351361 
3746.000000	99.350684 
3745.000000	99.349760 
3744.000000	99.348641 
3743.000000	99.347960 
3742.000000	99.347986 
3741.000000	99.347807 
3740.000000	99.346880 
3739.000000	99.345758 
3738.000000	99.345150 
3737.000000	99.344931 
3736.000000	99.344473 
3735.000000	99.343659 
3734.000000	99.342755 
3733.000000	99.341537 
3732.000000	99.339822 
3731.000000	99.338490 
3730.000000	99.338295 
3729.000000	99.338455 
3728.000000	99.337692 
3727.000000	99.336149 
3726.000000	99.335196 
3725.000000	99.335484 
3724.000000	99.335699 
3723.000000	99.334250 
3722.000000	99.331252 
3721.000000	99.328184 
3720.000000	99.326233 
3719.000000	99.325078 
3718.000000	99.323601 
3717.000000	99.321114 
3716.000000	99.317858 
3715.000000	99.314283 
3714.000000	99.310823 
3713.000000	99.308037 
3712.000000	99.305531 
3711.000000	99.302420 
3710.000000	99.299553 
3709.000000	99.298081 
3708.000000	99.297224 
3707.000000	99.295380 
3706.000000	99.292009 
3705.000000	99.287686 
3704.000000	99.283259 
3703.000000	99.279154 
3702.000000	99.275087 
3701.000000	99.270950 
3700.000000	99.267668 
3699.000000	99.265148 
3698.000000	99.261392 
3697.000000	99.255424 
3696.000000	99.248994 
3695.000000	99.244392 
3694.000000	99.241713 
3693.000000	99.239710 
3692.000000	99.237839 
3691.000000	99.235654 
3690.000000	99.231386 
3689.000000	99.223676 
3688.000000	99.215707 
3687.000000	99.212469 
3686.000000	99.213545 
3685.000000	99.214171 
3684.000000	99.212325 
3683.000000	99.210102 
3682.000000	99.209133 
3681.000000	99.207639 
3680.000000	99.203204 
3679.000000	99.197043 
3678.000000	99.191969 
3677.000000	99.188702 
3676.000000	99.184881 
3675.000000	99.180696 
3674.000000	99.182818 
3673.000000	99.191212 
3672.000000	99.196691 
3671.000000	99.196110 
3670.000000	99.192611 
3669.000000	99.189110 
3668.000000	99.187284 
3667.000000	99.185357 
3666.000000	99.181651 
3665.000000	99.178192 
3664.000000	99.177578 
3663.000000	99.179826 
3662.000000	99.182960 
3661.000000	99.185474 
3660.000000	99.187768 
3659.000000	99.191209 
3658.000000	99.195887 
3657.000000	99.200239 
3656.000000	99.203029 
3655.000000	99.206525 
3654.000000	99.212488 
3653.000000	99.218802 
3652.000000	99.224000 
3651.000000	99.229287 
3650.000000	99.233519 
3649.000000	99.232729 
3648.000000	99.227565 
3647.000000	99.223535 
3646.000000	99.223840 
3645.000000	99.227169 
3644.000000	99.230997 
3643.000000	99.234400 
3642.000000	99.238282 
3641.000000	99.243468 
3640.000000	99.249653 
3639.000000	99.256031 
3638.000000	99.262524 
3637.000000	99.269364 
3636.000000	99.275216 
3635.000000	99.277678 
3634.000000	99.276135 
3633.000000	99.273049 
3632.000000	99.271338 
3631.000000	99.272134 
3630.000000	99.274858 
3629.000000	99.276761 
3628.000000	99.277017 
3627.000000	99.279058 
3626.000000	99.282569 
3625.000000	99.284888 
3624.000000	99.286560 
3623.000000	99.289093 
3622.000000	99.292258 
3621.000000	99.294735 
3620.000000	99.295874 
3619.000000	99.296201 
3618.000000	99.297220 
3617.000000	99.299939 
3616.000000	99.303334 
3615.000000	99.305478 
3614.000000	99.305409 
3613.000000	99.303698 
3612.000000	99.301872 
3611.000000	99.301021 
3610.000000	99.301142 
3609.000000	99.301891 
3608.000000	99.303019 
3607.000000	99.304376 
3606.000000	99.305805 
3605.000000	99.307134 
3604.000000	99.308553 
3603.000000	99.310371 
3602.000000	99.312313 
3601.000000	99.313832 
3600.000000	99.314947 
3599.000000	99.316109 
3598.000000	99.317342 
3597.000000	99.318399 
3596.000000	99.319019 
3595.000000	99.319038 
3594.000000	99.318453 
3593.000000	99.317844 
3592.000000	99.318021 
3591.000000	99.319475 
3590.000000	99.322000 
3589.000000	99.324463 
3588.000000	99.325119 
3587.000000	99.323360 
3586.000000	99.320719 
3585.000000	99.319017 
3584.000000	99.318418 
3583.000000	99.318306 
3582.000000	99.318210 
3581.000000	99.317919 
3580.000000	99.317381 
3579.000000	99.316676 
3578.000000	99.315856 
3577.000000	99.315065 
3576.000000	99.314605 
3575.000000	99.314767 
3574.000000	99.315526 
3573.000000	99.316512 
3572.000000	99.317362 
3571.000000	99.317934 
3570.000000	99.318220 
3569.000000	99.318127 
3568.000000	99.317489 
3567.000000	99.316423 
3566.000000	99.315646 
3565.000000	99.315733 
3564.000000	99.316346 
3563.000000	99.316797 
3562.000000	99.316827 
3561.000000	99.316579 
3560.000000	99.316239 
3559.000000	99.315870 
3558.000000	99.315454 
3557.000000	99.315017 
3556.000000	99.314698 
3555.000000	99.314600 
3554.000000	99.314634 
3553.000000	99.314571 
3552.000000	99.314301 
3551.000000	99.313926 
3550.000000	99.313572 
3549.000000	99.313251 
3548.000000	99.313002 
3547.000000	99.312915 
3546.000000	99.312995 
3545.000000	99.313162 
3544.000000	99.313322 
3543.000000	99.313417 
3542.000000	99.313419 
3541.000000	99.313318 
3540.000000	99.313182 
3539.000000	99.313099 
3538.000000	99.313076 
3537.000000	99.313029 
3536.000000	99.312889 
3535.000000	99.312668 
3534.000000	99.312419 
3533.000000	99.312195 
3532.000000	99.312022 
3531.000000	99.311915 
3530.000000	99.311860 
3529.000000	99.311831 
3528.000000	99.311813 
3527.000000	99.311800 
3526.000000	99.311777 
3525.000000	99.311722 
3524.000000	99.311637 
3523.000000	99.311543 
3522.000000	99.311468 
3521.000000	99.311418 
3520.000000	99.311387 
3519.000000	99.311369 
3518.000000	99.311362 
3517.000000	99.311366 
3516.000000	99.311377 
3515.000000	99.311390 
3514.000000	99.311403 
3513.000000	99.311412 
3512.000000	99.311414 
3511.000000	99.311407 
3510.000000	99.311389 
3509.000000	99.311364 
3508.000000	99.311333 
3507.000000	99.311297 
3506.000000	99.311252 
3505.000000	99.311198 
3504.000000	99.311137 
3503.000000	99.311077 
3502.000000	99.311025 
3501.000000	99.310985 
3500.000000	99.310950 
3499.000000	99.310908 
3498.000000	99.310850 
3497.000000	99.310774 
3496.000000	99.310685 
3495.000000	99.310590 
3494.000000	99.310490 
3493.000000	99.310379 
3492.000000	99.310251 
3491.000000	99.310105 
3490.000000	99.309946 
3489.000000	99.309780 
3488.000000	99.309611 
3487.000000	99.309439 
3486.000000	99.309259 
3485.000000	99.309069 
3484.000000	99.308870 
3483.000000	99.308661 
3482.000000	99.308445 
3481.000000	99.308221 
3480.000000	99.307987 
3479.000000	99.307743 
3478.000000	99.307486 
3477.000000	99.307218 
3476.000000	99.306937 
3475.000000	99.306643 
3474.000000	99.306340 
3473.000000	99.306034 
3472.000000	99.305729 
3471.000000	99.305430 
3470.000000	99.305136 
3469.000000	99.304846 
3468.000000	99.304558 
3467.000000	99.304272 
3466.000000	99.303985 
3465.000000	99.303699 
3464.000000	99.303415 
3463.000000	99.303136 
3462.000000	99.302864 
3461.000000	99.302595 
3460.000000	99.302315 
3459.000000	99.302017 
3458.000000	99.301710 
3457.000000	99.301419 
3456.000000	99.301165 
3455.000000	99.300936 
3454.000000	99.300698 
3453.000000	99.300446 
3452.000000	99.300204 
3451.000000	99.300000 
3450.000000	99.299830 
3449.000000	99.299668 
3448.000000	99.299489 
3447.000000	99.299292 
3446.000000	99.299089 
3445.000000	99.298900 
3444.000000	99.298728 
3443.000000	99.298567 
3442.000000	99.298412 
3441.000000	99.298264 
3440.000000	99.298126 
3439.000000	99.298001 
3438.000000	99.297887 
3437.000000	99.297780 
3436.000000	99.297675 
3435.000000	99.297574 
3434.000000	99.297485 
3433.000000	99.297421 
3432.000000	99.297386 
3431.000000	99.297377 
3430.000000	99.297369 
3429.000000	99.297337 
3428.000000	99.297271 
3427.000000	99.297182 
3426.000000	99.297093 
3425.000000	99.297022 
3424.000000	99.296980 
3423.000000	99.296968 
3422.000000	99.296976 
3421.000000	99.296971 
3420.000000	99.296909 
3419.000000	99.296770 
3418.000000	99.296580 
3417.000000	99.296420 
3416.000000	99.296357 
3415.000000	99.296394 
3414.000000	99.296458 
3413.000000	99.296479 
3412.000000	99.296456 
3411.000000	99.296445 
3410.000000	99.296505 
3409.000000	99.296651 
3408.000000	99.296840 
3407.000000	99.296957 
3406.000000	99.296879 
3405.000000	99.296593 
3404.000000	99.296300 
3403.000000	99.296286 
3402.000000	99.296683 
3401.000000	99.297368 
3400.000000	99.298041 
3399.000000	99.298470 
3398.000000	99.298667 
3397.000000	99.298833 
3396.000000	99.299083 
3395.000000	99.299235 
3394.000000	99.299022 
3393.000000	99.298502 
3392.000000	99.298110 
3391.000000	99.298168 
3390.000000	99.298523 
3389.000000	99.298766 
3388.000000	99.298709 
3387.000000	99.298480 
3386.000000	99.298260 
3385.000000	99.298099 
3384.000000	99.297986 
3383.000000	99.297930 
3382.000000	99.297894 
3381.000000	99.297781 
3380.000000	99.297549 
3379.000000	99.297291 
3378.000000	99.297175 
3377.000000	99.297359 
3376.000000	99.297962 
3375.000000	99.298983 
3374.000000	99.300234 
3373.000000	99.301387 
3372.000000	99.302128 
3371.000000	99.302300 
3370.000000	99.301994 
3369.000000	99.301554 
3368.000000	99.301383 
3367.000000	99.301557 
3366.000000	99.301708 
3365.000000	99.301401 
3364.000000	99.300651 
3363.000000	99.299956 
3362.000000	99.299755 
3361.000000	99.299951 
3360.000000	99.300058 
3359.000000	99.299783 
3358.000000	99.299407 
3357.000000	99.299488 
3356.000000	99.300215 
3355.000000	99.301110 
3354.000000	99.301502 
3353.000000	99.301281 
3352.000000	99.301017 
3351.000000	99.301358 
3350.000000	99.302432 
3349.000000	99.303865 
3348.000000	99.305162 
3347.000000	99.305977 
3346.000000	99.306154 
3345.000000	99.305775 
3344.000000	99.305151 
3343.000000	99.304564 
3342.000000	99.304034 
3341.000000	99.303469 
3340.000000	99.302958 
3339.000000	99.302713 
3338.000000	99.302729 
3337.000000	99.302694 
3336.000000	99.302323 
3335.000000	99.301720 
3334.000000	99.301307 
3333.000000	99.301417 
3332.000000	99.302006 
3331.000000	99.302709 
3330.000000	99.303155 
3329.000000	99.303270 
3328.000000	99.303269 
3327.000000	99.303379 
3326.000000	99.303607 
3325.000000	99.303791 
3324.000000	99.303838 
3323.000000	99.303834 
3322.000000	99.303918 
3321.000000	99.304096 
3320.000000	99.304246 
3319.000000	99.304265 
3318.000000	99.304187 
3317.000000	99.304161 
3316.000000	99.304298 
3315.000000	99.304575 
3314.000000	99.304871 
3313.000000	99.305067 
3312.000000	99.305151 
3311.000000	99.305190 
3310.000000	99.305258 
3309.000000	99.305375 
3308.000000	99.305510 
3307.000000	99.305631 
3306.000000	99.305733 
3305.000000	99.305828 
3304.000000	99.305913 
3303.000000	99.305964 
3302.000000	99.305968 
3301.000000	99.305954 
3300.000000	99.306009 
3299.000000	99.306192 
3298.000000	99.306443 
3297.000000	99.306632 
3296.000000	99.306708 
3295.000000	99.306767 
3294.000000	99.306957 
3293.000000	99.307373 
3292.000000	99.308008 
3291.000000	99.308720 
3290.000000	99.309264 
3289.000000	99.309434 
3288.000000	99.309241 
3287.000000	99.308929 
3286.000000	99.308790 
3285.000000	99.308934 
3284.000000	99.309263 
3283.000000	99.309590 
3282.000000	99.309751 
3281.000000	99.309639 
3280.000000	99.309234 
3279.000000	99.308628 
3278.000000	99.308018 
3277.000000	99.307611 
3276.000000	99.307483 
3275.000000	99.307550 
3274.000000	99.307691 
3273.000000	99.307836 
3272.000000	99.307865 
3271.000000	99.307539 
3270.000000	99.306709 
3269.000000	99.305652 
3268.000000	99.304994 
3267.000000	99.305222 
3266.000000	99.306331 
3265.000000	99.307901 
3264.000000	99.309419 
3263.000000	99.310536 
3262.000000	99.311182 
3261.000000	99.311541 
3260.000000	99.311802 
3259.000000	99.311856 
3258.000000	99.311366 
3257.000000	99.310180 
3256.000000	99.308571 
3255.000000	99.307025 
3254.000000	99.305932 
3253.000000	99.305518 
3252.000000	99.305860 
3251.000000	99.306749 
3250.000000	99.307631 
3249.000000	99.307970 
3248.000000	99.307703 
3247.000000	99.307206 
3246.000000	99.306832 
3245.000000	99.306604 
3244.000000	99.306422 
3243.000000	99.306409 
3242.000000	99.306914 
3241.000000	99.308145 
3240.000000	99.309830 
3239.000000	99.311240 
3238.000000	99.311707 
3237.000000	99.311128 
3236.000000	99.309995 
3235.000000	99.308916 
3234.000000	99.308149 
3233.000000	99.307717 
3232.000000	99.307753 
3231.000000	99.308436 
3230.000000	99.309602 
3229.000000	99.310636 
3228.000000	99.310912 
3227.000000	99.310247 
3226.000000	99.308912 
3225.000000	99.307409 
3224.000000	99.306276 
3223.000000	99.305905 
3222.000000	99.306351 
3221.000000	99.307314 
3220.000000	99.308398 
3219.000000	99.309368 
3218.000000	99.310107 
3217.000000	99.310474 
3216.000000	99.310416 
3215.000000	99.310196 
3214.000000	99.310271 
3213.000000	99.310827 
3212.000000	99.311583 
3211.000000	99.312158 
3210.000000	99.312549 
3209.000000	99.313087 
3208.000000	99.313954 
3207.000000	99.314904 
3206.000000	99.315544 
3205.000000	99.315825 
3204.000000	99.316148 
3203.000000	99.316950 
3202.000000	99.318293 
3201.000000	99.319889 
3200.000000	99.321335 
3199.000000	99.322194 
3198.000000	99.322050 
3197.000000	99.320871 
3196.000000	99.319348 
3195.000000	99.318501 
3194.000000	99.318621 
3193.000000	99.318892 
3192.000000	99.318359 
3191.000000	99.317105 
3190.000000	99.316183 
3189.000000	99.316432 
3188.000000	99.317703 
3187.000000	99.319231 
3186.000000	99.320400 
3185.000000	99.320965 
3184.000000	99.320857 
3183.000000	99.320132 
3182.000000	99.319064 
3181.000000	99.318033 
3180.000000	99.317304 
3179.000000	99.316962 
3178.000000	99.317003 
3177.000000	99.317302 
3176.000000	99.317571 
3175.000000	99.317627 
3174.000000	99.317769 
3173.000000	99.318606 
3172.000000	99.320331 
3171.000000	99.322303 
3170.000000	99.323546 
3169.000000	99.323732 
3168.000000	99.323431 
3167.000000	99.323466 
3166.000000	99.324073 
3165.000000	99.324837 
3164.000000	99.325314 
3163.000000	99.325527 
3162.000000	99.325805 
3161.000000	99.326338 
3160.000000	99.327023 
3159.000000	99.327640 
3158.000000	99.328049 
3157.000000	99.328220 
3156.000000	99.328219 
3155.000000	99.328206 
3154.000000	99.328372 
3153.000000	99.328807 
3152.000000	99.329429 
3151.000000	99.330022 
3150.000000	99.330376 
3149.000000	99.330442 
3148.000000	99.330392 
3147.000000	99.330521 
3146.000000	99.331001 
3145.000000	99.331685 
3144.000000	99.332218 
3143.000000	99.332437 
3142.000000	99.332604 
3141.000000	99.333132 
3140.000000	99.334072 
3139.000000	99.334980 
3138.000000	99.335388 
3137.000000	99.335301 
3136.000000	99.335175 
3135.000000	99.335368 
3134.000000	99.335739 
3133.000000	99.335864 
3132.000000	99.335548 
3131.000000	99.335036 
3130.000000	99.334743 
3129.000000	99.334818 
3128.000000	99.335049 
3127.000000	99.335196 
3126.000000	99.335269 
3125.000000	99.335422 
3124.000000	99.335704 
3123.000000	99.336020 
3122.000000	99.336283 
3121.000000	99.336531 
3120.000000	99.336876 
3119.000000	99.337352 
3118.000000	99.337785 
3117.000000	99.337836 
3116.000000	99.337292 
3115.000000	99.336348 
3114.000000	99.335503 
3113.000000	99.335045 
3112.000000	99.334818 
3111.000000	99.334595 
3110.000000	99.334498 
3109.000000	99.334768 
3108.000000	99.335241 
3107.000000	99.335415 
3106.000000	99.335062 
3105.000000	99.334562 
3104.000000	99.334526 
3103.000000	99.335239 
3102.000000	99.336555 
3101.000000	99.338119 
3100.000000	99.339521 
3099.000000	99.340365 
3098.000000	99.340427 
3097.000000	99.339840 
3096.000000	99.339079 
3095.000000	99.338669 
3094.000000	99.338842 
3093.000000	99.339478 
3092.000000	99.340239 
3091.000000	99.340753 
3090.000000	99.340754 
3089.000000	99.340246 
3088.000000	99.339609 
3087.000000	99.339400 
3086.000000	99.339837 
3085.000000	99.340516 
3084.000000	99.340816 
3083.000000	99.340565 
3082.000000	99.340161 
3081.000000	99.340061 
3080.000000	99.340339 
3079.000000	99.340775 
3078.000000	99.341077 
3077.000000	99.340841 
3076.000000	99.339598 
3075.000000	99.337339 
3074.000000	99.334905 
3073.000000	99.333504 
3072.000000	99.333853 
3071.000000	99.335961 
3070.000000	99.339406 
3069.000000	99.343125 
3068.000000	99.345028 
3067.000000	99.342907 
3066.000000	99.336590 
3065.000000	99.328993 
3064.000000	99.324156 
3063.000000	99.323876 
3062.000000	99.326607 
3061.000000	99.329450 
3060.000000	99.330850 
3059.000000	99.331324 
3058.000000	99.332097 
3057.000000	99.333471 
3056.000000	99.334480 
3055.000000	99.333973 
3054.000000	99.331851 
3053.000000	99.329189 
3052.000000	99.327247 
3051.000000	99.326588 
3050.000000	99.327094 
3049.000000	99.328199 
3048.000000	99.328651 
3047.000000	99.326624 
3046.000000	99.321111 
3045.000000	99.313416 
3044.000000	99.306571 
3043.000000	99.302745 
3042.000000	99.301499 
3041.000000	99.300742 
3040.000000	99.298929 
3039.000000	99.295985 
3038.000000	99.292580 
3037.000000	99.289129 
3036.000000	99.285448 
3035.000000	99.281013 
3034.000000	99.275505 
3033.000000	99.269069 
3032.000000	99.261947 
3031.000000	99.254055 
3030.000000	99.245006 
3029.000000	99.234537 
3028.000000	99.222930 
3027.000000	99.211008 
3026.000000	99.199727 
3025.000000	99.189618 
3024.000000	99.180299 
3023.000000	99.170433 
3022.000000	99.158534 
3021.000000	99.144256 
3020.000000	99.129013 
3019.000000	99.115080 
3018.000000	99.103910 
3017.000000	99.095123 
3016.000000	99.086861 
3015.000000	99.077021 
3014.000000	99.064376 
3013.000000	99.048827 
3012.000000	99.030759 
3011.000000	99.010415 
3010.000000	98.988172 
3009.000000	98.965308 
3008.000000	98.944012 
3007.000000	98.926335 
3006.000000	98.913069 
3005.000000	98.903335 
3004.000000	98.894692 
3003.000000	98.883868 
3002.000000	98.868611 
3001.000000	98.849780 
3000.000000	98.831142 
2999.000000	98.816105 
2998.000000	98.804782 
2997.000000	98.795005 
2996.000000	98.785646 
2995.000000	98.777142 
2994.000000	98.768060 
2993.000000	98.753209 
2992.000000	98.727879 
2991.000000	98.694361 
2990.000000	98.662490 
2989.000000	98.642166 
2988.000000	98.635891 
2987.000000	98.638872 
2986.000000	98.644956 
2985.000000	98.651440 
2984.000000	98.658367 
2983.000000	98.665308 
2982.000000	98.670429 
2981.000000	98.672205 
2980.000000	98.670907 
2979.000000	98.668184 
2978.000000	98.665705 
2977.000000	98.664198 
2976.000000	98.663242 
2975.000000	98.661793 
2974.000000	98.659271 
2973.000000	98.656323 
2972.000000	98.654370 
2971.000000	98.654424 
2970.000000	98.656650 
2969.000000	98.661007 
2968.000000	98.667799 
2967.000000	98.677233 
2966.000000	98.688721 
2965.000000	98.700979 
2964.000000	98.712782 
2963.000000	98.723500 
2962.000000	98.733092 
2961.000000	98.741918 
2960.000000	98.750574 
2959.000000	98.759716 
2958.000000	98.769798 
2957.000000	98.780707 
2956.000000	98.791357 
2955.000000	98.799819 
2954.000000	98.804694 
2953.000000	98.807065 
2952.000000	98.810772 
2951.000000	98.819617 
2950.000000	98.833625 
2949.000000	98.848364 
2948.000000	98.858553 
2947.000000	98.862158 
2946.000000	98.861001 
2945.000000	98.858326 
2944.000000	98.856434 
2943.000000	98.856398 
2942.000000	98.858619 
2941.000000	98.862440 
2940.000000	98.865769 
2939.000000	98.866390 
2938.000000	98.863974 
2937.000000	98.860433 
2936.000000	98.858339 
2935.000000	98.859285 
2934.000000	98.863313 
2933.000000	98.868956 
2932.000000	98.873651 
2931.000000	98.875000 
2930.000000	98.872298 
2929.000000	98.866761 
2928.000000	98.860193 
2927.000000	98.853843 
2926.000000	98.848560 
2925.000000	98.845092 
2924.000000	98.843552 
2923.000000	98.843134 
2922.000000	98.843068 
2921.000000	98.843472 
2920.000000	98.844618 
2919.000000	98.845782 
2918.000000	98.845711 
2917.000000	98.844042 
2916.000000	98.841493 
2915.000000	98.838728 
2914.000000	98.835831 
2913.000000	98.832963 
2912.000000	98.830583 
2911.000000	98.828661 
2910.000000	98.826321 
2909.000000	98.822807 
2908.000000	98.818367 
2907.000000	98.813705 
2906.000000	98.808730 
2905.000000	98.802276 
2904.000000	98.793219 
2903.000000	98.782205 
2902.000000	98.772735 
2901.000000	98.769931 
2900.000000	98.777119 
2899.000000	98.792754 
2898.000000	98.810521 
2897.000000	98.823792 
2896.000000	98.830534 
2895.000000	98.833898 
2894.000000	98.838434 
2893.000000	98.845977 
2892.000000	98.854726 
2891.000000	98.861528 
2890.000000	98.864847 
2889.000000	98.865826 
2888.000000	98.866805 
2887.000000	98.869074 
2886.000000	98.872253 
2885.000000	98.875644 
2884.000000	98.879659 
2883.000000	98.885561 
2882.000000	98.894131 
2881.000000	98.904981 
2880.000000	98.917091 
2879.000000	98.929662 
2878.000000	98.942349 
2877.000000	98.954785 
2876.000000	98.965995 
2875.000000	98.974509 
2874.000000	98.979456 
2873.000000	98.981793 
2872.000000	98.984177 
2871.000000	98.989144 
2870.000000	98.997314 
2869.000000	99.007330 
2868.000000	99.017423 
2867.000000	99.027011 
2866.000000	99.037070 
2865.000000	99.049086 
2864.000000	99.063293 
2863.000000	99.077710 
2862.000000	99.089369 
2861.000000	99.097025 
2860.000000	99.102531 
2859.000000	99.109108 
2858.000000	99.118268 
2857.000000	99.128883 
2856.000000	99.139076 
2855.000000	99.148255 
2854.000000	99.157027 
2853.000000	99.165858 
2852.000000	99.174436 
2851.000000	99.182340 
2850.000000	99.189891 
2849.000000	99.197930 
2848.000000	99.206697 
2847.000000	99.215171 
2846.000000	99.221809 
2845.000000	99.225915 
2844.000000	99.228231 
2843.000000	99.230293 
2842.000000	99.233440 
2841.000000	99.238233 
2840.000000	99.244164 
2839.000000	99.249610 
2838.000000	99.252632 
2837.000000	99.252534 
2836.000000	99.250725 
2835.000000	99.249861 
2834.000000	99.252028 
2833.000000	99.257659 
2832.000000	99.265610 
2831.000000	99.273804 
2830.000000	99.280263 
2829.000000	99.284274 
2828.000000	99.286709 
2827.000000	99.288877 
2826.000000	99.291041 
2825.000000	99.292395 
2824.000000	99.292450 
2823.000000	99.291957 
2822.000000	99.292320 
2821.000000	99.294349 
2820.000000	99.297663 
2819.000000	99.301117 
2818.000000	99.303792 
2817.000000	99.305689 
2816.000000	99.307357 
2815.000000	99.308903 
2814.000000	99.309788 
2813.000000	99.309829 
2812.000000	99.309853 
2811.000000	99.310723 
2810.000000	99.312086 
2809.000000	99.312915 
2808.000000	99.313120 
2807.000000	99.313760 
2806.000000	99.315531 
2805.000000	99.317882 
2804.000000	99.319941 
2803.000000	99.321606 
2802.000000	99.323273 
2801.000000	99.324941 
2800.000000	99.326138 
2799.000000	99.326540 
2798.000000	99.326303 
2797.000000	99.325882 
2796.000000	99.325724 
2795.000000	99.326005 
2794.000000	99.326487 
2793.000000	99.326718 
2792.000000	99.326492 
2791.000000	99.326065 
2790.000000	99.325923 
2789.000000	99.326510 
2788.000000	99.328087 
2787.000000	99.330510 
2786.000000	99.333061 
2785.000000	99.334896 
2784.000000	99.335789 
2783.000000	99.336148 
2782.000000	99.336320 
2781.000000	99.336208 
2780.000000	99.335765 
2779.000000	99.335488 
2778.000000	99.335986 
2777.000000	99.337207 
2776.000000	99.338466 
2775.000000	99.339173 
2774.000000	99.339244 
2773.000000	99.338888 
2772.000000	99.338402 
2771.000000	99.338203 
2770.000000	99.338695 
2769.000000	99.339947 
2768.000000	99.341660 
2767.000000	99.343479 
2766.000000	99.345141 
2765.000000	99.346330 
2764.000000	99.346787 
2763.000000	99.346711 
2762.000000	99.346765 
2761.000000	99.347440 
2760.000000	99.348639 
2759.000000	99.349962 
2758.000000	99.351115 
2757.000000	99.351929 
2756.000000	99.352366 
2755.000000	99.352723 
2754.000000	99.353430 
2753.000000	99.354362 
2752.000000	99.354679 
2751.000000	99.353758 
2750.000000	99.352028 
2749.000000	99.350510 
2748.000000	99.349651 
2747.000000	99.349110 
2746.000000	99.348580 
2745.000000	99.348307 
2744.000000	99.348660 
2743.000000	99.349618 
2742.000000	99.350859 
2741.000000	99.352117 
2740.000000	99.353349 
2739.000000	99.354683 
2738.000000	99.356238 
2737.000000	99.357878 
2736.000000	99.359180 
2735.000000	99.359787 
2734.000000	99.359755 
2733.000000	99.359428 
2732.000000	99.359076 
2731.000000	99.358811 
2730.000000	99.358791 
2729.000000	99.359208 
2728.000000	99.360076 
2727.000000	99.361201 
2726.000000	99.362335 
2725.000000	99.363274 
2724.000000	99.363863 
2723.000000	99.364125 
2722.000000	99.364339 
2721.000000	99.364789 
2720.000000	99.365433 
2719.000000	99.365959 
2718.000000	99.366169 
2717.000000	99.366169 
2716.000000	99.366204 
2715.000000	99.366439 
2714.000000	99.366892 
2713.000000	99.367459 
2712.000000	99.367951 
2711.000000	99.368242 
2710.000000	99.368386 
2709.000000	99.368548 
2708.000000	99.368814 
2707.000000	99.369122 
2706.000000	99.369379 
2705.000000	99.369578 
2704.000000	99.369769 
2703.000000	99.369982 
2702.000000	99.370208 
2701.000000	99.370431 
2700.000000	99.370641 
2699.000000	99.370837 
2698.000000	99.371022 
2697.000000	99.371198 
2696.000000	99.371369 
2695.000000	99.371536 
2694.000000	99.371705 
2693.000000	99.371875 
2692.000000	99.372043 
2691.000000	99.372201 
2690.000000	99.372346 
2689.000000	99.372478 
2688.000000	99.372601 
2687.000000	99.372716 
2686.000000	99.372820 
2685.000000	99.372906 
2684.000000	99.372973 
2683.000000	99.373021 
2682.000000	99.373055 
2681.000000	99.373084 
2680.000000	99.373111 
2679.000000	99.373135 
2678.000000	99.373150 
2677.000000	99.373159 
2676.000000	99.373168 
2675.000000	99.373185 
2674.000000	99.373205 
2673.000000	99.373216 
2672.000000	99.373209 
2671.000000	99.373183 
2670.000000	99.373140 
2669.000000	99.373072 
2668.000000	99.372964 
2667.000000	99.372832 
2666.000000	99.372734 
2665.000000	99.372734 
2664.000000	99.372839 
2663.000000	99.372990 
2662.000000	99.373114 
2661.000000	99.373178 
2660.000000	99.373182 
2659.000000	99.373123 
2658.000000	99.373004 
2657.000000	99.372858 
2656.000000	99.372741 
2655.000000	99.372689 
2654.000000	99.372691 
2653.000000	99.372702 
2652.000000	99.372666 
2651.000000	99.372544 
2650.000000	99.372326 
2649.000000	99.372065 
2648.000000	99.371850 
2647.000000	99.371725 
2646.000000	99.371646 
2645.000000	99.371543 
2644.000000	99.371410 
2643.000000	99.371284 
2642.000000	99.371190 
2641.000000	99.371137 
2640.000000	99.371132 
2639.000000	99.371190 
2638.000000	99.371315 
2637.000000	99.371491 
2636.000000	99.371653 
2635.000000	99.371694 
2634.000000	99.371535 
2633.000000	99.371234 
2632.000000	99.370964 
2631.000000	99.370826 
2630.000000	99.370801 
2629.000000	99.370831 
2628.000000	99.370881 
2627.000000	99.370935 
2626.000000	99.370967 
2625.000000	99.370958 
2624.000000	99.370939 
2623.000000	99.370965 
2622.000000	99.371037 
2621.000000	99.371093 
2620.000000	99.371083 
2619.000000	99.371009 
2618.000000	99.370882 
2617.000000	99.370704 
2616.000000	99.370504 
2615.000000	99.370366 
2614.000000	99.370356 
2613.000000	99.370431 
2612.000000	99.370479 
2611.000000	99.370442 
2610.000000	99.370367 
2609.000000	99.370351 
2608.000000	99.370426 
2607.000000	99.370523 
2606.000000	99.370559 
2605.000000	99.370573 
2604.000000	99.370694 
2603.000000	99.370936 
2602.000000	99.371110 
2601.000000	99.371027 
2600.000000	99.370751 
2599.000000	99.370557 
2598.000000	99.370613 
2597.000000	99.370799 
2596.000000	99.370851 
2595.000000	99.370611 
2594.000000	99.370115 
2593.000000	99.369531 
2592.000000	99.369092 
2591.000000	99.368976 
2590.000000	99.369184 
2589.000000	99.369537 
2588.000000	99.369803 
2587.000000	99.369870 
2586.000000	99.369721 
2585.000000	99.369345 
2584.000000	99.368770 
2583.000000	99.368142 
2582.000000	99.367654 
2581.000000	99.367380 
2580.000000	99.367225 
2579.000000	99.367030 
2578.000000	99.366710 
2577.000000	99.366333 
2576.000000	99.366071 
2575.000000	99.366049 
2574.000000	99.366226 
2573.000000	99.366438 
2572.000000	99.366526 
2571.000000	99.366465 
2570.000000	99.366322 
2569.000000	99.366180 
2568.000000	99.366091 
2567.000000	99.366067 
2566.000000	99.366086 
2565.000000	99.366108 
2564.000000	99.366103 
2563.000000	99.366076 
2562.000000	99.366056 
2561.000000	99.366067 
2560.000000	99.366111 
2559.000000	99.366190 
2558.000000	99.366309 
2557.000000	99.366447 
2556.000000	99.366547 
2555.000000	99.366576 
2554.000000	99.366584 
2553.000000	99.366678 
2552.000000	99.366913 
2551.000000	99.367243 
2550.000000	99.367551 
2549.000000	99.367765 
2548.000000	99.367878 
2547.000000	99.367908 
2546.000000	99.367889 
2545.000000	99.367885 
2544.000000	99.367985 
2543.000000	99.368239 
2542.000000	99.368625 
2541.000000	99.369082 
2540.000000	99.369549 
2539.000000	99.369955 
2538.000000	99.370190 
2537.000000	99.370167 
2536.000000	99.369912 
2535.000000	99.369588 
2534.000000	99.369398 
2533.000000	99.369460 
2532.000000	99.369770 
2531.000000	99.370225 
2530.000000	99.370728 
2529.000000	99.371259 
2528.000000	99.371842 
2527.000000	99.372438 
2526.000000	99.372927 
2525.000000	99.373254 
2524.000000	99.373507 
2523.000000	99.373776 
2522.000000	99.373946 
2521.000000	99.373772 
2520.000000	99.373204 
2519.000000	99.372525 
2518.000000	99.372105 
2517.000000	99.372038 
2516.000000	99.372075 
2515.000000	99.371950 
2514.000000	99.371739 
2513.000000	99.371772 
2512.000000	99.372141 
2511.000000	99.372435 
2510.000000	99.372167 
2509.000000	99.371456 
2508.000000	99.371004 
2507.000000	99.371247 
2506.000000	99.371762 
2505.000000	99.371704 
2504.000000	99.370749 
2503.000000	99.369355 
2502.000000	99.368222 
2501.000000	99.367681 
2500.000000	99.367733 
2499.000000	99.368359 
2498.000000	99.369553 
2497.000000	99.371062 
2496.000000	99.372321 
2495.000000	99.372783 
2494.000000	99.372263 
2493.000000	99.370979 
2492.000000	99.369370 
2491.000000	99.367872 
2490.000000	99.366771 
2489.000000	99.366184 
2488.000000	99.366073 
2487.000000	99.366293 
2486.000000	99.366672 
2485.000000	99.367125 
2484.000000	99.367649 
2483.000000	99.368176 
2482.000000	99.368453 
2481.000000	99.368207 
2480.000000	99.367453 
2479.000000	99.366557 
2478.000000	99.365888 
2477.000000	99.365440 
2476.000000	99.364945 
2475.000000	99.364318 
2474.000000	99.363825 
2473.000000	99.363734 
2472.000000	99.363985 
2471.000000	99.364301 
2470.000000	99.364521 
2469.000000	99.364641 
2468.000000	99.364603 
2467.000000	99.364265 
2466.000000	99.363660 
2465.000000	99.363137 
2464.000000	99.363070 
2463.000000	99.363458 
2462.000000	99.363865 
2461.000000	99.363818 
2460.000000	99.363240 
2459.000000	99.362461 
2458.000000	99.361920 
2457.000000	99.361786 
2456.000000	99.361878 
2455.000000	99.361864 
2454.000000	99.361546 
2453.000000	99.360953 
2452.000000	99.360232 
2451.000000	99.359544 
2450.000000	99.359037 
2449.000000	99.358828 
2448.000000	99.358929 
2447.000000	99.359218 
2446.000000	99.359548 
2445.000000	99.359849 
2444.000000	99.360105 
2443.000000	99.360298 
2442.000000	99.360402 
2441.000000	99.360412 
2440.000000	99.360322 
2439.000000	99.360116 
2438.000000	99.359810 
2437.000000	99.359495 
2436.000000	99.359293 
2435.000000	99.359222 
2434.000000	99.359134 
2433.000000	99.358825 
2432.000000	99.358259 
2431.000000	99.357680 
2430.000000	99.357442 
2429.000000	99.357690 
2428.000000	99.358256 
2427.000000	99.358857 
2426.000000	99.359370 
2425.000000	99.359776 
2424.000000	99.359906 
2423.000000	99.359507 
2422.000000	99.358608 
2421.000000	99.357721 
2420.000000	99.357416 
2419.000000	99.357772 
2418.000000	99.358416 
2417.000000	99.358928 
2416.000000	99.359156 
2415.000000	99.359151 
2414.000000	99.359051 
2413.000000	99.359068 
2412.000000	99.359334 
2411.000000	99.359707 
2410.000000	99.359875 
2409.000000	99.359753 
2408.000000	99.359620 
2407.000000	99.359801 
2406.000000	99.360341 
2405.000000	99.361042 
2404.000000	99.361699 
2403.000000	99.362156 
2402.000000	99.362338 
2401.000000	99.362315 
2400.000000	99.362251 
2399.000000	99.362242 
2398.000000	99.362291 
2397.000000	99.362456 
2396.000000	99.362895 
2395.000000	99.363695 
2394.000000	99.364770 
2393.000000	99.365913 
2392.000000	99.366941 
2391.000000	99.367791 
2390.000000	99.368502 
2389.000000	99.369166 
2388.000000	99.369838 
2387.000000	99.370495 
2386.000000	99.371087 
2385.000000	99.371622 
2384.000000	99.372156 
2383.000000	99.372727 
2382.000000	99.373330 
2381.000000	99.373943 
2380.000000	99.374544 
2379.000000	99.375126 
2378.000000	99.375691 
2377.000000	99.376249 
2376.000000	99.376805 
2375.000000	99.377368 
2374.000000	99.377945 
2373.000000	99.378531 
2372.000000	99.379117 
2371.000000	99.379689 
2370.000000	99.380238 
2369.000000	99.380757 
2368.000000	99.381238 
2367.000000	99.381677 
2366.000000	99.382079 
2365.000000	99.382457 
2364.000000	99.382824 
2363.000000	99.383185 
2362.000000	99.383536 
2361.000000	99.383869 
2360.000000	99.384183 
2359.000000	99.384481 
2358.000000	99.384768 
2357.000000	99.385044 
2356.000000	99.385304 
2355.000000	99.385538 
2354.000000	99.385737 
2353.000000	99.385899 
2352.000000	99.386032 
2351.000000	99.386144 
2350.000000	99.386240 
2349.000000	99.386319 
2348.000000	99.386378 
2347.000000	99.386416 
2346.000000	99.386434 
2345.000000	99.386437 
2344.000000	99.386427 
2343.000000	99.386406 
2342.000000	99.386368 
2341.000000	99.386325 
2340.000000	99.386284 
2339.000000	99.386197 
2338.000000	99.386002 
2337.000000	99.385725 
2336.000000	99.385474 
2335.000000	99.385318 
2334.000000	99.385193 
2333.000000	99.385011 
2332.000000	99.384711 
2331.000000	99.384265 
2330.000000	99.383554 
2329.000000	99.382516 
2328.000000	99.381508 
2327.000000	99.380879 
2326.000000	99.380735 
2325.000000	99.380451 
2324.000000	99.379515 
2323.000000	99.378258 
2322.000000	99.377839 
2321.000000	99.379198 
2320.000000	99.381517 
2319.000000	99.383008 
2318.000000	99.382620 
2317.000000	99.381314 
2316.000000	99.380721 
2315.000000	99.381246 
2314.000000	99.381878 
2313.000000	99.381638 
2312.000000	99.380574 
2311.000000	99.379167 
2310.000000	99.378068 
2309.000000	99.377681 
2308.000000	99.377874 
2307.000000	99.377548 
2306.000000	99.375869 
2305.000000	99.373107 
2304.000000	99.370180 
2303.000000	99.367262 
2302.000000	99.363932 
2301.000000	99.360437 
2300.000000	99.357837 
2299.000000	99.356489 
2298.000000	99.355668 
2297.000000	99.354855 
2296.000000	99.354594 
2295.000000	99.355245 
2294.000000	99.355929 
2293.000000	99.355283 
2292.000000	99.353145 
2291.000000	99.350555 
2290.000000	99.348485 
2289.000000	99.346986 
2288.000000	99.345626 
2287.000000	99.344125 
2286.000000	99.342504 
2285.000000	99.340932 
2284.000000	99.339598 
2283.000000	99.338524 
2282.000000	99.337436 
2281.000000	99.336020 
2280.000000	99.334330 
2279.000000	99.332860 
2278.000000	99.332099 
2277.000000	99.332096 
2276.000000	99.332426 
2275.000000	99.332515 
2274.000000	99.332033 
2273.000000	99.330984 
2272.000000	99.329437 
2271.000000	99.327304 
2270.000000	99.324722 
2269.000000	99.322617 
2268.000000	99.322219 
2267.000000	99.323787 
2266.000000	99.326025 
2265.000000	99.327106 
2264.000000	99.326365 
2263.000000	99.324585 
2262.000000	99.323168 
2261.000000	99.323105 
2260.000000	99.324455 
2259.000000	99.326109 
2258.000000	99.326342 
2257.000000	99.324355 
2256.000000	99.321244 
2255.000000	99.319004 
2254.000000	99.318383 
2253.000000	99.318474 
2252.000000	99.318383 
2251.000000	99.318433 
2250.000000	99.319374 
2249.000000	99.321131 
2248.000000	99.322787 
2247.000000	99.323308 
2246.000000	99.321980 
2245.000000	99.318657 
2244.000000	99.314061 
2243.000000	99.309582 
2242.000000	99.306485 
2241.000000	99.305249 
2240.000000	99.305431 
2239.000000	99.305839 
2238.000000	99.305168 
2237.000000	99.302919 
2236.000000	99.299594 
2235.000000	99.295781 
2234.000000	99.291612 
2233.000000	99.287726 
2232.000000	99.285934 
2231.000000	99.287718 
2230.000000	99.292543 
2229.000000	99.298318 
2228.000000	99.303359 
2227.000000	99.307029 
2226.000000	99.308671 
2225.000000	99.307508 
2224.000000	99.303877 
2223.000000	99.299521 
2222.000000	99.296268 
2221.000000	99.294905 
2220.000000	99.295217 
2219.000000	99.296418 
2218.000000	99.297533 
2217.000000	99.298163 
2216.000000	99.298918 
2215.000000	99.300460 
2214.000000	99.302114 
2213.000000	99.302153 
2212.000000	99.299608 
2211.000000	99.295289 
2210.000000	99.291142 
2209.000000	99.288771 
2208.000000	99.288450 
2207.000000	99.289077 
2206.000000	99.289052 
2205.000000	99.287636 
2204.000000	99.285382 
2203.000000	99.283237 
2202.000000	99.281578 
2201.000000	99.280335 
2200.000000	99.279483 
2199.000000	99.278863 
2198.000000	99.277959 
2197.000000	99.276508 
2196.000000	99.275152 
2195.000000	99.274829 
2194.000000	99.275614 
2193.000000	99.276725 
2192.000000	99.277366 
2191.000000	99.277183 
2190.000000	99.276166 
2189.000000	99.274575 
2188.000000	99.273009 
2187.000000	99.272094 
2186.000000	99.271966 
2185.000000	99.272303 
2184.000000	99.272698 
2183.000000	99.272941 
2182.000000	99.272905 
2181.000000	99.272512 
2180.000000	99.271923 
2179.000000	99.271477 
2178.000000	99.271285 
2177.000000	99.271106 
2176.000000	99.270697 
2175.000000	99.270098 
2174.000000	99.269521 
2173.000000	99.269139 
2172.000000	99.269014 
2171.000000	99.269118 
2170.000000	99.269396 
2169.000000	99.269833 
2168.000000	99.270444 
2167.000000	99.271170 
2166.000000	99.271839 
2165.000000	99.272337 
2164.000000	99.272740 
2163.000000	99.273199 
2162.000000	99.273801 
2161.000000	99.274511 
2160.000000	99.275267 
2159.000000	99.276040 
2158.000000	99.276829 
2157.000000	99.277645 
2156.000000	99.278498 
2155.000000	99.279387 
2154.000000	99.280292 
2153.000000	99.281191 
2152.000000	99.282070 
2151.000000	99.282941 
2150.000000	99.283832 
2149.000000	99.284766 
2148.000000	99.285745 
2147.000000	99.286746 
2146.000000	99.287723 
2145.000000	99.288632 
2144.000000	99.289447 
2143.000000	99.290176 
2142.000000	99.290852 
2141.000000	99.291496 
2140.000000	99.292112 
2139.000000	99.292702 
2138.000000	99.293276 
2137.000000	99.293848 
2136.000000	99.294424 
2135.000000	99.295007 
2134.000000	99.295597 
2133.000000	99.296181 
2132.000000	99.296703 
2131.000000	99.297089 
2130.000000	99.297291 
2129.000000	99.297320 
2128.000000	99.297264 
2127.000000	99.297234 
2126.000000	99.297285 
2125.000000	99.297340 
2124.000000	99.297270 
2123.000000	99.297145 
2122.000000	99.297200 
2121.000000	99.297466 
2120.000000	99.297616 
2119.000000	99.297357 
2118.000000	99.296797 
2117.000000	99.296270 
2116.000000	99.295914 
2115.000000	99.295632 
2114.000000	99.295356 
2113.000000	99.295122 
2112.000000	99.294899 
2111.000000	99.294539 
2110.000000	99.293947 
2109.000000	99.293255 
2108.000000	99.292694 
2107.000000	99.292226 
2106.000000	99.291394 
2105.000000	99.289680 
2104.000000	99.287092 
2103.000000	99.284402 
2102.000000	99.282630 
2101.000000	99.282158 
2100.000000	99.282539 
2099.000000	99.283013 
2098.000000	99.283191 
2097.000000	99.283259 
2096.000000	99.283596 
2095.000000	99.284114 
2094.000000	99.283962 
2093.000000	99.282161 
2092.000000	99.278727 
2091.000000	99.275183 
2090.000000	99.273403 
2089.000000	99.273864 
2088.000000	99.275426 
2087.000000	99.276512 
2086.000000	99.276604 
2085.000000	99.276275 
2084.000000	99.276300 
2083.000000	99.276957 
2082.000000	99.277875 
2081.000000	99.278300 
2080.000000	99.277670 
2079.000000	99.276111 
2078.000000	99.274390 
2077.000000	99.273423 
2076.000000	99.273837 
2075.000000	99.275767 
2074.000000	99.278575 
2073.000000	99.280825 
2072.000000	99.281261 
2071.000000	99.279875 
2070.000000	99.277748 
2069.000000	99.275762 
2068.000000	99.273875 
2067.000000	99.271840 
2066.000000	99.269941 
2065.000000	99.268565 
2064.000000	99.267613 
2063.000000	99.266869 
2062.000000	99.266594 
2061.000000	99.267164 
2060.000000	99.268306 
2059.000000	99.269261 
2058.000000	99.269577 
2057.000000	99.269267 
2056.000000	99.268284 
2055.000000	99.266322 
2054.000000	99.263370 
2053.000000	99.260168 
2052.000000	99.257812 
2051.000000	99.256859 
2050.000000	99.256854 
2049.000000	99.256588 
2048.000000	99.255077 
2047.000000	99.252347 
2046.000000	99.249349 
2045.000000	99.247069 
2044.000000	99.245800 
2043.000000	99.245158 
2042.000000	99.244600 
2041.000000	99.243869 
2040.000000	99.243028 
2039.000000	99.242272 
2038.000000	99.241741 
2037.000000	99.241364 
2036.000000	99.240843 
2035.000000	99.239857 
2034.000000	99.238326 
2033.000000	99.236511 
2032.000000	99.234866 
2031.000000	99.233731 
2030.000000	99.233146 
2029.000000	99.232908 
2028.000000	99.232729 
2027.000000	99.232442 
2026.000000	99.232119 
2025.000000	99.232008 
2024.000000	99.232266 
2023.000000	99.232723 
2022.000000	99.232916 
2021.000000	99.232536 
2020.000000	99.231660 
2019.000000	99.230732 
2018.000000	99.230212 
2017.000000	99.230191 
2016.000000	99.230391 
2015.000000	99.230440 
2014.000000	99.230259 
2013.000000	99.230060 
2012.000000	99.230088 
2011.000000	99.230421 
2010.000000	99.230973 
2009.000000	99.231678 
2008.000000	99.232563 
2007.000000	99.233592 
2006.000000	99.234506 
2005.000000	99.234952 
2004.000000	99.234830 
2003.000000	99.234438 
2002.000000	99.234247 
2001.000000	99.234522 
2000.000000	99.235174 
1999.000000	99.235833 
1998.000000	99.236105 
1997.000000	99.235924 
1996.000000	99.235739 
1995.000000	99.236192 
1994.000000	99.237513 
1993.000000	99.239176 
1992.000000	99.240268 
1991.000000	99.240371 
1990.000000	99.239915 
1989.000000	99.239710 
1988.000000	99.240238 
1987.000000	99.241310 
1986.000000	99.242213 
1985.000000	99.242305 
1984.000000	99.241655 
1983.000000	99.240993 
1982.000000	99.240813 
1981.000000	99.240684 
1980.000000	99.239680 
1979.000000	99.237429 
1978.000000	99.234798 
1977.000000	99.233299 
1976.000000	99.233615 
1975.000000	99.235057 
1974.000000	99.236340 
1973.000000	99.237082 
1972.000000	99.238076 
1971.000000	99.240004 
1970.000000	99.242303 
1969.000000	99.243546 
1968.000000	99.242944 
1967.000000	99.241081 
1966.000000	99.239362 
1965.000000	99.238629 
1964.000000	99.238756 
1963.000000	99.239402 
1962.000000	99.240506 
1961.000000	99.241959 
1960.000000	99.243327 
1959.000000	99.244296 
1958.000000	99.245118 
1957.000000	99.246286 
1956.000000	99.247883 
1955.000000	99.249517 
1954.000000	99.250831 
1953.000000	99.251820 
1952.000000	99.252565 
1951.000000	99.253011 
1950.000000	99.253221 
1949.000000	99.253646 
1948.000000	99.254806 
1947.000000	99.256564 
1946.000000	99.257951 
1945.000000	99.258040 
1944.000000	99.256875 
1943.000000	99.255603 
1942.000000	99.255518 
1941.000000	99.256857 
1940.000000	99.258759 
1939.000000	99.260227 
1938.000000	99.261189 
1937.000000	99.262402 
1936.000000	99.264428 
1935.000000	99.266861 
1934.000000	99.268730 
1933.000000	99.269651 
1932.000000	99.270284 
1931.000000	99.271558 
1930.000000	99.273511 
1929.000000	99.275257 
1928.000000	99.276216 
1927.000000	99.276762 
1926.000000	99.277526 
1925.000000	99.278485 
1924.000000	99.279251 
1923.000000	99.279887 
1922.000000	99.280745 
1921.000000	99.281684 
1920.000000	99.281987 
1919.000000	99.281110 
1918.000000	99.279253 
1917.000000	99.277379 
1916.000000	99.276518 
1915.000000	99.277002 
1914.000000	99.278491 
1913.000000	99.280358 
1912.000000	99.282051 
1911.000000	99.283256 
1910.000000	99.283745 
1909.000000	99.283526 
1908.000000	99.283253 
1907.000000	99.283808 
1906.000000	99.285405 
1905.000000	99.287244 
1904.000000	99.288362 
1903.000000	99.288692 
1902.000000	99.288726 
1901.000000	99.288726 
1900.000000	99.288682 
1899.000000	99.288734 
1898.000000	99.289184 
1897.000000	99.290075 
1896.000000	99.291139 
1895.000000	99.292083 
1894.000000	99.292623 
1893.000000	99.292550 
1892.000000	99.292085 
1891.000000	99.291891 
1890.000000	99.292341 
1889.000000	99.292992 
1888.000000	99.293296 
1887.000000	99.293345 
1886.000000	99.293574 
1885.000000	99.294250 
1884.000000	99.295432 
1883.000000	99.297140 
1882.000000	99.299078 
1881.000000	99.300549 
1880.000000	99.301212 
1879.000000	99.301566 
1878.000000	99.302521 
1877.000000	99.304503 
1876.000000	99.306982 
1875.000000	99.308947 
1874.000000	99.309579 
1873.000000	99.308570 
1872.000000	99.306426 
1871.000000	99.304241 
1870.000000	99.302843 
1869.000000	99.302191 
1868.000000	99.302019 
1867.000000	99.302496 
1866.000000	99.303475 
1865.000000	99.304325 
1864.000000	99.304751 
1863.000000	99.304892 
1862.000000	99.304735 
1861.000000	99.304160 
1860.000000	99.303800 
1859.000000	99.304847 
1858.000000	99.307415 
1857.000000	99.310010 
1856.000000	99.311326 
1855.000000	99.311842 
1854.000000	99.312709 
1853.000000	99.313936 
1852.000000	99.314764 
1851.000000	99.314950 
1850.000000	99.315142 
1849.000000	99.316162 
1848.000000	99.318130 
1847.000000	99.320354 
1846.000000	99.321761 
1845.000000	99.321649 
1844.000000	99.320415 
1843.000000	99.319594 
1842.000000	99.319986 
1841.000000	99.320880 
1840.000000	99.321429 
1839.000000	99.321399 
1838.000000	99.321023 
1837.000000	99.320594 
1836.000000	99.320404 
1835.000000	99.320736 
1834.000000	99.321501 
1833.000000	99.322231 
1832.000000	99.322529 
1831.000000	99.322304 
1830.000000	99.321835 
1829.000000	99.321680 
1828.000000	99.322069 
1827.000000	99.322638 
1826.000000	99.323024 
1825.000000	99.323256 
1824.000000	99.323561 
1823.000000	99.324033 
1822.000000	99.324424 
1821.000000	99.324490 
1820.000000	99.324427 
1819.000000	99.324733 
1818.000000	99.325636 
1817.000000	99.326609 
1816.000000	99.326981 
1815.000000	99.326918 
1814.000000	99.327119 
1813.000000	99.327896 
1812.000000	99.328854 
1811.000000	99.329646 
1810.000000	99.330455 
1809.000000	99.331216 
1808.000000	99.331453 
1807.000000	99.331036 
1806.000000	99.330321 
1805.000000	99.329599 
1804.000000	99.328921 
1803.000000	99.328404 
1802.000000	99.328175 
1801.000000	99.328146 
1800.000000	99.328097 
1799.000000	99.328136 
1798.000000	99.328575 
1797.000000	99.329398 
1796.000000	99.330295 
1795.000000	99.330969 
1794.000000	99.331201 
1793.000000	99.330820 
1792.000000	99.329891 
1791.000000	99.329101 
1790.000000	99.329050 
1789.000000	99.329554 
1788.000000	99.330145 
1787.000000	99.330678 
1786.000000	99.331288 
1785.000000	99.331916 
1784.000000	99.332293 
1783.000000	99.332308 
1782.000000	99.331971 
1781.000000	99.331441 
1780.000000	99.330922 
1779.000000	99.330592 
1778.000000	99.330572 
1777.000000	99.330832 
1776.000000	99.331298 
1775.000000	99.331754 
1774.000000	99.331952 
1773.000000	99.331932 
1772.000000	99.331957 
1771.000000	99.332245 
1770.000000	99.332718 
1769.000000	99.333034 
1768.000000	99.333013 
1767.000000	99.332819 
1766.000000	99.332721 
1765.000000	99.332784 
1764.000000	99.332847 
1763.000000	99.332806 
1762.000000	99.332758 
1761.000000	99.333010 
1760.000000	99.333594 
1759.000000	99.334297 
1758.000000	99.335134 
1757.000000	99.336342 
1756.000000	99.337821 
1755.000000	99.338869 
1754.000000	99.339067 
1753.000000	99.338901 
1752.000000	99.339233 
1751.000000	99.339911 
1750.000000	99.340088 
1749.000000	99.339666 
1748.000000	99.339363 
1747.000000	99.339609 
1746.000000	99.340083 
1745.000000	99.340474 
1744.000000	99.340694 
1743.000000	99.340726 
1742.000000	99.340629 
1741.000000	99.340558 
1740.000000	99.340690 
1739.000000	99.341161 
1738.000000	99.341860 
1737.000000	99.342448 
1736.000000	99.342777 
1735.000000	99.343099 
1734.000000	99.343394 
1733.000000	99.343548 
1732.000000	99.343617 
1731.000000	99.343485 
1730.000000	99.343170 
1729.000000	99.342894 
1728.000000	99.342842 
1727.000000	99.343012 
1726.000000	99.343274 
1725.000000	99.343530 
1724.000000	99.343727 
1723.000000	99.343881 
1722.000000	99.344027 
1721.000000	99.344151 
1720.000000	99.344241 
1719.000000	99.344330 
1718.000000	99.344422 
1717.000000	99.344428 
1716.000000	99.344323 
1715.000000	99.344191 
1714.000000	99.344106 
1713.000000	99.344041 
1712.000000	99.343953 
1711.000000	99.343853 
1710.000000	99.343783 
1709.000000	99.343749 
1708.000000	99.343711 
1707.000000	99.343631 
1706.000000	99.343503 
1705.000000	99.343331 
1704.000000	99.343130 
1703.000000	99.342929 
1702.000000	99.342768 
1701.000000	99.342670 
1700.000000	99.342553 
1699.000000	99.342399 
1698.000000	99.342279 
1697.000000	99.342134 
1696.000000	99.341893 
1695.000000	99.341594 
1694.000000	99.341350 
1693.000000	99.341170 
1692.000000	99.341001 
1691.000000	99.340853 
1690.000000	99.340754 
1689.000000	99.340708 
1688.000000	99.340719 
1687.000000	99.340766 
1686.000000	99.340850 
1685.000000	99.340942 
1684.000000	99.340910 
1683.000000	99.340767 
1682.000000	99.340610 
1681.000000	99.340457 
1680.000000	99.340340 
1679.000000	99.340280 
1678.000000	99.340238 
1677.000000	99.340184 
1676.000000	99.340142 
1675.000000	99.340155 
1674.000000	99.340225 
1673.000000	99.340341 
1672.000000	99.340474 
1671.000000	99.340608 
1670.000000	99.340711 
1669.000000	99.340762 
1668.000000	99.340813 
1667.000000	99.340900 
1666.000000	99.340997 
1665.000000	99.341092 
1664.000000	99.341210 
1663.000000	99.341379 
1662.000000	99.341580 
1661.000000	99.341778 
1660.000000	99.341981 
1659.000000	99.342204 
1658.000000	99.342431 
1657.000000	99.342625 
1656.000000	99.342773 
1655.000000	99.342894 
1654.000000	99.343098 
1653.000000	99.343359 
1652.000000	99.343706 
1651.000000	99.344178 
1650.000000	99.344559 
1649.000000	99.344790 
1648.000000	99.344956 
1647.000000	99.345077 
1646.000000	99.345180 
1645.000000	99.345382 
1644.000000	99.345707 
1643.000000	99.346094 
1642.000000	99.346480 
1641.000000	99.346824 
1640.000000	99.347140 
1639.000000	99.347467 
1638.000000	99.347851 
1637.000000	99.348387 
1636.000000	99.349006 
1635.000000	99.349440 
1634.000000	99.349724 
1633.000000	99.349794 
1632.000000	99.349469 
1631.000000	99.348997 
1630.000000	99.348725 
1629.000000	99.348804 
1628.000000	99.349242 
1627.000000	99.349952 
1626.000000	99.350599 
1625.000000	99.350885 
1624.000000	99.350892 
1623.000000	99.350872 
1622.000000	99.350946 
1621.000000	99.351164 
1620.000000	99.351560 
1619.000000	99.352059 
1618.000000	99.352605 
1617.000000	99.352912 
1616.000000	99.353381 
1615.000000	99.354656 
1614.000000	99.356018 
1613.000000	99.356786 
1612.000000	99.357673 
1611.000000	99.359284 
1610.000000	99.360622 
1609.000000	99.360582 
1608.000000	99.359829 
1607.000000	99.359711 
1606.000000	99.360173 
1605.000000	99.360720 
1604.000000	99.361663 
1603.000000	99.363021 
1602.000000	99.363992 
1601.000000	99.364187 
1600.000000	99.364337 
1599.000000	99.365018 
1598.000000	99.365887 
1597.000000	99.366538 
1596.000000	99.367095 
1595.000000	99.367695 
1594.000000	99.368058 
1593.000000	99.368187 
1592.000000	99.368761 
1591.000000	99.370194 
1590.000000	99.371844 
1589.000000	99.372846 
1588.000000	99.373232 
1587.000000	99.373538 
1586.000000	99.373780 
1585.000000	99.373632 
1584.000000	99.373349 
1583.000000	99.373168 
1582.000000	99.372936 
1581.000000	99.372626 
1580.000000	99.372454 
1579.000000	99.372457 
1578.000000	99.372524 
1577.000000	99.372629 
1576.000000	99.372760 
1575.000000	99.372909 
1574.000000	99.373031 
1573.000000	99.373115 
1572.000000	99.373181 
1571.000000	99.373227 
1570.000000	99.373255 
1569.000000	99.373266 
1568.000000	99.373262 
1567.000000	99.373249 
1566.000000	99.373225 
1565.000000	99.373190 
1564.000000	99.373145 
1563.000000	99.373091 
1562.000000	99.373028 
1561.000000	99.372957 
1560.000000	99.372877 
1559.000000	99.372778 
1558.000000	99.372649 
1557.000000	99.372497 
1556.000000	99.372326 
1555.000000	99.372135 
1554.000000	99.371925 
1553.000000	99.371697 
1552.000000	99.371453 
1551.000000	99.371198 
1550.000000	99.370938 
1549.000000	99.370678 
1548.000000	99.370419 
1547.000000	99.370161 
1546.000000	99.369899 
1545.000000	99.369637 
1544.000000	99.369378 
1543.000000	99.369128 
1542.000000	99.368885 
1541.000000	99.368636 
1540.000000	99.368364 
1539.000000	99.368066 
1538.000000	99.367748 
1537.000000	99.367410 
1536.000000	99.367051 
1535.000000	99.366673 
1534.000000	99.366279 
1533.000000	99.365870 
1532.000000	99.365453 
1531.000000	99.365035 
1530.000000	99.364615 
1529.000000	99.364189 
1528.000000	99.363749 
1527.000000	99.363289 
1526.000000	99.362831 
1525.000000	99.362417 
1524.000000	99.362045 
1523.000000	99.361701 
1522.000000	99.361416 
1521.000000	99.361107 
1520.000000	99.360634 
1519.000000	99.359886 
1518.000000	99.358783 
1517.000000	99.357495 
1516.000000	99.356344 
1515.000000	99.355498 
1514.000000	99.354826 
1513.000000	99.354247 
1512.000000	99.353758 
1511.000000	99.353196 
1510.000000	99.352484 
1509.000000	99.351688 
1508.000000	99.351230 
1507.000000	99.350939 
1506.000000	99.350469 
1505.000000	99.349893 
1504.000000	99.349051 
1503.000000	99.348006 
1502.000000	99.347230 
1501.000000	99.346666 
1500.000000	99.345598 
1499.000000	99.343594 
1498.000000	99.341399 
1497.000000	99.339819 
1496.000000	99.338479 
1495.000000	99.337566 
1494.000000	99.337939 
1493.000000	99.339578 
1492.000000	99.341466 
1491.000000	99.342389 
1490.000000	99.341746 
1489.000000	99.339778 
1488.000000	99.336862 
1487.000000	99.333706 
1486.000000	99.330892 
1485.000000	99.328142 
1484.000000	99.325567 
1483.000000	99.323689 
1482.000000	99.322940 
1481.000000	99.322868 
1480.000000	99.322359 
1479.000000	99.320998 
1478.000000	99.319286 
1477.000000	99.317608 
1476.000000	99.315790 
1475.000000	99.314421 
1474.000000	99.314414 
1473.000000	99.315139 
1472.000000	99.314775 
1471.000000	99.313592 
1470.000000	99.313042 
1469.000000	99.312874 
1468.000000	99.312065 
1467.000000	99.310588 
1466.000000	99.309451 
1465.000000	99.309460 
1464.000000	99.310693 
1463.000000	99.312448 
1462.000000	99.313895 
1461.000000	99.314171 
1460.000000	99.312814 
1459.000000	99.309331 
1458.000000	99.303151 
1457.000000	99.293418 
1456.000000	99.282933 
1455.000000	99.275367 
1454.000000	99.270540 
1453.000000	99.269159 
1452.000000	99.272306 
1451.000000	99.278146 
1450.000000	99.283425 
1449.000000	99.286027 
1448.000000	99.285385 
1447.000000	99.283222 
1446.000000	99.281769 
1445.000000	99.282459 
1444.000000	99.284985 
1443.000000	99.287442 
1442.000000	99.288788 
1441.000000	99.289299 
1440.000000	99.289264 
1439.000000	99.288144 
1438.000000	99.287449 
1437.000000	99.288526 
1436.000000	99.289332 
1435.000000	99.287778 
1434.000000	99.284361 
1433.000000	99.280126 
1432.000000	99.275816 
1431.000000	99.271175 
1430.000000	99.266281 
1429.000000	99.262390 
1428.000000	99.259690 
1427.000000	99.257254 
1426.000000	99.253962 
1425.000000	99.250535 
1424.000000	99.247801 
1423.000000	99.244214 
1422.000000	99.238123 
1421.000000	99.229619 
1420.000000	99.219774 
1419.000000	99.208653 
1418.000000	99.197886 
1417.000000	99.189171 
1416.000000	99.180491 
1415.000000	99.169686 
1414.000000	99.157163 
1413.000000	99.144957 
1412.000000	99.134635 
1411.000000	99.126115 
1410.000000	99.119130 
1409.000000	99.113970 
1408.000000	99.110675 
1407.000000	99.109385 
1406.000000	99.110127 
1405.000000	99.112945 
1404.000000	99.117697 
1403.000000	99.123700 
1402.000000	99.130612 
1401.000000	99.138443 
1400.000000	99.146332 
1399.000000	99.151309 
1398.000000	99.149904 
1397.000000	99.140161 
1396.000000	99.122957 
1395.000000	99.105071 
1394.000000	99.097421 
1393.000000	99.105394 
1392.000000	99.123828 
1391.000000	99.142669 
1390.000000	99.155147 
1389.000000	99.160095 
1388.000000	99.159480 
1387.000000	99.155952 
1386.000000	99.152141 
1385.000000	99.150068 
1384.000000	99.150240 
1383.000000	99.151586 
1382.000000	99.152842 
1381.000000	99.153965 
1380.000000	99.156386 
1379.000000	99.161512 
1378.000000	99.169105 
1377.000000	99.177469 
1376.000000	99.184976 
1375.000000	99.191123 
1374.000000	99.196719 
1373.000000	99.203443 
1372.000000	99.211975 
1371.000000	99.221143 
1370.000000	99.229044 
1369.000000	99.234988 
1368.000000	99.239908 
1367.000000	99.244917 
1366.000000	99.250493 
1365.000000	99.256864 
1364.000000	99.264202 
1363.000000	99.271911 
1362.000000	99.278585 
1361.000000	99.283375 
1360.000000	99.286856 
1359.000000	99.290508 
1358.000000	99.295715 
1357.000000	99.302903 
1356.000000	99.310965 
1355.000000	99.317843 
1354.000000	99.322638 
1353.000000	99.326654 
1352.000000	99.331326 
1351.000000	99.336278 
1350.000000	99.339786 
1349.000000	99.342021 
1348.000000	99.344734 
1347.000000	99.348243 
1346.000000	99.351247 
1345.000000	99.353228 
1344.000000	99.355109 
1343.000000	99.357181 
1342.000000	99.358428 
1341.000000	99.358462 
1340.000000	99.358507 
1339.000000	99.359582 
1338.000000	99.361310 
1337.000000	99.363259 
1336.000000	99.365650 
1335.000000	99.368091 
1334.000000	99.369233 
1333.000000	99.368550 
1332.000000	99.367293 
1331.000000	99.366758 
1330.000000	99.366664 
1329.000000	99.366385 
1328.000000	99.366481 
1327.000000	99.367693 
1326.000000	99.369122 
1325.000000	99.369253 
1324.000000	99.367940 
1323.000000	99.366322 
1322.000000	99.365521 
1321.000000	99.366101 
1320.000000	99.368320 
1319.000000	99.371903 
1318.000000	99.375626 
1317.000000	99.377723 
1316.000000	99.377115 
1315.000000	99.374384 
1314.000000	99.371553 
1313.000000	99.370400 
1312.000000	99.370741 
1311.000000	99.370929 
1310.000000	99.370191 
1309.000000	99.369651 
1308.000000	99.370488 
1307.000000	99.372131 
1306.000000	99.373071 
1305.000000	99.373169 
1304.000000	99.373595 
1303.000000	99.374688 
1302.000000	99.375340 
1301.000000	99.374544 
1300.000000	99.372525 
1299.000000	99.370293 
1298.000000	99.369113 
1297.000000	99.370236 
1296.000000	99.373880 
1295.000000	99.378062 
1294.000000	99.379711 
1293.000000	99.377535 
1292.000000	99.373062 
1291.000000	99.368934 
1290.000000	99.366727 
1289.000000	99.366428 
1288.000000	99.366946 
1287.000000	99.366680 
1286.000000	99.364592 
1285.000000	99.361186 
1284.000000	99.357834 
1283.000000	99.355111 
1282.000000	99.352337 
1281.000000	99.348776 
1280.000000	99.344613 
1279.000000	99.340357 
1278.000000	99.336271 
1277.000000	99.332863 
1276.000000	99.330869 
1275.000000	99.329896 
1274.000000	99.327923 
1273.000000	99.323202 
1272.000000	99.316285 
1271.000000	99.309399 
1270.000000	99.303902 
1269.000000	99.299120 
1268.000000	99.293678 
1267.000000	99.287178 
1266.000000	99.280326 
1265.000000	99.273850 
1264.000000	99.267683 
1263.000000	99.261266 
1262.000000	99.254445 
1261.000000	99.247883 
1260.000000	99.242475 
1259.000000	99.238278 
1258.000000	99.234357 
1257.000000	99.229972 
1256.000000	99.225727 
1255.000000	99.223070 
1254.000000	99.222458 
1253.000000	99.222436 
1252.000000	99.221133 
1251.000000	99.218643 
1250.000000	99.217244 
1249.000000	99.218985 
1248.000000	99.223554 
1247.000000	99.228567 
1246.000000	99.231365 
1245.000000	99.230153 
1244.000000	99.224417 
1243.000000	99.215979 
1242.000000	99.209423 
1241.000000	99.209194 
1240.000000	99.215491 
1239.000000	99.223501 
1238.000000	99.227712 
1237.000000	99.226765 
1236.000000	99.223042 
1235.000000	99.218942 
1234.000000	99.215018 
1233.000000	99.211133 
1232.000000	99.207348 
1231.000000	99.203311 
1230.000000	99.198521 
1229.000000	99.193912 
1228.000000	99.191839 
1227.000000	99.193650 
1226.000000	99.198085 
1225.000000	99.202670 
1224.000000	99.206042 
1223.000000	99.208388 
1222.000000	99.210488 
1221.000000	99.213051 
1220.000000	99.216424 
1219.000000	99.220266 
1218.000000	99.223766 
1217.000000	99.226404 
1216.000000	99.228080 
1215.000000	99.228540 
1214.000000	99.227419 
1213.000000	99.224939 
1212.000000	99.221908 
1211.000000	99.219015 
1210.000000	99.216823 
1209.000000	99.216222 
1208.000000	99.217713 
1207.000000	99.220076 
1206.000000	99.221042 
1205.000000	99.219711 
1204.000000	99.217266 
1203.000000	99.215063 
1202.000000	99.213114 
1201.000000	99.210781 
1200.000000	99.207787 
1199.000000	99.203974 
1198.000000	99.199231 
1197.000000	99.194097 
1196.000000	99.189185 
1195.000000	99.183853 
1194.000000	99.176754 
1193.000000	99.167889 
1192.000000	99.158992 
1191.000000	99.151334 
1190.000000	99.144104 
1189.000000	99.135775 
1188.000000	99.126326 
1187.000000	99.117350 
1186.000000	99.110531 
1185.000000	99.106453 
1184.000000	99.104235 
1183.000000	99.101757 
1182.000000	99.096933 
1181.000000	99.089393 
1180.000000	99.080496 
1179.000000	99.071524 
1178.000000	99.062698 
1177.000000	99.054283 
1176.000000	99.047277 
1175.000000	99.041785 
1174.000000	99.035520 
1173.000000	99.025526 
1172.000000	99.011532 
1171.000000	98.996668 
1170.000000	98.984539 
1169.000000	98.976036 
1168.000000	98.969120 
1167.000000	98.961360 
1166.000000	98.952777 
1165.000000	98.946187 
1164.000000	98.944466 
1163.000000	98.947557 
1162.000000	98.952562 
1161.000000	98.956922 
1160.000000	98.960585 
1159.000000	98.964301 
1158.000000	98.966730 
1157.000000	98.964606 
1156.000000	98.955757 
1155.000000	98.941360 
1154.000000	98.925488 
1153.000000	98.912607 
1152.000000	98.904853 
1151.000000	98.900855 
1150.000000	98.896994 
1149.000000	98.890483 
1148.000000	98.881487 
1147.000000	98.872096 
1146.000000	98.863451 
1145.000000	98.854362 
1144.000000	98.842773 
1143.000000	98.828195 
1142.000000	98.812695 
1141.000000	98.799646 
1140.000000	98.791265 
1139.000000	98.786897 
1138.000000	98.783497 
1137.000000	98.777967 
1136.000000	98.769161 
1135.000000	98.757953 
1134.000000	98.745859 
1133.000000	98.733569 
1132.000000	98.720554 
1131.000000	98.706174 
1130.000000	98.691392 
1129.000000	98.678773 
1128.000000	98.669640 
1127.000000	98.661462 
1126.000000	98.649782 
1125.000000	98.633378 
1124.000000	98.616084 
1123.000000	98.602467 
1122.000000	98.592818 
1121.000000	98.583781 
1120.000000	98.572895 
1119.000000	98.560594 
1118.000000	98.548125 
1117.000000	98.535477 
1116.000000	98.521867 
1115.000000	98.506974 
1114.000000	98.491098 
1113.000000	98.474745 
1112.000000	98.458326 
1111.000000	98.441660 
1110.000000	98.423530 
1109.000000	98.402739 
1108.000000	98.380138 
1107.000000	98.358685 
1106.000000	98.340743 
1105.000000	98.325686 
1104.000000	98.310471 
1103.000000	98.292798 
1102.000000	98.273628 
1101.000000	98.256250 
1100.000000	98.242504 
1099.000000	98.230947 
1098.000000	98.219057 
1097.000000	98.206575 
1096.000000	98.195162 
1095.000000	98.184618 
1094.000000	98.171252 
1093.000000	98.150850 
1092.000000	98.122182 
1091.000000	98.087232 
1090.000000	98.049499 
1089.000000	98.012729 
1088.000000	97.979772 
1087.000000	97.951079 
1086.000000	97.924813 
1085.000000	97.899468 
1084.000000	97.875468 
1083.000000	97.853071 
1082.000000	97.830113 
1081.000000	97.803896 
1080.000000	97.774667 
1079.000000	97.745331 
1078.000000	97.718353 
1077.000000	97.695002 
1076.000000	97.676963 
1075.000000	97.665973 
1074.000000	97.661618 
1073.000000	97.661331 
1072.000000	97.661843 
1071.000000	97.658134 
1070.000000	97.642290 
1069.000000	97.608610 
1068.000000	97.562248 
1067.000000	97.519833 
1066.000000	97.497304 
1065.000000	97.497579 
1064.000000	97.510719 
1063.000000	97.523244 
1062.000000	97.525741 
1061.000000	97.513918 
1060.000000	97.487940 
1059.000000	97.453529 
1058.000000	97.420925 
1057.000000	97.398750 
1056.000000	97.387982 
1055.000000	97.382547 
1054.000000	97.375728 
1053.000000	97.365716 
1052.000000	97.355178 
1051.000000	97.346868 
1050.000000	97.340926 
1049.000000	97.335882 
1048.000000	97.330699 
1047.000000	97.325530 
1046.000000	97.321587 
1045.000000	97.320300 
1044.000000	97.321603 
1043.000000	97.323231 
1042.000000	97.323048 
1041.000000	97.322049 
1040.000000	97.323664 
1039.000000	97.330358 
1038.000000	97.342611 
1037.000000	97.360660 
1036.000000	97.384364 
1035.000000	97.410943 
1034.000000	97.435792 
1033.000000	97.456377 
1032.000000	97.472324 
1031.000000	97.481184 
1030.000000	97.478967 
1029.000000	97.468077 
1028.000000	97.461087 
1027.000000	97.471183 
1026.000000	97.499133 
1025.000000	97.532619 
1024.000000	97.558056 
1023.000000	97.570776 
1022.000000	97.574937 
1021.000000	97.577601 
1020.000000	97.583678 
1019.000000	97.593946 
1018.000000	97.605937 
1017.000000	97.617190 
1016.000000	97.627797 
1015.000000	97.639323 
1014.000000	97.652105 
1013.000000	97.664831 
1012.000000	97.676184 
1011.000000	97.685709 
1010.000000	97.693761 
1009.000000	97.701830 
1008.000000	97.712283 
1007.000000	97.726501 
1006.000000	97.743452 
1005.000000	97.760791 
1004.000000	97.776857 
1003.000000	97.791184 
1002.000000	97.804118 
1001.000000	97.816771 
1000.000000	97.830392 
999.000000	 97.844883 
998.000000	 97.858599 
997.000000	 97.870376 
996.000000	 97.881255 
995.000000	 97.893485 
994.000000	 97.907962 
993.000000	 97.923293 
992.000000	 97.937454 
991.000000	 97.949615 
990.000000	 97.960072 
989.000000	 97.969580 
988.000000	 97.979264 
987.000000	 97.990181 
986.000000	 98.002487 
985.000000	 98.015931 
984.000000	 98.030788 
983.000000	 98.046921 
982.000000	 98.062782 
981.000000	 98.076711 
980.000000	 98.088906 
979.000000	 98.101335 
978.000000	 98.116001 
977.000000	 98.133913 
976.000000	 98.154664 
975.000000	 98.175814 
974.000000	 98.194108 
973.000000	 98.209174 
972.000000	 98.224952 
971.000000	 98.245491 
970.000000	 98.270114 
969.000000	 98.294505 
968.000000	 98.315619 
967.000000	 98.333465 
966.000000	 98.349144 
965.000000	 98.363779 
964.000000	 98.378957 
963.000000	 98.395721 
962.000000	 98.413069 
961.000000	 98.429321 
960.000000	 98.444617 
959.000000	 98.460048 
958.000000	 98.474835 
957.000000	 98.486926 
956.000000	 98.496490 
955.000000	 98.506450 
954.000000	 98.519028 
953.000000	 98.533538 
952.000000	 98.548079 
951.000000	 98.561603 
950.000000	 98.573640 
949.000000	 98.583417 
948.000000	 98.590170 
947.000000	 98.593742 
946.000000	 98.594760 
945.000000	 98.594909 
944.000000	 98.596778 
943.000000	 98.602341 
942.000000	 98.611359 
941.000000	 98.621674 
940.000000	 98.630713 
939.000000	 98.636427 
938.000000	 98.638152 
937.000000	 98.637857 
936.000000	 98.639687 
935.000000	 98.646555 
934.000000	 98.657251 
933.000000	 98.667957 
932.000000	 98.676218 
931.000000	 98.682407 
930.000000	 98.687970 
929.000000	 98.693551 
928.000000	 98.698554 
927.000000	 98.701609 
926.000000	 98.701958 
925.000000	 98.701134 
924.000000	 98.702392 
923.000000	 98.707545 
922.000000	 98.715128 
921.000000	 98.722469 
920.000000	 98.728395 
919.000000	 98.732698 
918.000000	 98.734405 
917.000000	 98.732651 
916.000000	 98.728728 
915.000000	 98.725509 
914.000000	 98.724813 
913.000000	 98.726476 
912.000000	 98.729812 
911.000000	 98.734723 
910.000000	 98.741415 
909.000000	 98.749954 
908.000000	 98.760079 
907.000000	 98.770771 
906.000000	 98.780287 
905.000000	 98.787246 
904.000000	 98.791428 
903.000000	 98.793478 
902.000000	 98.794848 
901.000000	 98.798227 
900.000000	 98.806421 
899.000000	 98.819639 
898.000000	 98.834571 
897.000000	 98.847273 
896.000000	 98.856367 
895.000000	 98.862659 
894.000000	 98.867207 
893.000000	 98.871328 
892.000000	 98.877476 
891.000000	 98.888192 
890.000000	 98.904038 
889.000000	 98.923126 
888.000000	 98.942086 
887.000000	 98.957270 
886.000000	 98.966587 
885.000000	 98.971552 
884.000000	 98.976659 
883.000000	 98.984706 
882.000000	 98.993497 
881.000000	 98.999343 
880.000000	 99.002981 
879.000000	 99.009280 
878.000000	 99.020927 
877.000000	 99.035226 
876.000000	 99.047778 
875.000000	 99.056931 
874.000000	 99.063359 
873.000000	 99.067871 
872.000000	 99.071621 
871.000000	 99.076865 
870.000000	 99.085401 
869.000000	 99.097061 
868.000000	 99.110853 
867.000000	 99.126247 
866.000000	 99.142015 
865.000000	 99.155404 
864.000000	 99.164839 
863.000000	 99.172872 
862.000000	 99.184000 
861.000000	 99.199034 
860.000000	 99.213647 
859.000000	 99.223285 
858.000000	 99.227871 
857.000000	 99.230849 
856.000000	 99.235352 
855.000000	 99.243008 
854.000000	 99.255028 
853.000000	 99.271285 
852.000000	 99.287962 
851.000000	 99.299176 
850.000000	 99.303112 
849.000000	 99.305027 
848.000000	 99.311868 
847.000000	 99.324462 
846.000000	 99.337130 
845.000000	 99.344459 
844.000000	 99.346032 
843.000000	 99.345021 
842.000000	 99.345031 
841.000000	 99.348484 
840.000000	 99.355036 
839.000000	 99.360488 
838.000000	 99.360197 
837.000000	 99.355066 
836.000000	 99.351178 
835.000000	 99.351642 
834.000000	 99.352288 
833.000000	 99.348907 
832.000000	 99.345650 
831.000000	 99.350721 
830.000000	 99.364133 
829.000000	 99.375399 
828.000000	 99.375523 
827.000000	 99.367274 
826.000000	 99.360824 
825.000000	 99.361625 
824.000000	 99.366243 
823.000000	 99.369227 
822.000000	 99.369927 
821.000000	 99.371235 
820.000000	 99.374121 
819.000000	 99.376127 
818.000000	 99.375333 
817.000000	 99.373877 
816.000000	 99.375485 
815.000000	 99.379460 
814.000000	 99.379523 
813.000000	 99.370099 
812.000000	 99.352011 
811.000000	 99.330179 
810.000000	 99.306717 
809.000000	 99.278709 
808.000000	 99.242941 
807.000000	 99.200633 
806.000000	 99.156382 
805.000000	 99.113547 
804.000000	 99.072301 
803.000000	 99.032295 
802.000000	 98.995778 
801.000000	 98.966526 
800.000000	 98.945626 
799.000000	 98.930218 
798.000000	 98.918014 
797.000000	 98.911443 
796.000000	 98.914200 
795.000000	 98.924566 
794.000000	 98.936097 
793.000000	 98.945265 
792.000000	 98.954223 
791.000000	 98.964795 
790.000000	 98.974421 
789.000000	 98.980291 
788.000000	 98.982950 
787.000000	 98.982638 
786.000000	 98.976008 
785.000000	 98.960298 
784.000000	 98.938169 
783.000000	 98.915266 
782.000000	 98.895459 
781.000000	 98.880900 
780.000000	 98.872967 
779.000000	 98.869257 
778.000000	 98.863218 
777.000000	 98.851981 
776.000000	 98.842313 
775.000000	 98.843718 
774.000000	 98.857519 
773.000000	 98.876932 
772.000000	 98.896031 
771.000000	 98.913673 
770.000000	 98.929711 
769.000000	 98.942887 
768.000000	 98.952746 
767.000000	 98.959966 
766.000000	 98.965204 
765.000000	 98.970579 
764.000000	 98.980507 
763.000000	 98.996767 
762.000000	 99.013736 
761.000000	 99.023160 
760.000000	 99.023685 
759.000000	 99.022048 
758.000000	 99.025142 
757.000000	 99.033900 
756.000000	 99.044388 
755.000000	 99.051462 
754.000000	 99.051961 
753.000000	 99.047840 
752.000000	 99.046175 
751.000000	 99.053088 
750.000000	 99.067354 
749.000000	 99.081832 
748.000000	 99.090947 
747.000000	 99.094773 
746.000000	 99.096781 
745.000000	 99.100620 
744.000000	 99.108753 
743.000000	 99.121166 
742.000000	 99.134812 
741.000000	 99.146553 
740.000000	 99.156717 
739.000000	 99.167767 
738.000000	 99.180001 
737.000000	 99.190759 
736.000000	 99.197423 
735.000000	 99.199094 
734.000000	 99.196239 
733.000000	 99.191327 
732.000000	 99.189458 
731.000000	 99.195126 
730.000000	 99.207486 
729.000000	 99.220978 
728.000000	 99.231617 
727.000000	 99.240081 
726.000000	 99.247547 
725.000000	 99.252020 
724.000000	 99.251277 
723.000000	 99.246875 
722.000000	 99.242760 
721.000000	 99.241782 
720.000000	 99.245365 
719.000000	 99.254218 
718.000000	 99.266909 
717.000000	 99.279159 
716.000000	 99.286612 
715.000000	 99.287757 
714.000000	 99.284321 
713.000000	 99.280137 
712.000000	 99.279866 
711.000000	 99.286174 
710.000000	 99.296299 
709.000000	 99.303350 
708.000000	 99.302642 
707.000000	 99.295434 
706.000000	 99.286051 
705.000000	 99.277498 
704.000000	 99.270878 
703.000000	 99.266923 
702.000000	 99.265856 
701.000000	 99.266159 
700.000000	 99.264903 
699.000000	 99.259424 
698.000000	 99.249259 
697.000000	 99.237454 
696.000000	 99.229183 
695.000000	 99.227364 
694.000000	 99.229894 
693.000000	 99.232466 
692.000000	 99.233752 
691.000000	 99.235862 
690.000000	 99.240405 
689.000000	 99.246842 
688.000000	 99.254232 
687.000000	 99.261740 
686.000000	 99.267229 
685.000000	 99.268247 
684.000000	 99.265289 
683.000000	 99.262176 
682.000000	 99.262589 
681.000000	 99.267197 
680.000000	 99.273843 
679.000000	 99.279157 
678.000000	 99.281001 
677.000000	 99.280446 
676.000000	 99.281237 
675.000000	 99.285507 
674.000000	 99.291374 
673.000000	 99.295504 
672.000000	 99.297089 
671.000000	 99.297849 
670.000000	 99.299695 
669.000000	 99.303333 
668.000000	 99.307989 
667.000000	 99.312190 
666.000000	 99.315603 
665.000000	 99.318548 
664.000000	 99.321584 
663.000000	 99.325434 
662.000000	 99.330148 
661.000000	 99.334706 
660.000000	 99.338181 
659.000000	 99.340630 
658.000000	 99.342701 
657.000000	 99.344753 
656.000000	 99.347018 
655.000000	 99.350280 
654.000000	 99.355156 
653.000000	 99.361232 
652.000000	 99.367442 
651.000000	 99.373086 
650.000000	 99.377775 

