4000.000000	99.824577  
3999.000000	99.822915  
3998.000000	99.820931  
3997.000000	99.821097  
3996.000000	99.823676  
3995.000000	99.827009  
3994.000000	99.829375  
3993.000000	99.830261  
3992.000000	99.830168  
3991.000000	99.829675  
3990.000000	99.828813  
3989.000000	99.827173  
3988.000000	99.824624  
3987.000000	99.821918  
3986.000000	99.820356  
3985.000000	99.820783  
3984.000000	99.823043  
3983.000000	99.826532  
3982.000000	99.830924  
3981.000000	99.836022  
3980.000000	99.841187  
3979.000000	99.845299  
3978.000000	99.847362  
3977.000000	99.847020  
3976.000000	99.844611  
3975.000000	99.840829  
3974.000000	99.836289  
3973.000000	99.831419  
3972.000000	99.826913  
3971.000000	99.824111  
3970.000000	99.824446  
3969.000000	99.828195  
3968.000000	99.833914  
3967.000000	99.839368  
3966.000000	99.842818  
3965.000000	99.843553  
3964.000000	99.841984  
3963.000000	99.839738  
3962.000000	99.838987  
3961.000000	99.840611  
3960.000000	99.843006  
3959.000000	99.843264  
3958.000000	99.839967  
3957.000000	99.834694  
3956.000000	99.830579  
3955.000000	99.829647  
3954.000000	99.831378  
3953.000000	99.833634  
3952.000000	99.834665  
3951.000000	99.834309  
3950.000000	99.833697  
3949.000000	99.833918  
3948.000000	99.835136  
3947.000000	99.836920  
3946.000000	99.838873  
3945.000000	99.840566  
3944.000000	99.841154  
3943.000000	99.839813  
3942.000000	99.836468  
3941.000000	99.832117  
3940.000000	99.828554  
3939.000000	99.827370  
3938.000000	99.828670  
3937.000000	99.831010  
3936.000000	99.832683  
3935.000000	99.833389  
3934.000000	99.834321  
3933.000000	99.836604  
3932.000000	99.839901  
3931.000000	99.842721  
3930.000000	99.843869  
3929.000000	99.842769  
3928.000000	99.839194  
3927.000000	99.833966  
3926.000000	99.829743  
3925.000000	99.829740  
3924.000000	99.834365  
3923.000000	99.839978  
3922.000000	99.842322  
3921.000000	99.840264  
3920.000000	99.835935  
3919.000000	99.832289  
3918.000000	99.830734  
3917.000000	99.830671  
3916.000000	99.830560  
3915.000000	99.829444  
3914.000000	99.827644  
3913.000000	99.826180  
3912.000000	99.825667  
3911.000000	99.825950  
3910.000000	99.826764  
3909.000000	99.828484  
3908.000000	99.831506  
3907.000000	99.835789  
3906.000000	99.841135  
3905.000000	99.848013  
3904.000000	99.856656  
3903.000000	99.864618  
3902.000000	99.867531  
3901.000000	99.863586  
3900.000000	99.855465  
3899.000000	99.847298  
3898.000000	99.840525  
3897.000000	99.834048  
3896.000000	99.827542  
3895.000000	99.822421  
3894.000000	99.820314  
3893.000000	99.822186  
3892.000000	99.828494  
3891.000000	99.838762  
3890.000000	99.850137  
3889.000000	99.859023  
3888.000000	99.863198  
3887.000000	99.862256  
3886.000000	99.858149  
3885.000000	99.854099  
3884.000000	99.851410  
3883.000000	99.849287  
3882.000000	99.846823  
3881.000000	99.844399  
3880.000000	99.843233  
3879.000000	99.843545  
3878.000000	99.844089  
3877.000000	99.843757  
3876.000000	99.842135  
3875.000000	99.840636  
3874.000000	99.841708  
3873.000000	99.844966  
3872.000000	99.846360  
3871.000000	99.843690  
3870.000000	99.840926  
3869.000000	99.842993  
3868.000000	99.849038  
3867.000000	99.854892  
3866.000000	99.857212  
3865.000000	99.854665  
3864.000000	99.848816  
3863.000000	99.843213  
3862.000000	99.840620  
3861.000000	99.840315  
3860.000000	99.838537  
3859.000000	99.832896  
3858.000000	99.825446  
3857.000000	99.821235  
3856.000000	99.823828  
3855.000000	99.831786  
3854.000000	99.842579  
3853.000000	99.854509  
3852.000000	99.862108  
3851.000000	99.861735  
3850.000000	99.857142  
3849.000000	99.852469  
3848.000000	99.848923  
3847.000000	99.845795  
3846.000000	99.842778  
3845.000000	99.840867  
3844.000000	99.841218  
3843.000000	99.843488  
3842.000000	99.846129  
3841.000000	99.848311  
3840.000000	99.851247  
3839.000000	99.857297  
3838.000000	99.866413  
3837.000000	99.874776  
3836.000000	99.877873  
3835.000000	99.874206  
3834.000000	99.866025  
3833.000000	99.857279  
3832.000000	99.851161  
3831.000000	99.848233  
3830.000000	99.846289  
3829.000000	99.842814  
3828.000000	99.837717  
3827.000000	99.834036  
3826.000000	99.835565  
3825.000000	99.843148  
3824.000000	99.853479  
3823.000000	99.860758  
3822.000000	99.861945  
3821.000000	99.861347  
3820.000000	99.863677  
3819.000000	99.867106  
3818.000000	99.868098  
3817.000000	99.865419  
3816.000000	99.860678  
3815.000000	99.855835  
3814.000000	99.850768  
3813.000000	99.845078  
3812.000000	99.839636  
3811.000000	99.835428  
3810.000000	99.832904  
3809.000000	99.832313  
3808.000000	99.834696  
3807.000000	99.841258  
3806.000000	99.850616  
3805.000000	99.858376  
3804.000000	99.860896  
3803.000000	99.857212  
3802.000000	99.850495  
3801.000000	99.846256  
3800.000000	99.844618  
3799.000000	99.841465  
3798.000000	99.835303  
3797.000000	99.828027  
3796.000000	99.822718  
3795.000000	99.821116  
3794.000000	99.823206  
3793.000000	99.827952  
3792.000000	99.833472  
3791.000000	99.837201  
3790.000000	99.837567  
3789.000000	99.835338  
3788.000000	99.832875  
3787.000000	99.832499  
3786.000000	99.835657  
3785.000000	99.842606  
3784.000000	99.852008  
3783.000000	99.860906  
3782.000000	99.865874  
3781.000000	99.864774  
3780.000000	99.858432  
3779.000000	99.850325  
3778.000000	99.843457  
3777.000000	99.838596  
3776.000000	99.835550  
3775.000000	99.834275  
3774.000000	99.834637  
3773.000000	99.835900  
3772.000000	99.836972  
3771.000000	99.837674  
3770.000000	99.839430  
3769.000000	99.843411  
3768.000000	99.848251  
3767.000000	99.851561  
3766.000000	99.852068  
3765.000000	99.850265  
3764.000000	99.847815  
3763.000000	99.846638  
3762.000000	99.848232  
3761.000000	99.852723  
3760.000000	99.858412  
3759.000000	99.862689  
3758.000000	99.863915  
3757.000000	99.862820  
3756.000000	99.861791  
3755.000000	99.863366  
3754.000000	99.869198  
3753.000000	99.878674  
3752.000000	99.887849  
3751.000000	99.892278  
3750.000000	99.891494  
3749.000000	99.888738  
3748.000000	99.886479  
3747.000000	99.884095  
3746.000000	99.879194  
3745.000000	99.872600  
3744.000000	99.868323  
3743.000000	99.865890  
3742.000000	99.862972  
3741.000000	99.861513  
3740.000000	99.863725  
3739.000000	99.868695  
3738.000000	99.872833  
3737.000000	99.873934  
3736.000000	99.873463  
3735.000000	99.873179  
3734.000000	99.871915  
3733.000000	99.868606  
3732.000000	99.865366  
3731.000000	99.864217  
3730.000000	99.864162  
3729.000000	99.863176  
3728.000000	99.860841  
3727.000000	99.859087  
3726.000000	99.860160  
3725.000000	99.863314  
3724.000000	99.865074  
3723.000000	99.862772  
3722.000000	99.857434  
3721.000000	99.852468  
3720.000000	99.850635  
3719.000000	99.852291  
3718.000000	99.855262  
3717.000000	99.856530  
3716.000000	99.853709  
3715.000000	99.845950  
3714.000000	99.834191  
3713.000000	99.821355  
3712.000000	99.812858  
3711.000000	99.813007  
3710.000000	99.819517  
3709.000000	99.825295  
3708.000000	99.824756  
3707.000000	99.817235  
3706.000000	99.805609  
3705.000000	99.793230  
3704.000000	99.782108  
3703.000000	99.773270  
3702.000000	99.768122  
3701.000000	99.767244  
3700.000000	99.768124  
3699.000000	99.766471  
3698.000000	99.759764  
3697.000000	99.749299  
3696.000000	99.739203  
3695.000000	99.733085  
3694.000000	99.731337  
3693.000000	99.731328  
3692.000000	99.730043  
3691.000000	99.726979  
3690.000000	99.724936  
3689.000000	99.726177  
3688.000000	99.727971  
3687.000000	99.725977  
3686.000000	99.720191  
3685.000000	99.713933  
3684.000000	99.709681  
3683.000000	99.707150  
3682.000000	99.704439  
3681.000000	99.700643  
3680.000000	99.696024  
3679.000000	99.689590  
3678.000000	99.678801  
3677.000000	99.664152  
3676.000000	99.655672  
3675.000000	99.663927  
3674.000000	99.682554  
3673.000000	99.697193  
3672.000000	99.702232  
3671.000000	99.700066  
3670.000000	99.696949  
3669.000000	99.695984  
3668.000000	99.693212  
3667.000000	99.684991  
3666.000000	99.672899  
3665.000000	99.661379  
3664.000000	99.654349  
3663.000000	99.652981  
3662.000000	99.655575  
3661.000000	99.659867  
3660.000000	99.665012  
3659.000000	99.671400  
3658.000000	99.679240  
3657.000000	99.688354  
3656.000000	99.698972  
3655.000000	99.711096  
3654.000000	99.724646  
3653.000000	99.739216  
3652.000000	99.752329  
3651.000000	99.758807  
3650.000000	99.755223  
3649.000000	99.744796  
3648.000000	99.734770  
3647.000000	99.729915  
3646.000000	99.730087  
3645.000000	99.732764  
3644.000000	99.735774  
3643.000000	99.738201  
3642.000000	99.739621  
3641.000000	99.740261  
3640.000000	99.741602  
3639.000000	99.746459  
3638.000000	99.756734  
3637.000000	99.770546  
3636.000000	99.782962  
3635.000000	99.790227  
3634.000000	99.793318  
3633.000000	99.796323  
3632.000000	99.801857  
3631.000000	99.808244  
3630.000000	99.810805  
3629.000000	99.807696  
3628.000000	99.801094  
3627.000000	99.792787  
3626.000000	99.785105  
3625.000000	99.780405  
3624.000000	99.778626  
3623.000000	99.778006  
3622.000000	99.777361  
3621.000000	99.776909  
3620.000000	99.778041  
3619.000000	99.782441  
3618.000000	99.790359  
3617.000000	99.800167  
3616.000000	99.809714  
3615.000000	99.816663  
3614.000000	99.819517  
3613.000000	99.818569  
3612.000000	99.814758  
3611.000000	99.808613  
3610.000000	99.801318  
3609.000000	99.795533  
3608.000000	99.793850  
3607.000000	99.795721  
3606.000000	99.797596  
3605.000000	99.796927  
3604.000000	99.794052  
3603.000000	99.790979  
3602.000000	99.789906  
3601.000000	99.792281  
3600.000000	99.798380  
3599.000000	99.806861  
3598.000000	99.815160  
3597.000000	99.820666  
3596.000000	99.822025  
3595.000000	99.819933  
3594.000000	99.817429  
3593.000000	99.818258  
3592.000000	99.824575  
3591.000000	99.835472  
3590.000000	99.846596  
3589.000000	99.852337  
3588.000000	99.850443  
3587.000000	99.843830  
3586.000000	99.836203  
3585.000000	99.829278  
3584.000000	99.823788  
3583.000000	99.819971  
3582.000000	99.816865  
3581.000000	99.812928  
3580.000000	99.807495  
3579.000000	99.801200  
3578.000000	99.795281  
3577.000000	99.791028  
3576.000000	99.789993  
3575.000000	99.793372  
3574.000000	99.800686  
3573.000000	99.809657  
3572.000000	99.817776  
3571.000000	99.823685  
3570.000000	99.826515  
3569.000000	99.824951  
3568.000000	99.818874  
3567.000000	99.811778  
3566.000000	99.808207  
3565.000000	99.809131  
3564.000000	99.812379  
3563.000000	99.815440  
3562.000000	99.817097  
3561.000000	99.817458  
3560.000000	99.816901  
3559.000000	99.815365  
3558.000000	99.812719  
3557.000000	99.809680  
3556.000000	99.807688  
3555.000000	99.807727  
3554.000000	99.809303  
3553.000000	99.811051  
3552.000000	99.811936  
3551.000000	99.811986  
3550.000000	99.811852  
3549.000000	99.811775  
3548.000000	99.810929  
3547.000000	99.808458  
3546.000000	99.805154  
3545.000000	99.803451  
3544.000000	99.804866  
3543.000000	99.808032  
3542.000000	99.809947  
3541.000000	99.809121  
3540.000000	99.806941  
3539.000000	99.806097  
3538.000000	99.807776  
3537.000000	99.810678  
3536.000000	99.812404  
3535.000000	99.811404  
3534.000000	99.807884  
3533.000000	99.803312  
3532.000000	99.799490  
3531.000000	99.797582  
3530.000000	99.797693  
3529.000000	99.799240  
3528.000000	99.801769  
3527.000000	99.805112  
3526.000000	99.808653  
3525.000000	99.810951  
3524.000000	99.810761  
3523.000000	99.808536  
3522.000000	99.806208  
3521.000000	99.805287  
3520.000000	99.805465  
3519.000000	99.805336  
3518.000000	99.803974  
3517.000000	99.801641  
3516.000000	99.799497  
3515.000000	99.798999  
3514.000000	99.801247  
3513.000000	99.805916  
3512.000000	99.810864  
3511.000000	99.813443  
3510.000000	99.812868  
3509.000000	99.810754  
3508.000000	99.809128  
3507.000000	99.808291  
3506.000000	99.806720  
3505.000000	99.802574  
3504.000000	99.795434  
3503.000000	99.787564  
3502.000000	99.783451  
3501.000000	99.786918  
3500.000000	99.797386  
3499.000000	99.809049  
3498.000000	99.814831  
3497.000000	99.812200  
3496.000000	99.805248  
3495.000000	99.800502  
3494.000000	99.800960  
3493.000000	99.804351  
3492.000000	99.806458  
3491.000000	99.805257  
3490.000000	99.802179  
3489.000000	99.800188  
3488.000000	99.801046  
3487.000000	99.804025  
3486.000000	99.806768  
3485.000000	99.807357  
3484.000000	99.805838  
3483.000000	99.803970  
3482.000000	99.803394  
3481.000000	99.803877  
3480.000000	99.803831  
3479.000000	99.802722  
3478.000000	99.802180  
3477.000000	99.803843  
3476.000000	99.806513  
3475.000000	99.806710  
3474.000000	99.802765  
3473.000000	99.797439  
3472.000000	99.795422  
3471.000000	99.798496  
3470.000000	99.804013  
3469.000000	99.808012  
3468.000000	99.808742  
3467.000000	99.807032  
3466.000000	99.804228  
3465.000000	99.800902  
3464.000000	99.797298  
3463.000000	99.793897  
3462.000000	99.791016  
3461.000000	99.788265  
3460.000000	99.785077  
3459.000000	99.781807  
3458.000000	99.779787  
3457.000000	99.779976  
3456.000000	99.781680  
3455.000000	99.783107  
3454.000000	99.783409  
3453.000000	99.783551  
3452.000000	99.784940  
3451.000000	99.787586  
3450.000000	99.790371  
3449.000000	99.792669  
3448.000000	99.794653  
3447.000000	99.795960  
3446.000000	99.795411  
3445.000000	99.792868  
3444.000000	99.790258  
3443.000000	99.789640  
3442.000000	99.790853  
3441.000000	99.792161  
3440.000000	99.792870  
3439.000000	99.793925  
3438.000000	99.795823  
3437.000000	99.797166  
3436.000000	99.796180  
3435.000000	99.793118  
3434.000000	99.790437  
3433.000000	99.790476  
3432.000000	99.793338  
3431.000000	99.796842  
3430.000000	99.798213  
3429.000000	99.795778  
3428.000000	99.789692  
3427.000000	99.781840  
3426.000000	99.775177  
3425.000000	99.772491  
3424.000000	99.774825  
3423.000000	99.780710  
3422.000000	99.787041  
3421.000000	99.791055  
3420.000000	99.791776  
3419.000000	99.790134  
3418.000000	99.788027  
3417.000000	99.786863  
3416.000000	99.786428  
3415.000000	99.785179  
3414.000000	99.782054  
3413.000000	99.777984  
3412.000000	99.775153  
3411.000000	99.774927  
3410.000000	99.777047  
3409.000000	99.780591  
3408.000000	99.784684  
3407.000000	99.788081  
3406.000000	99.789138  
3405.000000	99.787253  
3404.000000	99.784106  
3403.000000	99.782630  
3402.000000	99.784448  
3401.000000	99.788384  
3400.000000	99.791685  
3399.000000	99.792604  
3398.000000	99.791859  
3397.000000	99.791613  
3396.000000	99.793149  
3395.000000	99.795761  
3394.000000	99.797924  
3393.000000	99.799008  
3392.000000	99.799370  
3391.000000	99.799164  
3390.000000	99.797871  
3389.000000	99.795176  
3388.000000	99.791630  
3387.000000	99.788088  
3386.000000	99.784923  
3385.000000	99.782188  
3384.000000	99.780242  
3383.000000	99.779646  
3382.000000	99.780364  
3381.000000	99.781257  
3380.000000	99.780633  
3379.000000	99.777639  
3378.000000	99.773524  
3377.000000	99.771346  
3376.000000	99.773741  
3375.000000	99.780475  
3374.000000	99.788334  
3373.000000	99.793675  
3372.000000	99.795136  
3371.000000	99.794033  
3370.000000	99.792715  
3369.000000	99.792878  
3368.000000	99.794792  
3367.000000	99.797261  
3366.000000	99.798229  
3365.000000	99.796251  
3364.000000	99.791916  
3363.000000	99.787690  
3362.000000	99.785933  
3361.000000	99.786874  
3360.000000	99.788497  
3359.000000	99.788456  
3358.000000	99.786242  
3357.000000	99.783565  
3356.000000	99.782621  
3355.000000	99.784024  
3354.000000	99.786446  
3353.000000	99.788096  
3352.000000	99.788217  
3351.000000	99.787343  
3350.000000	99.786761  
3349.000000	99.787937  
3348.000000	99.791722  
3347.000000	99.797345  
3346.000000	99.802392  
3345.000000	99.804557  
3344.000000	99.803622  
3343.000000	99.801310  
3342.000000	99.799275  
3341.000000	99.797815  
3340.000000	99.796568  
3339.000000	99.795492  
3338.000000	99.794458  
3337.000000	99.792554  
3336.000000	99.789023  
3335.000000	99.785040  
3334.000000	99.783461  
3333.000000	99.786041  
3332.000000	99.791228  
3331.000000	99.795387  
3330.000000	99.796325  
3329.000000	99.795195  
3328.000000	99.794863  
3327.000000	99.796740  
3326.000000	99.799500  
3325.000000	99.800779  
3324.000000	99.799887  
3323.000000	99.798679  
3322.000000	99.799593  
3321.000000	99.802688  
3320.000000	99.804874  
3319.000000	99.802617  
3318.000000	99.795705  
3317.000000	99.787970  
3316.000000	99.784025  
3315.000000	99.785346  
3314.000000	99.789585  
3313.000000	99.793256  
3312.000000	99.794659  
3311.000000	99.794523  
3310.000000	99.794576  
3309.000000	99.795898  
3308.000000	99.798374  
3307.000000	99.801209  
3306.000000	99.803549  
3305.000000	99.804534  
3304.000000	99.803242  
3303.000000	99.799380  
3302.000000	99.794307  
3301.000000	99.790809  
3300.000000	99.791137  
3299.000000	99.795109  
3298.000000	99.800283  
3297.000000	99.803883  
3296.000000	99.804692  
3295.000000	99.803603  
3294.000000	99.802753  
3293.000000	99.803762  
3292.000000	99.806228  
3291.000000	99.808105  
3290.000000	99.807957  
3289.000000	99.806547  
3288.000000	99.805727  
3287.000000	99.806094  
3286.000000	99.806488  
3285.000000	99.805712  
3284.000000	99.803988  
3283.000000	99.802515  
3282.000000	99.802073  
3281.000000	99.802273  
3280.000000	99.801886  
3279.000000	99.799983  
3278.000000	99.797169  
3277.000000	99.795596  
3276.000000	99.797188  
3275.000000	99.801623  
3274.000000	99.806371  
3273.000000	99.808654  
3272.000000	99.807084  
3271.000000	99.801905  
3270.000000	99.794713  
3269.000000	99.788144  
3268.000000	99.784826  
3267.000000	99.785866  
3266.000000	99.790393  
3265.000000	99.796599  
3264.000000	99.802966  
3263.000000	99.808667  
3262.000000	99.813471  
3261.000000	99.817444  
3260.000000	99.820190  
3259.000000	99.820438  
3258.000000	99.817151  
3257.000000	99.811257  
3256.000000	99.805455  
3255.000000	99.801908  
3254.000000	99.800739  
3253.000000	99.801006  
3252.000000	99.802190  
3251.000000	99.804021  
3250.000000	99.805756  
3249.000000	99.806683  
3248.000000	99.806967  
3247.000000	99.807097  
3246.000000	99.806669  
3245.000000	99.804606  
3244.000000	99.800817  
3243.000000	99.797207  
3242.000000	99.796848  
3241.000000	99.801864  
3240.000000	99.811242  
3239.000000	99.820343  
3238.000000	99.823669  
3237.000000	99.819496  
3236.000000	99.811660  
3235.000000	99.805911  
3234.000000	99.804674  
3233.000000	99.806087  
3232.000000	99.807569  
3231.000000	99.808661  
3230.000000	99.810113  
3229.000000	99.811695  
3228.000000	99.811978  
3227.000000	99.809749  
3226.000000	99.804994  
3225.000000	99.798959  
3224.000000	99.793760  
3223.000000	99.791371  
3222.000000	99.792316  
3221.000000	99.795445  
3220.000000	99.799242  
3219.000000	99.802943  
3218.000000	99.806019  
3217.000000	99.807424  
3216.000000	99.806405  
3215.000000	99.803940  
3214.000000	99.802336  
3213.000000	99.803041  
3212.000000	99.805417  
3211.000000	99.807972  
3210.000000	99.810285  
3209.000000	99.813081  
3208.000000	99.816525  
3207.000000	99.819122  
3206.000000	99.818939  
3205.000000	99.815953  
3204.000000	99.812682  
3203.000000	99.812060  
3202.000000	99.814750  
3201.000000	99.818913  
3200.000000	99.822304  
3199.000000	99.823972  
3198.000000	99.824033  
3197.000000	99.823007  
3196.000000	99.822009  
3195.000000	99.822593  
3194.000000	99.825075  
3193.000000	99.827240  
3192.000000	99.826063  
3191.000000	99.821178  
3190.000000	99.815845  
3189.000000	99.813910  
3188.000000	99.816276  
3187.000000	99.820648  
3186.000000	99.824029  
3185.000000	99.824914  
3184.000000	99.823559  
3183.000000	99.821175  
3182.000000	99.819012  
3181.000000	99.817694  
3180.000000	99.817042  
3179.000000	99.816511  
3178.000000	99.815582  
3177.000000	99.813678  
3176.000000	99.810322  
3175.000000	99.806254  
3174.000000	99.804173  
3173.000000	99.807039  
3172.000000	99.814797  
3171.000000	99.823362  
3170.000000	99.827917  
3169.000000	99.827363  
3168.000000	99.825050  
3167.000000	99.825160  
3166.000000	99.828961  
3165.000000	99.834589  
3164.000000	99.839452  
3163.000000	99.842131  
3162.000000	99.842507  
3161.000000	99.841277  
3160.000000	99.839703  
3159.000000	99.839061  
3158.000000	99.839588  
3157.000000	99.840075  
3156.000000	99.838962  
3155.000000	99.835977  
3154.000000	99.832567  
3153.000000	99.830702  
3152.000000	99.831304  
3151.000000	99.833708  
3150.000000	99.836414  
3149.000000	99.838414  
3148.000000	99.840003  
3147.000000	99.842225  
3146.000000	99.845206  
3145.000000	99.847135  
3144.000000	99.845711  
3143.000000	99.841146  
3142.000000	99.837155  
3141.000000	99.837834  
3140.000000	99.843338  
3139.000000	99.849357  
3138.000000	99.851285  
3137.000000	99.848425  
3136.000000	99.843752  
3135.000000	99.840243  
3134.000000	99.838372  
3133.000000	99.836994  
3132.000000	99.835517  
3131.000000	99.834414  
3130.000000	99.834061  
3129.000000	99.834005  
3128.000000	99.833694  
3127.000000	99.833441  
3126.000000	99.834215  
3125.000000	99.836554  
3124.000000	99.839911  
3123.000000	99.843110  
3122.000000	99.845315  
3121.000000	99.846565  
3120.000000	99.847539  
3119.000000	99.848788  
3118.000000	99.850040  
3117.000000	99.850256  
3116.000000	99.848719  
3115.000000	99.846080  
3114.000000	99.843849  
3113.000000	99.842596  
3112.000000	99.841232  
3111.000000	99.838689  
3110.000000	99.835881  
3109.000000	99.834911  
3108.000000	99.836274  
3107.000000	99.837845  
3106.000000	99.837262  
3105.000000	99.834660  
3104.000000	99.832453  
3103.000000	99.833055  
3102.000000	99.837359  
3101.000000	99.844586  
3100.000000	99.852393  
3099.000000	99.857563  
3098.000000	99.858078  
3097.000000	99.855076  
3096.000000	99.852102  
3095.000000	99.852001  
3094.000000	99.854755  
3093.000000	99.858186  
3092.000000	99.859930  
3091.000000	99.858705  
3090.000000	99.854815  
3089.000000	99.850269  
3088.000000	99.847928  
3087.000000	99.849583  
3086.000000	99.854510  
3085.000000	99.860028  
3084.000000	99.863535  
3083.000000	99.864181  
3082.000000	99.862986  
3081.000000	99.861607  
3080.000000	99.860798  
3079.000000	99.859859  
3078.000000	99.857547  
3077.000000	99.853513  
3076.000000	99.848843  
3075.000000	99.845292  
3074.000000	99.844115  
3073.000000	99.845447  
3072.000000	99.848529  
3071.000000	99.852450  
3070.000000	99.856565  
3069.000000	99.859929  
3068.000000	99.860577  
3067.000000	99.856565  
3066.000000	99.848511  
3065.000000	99.840322  
3064.000000	99.836094  
3063.000000	99.836359  
3062.000000	99.838312  
3061.000000	99.839584  
3060.000000	99.840664  
3059.000000	99.843484  
3058.000000	99.848684  
3057.000000	99.854831  
3056.000000	99.859733  
3055.000000	99.862066  
3054.000000	99.862126  
3053.000000	99.861266  
3052.000000	99.860336  
3051.000000	99.858683  
3050.000000	99.855217  
3049.000000	99.850274  
3048.000000	99.845481  
3047.000000	99.841653  
3046.000000	99.838001  
3045.000000	99.833965  
3044.000000	99.830703  
3043.000000	99.829685  
3042.000000	99.830392  
3041.000000	99.830521  
3040.000000	99.828362  
3039.000000	99.824233  
3038.000000	99.819615  
3037.000000	99.815592  
3036.000000	99.812183  
3035.000000	99.808497  
3034.000000	99.803335  
3033.000000	99.796100  
3032.000000	99.787371  
3031.000000	99.778325  
3030.000000	99.769433  
3029.000000	99.760020  
3028.000000	99.749293  
3027.000000	99.737602  
3026.000000	99.726458  
3025.000000	99.717262  
3024.000000	99.709937  
3023.000000	99.702746  
3022.000000	99.693549  
3021.000000	99.681456  
3020.000000	99.667380  
3019.000000	99.653228  
3018.000000	99.640664  
3017.000000	99.630408  
3016.000000	99.621998  
3015.000000	99.613834  
3014.000000	99.603721  
3013.000000	99.589896  
3012.000000	99.571821  
3011.000000	99.550235  
3010.000000	99.526822  
3009.000000	99.503836  
3008.000000	99.483445  
3007.000000	99.466774  
3006.000000	99.453459  
3005.000000	99.442124  
3004.000000	99.430964  
3003.000000	99.417852  
3002.000000	99.400852  
3001.000000	99.379856  
3000.000000	99.357686  
2999.000000	99.338434  
2998.000000	99.324162  
2997.000000	99.313905  
2996.000000	99.306040  
2995.000000	99.299922  
2994.000000	99.293460  
2993.000000	99.280411  
2992.000000	99.253943  
2991.000000	99.215001  
2990.000000	99.175395  
2989.000000	99.149665  
2988.000000	99.143232  
2987.000000	99.149795  
2986.000000	99.159646  
2985.000000	99.168302  
2984.000000	99.176562  
2983.000000	99.185241  
2982.000000	99.192741  
2981.000000	99.197172  
2980.000000	99.198537  
2979.000000	99.198143  
2978.000000	99.197047  
2977.000000	99.195563  
2976.000000	99.193523  
2975.000000	99.190621  
2974.000000	99.187014  
2973.000000	99.183793  
2972.000000	99.182370  
2971.000000	99.183341  
2970.000000	99.186474  
2969.000000	99.191851  
2968.000000	99.200236  
2967.000000	99.212003  
2966.000000	99.226238  
2965.000000	99.241340  
2964.000000	99.256192  
2963.000000	99.270473  
2962.000000	99.284133  
2961.000000	99.296881  
2960.000000	99.308097  
2959.000000	99.317260  
2958.000000	99.324823  
2957.000000	99.332457  
2956.000000	99.341521  
2955.000000	99.350997  
2954.000000	99.357968  
2953.000000	99.361358  
2952.000000	99.364635  
2951.000000	99.373202  
2950.000000	99.388404  
2949.000000	99.405052  
2948.000000	99.415933  
2947.000000	99.418458  
2946.000000	99.416232  
2945.000000	99.414509  
2944.000000	99.415586  
2943.000000	99.418839  
2942.000000	99.423375  
2941.000000	99.428730  
2940.000000	99.433520  
2939.000000	99.435595  
2938.000000	99.434405  
2937.000000	99.432122  
2936.000000	99.431579  
2935.000000	99.433768  
2934.000000	99.437847  
2933.000000	99.442537  
2932.000000	99.446492  
2931.000000	99.448026  
2930.000000	99.445912  
2929.000000	99.440595  
2928.000000	99.433979  
2927.000000	99.427988  
2926.000000	99.423679  
2925.000000	99.421122  
2924.000000	99.419386  
2923.000000	99.417067  
2922.000000	99.413698  
2921.000000	99.410353  
2920.000000	99.408132  
2919.000000	99.406582  
2918.000000	99.404481  
2917.000000	99.401530  
2916.000000	99.397995  
2915.000000	99.393233  
2914.000000	99.386374  
2913.000000	99.378552  
2912.000000	99.372627  
2911.000000	99.369871  
2910.000000	99.368317  
2909.000000	99.365327  
2908.000000	99.360644  
2907.000000	99.355557  
2906.000000	99.349799  
2905.000000	99.340845  
2904.000000	99.326759  
2903.000000	99.309264  
2902.000000	99.294095  
2901.000000	99.288162  
2900.000000	99.295725  
2899.000000	99.314898  
2898.000000	99.337932  
2897.000000	99.355858  
2896.000000	99.364503  
2895.000000	99.366659  
2894.000000	99.368498  
2893.000000	99.373695  
2892.000000	99.380994  
2891.000000	99.386796  
2890.000000	99.389317  
2889.000000	99.389791  
2888.000000	99.390328  
2887.000000	99.391745  
2886.000000	99.393988  
2885.000000	99.397659  
2884.000000	99.403958  
2883.000000	99.413182  
2882.000000	99.424277  
2881.000000	99.436170  
2880.000000	99.448852  
2879.000000	99.462792  
2878.000000	99.477767  
2877.000000	99.492636  
2876.000000	99.505787  
2875.000000	99.515487  
2874.000000	99.520480  
2873.000000	99.521293  
2872.000000	99.521039  
2871.000000	99.523969  
2870.000000	99.532405  
2869.000000	99.544893  
2868.000000	99.557756  
2867.000000	99.568674  
2866.000000	99.578736  
2865.000000	99.590801  
2864.000000	99.605990  
2863.000000	99.622128  
2862.000000	99.635712  
2861.000000	99.645121  
2860.000000	99.651903  
2859.000000	99.659285  
2858.000000	99.669482  
2857.000000	99.681939  
2856.000000	99.693793  
2855.000000	99.702518  
2854.000000	99.708491  
2853.000000	99.714602  
2852.000000	99.723049  
2851.000000	99.733014  
2850.000000	99.742016  
2849.000000	99.748941  
2848.000000	99.754857  
2847.000000	99.761097  
2846.000000	99.767412  
2845.000000	99.772208  
2844.000000	99.774248  
2843.000000	99.774188  
2842.000000	99.774622  
2841.000000	99.778057  
2840.000000	99.784269  
2839.000000	99.790113  
2838.000000	99.792587  
2837.000000	99.791640  
2836.000000	99.789426  
2835.000000	99.787848  
2834.000000	99.788037  
2833.000000	99.791216  
2832.000000	99.797870  
2831.000000	99.806049  
2830.000000	99.812541  
2829.000000	99.816371  
2828.000000	99.819612  
2827.000000	99.823960  
2826.000000	99.828008  
2825.000000	99.829022  
2824.000000	99.826452  
2823.000000	99.822752  
2822.000000	99.821302  
2821.000000	99.824134  
2820.000000	99.830773  
2819.000000	99.838482  
2818.000000	99.844282  
2817.000000	99.847395  
2816.000000	99.849176  
2815.000000	99.850519  
2814.000000	99.850605  
2813.000000	99.848860  
2812.000000	99.846660  
2811.000000	99.845769  
2810.000000	99.846102  
2809.000000	99.846571  
2808.000000	99.847440  
2807.000000	99.850080  
2806.000000	99.854476  
2805.000000	99.858470  
2804.000000	99.859904  
2803.000000	99.858697  
2802.000000	99.856741  
2801.000000	99.856351  
2800.000000	99.858631  
2799.000000	99.862488  
2798.000000	99.865264  
2797.000000	99.865040  
2796.000000	99.862374  
2795.000000	99.859383  
2794.000000	99.857586  
2793.000000	99.857238  
2792.000000	99.858105  
2791.000000	99.859743  
2790.000000	99.861305  
2789.000000	99.862309  
2788.000000	99.863526  
2787.000000	99.866021  
2786.000000	99.869392  
2785.000000	99.872090  
2784.000000	99.873452  
2783.000000	99.874065  
2782.000000	99.874020  
2781.000000	99.872414  
2780.000000	99.869328  
2779.000000	99.866978  
2778.000000	99.867671  
2777.000000	99.871191  
2776.000000	99.874949  
2775.000000	99.876299  
2774.000000	99.874290  
2773.000000	99.870012  
2772.000000	99.866091  
2771.000000	99.865236  
2770.000000	99.868284  
2769.000000	99.873697  
2768.000000	99.879373  
2767.000000	99.884440  
2766.000000	99.888752  
2765.000000	99.891484  
2764.000000	99.891489  
2763.000000	99.888970  
2762.000000	99.885816  
2761.000000	99.884116  
2760.000000	99.884806  
2759.000000	99.887544  
2758.000000	99.891127  
2757.000000	99.894133  
2756.000000	99.895919  
2755.000000	99.896982  
2754.000000	99.897680  
2753.000000	99.896950  
2752.000000	99.893476  
2751.000000	99.888227  
2750.000000	99.884440  
2749.000000	99.884405  
2748.000000	99.887111  
2747.000000	99.889744  
2746.000000	99.890559  
2745.000000	99.889470  
2744.000000	99.886841  
2743.000000	99.883183  
2742.000000	99.879849  
2741.000000	99.878629  
2740.000000	99.880250  
2739.000000	99.883929  
2738.000000	99.888476  
2737.000000	99.893105  
2736.000000	99.897131  
2735.000000	99.899757  
2734.000000	99.900613  
2733.000000	99.899999  
2732.000000	99.898294  
2731.000000	99.895642  
2730.000000	99.892579  
2729.000000	99.890549  
2728.000000	99.891255  
2727.000000	99.895389  
2726.000000	99.901894  
2725.000000	99.908296  
2724.000000	99.912086  
2723.000000	99.912460  
2722.000000	99.910813  
2721.000000	99.909156  
2720.000000	99.908133  
2719.000000	99.907092  
2718.000000	99.905723  
2717.000000	99.904621  
2716.000000	99.904264  
2715.000000	99.904608  
2714.000000	99.905903  
2713.000000	99.908518  
2712.000000	99.911390  
2711.000000	99.912149  
2710.000000	99.910123  
2709.000000	99.908146  
2708.000000	99.909708  
2707.000000	99.914640  
2706.000000	99.919176  
2705.000000	99.920291  
2704.000000	99.918596  
2703.000000	99.916599  
2702.000000	99.915495  
2701.000000	99.914499  
2700.000000	99.912670  
2699.000000	99.910372  
2698.000000	99.908891  
2697.000000	99.909039  
2696.000000	99.910422  
2695.000000	99.912083  
2694.000000	99.913552  
2693.000000	99.914704  
2692.000000	99.914672  
2691.000000	99.912016  
2690.000000	99.906856  
2689.000000	99.902246  
2688.000000	99.902096  
2687.000000	99.907472  
2686.000000	99.915454  
2685.000000	99.921645  
2684.000000	99.923397  
2683.000000	99.921027  
2682.000000	99.916906  
2681.000000	99.913641  
2680.000000	99.912466  
2679.000000	99.912982  
2678.000000	99.914466  
2677.000000	99.917043  
2676.000000	99.921093  
2675.000000	99.925918  
2674.000000	99.929891  
2673.000000	99.931877  
2672.000000	99.931765  
2671.000000	99.929648  
2670.000000	99.925347  
2669.000000	99.919115  
2668.000000	99.912369  
2667.000000	99.907459  
2666.000000	99.906675  
2665.000000	99.910894  
2664.000000	99.918564  
2663.000000	99.926337  
2662.000000	99.931352  
2661.000000	99.932667  
2660.000000	99.930251  
2659.000000	99.923966  
2658.000000	99.915132  
2657.000000	99.908122  
2656.000000	99.907706  
2655.000000	99.914090  
2654.000000	99.922232  
2653.000000	99.926919  
2652.000000	99.927251  
2651.000000	99.925645  
2650.000000	99.924176  
2649.000000	99.923072  
2648.000000	99.921519  
2647.000000	99.918615  
2646.000000	99.914332  
2645.000000	99.910576  
2644.000000	99.910384  
2643.000000	99.914914  
2642.000000	99.921838  
2641.000000	99.927605  
2640.000000	99.930642  
2639.000000	99.931567  
2638.000000	99.931324  
2637.000000	99.930317  
2636.000000	99.928654  
2635.000000	99.926129  
2634.000000	99.922630  
2633.000000	99.919440  
2632.000000	99.919002  
2631.000000	99.922036  
2630.000000	99.925945  
2629.000000	99.927802  
2628.000000	99.928071  
2627.000000	99.929493  
2626.000000	99.932940  
2625.000000	99.936659  
2624.000000	99.939274  
2623.000000	99.940950  
2622.000000	99.941243  
2621.000000	99.938457  
2620.000000	99.932522  
2619.000000	99.926621  
2618.000000	99.924251  
2617.000000	99.925637  
2616.000000	99.928339  
2615.000000	99.930567  
2614.000000	99.932427  
2613.000000	99.934289  
2612.000000	99.935394  
2611.000000	99.934552  
2610.000000	99.931699  
2609.000000	99.928392  
2608.000000	99.926741  
2607.000000	99.927884  
2606.000000	99.931641  
2605.000000	99.937558  
2604.000000	99.945416  
2603.000000	99.953970  
2602.000000	99.960048  
2601.000000	99.960666  
2600.000000	99.956257  
2599.000000	99.950365  
2598.000000	99.945680  
2597.000000	99.941635  
2596.000000	99.936443  
2595.000000	99.930101  
2594.000000	99.924489  
2593.000000	99.921779  
2592.000000	99.923787  
2591.000000	99.931499  
2590.000000	99.943267  
2589.000000	99.954051  
2588.000000	99.958474  
2587.000000	99.955021  
2586.000000	99.946222  
2585.000000	99.935171  
2584.000000	99.923679  
2583.000000	99.913932  
2582.000000	99.909476  
2581.000000	99.912557  
2580.000000	99.921092  
2579.000000	99.929697  
2578.000000	99.933860  
2577.000000	99.932829  
2576.000000	99.929211  
2575.000000	99.926722  
2574.000000	99.927847  
2573.000000	99.932212  
2572.000000	99.936657  
2571.000000	99.937571  
2570.000000	99.933954  
2569.000000	99.928574  
2568.000000	99.926093  
2567.000000	99.929505  
2566.000000	99.937418  
2565.000000	99.944533  
2564.000000	99.945761  
2563.000000	99.940681  
2562.000000	99.933546  
2561.000000	99.928623  
2560.000000	99.926559  
2559.000000	99.925903  
2558.000000	99.926327  
2557.000000	99.928281  
2556.000000	99.930695  
2555.000000	99.932048  
2554.000000	99.933629  
2553.000000	99.938514  
2552.000000	99.946320  
2551.000000	99.951959  
2550.000000	99.951433  
2549.000000	99.946494  
2548.000000	99.941332  
2547.000000	99.936869  
2546.000000	99.931520  
2545.000000	99.926278  
2544.000000	99.925200  
2543.000000	99.930386  
2542.000000	99.939258  
2541.000000	99.947555  
2540.000000	99.952871  
2539.000000	99.954516  
2538.000000	99.952011  
2537.000000	99.945205  
2536.000000	99.935013  
2535.000000	99.923560  
2534.000000	99.914479  
2533.000000	99.912564  
2532.000000	99.920530  
2531.000000	99.935048  
2530.000000	99.947899  
2529.000000	99.952659  
2528.000000	99.949394  
2527.000000	99.942209  
2526.000000	99.934334  
2525.000000	99.927425  
2524.000000	99.923781  
2523.000000	99.926007  
2522.000000	99.934081  
2521.000000	99.944774  
2520.000000	99.954625  
2519.000000	99.962231  
2518.000000	99.967140  
2517.000000	99.967962  
2516.000000	99.963083  
2515.000000	99.953210  
2514.000000	99.942169  
2513.000000	99.934284  
2512.000000	99.930727  
2511.000000	99.929089  
2510.000000	99.927267  
2509.000000	99.927211  
2508.000000	99.933201  
2507.000000	99.945958  
2506.000000	99.959911  
2505.000000	99.967485  
2504.000000	99.965303  
2503.000000	99.955279  
2502.000000	99.941205  
2501.000000	99.926753  
2500.000000	99.916259  
2499.000000	99.914056  
2498.000000	99.920996  
2497.000000	99.932851  
2496.000000	99.943833  
2495.000000	99.951172  
2494.000000	99.955184  
2493.000000	99.956022  
2492.000000	99.952707  
2491.000000	99.945540  
2490.000000	99.937338  
2489.000000	99.931058  
2488.000000	99.927288  
2487.000000	99.925321  
2486.000000	99.925795  
2485.000000	99.930507  
2484.000000	99.939405  
2483.000000	99.949024  
2482.000000	99.954687  
2481.000000	99.954130  
2480.000000	99.948932  
2479.000000	99.942655  
2478.000000	99.937661  
2477.000000	99.933554  
2476.000000	99.928856  
2475.000000	99.924095  
2474.000000	99.922333  
2473.000000	99.926068  
2472.000000	99.934456  
2471.000000	99.944429  
2470.000000	99.953334  
2469.000000	99.959008  
2468.000000	99.958664  
2467.000000	99.950848  
2466.000000	99.938823  
2465.000000	99.929245  
2464.000000	99.926095  
2463.000000	99.927705  
2462.000000	99.930451  
2461.000000	99.932966  
2460.000000	99.935347  
2459.000000	99.936982  
2458.000000	99.937795  
2457.000000	99.939674  
2456.000000	99.943467  
2455.000000	99.945629  
2454.000000	99.941325  
2453.000000	99.930975  
2452.000000	99.920907  
2451.000000	99.916989  
2450.000000	99.919803  
2449.000000	99.926270  
2448.000000	99.933332  
2447.000000	99.939071  
2446.000000	99.942540  
2445.000000	99.944268  
2444.000000	99.945934  
2443.000000	99.948466  
2442.000000	99.951081  
2441.000000	99.952385  
2440.000000	99.951370  
2439.000000	99.947471  
2438.000000	99.941514  
2437.000000	99.936763  
2436.000000	99.936525  
2435.000000	99.939398  
2434.000000	99.939210  
2433.000000	99.931810  
2432.000000	99.920735  
2431.000000	99.913802  
2430.000000	99.914695  
2429.000000	99.920071  
2428.000000	99.924999  
2427.000000	99.928793  
2426.000000	99.933983  
2425.000000	99.940799  
2424.000000	99.944997  
2423.000000	99.942082  
2422.000000	99.932722  
2421.000000	99.922728  
2420.000000	99.917592  
2419.000000	99.918113  
2418.000000	99.921515  
2417.000000	99.925188  
2416.000000	99.927981  
2415.000000	99.929107  
2414.000000	99.928228  
2413.000000	99.926805  
2412.000000	99.927381  
2411.000000	99.930607  
2410.000000	99.934134  
2409.000000	99.935277  
2408.000000	99.933943  
2407.000000	99.932320  
2406.000000	99.932474  
2405.000000	99.934827  
2404.000000	99.938222  
2403.000000	99.940731  
2402.000000	99.940906  
2401.000000	99.938893  
2400.000000	99.936200  
2399.000000	99.934209  
2398.000000	99.933292  
2397.000000	99.933287  
2396.000000	99.933943  
2395.000000	99.934556  
2394.000000	99.934019  
2393.000000	99.931911  
2392.000000	99.929245  
2391.000000	99.927854  
2390.000000	99.929303  
2389.000000	99.934218  
2388.000000	99.941798  
2387.000000	99.949801  
2386.000000	99.955927  
2385.000000	99.959666  
2384.000000	99.962194  
2383.000000	99.964172  
2382.000000	99.964479  
2381.000000	99.961672  
2380.000000	99.955977  
2379.000000	99.949181  
2378.000000	99.943276  
2377.000000	99.940073  
2376.000000	99.941297  
2375.000000	99.947120  
2374.000000	99.954326  
2373.000000	99.957909  
2372.000000	99.955999  
2371.000000	99.952485  
2370.000000	99.953189  
2369.000000	99.959359  
2368.000000	99.965645  
2367.000000	99.964686  
2366.000000	99.953896  
2365.000000	99.938691  
2364.000000	99.929135  
2363.000000	99.932205  
2362.000000	99.946133  
2361.000000	99.961940  
2360.000000	99.971015  
2359.000000	99.971043  
2358.000000	99.965788  
2357.000000	99.960736  
2356.000000	99.959040  
2355.000000	99.959941  
2354.000000	99.959780  
2353.000000	99.956757  
2352.000000	99.953123  
2351.000000	99.952645  
2350.000000	99.956625  
2349.000000	99.962662  
2348.000000	99.966909  
2347.000000	99.966228  
2346.000000	99.960170  
2345.000000	99.951066  
2344.000000	99.942557  
2343.000000	99.938193  
2342.000000	99.939969  
2341.000000	99.948266  
2340.000000	99.960359  
2339.000000	99.970813  
2338.000000	99.974829  
2337.000000	99.972642  
2336.000000	99.969165  
2335.000000	99.968394  
2334.000000	99.969917  
2333.000000	99.970961  
2332.000000	99.969741  
2331.000000	99.965250  
2330.000000	99.957961  
2329.000000	99.951010  
2328.000000	99.950280  
2327.000000	99.958179  
2326.000000	99.970499  
2325.000000	99.978683  
2324.000000	99.977342  
2323.000000	99.969130  
2322.000000	99.962744  
2321.000000	99.965138  
2320.000000	99.975025  
2319.000000	99.985066  
2318.000000	99.990019  
2317.000000	99.990950  
2316.000000	99.992056  
2315.000000	99.994847  
2314.000000	99.997761  
2313.000000	99.998593  
2312.000000	99.997166  
2311.000000	99.995103  
2310.000000	99.995545  
2309.000000	100.000047 
2308.000000	100.005585 
2307.000000	100.005489 
2306.000000	99.996886  
2305.000000	99.984590  
2304.000000	99.975728  
2303.000000	99.971355  
2302.000000	99.967478  
2301.000000	99.962204  
2300.000000	99.957915  
2299.000000	99.955736  
2298.000000	99.953518  
2297.000000	99.950376  
2296.000000	99.949887  
2295.000000	99.955153  
2294.000000	99.963753  
2293.000000	99.969779  
2292.000000	99.970078  
2291.000000	99.965994  
2290.000000	99.960536  
2289.000000	99.955610  
2288.000000	99.951341  
2287.000000	99.946478  
2286.000000	99.940138  
2285.000000	99.934112  
2284.000000	99.932137  
2283.000000	99.935620  
2282.000000	99.940969  
2281.000000	99.942827  
2280.000000	99.939539  
2279.000000	99.934648  
2278.000000	99.933294  
2277.000000	99.937720  
2276.000000	99.945649  
2275.000000	99.952492  
2274.000000	99.955047  
2273.000000	99.952660  
2272.000000	99.945141  
2271.000000	99.932258  
2270.000000	99.917652  
2269.000000	99.910506  
2268.000000	99.918342  
2267.000000	99.938063  
2266.000000	99.957923  
2265.000000	99.968584  
2264.000000	99.968926  
2263.000000	99.962109  
2262.000000	99.952207  
2261.000000	99.945684  
2260.000000	99.949009  
2259.000000	99.960647  
2258.000000	99.970155  
2257.000000	99.969698  
2256.000000	99.962772  
2255.000000	99.957337  
2254.000000	99.954221  
2253.000000	99.948351  
2252.000000	99.939399  
2251.000000	99.934655  
2250.000000	99.940686  
2249.000000	99.956114  
2248.000000	99.973511  
2247.000000	99.985334  
2246.000000	99.987805  
2245.000000	99.981588  
2244.000000	99.970544  
2243.000000	99.959200  
2242.000000	99.950783  
2241.000000	99.946656  
2240.000000	99.945901  
2239.000000	99.945222  
2238.000000	99.941129  
2237.000000	99.932873  
2236.000000	99.921860  
2235.000000	99.908775  
2234.000000	99.894415  
2233.000000	99.883388  
2232.000000	99.882674  
2231.000000	99.894720  
2230.000000	99.914990  
2229.000000	99.937406  
2228.000000	99.958569  
2227.000000	99.975134  
2226.000000	99.981907  
2225.000000	99.976638  
2224.000000	99.964046  
2223.000000	99.951812  
2222.000000	99.944829  
2221.000000	99.945122  
2220.000000	99.953249  
2219.000000	99.966237  
2218.000000	99.977429  
2217.000000	99.982534  
2216.000000	99.983965  
2215.000000	99.986151  
2214.000000	99.989226  
2213.000000	99.990556  
2212.000000	99.989816  
2211.000000	99.988967  
2210.000000	99.989476  
2209.000000	99.992528  
2208.000000	99.999105  
2207.000000	100.006476 
2206.000000	100.007548 
2205.000000	99.997625  
2204.000000	99.979645  
2203.000000	99.959848  
2202.000000	99.941915  
2201.000000	99.928707  
2200.000000	99.924775  
2199.000000	99.931122  
2198.000000	99.940533  
2197.000000	99.944435  
2196.000000	99.943159  
2195.000000	99.943962  
2194.000000	99.950302  
2193.000000	99.958697  
2192.000000	99.965301  
2191.000000	99.969950  
2190.000000	99.973531  
2189.000000	99.976338  
2188.000000	99.979746  
2187.000000	99.985803  
2186.000000	99.994682  
2185.000000	100.004779 
2184.000000	100.014120 
2183.000000	100.019229 
2182.000000	100.015756 
2181.000000	100.004791 
2180.000000	99.995556  
2179.000000	99.995944  
2178.000000	100.002382 
2177.000000	100.004264 
2176.000000	99.996865  
2175.000000	99.984665  
2174.000000	99.973447  
2173.000000	99.965229  
2172.000000	99.960476  
2171.000000	99.959436  
2170.000000	99.960875  
2169.000000	99.963758  
2168.000000	99.969680  
2167.000000	99.979285  
2166.000000	99.987697  
2165.000000	99.989567  
2164.000000	99.988379  
2163.000000	99.993916  
2162.000000	100.009448 
2161.000000	100.027174 
2160.000000	100.037231 
2159.000000	100.036000 
2158.000000	100.025636 
2157.000000	100.012681 
2156.000000	100.007346 
2155.000000	100.015812 
2154.000000	100.031095 
2153.000000	100.037316 
2152.000000	100.025959 
2151.000000	100.004612 
2150.000000	99.988841  
2149.000000	99.989182  
2148.000000	100.005178 
2147.000000	100.026216 
2146.000000	100.036736 
2145.000000	100.026902 
2144.000000	100.002244 
2143.000000	99.979181  
2142.000000	99.968904  
2141.000000	99.969032  
2140.000000	99.972145  
2139.000000	99.976816  
2138.000000	99.985390  
2137.000000	99.995120  
2136.000000	99.999000  
2135.000000	99.995572  
2134.000000	99.991823  
2133.000000	99.993580  
2132.000000	99.996536  
2131.000000	99.990407  
2130.000000	99.971222  
2129.000000	99.947234  
2128.000000	99.931784  
2127.000000	99.930854  
2126.000000	99.938720  
2125.000000	99.945760  
2124.000000	99.949057  
2123.000000	99.953529  
2122.000000	99.962990  
2121.000000	99.973192  
2120.000000	99.976006  
2119.000000	99.969243  
2118.000000	99.959341  
2117.000000	99.953948  
2116.000000	99.954321  
2115.000000	99.956646  
2114.000000	99.958732  
2113.000000	99.961950  
2112.000000	99.966494  
2111.000000	99.968256  
2110.000000	99.963056  
2109.000000	99.952762  
2108.000000	99.944563  
2107.000000	99.943729  
2106.000000	99.948335  
2105.000000	99.951149  
2104.000000	99.946124  
2103.000000	99.933778  
2102.000000	99.921413  
2101.000000	99.917356  
2100.000000	99.923336  
2099.000000	99.933028  
2098.000000	99.939330  
2097.000000	99.941775  
2096.000000	99.944266  
2095.000000	99.946544  
2094.000000	99.942393  
2093.000000	99.928040  
2092.000000	99.909282  
2091.000000	99.897758  
2090.000000	99.901019  
2089.000000	99.916485  
2088.000000	99.933642  
2087.000000	99.941939  
2086.000000	99.938463  
2085.000000	99.929483  
2084.000000	99.923926  
2083.000000	99.925114  
2082.000000	99.930100  
2081.000000	99.936075  
2080.000000	99.943918  
2079.000000	99.954593  
2078.000000	99.965748  
2077.000000	99.974539  
2076.000000	99.981519  
2075.000000	99.988864  
2074.000000	99.996437  
2073.000000	100.002124 
2072.000000	100.004592 
2071.000000	100.003381 
2070.000000	99.997964  
2069.000000	99.989563  
2068.000000	99.982490  
2067.000000	99.980415  
2066.000000	99.981665  
2065.000000	99.980895  
2064.000000	99.975901  
2063.000000	99.970775  
2062.000000	99.971842  
2061.000000	99.981548  
2060.000000	99.996002  
2059.000000	100.007861 
2058.000000	100.012260 
2057.000000	100.010517 
2056.000000	100.007356 
2055.000000	100.004938 
2054.000000	100.002128 
2053.000000	99.999765  
2052.000000	100.002510 
2051.000000	100.012897 
2050.000000	100.025979 
2049.000000	100.032581 
2048.000000	100.027362 
2047.000000	100.011861 
2046.000000	99.991781  
2045.000000	99.974805  
2044.000000	99.968382  
2043.000000	99.974557  
2042.000000	99.987410  
2041.000000	99.998842  
2040.000000	100.006508 
2039.000000	100.013003 
2038.000000	100.018703 
2037.000000	100.019950 
2036.000000	100.014521 
2035.000000	100.005358 
2034.000000	99.997963  
2033.000000	99.995899  
2032.000000	99.998485  
2031.000000	100.001510 
2030.000000	100.001097 
2029.000000	99.997992  
2028.000000	99.996256  
2027.000000	99.996860  
2026.000000	99.996372  
2025.000000	99.994042  
2024.000000	99.995059  
2023.000000	100.001786 
2022.000000	100.005866 
2021.000000	99.996653  
2020.000000	99.977276  
2019.000000	99.965156  
2018.000000	99.973876  
2017.000000	99.997612  
2016.000000	100.016216 
2015.000000	100.014707 
2014.000000	99.995323  
2013.000000	99.972961  
2012.000000	99.961556  
2011.000000	99.964274  
2010.000000	99.975610  
2009.000000	99.990324  
2008.000000	100.007145 
2007.000000	100.023729 
2006.000000	100.033249 
2005.000000	100.030535 
2004.000000	100.019342 
2003.000000	100.009006 
2002.000000	100.004821 
2001.000000	100.004446 
2000.000000	100.002404 
1999.000000	99.995866  
1998.000000	99.986996  
1997.000000	99.981676  
1996.000000	99.985059  
1995.000000	99.997172  
1994.000000	100.013174 
1993.000000	100.027455 
1992.000000	100.036331 
1991.000000	100.037394 
1990.000000	100.029886 
1989.000000	100.017867 
1988.000000	100.009134 
1987.000000	100.007322 
1986.000000	100.007615 
1985.000000	100.004039 
1984.000000	99.998681  
1983.000000	99.998757  
1982.000000	100.005472 
1981.000000	100.010748 
1980.000000	100.006159 
1979.000000	99.992389  
1978.000000	99.978848  
1977.000000	99.974920  
1976.000000	99.981322  
1975.000000	99.990155  
1974.000000	99.994160  
1973.000000	99.995592  
1972.000000	100.003691 
1971.000000	100.021872 
1970.000000	100.040124 
1969.000000	100.043386 
1968.000000	100.027248 
1967.000000	100.003002 
1966.000000	99.986254  
1965.000000	99.983124  
1964.000000	99.988465  
1963.000000	99.993633  
1962.000000	99.993258  
1961.000000	99.987035  
1960.000000	99.978482  
1959.000000	99.972697  
1958.000000	99.973637  
1957.000000	99.981017  
1956.000000	99.989115  
1955.000000	99.990545  
1954.000000	99.983146  
1953.000000	99.972363  
1952.000000	99.964940  
1951.000000	99.961207  
1950.000000	99.956432  
1949.000000	99.949468  
1948.000000	99.945746  
1947.000000	99.949289  
1946.000000	99.955312  
1945.000000	99.954709  
1944.000000	99.944776  
1943.000000	99.932328  
1942.000000	99.925703  
1941.000000	99.925786  
1940.000000	99.927047  
1939.000000	99.925823  
1938.000000	99.924968  
1937.000000	99.930177  
1936.000000	99.942105  
1935.000000	99.953560  
1934.000000	99.956323  
1933.000000	99.950469  
1932.000000	99.945040  
1931.000000	99.948134  
1930.000000	99.958067  
1929.000000	99.966340  
1928.000000	99.967656  
1927.000000	99.964198  
1926.000000	99.960838  
1925.000000	99.959826  
1924.000000	99.961061  
1923.000000	99.964821  
1922.000000	99.971333  
1921.000000	99.978007  
1920.000000	99.979038  
1919.000000	99.968971  
1918.000000	99.948655  
1917.000000	99.927563  
1916.000000	99.915491  
1915.000000	99.913346  
1914.000000	99.916021  
1913.000000	99.920179  
1912.000000	99.925847  
1911.000000	99.931637  
1910.000000	99.932865  
1909.000000	99.927826  
1908.000000	99.922612  
1907.000000	99.924819  
1906.000000	99.934449  
1905.000000	99.944434  
1904.000000	99.948775  
1903.000000	99.947042  
1902.000000	99.941856  
1901.000000	99.936062  
1900.000000	99.932036  
1899.000000	99.930990  
1898.000000	99.932523  
1897.000000	99.935626  
1896.000000	99.939812  
1895.000000	99.944137  
1894.000000	99.946158  
1893.000000	99.944352  
1892.000000	99.940508  
1891.000000	99.937641  
1890.000000	99.936520  
1889.000000	99.935748  
1888.000000	99.934374  
1887.000000	99.932043  
1886.000000	99.928591  
1885.000000	99.925856  
1884.000000	99.927709  
1883.000000	99.935323  
1882.000000	99.943946  
1881.000000	99.947970  
1880.000000	99.948291  
1879.000000	99.951405  
1878.000000	99.961340  
1877.000000	99.974888  
1876.000000	99.985346  
1875.000000	99.988575  
1874.000000	99.984306  
1873.000000	99.974427  
1872.000000	99.961859  
1871.000000	99.949545  
1870.000000	99.939070  
1869.000000	99.930716  
1868.000000	99.925867  
1867.000000	99.926241  
1866.000000	99.930196  
1865.000000	99.933525  
1864.000000	99.932829  
1863.000000	99.927601  
1862.000000	99.920439  
1861.000000	99.915739  
1860.000000	99.917122  
1859.000000	99.924710  
1858.000000	99.934783  
1857.000000	99.942801  
1856.000000	99.946712  
1855.000000	99.946839  
1854.000000	99.943995  
1853.000000	99.939184  
1852.000000	99.933974  
1851.000000	99.930369  
1850.000000	99.930955  
1849.000000	99.938031  
1848.000000	99.950493  
1847.000000	99.962350  
1846.000000	99.966172  
1845.000000	99.959337  
1844.000000	99.948288  
1843.000000	99.942930  
1842.000000	99.945179  
1841.000000	99.950125  
1840.000000	99.953381  
1839.000000	99.953414  
1838.000000	99.951005  
1837.000000	99.948153  
1836.000000	99.946304  
1835.000000	99.944788  
1834.000000	99.941864  
1833.000000	99.937024  
1832.000000	99.930856  
1831.000000	99.924330  
1830.000000	99.920134  
1829.000000	99.922698  
1828.000000	99.932839  
1827.000000	99.945223  
1826.000000	99.953005  
1825.000000	99.953468  
1824.000000	99.950085  
1823.000000	99.946584  
1822.000000	99.941298  
1821.000000	99.931705  
1820.000000	99.921241  
1819.000000	99.917642  
1818.000000	99.923680  
1817.000000	99.933315  
1816.000000	99.939638  
1815.000000	99.942613  
1814.000000	99.946088  
1813.000000	99.951015  
1812.000000	99.954875  
1811.000000	99.956515  
1810.000000	99.957092  
1809.000000	99.956713  
1808.000000	99.954483  
1807.000000	99.950396  
1806.000000	99.945415  
1805.000000	99.941131  
1804.000000	99.939423  
1803.000000	99.940631  
1802.000000	99.941933  
1801.000000	99.939191  
1800.000000	99.932358  
1799.000000	99.926741  
1798.000000	99.926639  
1797.000000	99.931628  
1796.000000	99.938837  
1795.000000	99.945544  
1794.000000	99.949853  
1793.000000	99.950539  
1792.000000	99.948377  
1791.000000	99.946854  
1790.000000	99.947350  
1789.000000	99.948535  
1788.000000	99.950191  
1787.000000	99.952958  
1786.000000	99.955958  
1785.000000	99.957181  
1784.000000	99.956254  
1783.000000	99.953998  
1782.000000	99.950768  
1781.000000	99.947024  
1780.000000	99.944042  
1779.000000	99.942915  
1778.000000	99.943288  
1777.000000	99.944769  
1776.000000	99.947357  
1775.000000	99.949775  
1774.000000	99.950061  
1773.000000	99.948353  
1772.000000	99.947750  
1771.000000	99.951120  
1770.000000	99.956025  
1769.000000	99.957387  
1768.000000	99.953659  
1767.000000	99.948297  
1766.000000	99.945063  
1765.000000	99.943941  
1764.000000	99.943211  
1763.000000	99.942246  
1762.000000	99.941842  
1761.000000	99.942694  
1760.000000	99.944198  
1759.000000	99.945956  
1758.000000	99.949154  
1757.000000	99.955198  
1756.000000	99.962425  
1755.000000	99.966770  
1754.000000	99.966618  
1753.000000	99.964536  
1752.000000	99.963883  
1751.000000	99.964433  
1750.000000	99.963216  
1749.000000	99.959489  
1748.000000	99.955759  
1747.000000	99.954347  
1746.000000	99.955223  
1745.000000	99.956583  
1744.000000	99.956640  
1743.000000	99.955398  
1742.000000	99.954238  
1741.000000	99.953937  
1740.000000	99.954658  
1739.000000	99.957242  
1738.000000	99.961658  
1737.000000	99.965442  
1736.000000	99.967049  
1735.000000	99.967391  
1734.000000	99.967172  
1733.000000	99.967660  
1732.000000	99.967344  
1731.000000	99.963191  
1730.000000	99.956617  
1729.000000	99.952356  
1728.000000	99.952670  
1727.000000	99.955512  
1726.000000	99.958485  
1725.000000	99.960683  
1724.000000	99.961011  
1723.000000	99.957873  
1722.000000	99.951108  
1721.000000	99.943274  
1720.000000	99.938982  
1719.000000	99.942177  
1718.000000	99.950850  
1717.000000	99.956129  
1716.000000	99.955946  
1715.000000	99.956058  
1714.000000	99.957918  
1713.000000	99.959034  
1712.000000	99.958687  
1711.000000	99.957788  
1710.000000	99.956969  
1709.000000	99.956194  
1708.000000	99.955431  
1707.000000	99.955353  
1706.000000	99.955939  
1705.000000	99.956139  
1704.000000	99.955978  
1703.000000	99.955933  
1702.000000	99.956053  
1701.000000	99.955707  
1700.000000	99.954598  
1699.000000	99.958584  
1698.000000	99.964181  
1697.000000	99.962561  
1696.000000	99.953805  
1695.000000	99.948173  
1694.000000	99.949291  
1693.000000	99.950322  
1692.000000	99.948560  
1691.000000	99.946387  
1690.000000	99.945709  
1689.000000	99.945891  
1688.000000	99.945734  
1687.000000	99.945877  
1686.000000	99.948306  
1685.000000	99.952509  
1684.000000	99.953392  
1683.000000	99.952442  
1682.000000	99.951329  
1681.000000	99.949310  
1680.000000	99.946893  
1679.000000	99.944649  
1678.000000	99.941429  
1677.000000	99.936416  
1676.000000	99.931144  
1675.000000	99.928663  
1674.000000	99.931520  
1673.000000	99.938028  
1672.000000	99.944824  
1671.000000	99.949864  
1670.000000	99.950480  
1669.000000	99.946639  
1668.000000	99.942519  
1667.000000	99.939589  
1666.000000	99.936699  
1665.000000	99.933646  
1664.000000	99.932212  
1663.000000	99.933636  
1662.000000	99.936431  
1661.000000	99.939048  
1660.000000	99.941803  
1659.000000	99.945079  
1658.000000	99.947595  
1657.000000	99.946511  
1656.000000	99.940635  
1655.000000	99.932186  
1654.000000	99.925371  
1653.000000	99.922037  
1652.000000	99.929878  
1651.000000	99.941576  
1650.000000	99.948051  
1649.000000	99.949846  
1648.000000	99.950449  
1647.000000	99.949235  
1646.000000	99.945509  
1645.000000	99.941992  
1644.000000	99.940525  
1643.000000	99.941089  
1642.000000	99.942303  
1641.000000	99.942369  
1640.000000	99.940775  
1639.000000	99.938442  
1638.000000	99.936432  
1637.000000	99.935559  
1636.000000	99.936253  
1635.000000	99.938600  
1634.000000	99.941666  
1633.000000	99.941531  
1632.000000	99.936831  
1631.000000	99.929586  
1630.000000	99.923057  
1629.000000	99.920334  
1628.000000	99.922736  
1627.000000	99.927672  
1626.000000	99.930669  
1625.000000	99.929931  
1624.000000	99.927287  
1623.000000	99.925331  
1622.000000	99.925421  
1621.000000	99.927492  
1620.000000	99.930155  
1619.000000	99.932063  
1618.000000	99.932449  
1617.000000	99.931902  
1616.000000	99.933666  
1615.000000	99.938211  
1614.000000	99.941901  
1613.000000	99.943870  
1612.000000	99.945786  
1611.000000	99.947514  
1610.000000	99.946569  
1609.000000	99.942925  
1608.000000	99.939812  
1607.000000	99.938779  
1606.000000	99.938649  
1605.000000	99.939052  
1604.000000	99.940832  
1603.000000	99.943645  
1602.000000	99.945955  
1601.000000	99.947268  
1600.000000	99.948286  
1599.000000	99.949387  
1598.000000	99.950939  
1597.000000	99.953733  
1596.000000	99.957298  
1595.000000	99.958816  
1594.000000	99.956132  
1593.000000	99.951869  
1592.000000	99.951005  
1591.000000	99.954558  
1590.000000	99.958802  
1589.000000	99.961137  
1588.000000	99.963087  
1587.000000	99.966450  
1586.000000	99.970203  
1585.000000	99.972863  
1584.000000	99.974342  
1583.000000	99.974474  
1582.000000	99.972618  
1581.000000	99.969332  
1580.000000	99.965740  
1579.000000	99.961762  
1578.000000	99.957192  
1577.000000	99.953767  
1576.000000	99.954210  
1575.000000	99.958154  
1574.000000	99.961591  
1573.000000	99.962394  
1572.000000	99.961286  
1571.000000	99.960011  
1570.000000	99.959891  
1569.000000	99.963353  
1568.000000	99.970648  
1567.000000	99.976362  
1566.000000	99.976724  
1565.000000	99.973347  
1564.000000	99.969821  
1563.000000	99.966941  
1562.000000	99.964056  
1561.000000	99.964799  
1560.000000	99.975255  
1559.000000	99.982785  
1558.000000	99.978322  
1557.000000	99.978231  
1556.000000	99.982406  
1555.000000	99.984800  
1554.000000	99.984567  
1553.000000	99.983758  
1552.000000	99.982243  
1551.000000	99.979017  
1550.000000	99.975504  
1549.000000	99.975266  
1548.000000	99.978809  
1547.000000	99.981805  
1546.000000	99.979941  
1545.000000	99.973037  
1544.000000	99.966267  
1543.000000	99.966410  
1542.000000	99.975407  
1541.000000	99.986087  
1540.000000	99.987476  
1539.000000	99.981858  
1538.000000	99.978373  
1537.000000	99.977203  
1536.000000	99.976317  
1535.000000	99.975008  
1534.000000	99.971673  
1533.000000	99.965676  
1532.000000	99.961274  
1531.000000	99.961103  
1530.000000	99.962227  
1529.000000	99.961221  
1528.000000	99.958673  
1527.000000	99.957959  
1526.000000	99.961095  
1525.000000	99.966439  
1524.000000	99.971870  
1523.000000	99.977044  
1522.000000	99.979945  
1521.000000	99.977024  
1520.000000	99.970815  
1519.000000	99.964582  
1518.000000	99.958141  
1517.000000	99.951396  
1516.000000	99.946916  
1515.000000	99.946440  
1514.000000	99.947530  
1513.000000	99.947416  
1512.000000	99.945857  
1511.000000	99.944408  
1510.000000	99.943592  
1509.000000	99.943161  
1508.000000	99.943876  
1507.000000	99.946014  
1506.000000	99.948745  
1505.000000	99.951187  
1504.000000	99.951973  
1503.000000	99.952587  
1502.000000	99.953741  
1501.000000	99.953071  
1500.000000	99.947389  
1499.000000	99.937993  
1498.000000	99.930108  
1497.000000	99.924860  
1496.000000	99.919651  
1495.000000	99.916530  
1494.000000	99.918619  
1493.000000	99.925015  
1492.000000	99.932953  
1491.000000	99.939263  
1490.000000	99.940265  
1489.000000	99.934183  
1488.000000	99.924657  
1487.000000	99.917335  
1486.000000	99.912425  
1485.000000	99.907436  
1484.000000	99.902320  
1483.000000	99.898862  
1482.000000	99.898464  
1481.000000	99.900036  
1480.000000	99.901384  
1479.000000	99.901388  
1478.000000	99.899853  
1477.000000	99.896939  
1476.000000	99.894667  
1475.000000	99.896928  
1474.000000	99.904005  
1473.000000	99.909864  
1472.000000	99.909257  
1471.000000	99.906256  
1470.000000	99.904610  
1469.000000	99.902564  
1468.000000	99.898357  
1467.000000	99.893684  
1466.000000	99.891671  
1465.000000	99.892946  
1464.000000	99.895808  
1463.000000	99.898809  
1462.000000	99.900702  
1461.000000	99.900101  
1460.000000	99.897024  
1459.000000	99.892428  
1458.000000	99.885699  
1457.000000	99.873275  
1456.000000	99.857897  
1455.000000	99.846783  
1454.000000	99.841349  
1453.000000	99.840288  
1452.000000	99.842532  
1451.000000	99.846718  
1450.000000	99.850557  
1449.000000	99.851342  
1448.000000	99.848503  
1447.000000	99.845631  
1446.000000	99.846497  
1445.000000	99.850479  
1444.000000	99.854552  
1443.000000	99.857226  
1442.000000	99.858829  
1441.000000	99.859779  
1440.000000	99.859928  
1439.000000	99.859925  
1438.000000	99.861685  
1437.000000	99.864783  
1436.000000	99.866238  
1435.000000	99.866097  
1434.000000	99.865456  
1433.000000	99.863060  
1432.000000	99.858213  
1431.000000	99.852405  
1430.000000	99.848275  
1429.000000	99.846523  
1428.000000	99.845482  
1427.000000	99.843901  
1426.000000	99.842013  
1425.000000	99.840557  
1424.000000	99.838480  
1423.000000	99.833856  
1422.000000	99.825964  
1421.000000	99.814109  
1420.000000	99.797301  
1419.000000	99.777757  
1418.000000	99.763177  
1417.000000	99.754708  
1416.000000	99.744809  
1415.000000	99.729133  
1414.000000	99.709699  
1413.000000	99.690523  
1412.000000	99.673777  
1411.000000	99.660047  
1410.000000	99.649637  
1409.000000	99.641748  
1408.000000	99.635297  
1407.000000	99.631097  
1406.000000	99.630865  
1405.000000	99.635297  
1404.000000	99.643698  
1403.000000	99.655782  
1402.000000	99.671731  
1401.000000	99.690345  
1400.000000	99.708550  
1399.000000	99.721225  
1398.000000	99.722121  
1397.000000	99.704451  
1396.000000	99.666299  
1395.000000	99.622100  
1394.000000	99.601072  
1393.000000	99.618947  
1392.000000	99.661093  
1391.000000	99.702547  
1390.000000	99.728908  
1389.000000	99.739061  
1388.000000	99.737744  
1387.000000	99.729663  
1386.000000	99.719420  
1385.000000	99.711322  
1384.000000	99.706919  
1383.000000	99.704819  
1382.000000	99.703210  
1381.000000	99.702251  
1380.000000	99.704210  
1379.000000	99.710694  
1378.000000	99.720591  
1377.000000	99.731289  
1376.000000	99.740913  
1375.000000	99.749048  
1374.000000	99.757115  
1373.000000	99.768039  
1372.000000	99.782840  
1371.000000	99.798804  
1370.000000	99.812062  
1369.000000	99.821618  
1368.000000	99.829158  
1367.000000	99.836124  
1366.000000	99.842620  
1365.000000	99.848966  
1364.000000	99.856426  
1363.000000	99.865313  
1362.000000	99.873560  
1361.000000	99.879277  
1360.000000	99.883363  
1359.000000	99.888236  
1358.000000	99.895152  
1357.000000	99.903252  
1356.000000	99.910449  
1355.000000	99.915469  
1354.000000	99.919192  
1353.000000	99.923442  
1352.000000	99.928729  
1351.000000	99.933668  
1350.000000	99.936447  
1349.000000	99.937537  
1348.000000	99.938355  
1347.000000	99.938700  
1346.000000	99.937630  
1345.000000	99.936273  
1344.000000	99.936946  
1343.000000	99.939698  
1342.000000	99.942148  
1341.000000	99.943176  
1340.000000	99.944419  
1339.000000	99.947190  
1338.000000	99.950311  
1337.000000	99.952343  
1336.000000	99.953588  
1335.000000	99.954725  
1334.000000	99.955254  
1333.000000	99.954614  
1332.000000	99.953579  
1331.000000	99.953161  
1330.000000	99.953110  
1329.000000	99.952855  
1328.000000	99.952762  
1327.000000	99.953182  
1326.000000	99.953342  
1325.000000	99.952833  
1324.000000	99.952556  
1323.000000	99.953421  
1322.000000	99.955074  
1321.000000	99.956848  
1320.000000	99.959100  
1319.000000	99.962406  
1318.000000	99.965817  
1317.000000	99.967127  
1316.000000	99.965089  
1315.000000	99.960606  
1314.000000	99.955784  
1313.000000	99.952259  
1312.000000	99.950572  
1311.000000	99.950632  
1310.000000	99.952197  
1309.000000	99.954712  
1308.000000	99.956963  
1307.000000	99.957454  
1306.000000	99.955466  
1305.000000	99.952125  
1304.000000	99.949576  
1303.000000	99.949282  
1302.000000	99.951113  
1301.000000	99.953929  
1300.000000	99.956585  
1299.000000	99.958506  
1298.000000	99.959753  
1297.000000	99.960671  
1296.000000	99.961315  
1295.000000	99.961089  
1294.000000	99.959250  
1293.000000	99.955642  
1292.000000	99.950799  
1291.000000	99.945674  
1290.000000	99.941567  
1289.000000	99.939843  
1288.000000	99.940832  
1287.000000	99.942861  
1286.000000	99.943174  
1285.000000	99.940226  
1284.000000	99.934652  
1283.000000	99.928013  
1282.000000	99.921281  
1281.000000	99.914888  
1280.000000	99.909551  
1279.000000	99.905916  
1278.000000	99.903590  
1277.000000	99.901367  
1276.000000	99.898623  
1275.000000	99.895740  
1274.000000	99.892926  
1273.000000	99.889239  
1272.000000	99.883395  
1271.000000	99.875394  
1270.000000	99.866765  
1269.000000	99.858962  
1268.000000	99.851775  
1267.000000	99.843595  
1266.000000	99.833283  
1265.000000	99.821481  
1264.000000	99.810041  
1263.000000	99.800295  
1262.000000	99.792007  
1261.000000	99.784087  
1260.000000	99.776196  
1259.000000	99.769072  
1258.000000	99.763326  
1257.000000	99.758550  
1256.000000	99.754262  
1255.000000	99.751110  
1254.000000	99.749907  
1253.000000	99.749525  
1252.000000	99.747388  
1251.000000	99.742939  
1250.000000	99.739477  
1249.000000	99.741185  
1248.000000	99.748726  
1247.000000	99.758505  
1246.000000	99.765242  
1245.000000	99.764064  
1244.000000	99.752276  
1243.000000	99.733017  
1242.000000	99.716923  
1241.000000	99.715414  
1240.000000	99.729686  
1239.000000	99.748412  
1238.000000	99.758495  
1237.000000	99.756641  
1236.000000	99.748752  
1235.000000	99.740864  
1234.000000	99.734291  
1233.000000	99.727996  
1232.000000	99.721093  
1231.000000	99.712408  
1230.000000	99.701270  
1229.000000	99.690326  
1228.000000	99.684992  
1227.000000	99.688096  
1226.000000	99.696348  
1225.000000	99.703628  
1224.000000	99.706677  
1223.000000	99.706352  
1222.000000	99.704819  
1221.000000	99.703575  
1220.000000	99.703755  
1219.000000	99.706253  
1218.000000	99.710642  
1217.000000	99.714657  
1216.000000	99.715494  
1215.000000	99.711882  
1214.000000	99.704913  
1213.000000	99.696694  
1212.000000	99.688300  
1211.000000	99.679683  
1210.000000	99.671517  
1209.000000	99.665722  
1208.000000	99.663084  
1207.000000	99.661366  
1206.000000	99.657389  
1205.000000	99.650597  
1204.000000	99.642989  
1203.000000	99.635886  
1202.000000	99.628657  
1201.000000	99.620675  
1200.000000	99.612481  
1199.000000	99.604539  
1198.000000	99.596677  
1197.000000	99.589150  
1196.000000	99.582253  
1195.000000	99.574314  
1194.000000	99.562515  
1193.000000	99.547046  
1192.000000	99.532175  
1191.000000	99.521257  
1190.000000	99.512456  
1189.000000	99.501617  
1188.000000	99.487926  
1187.000000	99.474201  
1186.000000	99.462506  
1185.000000	99.452128  
1184.000000	99.441682  
1183.000000	99.430770  
1182.000000	99.419327  
1181.000000	99.407330  
1180.000000	99.395390  
1179.000000	99.383934  
1178.000000	99.371706  
1177.000000	99.356787  
1176.000000	99.339168  
1175.000000	99.320543  
1174.000000	99.301376  
1173.000000	99.280251  
1172.000000	99.256801  
1171.000000	99.233443  
1170.000000	99.213035  
1169.000000	99.195966  
1168.000000	99.180543  
1167.000000	99.165523  
1166.000000	99.151810  
1165.000000	99.142428  
1164.000000	99.140923  
1163.000000	99.148461  
1162.000000	99.161993  
1161.000000	99.176352  
1160.000000	99.188427  
1159.000000	99.197979  
1158.000000	99.204102  
1157.000000	99.202768  
1156.000000	99.189780  
1155.000000	99.166269  
1154.000000	99.140128  
1153.000000	99.120728  
1152.000000	99.111472  
1151.000000	99.107279  
1150.000000	99.099765  
1149.000000	99.085284  
1148.000000	99.067514  
1147.000000	99.052286  
1146.000000	99.041316  
1145.000000	99.031879  
1144.000000	99.021041  
1143.000000	99.008112  
1142.000000	98.993643  
1141.000000	98.978412  
1140.000000	98.963847  
1139.000000	98.951595  
1138.000000	98.941723  
1137.000000	98.932250  
1136.000000	98.921074  
1135.000000	98.907696  
1134.000000	98.892729  
1133.000000	98.876342  
1132.000000	98.857805  
1131.000000	98.836847  
1130.000000	98.815621  
1129.000000	98.798492  
1128.000000	98.787954  
1127.000000	98.780161  
1126.000000	98.766753  
1125.000000	98.743259  
1124.000000	98.714450  
1123.000000	98.689376  
1122.000000	98.672096  
1121.000000	98.659285  
1120.000000	98.645704  
1119.000000	98.628842  
1118.000000	98.608552  
1117.000000	98.585575  
1116.000000	98.561640  
1115.000000	98.538971  
1114.000000	98.518429  
1113.000000	98.499077  
1112.000000	98.479574  
1111.000000	98.458550  
1110.000000	98.434117  
1109.000000	98.405392  
1108.000000	98.374675  
1107.000000	98.346205  
1106.000000	98.321951  
1105.000000	98.300201  
1104.000000	98.278629  
1103.000000	98.256986  
1102.000000	98.236475  
1101.000000	98.218378  
1100.000000	98.203355  
1099.000000	98.191474  
1098.000000	98.181437  
1097.000000	98.171738  
1096.000000	98.161918  
1095.000000	98.151184  
1094.000000	98.136284  
1093.000000	98.112765  
1092.000000	98.078587  
1091.000000	98.035505  
1090.000000	97.987689  
1089.000000	97.940332  
1088.000000	97.898173  
1087.000000	97.862671  
1086.000000	97.830954  
1085.000000	97.799764  
1084.000000	97.769426  
1083.000000	97.741329  
1082.000000	97.713098  
1081.000000	97.680380  
1080.000000	97.643100  
1079.000000	97.606113  
1078.000000	97.573781  
1077.000000	97.547686  
1076.000000	97.529467  
1075.000000	97.521193  
1074.000000	97.521906  
1073.000000	97.527205  
1072.000000	97.531804  
1071.000000	97.528128  
1070.000000	97.504131  
1069.000000	97.451125  
1068.000000	97.377687  
1067.000000	97.310291  
1066.000000	97.273924  
1065.000000	97.272598  
1064.000000	97.290389  
1063.000000	97.306643  
1062.000000	97.306461  
1061.000000	97.282357  
1060.000000	97.235291  
1059.000000	97.176596  
1058.000000	97.123571  
1057.000000	97.088205  
1056.000000	97.069676  
1055.000000	97.058107  
1054.000000	97.044608  
1053.000000	97.027424  
1052.000000	97.009612  
1051.000000	96.992940  
1050.000000	96.975707  
1049.000000	96.955976  
1048.000000	96.934453  
1047.000000	96.913510  
1046.000000	96.895429  
1045.000000	96.882142  
1044.000000	96.874209  
1043.000000	96.868887  
1042.000000	96.861679  
1041.000000	96.851493  
1040.000000	96.842291  
1039.000000	96.838500  
1038.000000	96.841405  
1037.000000	96.851310  
1036.000000	96.869425  
1035.000000	96.894816  
1034.000000	96.922644  
1033.000000	96.947915  
1032.000000	96.967253  
1031.000000	96.975082  
1030.000000	96.965124  
1029.000000	96.942144  
1028.000000	96.926905  
1027.000000	96.939548  
1026.000000	96.977777  
1025.000000	97.018667  
1024.000000	97.042368  
1023.000000	97.047688  
1022.000000	97.045044  
1021.000000	97.042388  
1020.000000	97.041562  
1019.000000	97.042680  
1018.000000	97.046480  
1017.000000	97.053387  
1016.000000	97.062712  
1015.000000	97.072628  
1014.000000	97.081175  
1013.000000	97.088730  
1012.000000	97.098447  
1011.000000	97.111861  
1010.000000	97.125188  
1009.000000	97.133159  
1008.000000	97.135833  
1007.000000	97.138481  
1006.000000	97.145341  
1005.000000	97.156649  
1004.000000	97.171093  
1003.000000	97.187453  
1002.000000	97.203891  
1001.000000	97.218959  
1000.000000	97.233289  
999.000000	 97.247582  
998.000000	 97.259859  
997.000000	 97.268173  
996.000000	 97.275320  
995.000000	 97.286794  
994.000000	 97.303895  
993.000000	 97.322395  
992.000000	 97.338225  
991.000000	 97.351025  
990.000000	 97.361986  
989.000000	 97.371814  
988.000000	 97.381625  
987.000000	 97.393021  
986.000000	 97.406575  
985.000000	 97.422336  
984.000000	 97.441392  
983.000000	 97.464147  
982.000000	 97.487536  
981.000000	 97.507289  
980.000000	 97.523226  
979.000000	 97.539713  
978.000000	 97.560989  
977.000000	 97.588327  
976.000000	 97.620764  
975.000000	 97.655269  
974.000000	 97.686851  
973.000000	 97.712406  
972.000000	 97.734747  
971.000000	 97.759768  
970.000000	 97.789431  
969.000000	 97.820431  
968.000000	 97.849685  
967.000000	 97.877845  
966.000000	 97.906765  
965.000000	 97.936238  
964.000000	 97.964211  
963.000000	 97.988784  
962.000000	 98.010166  
961.000000	 98.031775  
960.000000	 98.057883  
959.000000	 98.087944  
958.000000	 98.115012  
957.000000	 98.133121  
956.000000	 98.145001  
955.000000	 98.159023  
954.000000	 98.179427  
953.000000	 98.203209  
952.000000	 98.225850  
951.000000	 98.245634  
950.000000	 98.262139  
949.000000	 98.274834  
948.000000	 98.284547  
947.000000	 98.293157  
946.000000	 98.300569  
945.000000	 98.304589  
944.000000	 98.304916  
943.000000	 98.305116  
942.000000	 98.309566  
941.000000	 98.319685  
940.000000	 98.333227  
939.000000	 98.345704  
938.000000	 98.353028  
937.000000	 98.354988  
936.000000	 98.356085  
935.000000	 98.361311  
934.000000	 98.371529  
933.000000	 98.384408  
932.000000	 98.398288  
931.000000	 98.412478  
930.000000	 98.424967  
929.000000	 98.432930  
928.000000	 98.435166  
927.000000	 98.432206  
926.000000	 98.425532  
925.000000	 98.419052  
924.000000	 98.419158  
923.000000	 98.429380  
922.000000	 98.445713  
921.000000	 98.460437  
920.000000	 98.469418  
919.000000	 98.472673  
918.000000	 98.470294  
917.000000	 98.462779  
916.000000	 98.454147  
915.000000	 98.449309  
914.000000	 98.448010  
913.000000	 98.445809  
912.000000	 98.441306  
911.000000	 98.438173  
910.000000	 98.439930  
909.000000	 98.446996  
908.000000	 98.459112  
907.000000	 98.476000  
906.000000	 98.494846  
905.000000	 98.511219  
904.000000	 98.523383  
903.000000	 98.532682  
902.000000	 98.540414  
901.000000	 98.548218  
900.000000	 98.560548  
899.000000	 98.581304  
898.000000	 98.607209  
897.000000	 98.629385  
896.000000	 98.642205  
895.000000	 98.647007  
894.000000	 98.647895  
893.000000	 98.649056  
892.000000	 98.656057  
891.000000	 98.673553  
890.000000	 98.699765  
889.000000	 98.727726  
888.000000	 98.753058  
887.000000	 98.776114  
886.000000	 98.796406  
885.000000	 98.810852  
884.000000	 98.819029  
883.000000	 98.824539  
882.000000	 98.829289  
881.000000	 98.832059  
880.000000	 98.835162  
879.000000	 98.846179  
878.000000	 98.868672  
877.000000	 98.895804  
876.000000	 98.917403  
875.000000	 98.929626  
874.000000	 98.934920  
873.000000	 98.937160  
872.000000	 98.940582  
871.000000	 98.949353  
870.000000	 98.964003  
869.000000	 98.981289  
868.000000	 99.000374  
867.000000	 99.025009  
866.000000	 99.056201  
865.000000	 99.087192  
864.000000	 99.110743  
863.000000	 99.128369  
862.000000	 99.146767  
861.000000	 99.166650  
860.000000	 99.181210  
859.000000	 99.186223  
858.000000	 99.186572  
857.000000	 99.190637  
856.000000	 99.201883  
855.000000	 99.218323  
854.000000	 99.237122  
853.000000	 99.256174  
852.000000	 99.272398  
851.000000	 99.282596  
850.000000	 99.287396  
849.000000	 99.291859  
848.000000	 99.300137  
847.000000	 99.310876  
846.000000	 99.319725  
845.000000	 99.325106  
844.000000	 99.328946  
843.000000	 99.332794  
842.000000	 99.336607  
841.000000	 99.340833  
840.000000	 99.345314  
839.000000	 99.345814  
838.000000	 99.337134  
837.000000	 99.321877  
836.000000	 99.310614  
835.000000	 99.309523  
834.000000	 99.313003  
833.000000	 99.314030  
832.000000	 99.316654  
831.000000	 99.329246  
830.000000	 99.347466  
829.000000	 99.354903  
828.000000	 99.343768  
827.000000	 99.326150  
826.000000	 99.318950  
825.000000	 99.323819  
824.000000	 99.329180  
823.000000	 99.327675  
822.000000	 99.323401  
821.000000	 99.323298  
820.000000	 99.328456  
819.000000	 99.335113  
818.000000	 99.340495  
817.000000	 99.345998  
816.000000	 99.354523  
815.000000	 99.364475  
814.000000	 99.367794  
813.000000	 99.356257  
812.000000	 99.329273  
811.000000	 99.292975  
810.000000	 99.251911  
809.000000	 99.204635  
808.000000	 99.147932  
807.000000	 99.082228  
806.000000	 99.011339  
805.000000	 98.939496  
804.000000	 98.870708  
803.000000	 98.809256  
802.000000	 98.758438  
801.000000	 98.718950  
800.000000	 98.689022  
799.000000	 98.665968  
798.000000	 98.648797  
797.000000	 98.640376  
796.000000	 98.644887  
795.000000	 98.660928  
794.000000	 98.679470  
793.000000	 98.691859  
792.000000	 98.697806  
791.000000	 98.702316  
790.000000	 98.707492  
789.000000	 98.711465  
788.000000	 98.712694  
787.000000	 98.709931  
786.000000	 98.699480  
785.000000	 98.678133  
784.000000	 98.648683  
783.000000	 98.618134  
782.000000	 98.590960  
781.000000	 98.568045  
780.000000	 98.550683  
779.000000	 98.540146  
778.000000	 98.534101  
777.000000	 98.529176  
776.000000	 98.527122  
775.000000	 98.533312  
774.000000	 98.549170  
773.000000	 98.571029  
772.000000	 98.595968  
771.000000	 98.623267  
770.000000	 98.650305  
769.000000	 98.672556  
768.000000	 98.688086  
767.000000	 98.697910  
766.000000	 98.702856  
765.000000	 98.705032  
764.000000	 98.710836  
763.000000	 98.725667  
762.000000	 98.745152  
761.000000	 98.758038  
760.000000	 98.759326  
759.000000	 98.755768  
758.000000	 98.757589  
757.000000	 98.768929  
756.000000	 98.786008  
755.000000	 98.799649  
754.000000	 98.800517  
753.000000	 98.788269  
752.000000	 98.775896  
751.000000	 98.779253  
750.000000	 98.800854  
749.000000	 98.828081  
748.000000	 98.847294  
747.000000	 98.855109  
746.000000	 98.856899  
745.000000	 98.860201  
744.000000	 98.869912  
743.000000	 98.884935  
742.000000	 98.899485  
741.000000	 98.911723  
740.000000	 98.928700  
739.000000	 98.956784  
738.000000	 98.989711  
737.000000	 99.013471  
736.000000	 99.021274  
735.000000	 99.016742  
734.000000	 99.005484  
733.000000	 98.992861  
732.000000	 98.987811  
731.000000	 98.996945  
730.000000	 99.013757  
729.000000	 99.024860  
728.000000	 99.028240  
727.000000	 99.034347  
726.000000	 99.047343  
725.000000	 99.056871  
724.000000	 99.053113  
723.000000	 99.040077  
722.000000	 99.028847  
721.000000	 99.026408  
720.000000	 99.035878  
719.000000	 99.058543  
718.000000	 99.089008  
717.000000	 99.115318  
716.000000	 99.129694  
715.000000	 99.134186  
714.000000	 99.133217  
713.000000	 99.128239  
712.000000	 99.123647  
711.000000	 99.128715  
710.000000	 99.146039  
709.000000	 99.164638  
708.000000	 99.171635  
707.000000	 99.165716  
706.000000	 99.153466  
705.000000	 99.137881  
704.000000	 99.118641  
703.000000	 99.100540  
702.000000	 99.092028  
701.000000	 99.093952  
700.000000	 99.094542  
699.000000	 99.077011  
698.000000	 99.034124  
697.000000	 98.977852  
696.000000	 98.932975  
695.000000	 98.916460  
694.000000	 98.922443  
693.000000	 98.932785  
692.000000	 98.939892  
691.000000	 98.949597  
690.000000	 98.964506  
689.000000	 98.977799  
688.000000	 98.986325  
687.000000	 98.996469  
686.000000	 99.009908  
685.000000	 99.017381  
684.000000	 99.014615  
683.000000	 99.012055  
682.000000	 99.021786  
681.000000	 99.043698  
680.000000	 99.069147  
679.000000	 99.088471  
678.000000	 99.091625  
677.000000	 99.075364  
676.000000	 99.053928  
675.000000	 99.047613  
674.000000	 99.058261  
673.000000	 99.067048  
672.000000	 99.058851  
671.000000	 99.037904  
670.000000	 99.018710  
669.000000	 99.019155  
668.000000	 99.054085  
667.000000	 99.108350  
666.000000	 99.147425  
665.000000	 99.155323  
664.000000	 99.142780  
663.000000	 99.139187  
662.000000	 99.163171  
661.000000	 99.195751  
660.000000	 99.200936  
659.000000	 99.167857  
658.000000	 99.117701  
657.000000	 99.076298  
656.000000	 99.055204  
655.000000	 99.055414  
654.000000	 99.072093  
653.000000	 99.093068  
652.000000	 99.106319  
651.000000	 99.112514  
650.000000	 99.121997  

