4000.000000	100.138939 
3999.000000	100.137869 
3998.000000	100.136902 
3997.000000	100.136551 
3996.000000	100.136772 
3995.000000	100.137093 
3994.000000	100.137167 
3993.000000	100.137087 
3992.000000	100.137128 
3991.000000	100.137255 
3990.000000	100.137004 
3989.000000	100.135910 
3988.000000	100.134103 
3987.000000	100.132414 
3986.000000	100.131715 
3985.000000	100.132249 
3984.000000	100.133566 
3983.000000	100.135032 
3982.000000	100.136351 
3981.000000	100.137548 
3980.000000	100.138674 
3979.000000	100.139656 
3978.000000	100.140342 
3977.000000	100.140562 
3976.000000	100.140175 
3975.000000	100.139116 
3974.000000	100.137436 
3973.000000	100.135395 
3972.000000	100.133547 
3971.000000	100.132581 
3970.000000	100.132894 
3969.000000	100.134253 
3968.000000	100.135865 
3967.000000	100.136909 
3966.000000	100.136997 
3965.000000	100.136188 
3964.000000	100.134834 
3963.000000	100.133477 
3962.000000	100.132623 
3961.000000	100.132437 
3960.000000	100.132620 
3959.000000	100.132648 
3958.000000	100.132213 
3957.000000	100.131406 
3956.000000	100.130532 
3955.000000	100.129836 
3954.000000	100.129399 
3953.000000	100.129239 
3952.000000	100.129421 
3951.000000	100.129982 
3950.000000	100.130745 
3949.000000	100.131275 
3948.000000	100.131239 
3947.000000	100.130804 
3946.000000	100.130463 
3945.000000	100.130451 
3944.000000	100.130450 
3943.000000	100.129971 
3942.000000	100.128895 
3941.000000	100.127646 
3940.000000	100.126775 
3939.000000	100.126409 
3938.000000	100.126227 
3937.000000	100.125903 
3936.000000	100.125495 
3935.000000	100.125374 
3934.000000	100.125810 
3933.000000	100.126696 
3932.000000	100.127653 
3931.000000	100.128416 
3930.000000	100.128972 
3929.000000	100.129243 
3928.000000	100.128980 
3927.000000	100.128100 
3926.000000	100.126968 
3925.000000	100.126201 
3924.000000	100.126098 
3923.000000	100.126428 
3922.000000	100.126763 
3921.000000	100.126873 
3920.000000	100.126877 
3919.000000	100.127041 
3918.000000	100.127415 
3917.000000	100.127747 
3916.000000	100.127813 
3915.000000	100.127707 
3914.000000	100.127655 
3913.000000	100.127641 
3912.000000	100.127365 
3911.000000	100.126569 
3910.000000	100.125434 
3909.000000	100.124584 
3908.000000	100.124653 
3907.000000	100.125948 
3906.000000	100.128336 
3905.000000	100.131263 
3904.000000	100.133823 
3903.000000	100.135127 
3902.000000	100.134887 
3901.000000	100.133520 
3900.000000	100.131667 
3899.000000	100.129745 
3898.000000	100.127808 
3897.000000	100.125833 
3896.000000	100.124053 
3895.000000	100.122969 
3894.000000	100.123055 
3893.000000	100.124375 
3892.000000	100.126312 
3891.000000	100.127980 
3890.000000	100.129117 
3889.000000	100.130047 
3888.000000	100.130762 
3887.000000	100.130677 
3886.000000	100.129375 
3885.000000	100.127349 
3884.000000	100.125757 
3883.000000	100.125281 
3882.000000	100.125565 
3881.000000	100.125725 
3880.000000	100.125233 
3879.000000	100.124505 
3878.000000	100.124290 
3877.000000	100.124638 
3876.000000	100.124849 
3875.000000	100.124421 
3874.000000	100.123691 
3873.000000	100.123403 
3872.000000	100.123787 
3871.000000	100.124330 
3870.000000	100.124461 
3869.000000	100.124268 
3868.000000	100.124376 
3867.000000	100.125032 
3866.000000	100.125692 
3865.000000	100.125733 
3864.000000	100.125187 
3863.000000	100.124613 
3862.000000	100.124414 
3861.000000	100.124346 
3860.000000	100.123812 
3859.000000	100.122536 
3858.000000	100.120874 
3857.000000	100.119576 
3856.000000	100.119324 
3855.000000	100.120355 
3854.000000	100.122459 
3853.000000	100.124458 
3852.000000	100.125596 
3851.000000	100.126438 
3850.000000	100.127331 
3849.000000	100.127795 
3848.000000	100.127377 
3847.000000	100.126181 
3846.000000	100.124806 
3845.000000	100.123927 
3844.000000	100.123716 
3843.000000	100.123810 
3842.000000	100.123861 
3841.000000	100.123880 
3840.000000	100.124080 
3839.000000	100.124572 
3838.000000	100.125185 
3837.000000	100.125642 
3836.000000	100.125777 
3835.000000	100.125519 
3834.000000	100.124918 
3833.000000	100.124111 
3832.000000	100.123308 
3831.000000	100.122748 
3830.000000	100.122535 
3829.000000	100.122514 
3828.000000	100.122296 
3827.000000	100.121549 
3826.000000	100.120487 
3825.000000	100.119850 
3824.000000	100.120170 
3823.000000	100.121149 
3822.000000	100.121972 
3821.000000	100.122120 
3820.000000	100.121948 
3819.000000	100.122281 
3818.000000	100.123045 
3817.000000	100.123033 
3816.000000	100.121419 
3815.000000	100.118938 
3814.000000	100.117096 
3813.000000	100.116214 
3812.000000	100.115357 
3811.000000	100.113818 
3810.000000	100.112113 
3809.000000	100.111396 
3808.000000	100.112059 
3807.000000	100.113166 
3806.000000	100.113666 
3805.000000	100.113671 
3804.000000	100.113780 
3803.000000	100.113964 
3802.000000	100.113677 
3801.000000	100.112709 
3800.000000	100.111721 
3799.000000	100.111464 
3798.000000	100.111731 
3797.000000	100.111727 
3796.000000	100.111159 
3795.000000	100.110609 
3794.000000	100.110817 
3793.000000	100.111830 
3792.000000	100.112999 
3791.000000	100.113630 
3790.000000	100.113540 
3789.000000	100.113122 
3788.000000	100.113013 
3787.000000	100.113662 
3786.000000	100.115029 
3785.000000	100.116585 
3784.000000	100.117720 
3783.000000	100.118242 
3782.000000	100.118308 
3781.000000	100.118110 
3780.000000	100.117756 
3779.000000	100.117310 
3778.000000	100.116920 
3777.000000	100.116756 
3776.000000	100.116812 
3775.000000	100.116974 
3774.000000	100.117244 
3773.000000	100.117720 
3772.000000	100.118325 
3771.000000	100.118755 
3770.000000	100.118823 
3769.000000	100.118748 
3768.000000	100.118944 
3767.000000	100.119543 
3766.000000	100.120220 
3765.000000	100.120554 
3764.000000	100.120579 
3763.000000	100.120810 
3762.000000	100.121655 
3761.000000	100.122954 
3760.000000	100.124157 
3759.000000	100.124881 
3758.000000	100.125214 
3757.000000	100.125494 
3756.000000	100.125817 
3755.000000	100.125949 
3754.000000	100.125817 
3753.000000	100.125903 
3752.000000	100.126807 
3751.000000	100.127989 
3750.000000	100.127972 
3749.000000	100.126857 
3748.000000	100.126303 
3747.000000	100.127114 
3746.000000	100.128073 
3745.000000	100.127137 
3744.000000	100.123774 
3743.000000	100.120490 
3742.000000	100.119924 
3741.000000	100.121665 
3740.000000	100.123504 
3739.000000	100.124102 
3738.000000	100.123764 
3737.000000	100.123676 
3736.000000	100.124622 
3735.000000	100.126032 
3734.000000	100.126647 
3733.000000	100.125799 
3732.000000	100.123783 
3731.000000	100.121582 
3730.000000	100.120219 
3729.000000	100.119978 
3728.000000	100.120050 
3727.000000	100.119474 
3726.000000	100.118358 
3725.000000	100.117596 
3724.000000	100.117308 
3723.000000	100.116427 
3722.000000	100.114151 
3721.000000	100.110999 
3720.000000	100.108293 
3719.000000	100.106567 
3718.000000	100.104871 
3717.000000	100.102011 
3716.000000	100.097655 
3715.000000	100.092219 
3714.000000	100.086349 
3713.000000	100.081013 
3712.000000	100.077616 
3711.000000	100.076699 
3710.000000	100.077249 
3709.000000	100.077536 
3708.000000	100.076002 
3707.000000	100.071974 
3706.000000	100.065824 
3705.000000	100.058671 
3704.000000	100.051982 
3703.000000	100.047135 
3702.000000	100.044816 
3701.000000	100.044306 
3700.000000	100.043874 
3699.000000	100.041886 
3698.000000	100.037400 
3697.000000	100.030675 
3696.000000	100.023439 
3695.000000	100.017834 
3694.000000	100.014754 
3693.000000	100.013487 
3692.000000	100.012898 
3691.000000	100.012552 
3690.000000	100.012439 
3689.000000	100.011702 
3688.000000	100.009456 
3687.000000	100.006626 
3686.000000	100.004606 
3685.000000	100.003271 
3684.000000	100.001427 
3683.000000	99.998329  
3682.000000	99.994344  
3681.000000	99.990317  
3680.000000	99.986586  
3679.000000	99.982832  
3678.000000	99.978662  
3677.000000	99.974320  
3676.000000	99.971467  
3675.000000	99.971591  
3674.000000	99.975043  
3673.000000	99.981068  
3672.000000	99.987206  
3671.000000	99.990040  
3670.000000	99.988214  
3669.000000	99.983399  
3668.000000	99.978390  
3667.000000	99.974402  
3666.000000	99.970639  
3665.000000	99.966358  
3664.000000	99.962279  
3663.000000	99.959827  
3662.000000	99.959662  
3661.000000	99.961320  
3660.000000	99.963831  
3659.000000	99.966351  
3658.000000	99.968191  
3657.000000	99.968968  
3656.000000	99.969158  
3655.000000	99.970355  
3654.000000	99.974175  
3653.000000	99.980427  
3652.000000	99.987078  
3651.000000	99.991946  
3650.000000	99.994354  
3649.000000	99.994706  
3648.000000	99.993738  
3647.000000	99.992495  
3646.000000	99.991863  
3645.000000	99.992284  
3644.000000	99.993643  
3643.000000	99.995247  
3642.000000	99.996217  
3641.000000	99.996348  
3640.000000	99.996410  
3639.000000	99.997667  
3638.000000	100.000927 
3637.000000	100.005850 
3636.000000	100.010926 
3635.000000	100.014266 
3634.000000	100.015081 
3633.000000	100.014399 
3632.000000	100.014136 
3631.000000	100.015523 
3630.000000	100.018182 
3629.000000	100.020333 
3628.000000	100.020403 
3627.000000	100.019264 
3626.000000	100.018680 
3625.000000	100.018874 
3624.000000	100.019236 
3623.000000	100.019588 
3622.000000	100.020194 
3621.000000	100.021131 
3620.000000	100.022255 
3619.000000	100.023592 
3618.000000	100.025562 
3617.000000	100.028624 
3616.000000	100.032425 
3615.000000	100.035627 
3614.000000	100.036994 
3613.000000	100.036415 
3612.000000	100.034791 
3611.000000	100.033192 
3610.000000	100.032169 
3609.000000	100.031828 
3608.000000	100.032204 
3607.000000	100.033220 
3606.000000	100.034704 
3605.000000	100.036460 
3604.000000	100.038154 
3603.000000	100.039322 
3602.000000	100.039675 
3601.000000	100.039510 
3600.000000	100.039862 
3599.000000	100.041786 
3598.000000	100.045275 
3597.000000	100.049116 
3596.000000	100.051693 
3595.000000	100.052208 
3594.000000	100.051474 
3593.000000	100.051492 
3592.000000	100.053973 
3591.000000	100.059015 
3590.000000	100.064617 
3589.000000	100.067810 
3588.000000	100.066913 
3587.000000	100.062759 
3586.000000	100.057830 
3585.000000	100.054145 
3584.000000	100.051893 
3583.000000	100.050161 
3582.000000	100.048156 
3581.000000	100.045764 
3580.000000	100.043232 
3579.000000	100.040725 
3578.000000	100.038370 
3577.000000	100.036611 
3576.000000	100.036181 
3575.000000	100.037345 
3574.000000	100.039445 
3573.000000	100.041414 
3572.000000	100.042699 
3571.000000	100.043419 
3570.000000	100.043689 
3569.000000	100.043284 
3568.000000	100.042345 
3567.000000	100.041859 
3566.000000	100.042735 
3565.000000	100.044753 
3564.000000	100.046604 
3563.000000	100.046863 
3562.000000	100.045144 
3561.000000	100.042291 
3560.000000	100.039532 
3559.000000	100.037470 
3558.000000	100.035979 
3557.000000	100.034888 
3556.000000	100.034462 
3555.000000	100.035084 
3554.000000	100.036624 
3553.000000	100.038300 
3552.000000	100.039217 
3551.000000	100.039122 
3550.000000	100.038419 
3549.000000	100.037599 
3548.000000	100.036860 
3547.000000	100.036203 
3546.000000	100.035609 
3545.000000	100.035085 
3544.000000	100.034606 
3543.000000	100.034104 
3542.000000	100.033547 
3541.000000	100.032997 
3540.000000	100.032594 
3539.000000	100.032441 
3538.000000	100.032495 
3537.000000	100.032565 
3536.000000	100.032432 
3535.000000	100.032033 
3534.000000	100.031462 
3533.000000	100.030870 
3532.000000	100.030375 
3531.000000	100.030031 
3530.000000	100.029837 
3529.000000	100.029754 
3528.000000	100.029713 
3527.000000	100.029644 
3526.000000	100.029491 
3525.000000	100.029225 
3524.000000	100.028866 
3523.000000	100.028482 
3522.000000	100.028141 
3521.000000	100.027851 
3520.000000	100.027574 
3519.000000	100.027276 
3518.000000	100.026960 
3517.000000	100.026649 
3516.000000	100.026363 
3515.000000	100.026103 
3514.000000	100.025859 
3513.000000	100.025619 
3512.000000	100.025372 
3511.000000	100.025112 
3510.000000	100.024842 
3509.000000	100.024568 
3508.000000	100.024299 
3507.000000	100.024039 
3506.000000	100.023787 
3505.000000	100.023539 
3504.000000	100.023293 
3503.000000	100.023049 
3502.000000	100.022812 
3501.000000	100.022581 
3500.000000	100.022351 
3499.000000	100.022106 
3498.000000	100.021830 
3497.000000	100.021517 
3496.000000	100.021175 
3495.000000	100.020826 
3494.000000	100.020482 
3493.000000	100.020147 
3492.000000	100.019808 
3491.000000	100.019455 
3490.000000	100.019093 
3489.000000	100.018745 
3488.000000	100.018434 
3487.000000	100.018157 
3486.000000	100.017889 
3485.000000	100.017616 
3484.000000	100.017343 
3483.000000	100.017086 
3482.000000	100.016840 
3481.000000	100.016573 
3480.000000	100.016257 
3479.000000	100.015893 
3478.000000	100.015518 
3477.000000	100.015167 
3476.000000	100.014829 
3475.000000	100.014461 
3474.000000	100.014056 
3473.000000	100.013672 
3472.000000	100.013382 
3471.000000	100.013190 
3470.000000	100.013007 
3469.000000	100.012739 
3468.000000	100.012361 
3467.000000	100.011906 
3466.000000	100.011405 
3465.000000	100.010878 
3464.000000	100.010368 
3463.000000	100.009936 
3462.000000	100.009584 
3461.000000	100.009210 
3460.000000	100.008676 
3459.000000	100.007935 
3458.000000	100.007112 
3457.000000	100.006443 
3456.000000	100.006073 
3455.000000	100.005968 
3454.000000	100.005912 
3453.000000	100.005718 
3452.000000	100.005396 
3451.000000	100.005103 
3450.000000	100.004975 
3449.000000	100.004994 
3448.000000	100.004979 
3447.000000	100.004728 
3446.000000	100.004179 
3445.000000	100.003473 
3444.000000	100.002843 
3443.000000	100.002388 
3442.000000	100.002020 
3441.000000	100.001608 
3440.000000	100.001149 
3439.000000	100.000749 
3438.000000	100.000452 
3437.000000	100.000135 
3436.000000	99.999638  
3435.000000	99.998994  
3434.000000	99.998503  
3433.000000	99.998493  
3432.000000	99.998978  
3431.000000	99.999541  
3430.000000	99.999621  
3429.000000	99.998928  
3428.000000	99.997595  
3427.000000	99.996052  
3426.000000	99.994780  
3425.000000	99.994066  
3424.000000	99.993889  
3423.000000	99.993961  
3422.000000	99.993970  
3421.000000	99.993822  
3420.000000	99.993614  
3419.000000	99.993432  
3418.000000	99.993274  
3417.000000	99.993126  
3416.000000	99.992978  
3415.000000	99.992791  
3414.000000	99.992555  
3413.000000	99.992353  
3412.000000	99.992277  
3411.000000	99.992319  
3410.000000	99.992490  
3409.000000	99.992978  
3408.000000	99.993957  
3407.000000	99.995151  
3406.000000	99.995843  
3405.000000	99.995535  
3404.000000	99.994534  
3403.000000	99.993804  
3402.000000	99.994105  
3401.000000	99.995316  
3400.000000	99.996592  
3399.000000	99.997205  
3398.000000	99.997245  
3397.000000	99.997401  
3396.000000	99.998061  
3395.000000	99.998784  
3394.000000	99.998882  
3393.000000	99.998321  
3392.000000	99.997754  
3391.000000	99.997652  
3390.000000	99.997723  
3389.000000	99.997364  
3388.000000	99.996422  
3387.000000	99.995319  
3386.000000	99.994513  
3385.000000	99.994001  
3384.000000	99.993414  
3383.000000	99.992531  
3382.000000	99.991615  
3381.000000	99.991158  
3380.000000	99.991332  
3379.000000	99.991853  
3378.000000	99.992474  
3377.000000	99.993481  
3376.000000	99.995409  
3375.000000	99.998228  
3374.000000	100.001118 
3373.000000	100.003153 
3372.000000	100.003986 
3371.000000	100.003936 
3370.000000	100.003619 
3369.000000	100.003549 
3368.000000	100.003836 
3367.000000	100.004097 
3366.000000	100.003748 
3365.000000	100.002521 
3364.000000	100.000720 
3363.000000	99.999024  
3362.000000	99.998070  
3361.000000	99.998112  
3360.000000	99.998875  
3359.000000	99.999696  
3358.000000	100.000018 
3357.000000	99.999882  
3356.000000	99.999785  
3355.000000	100.000039 
3354.000000	100.000492 
3353.000000	100.000922 
3352.000000	100.001420 
3351.000000	100.002214 
3350.000000	100.003309 
3349.000000	100.004519 
3348.000000	100.005716 
3347.000000	100.006836 
3346.000000	100.007695 
3345.000000	100.008033 
3344.000000	100.007791 
3343.000000	100.007198 
3342.000000	100.006593 
3341.000000	100.006231 
3340.000000	100.006245 
3339.000000	100.006621 
3338.000000	100.007135 
3337.000000	100.007444 
3336.000000	100.007367 
3335.000000	100.007039 
3334.000000	100.006809 
3333.000000	100.006928 
3332.000000	100.007366 
3331.000000	100.007897 
3330.000000	100.008308 
3329.000000	100.008563 
3328.000000	100.008769 
3327.000000	100.009036 
3326.000000	100.009378 
3325.000000	100.009724 
3324.000000	100.010015 
3323.000000	100.010274 
3322.000000	100.010559 
3321.000000	100.010874 
3320.000000	100.011148 
3319.000000	100.011328 
3318.000000	100.011459 
3317.000000	100.011665 
3316.000000	100.012017 
3315.000000	100.012483 
3314.000000	100.012964 
3313.000000	100.013377 
3312.000000	100.013714 
3311.000000	100.014000 
3310.000000	100.014265 
3309.000000	100.014524 
3308.000000	100.014782 
3307.000000	100.015036 
3306.000000	100.015278 
3305.000000	100.015499 
3304.000000	100.015692 
3303.000000	100.015853 
3302.000000	100.015996 
3301.000000	100.016173 
3300.000000	100.016447 
3299.000000	100.016857 
3298.000000	100.017366 
3297.000000	100.017873 
3296.000000	100.018276 
3295.000000	100.018532 
3294.000000	100.018685 
3293.000000	100.018831 
3292.000000	100.019035 
3291.000000	100.019277 
3290.000000	100.019498 
3289.000000	100.019693 
3288.000000	100.019934 
3287.000000	100.020278 
3286.000000	100.020669 
3285.000000	100.020962 
3284.000000	100.021053 
3283.000000	100.021008 
3282.000000	100.021007 
3281.000000	100.021153 
3280.000000	100.021357 
3279.000000	100.021445 
3278.000000	100.021375 
3277.000000	100.021287 
3276.000000	100.021344 
3275.000000	100.021567 
3274.000000	100.021883 
3273.000000	100.022214 
3272.000000	100.022448 
3271.000000	100.022406 
3270.000000	100.021964 
3269.000000	100.021258 
3268.000000	100.020695 
3267.000000	100.020654 
3266.000000	100.021230 
3265.000000	100.022214 
3264.000000	100.023232 
3263.000000	100.023983 
3262.000000	100.024383 
3261.000000	100.024544 
3260.000000	100.024598 
3259.000000	100.024543 
3258.000000	100.024300 
3257.000000	100.023910 
3256.000000	100.023557 
3255.000000	100.023414 
3254.000000	100.023539 
3253.000000	100.023922 
3252.000000	100.024505 
3251.000000	100.025117 
3250.000000	100.025504 
3249.000000	100.025533 
3248.000000	100.025327 
3247.000000	100.025131 
3246.000000	100.025039 
3245.000000	100.024964 
3244.000000	100.024852 
3243.000000	100.024865 
3242.000000	100.025292 
3241.000000	100.026265 
3240.000000	100.027500 
3239.000000	100.028378 
3238.000000	100.028436 
3237.000000	100.027798 
3236.000000	100.027100 
3235.000000	100.026867 
3234.000000	100.027017 
3233.000000	100.027124 
3232.000000	100.027032 
3231.000000	100.027043 
3230.000000	100.027496 
3229.000000	100.028278 
3228.000000	100.028835 
3227.000000	100.028607 
3226.000000	100.027446 
3225.000000	100.025740 
3224.000000	100.024251 
3223.000000	100.023632 
3222.000000	100.024029 
3221.000000	100.025094 
3220.000000	100.026321 
3219.000000	100.027359 
3218.000000	100.028043 
3217.000000	100.028288 
3216.000000	100.028107 
3215.000000	100.027691 
3214.000000	100.027335 
3213.000000	100.027253 
3212.000000	100.027543 
3211.000000	100.028323 
3210.000000	100.029745 
3209.000000	100.031733 
3208.000000	100.033748 
3207.000000	100.035058 
3206.000000	100.035365 
3205.000000	100.035074 
3204.000000	100.034886 
3203.000000	100.035156 
3202.000000	100.035780 
3201.000000	100.036602 
3200.000000	100.037651 
3199.000000	100.038867 
3198.000000	100.039861 
3197.000000	100.040231 
3196.000000	100.040040 
3195.000000	100.039784 
3194.000000	100.039821 
3193.000000	100.039981 
3192.000000	100.039891 
3191.000000	100.039537 
3190.000000	100.039370 
3189.000000	100.039850 
3188.000000	100.040976 
3187.000000	100.042263 
3186.000000	100.043146 
3185.000000	100.043380 
3184.000000	100.043113 
3183.000000	100.042721 
3182.000000	100.042556 
3181.000000	100.042760 
3180.000000	100.043246 
3179.000000	100.043791 
3178.000000	100.044174 
3177.000000	100.044263 
3176.000000	100.044050 
3175.000000	100.043693 
3174.000000	100.043562 
3173.000000	100.044038 
3172.000000	100.045181 
3171.000000	100.046583 
3170.000000	100.047663 
3169.000000	100.048194 
3168.000000	100.048427 
3167.000000	100.048766 
3166.000000	100.049363 
3165.000000	100.050063 
3164.000000	100.050648 
3163.000000	100.051057 
3162.000000	100.051366 
3161.000000	100.051684 
3160.000000	100.052099 
3159.000000	100.052668 
3158.000000	100.053372 
3157.000000	100.054085 
3156.000000	100.054651 
3155.000000	100.055008 
3154.000000	100.055246 
3153.000000	100.055529 
3152.000000	100.055948 
3151.000000	100.056440 
3150.000000	100.056854 
3149.000000	100.057106 
3148.000000	100.057273 
3147.000000	100.057532 
3146.000000	100.057976 
3145.000000	100.058535 
3144.000000	100.059025 
3143.000000	100.059340 
3142.000000	100.059549 
3141.000000	100.059819 
3140.000000	100.060205 
3139.000000	100.060593 
3138.000000	100.060863 
3137.000000	100.061031 
3136.000000	100.061196 
3135.000000	100.061405 
3134.000000	100.061622 
3133.000000	100.061805 
3132.000000	100.061960 
3131.000000	100.062104 
3130.000000	100.062231 
3129.000000	100.062319 
3128.000000	100.062377 
3127.000000	100.062454 
3126.000000	100.062603 
3125.000000	100.062830 
3124.000000	100.063099 
3123.000000	100.063352 
3122.000000	100.063551 
3121.000000	100.063696 
3120.000000	100.063848 
3119.000000	100.064095 
3118.000000	100.064471 
3117.000000	100.064877 
3116.000000	100.065155 
3115.000000	100.065250 
3114.000000	100.065267 
3113.000000	100.065308 
3112.000000	100.065325 
3111.000000	100.065225 
3110.000000	100.065085 
3109.000000	100.065122 
3108.000000	100.065392 
3107.000000	100.065659 
3106.000000	100.065636 
3105.000000	100.065324 
3104.000000	100.064999 
3103.000000	100.064953 
3102.000000	100.065300 
3101.000000	100.065977 
3100.000000	100.066735 
3099.000000	100.067211 
3098.000000	100.067192 
3097.000000	100.066817 
3096.000000	100.066516 
3095.000000	100.066621 
3094.000000	100.067122 
3093.000000	100.067800 
3092.000000	100.068463 
3091.000000	100.068964 
3090.000000	100.069138 
3089.000000	100.068994 
3088.000000	100.068934 
3087.000000	100.069500 
3086.000000	100.070793 
3085.000000	100.072300 
3084.000000	100.073437 
3083.000000	100.074117 
3082.000000	100.074684 
3081.000000	100.075378 
3080.000000	100.075974 
3079.000000	100.075954 
3078.000000	100.074858 
3077.000000	100.072493 
3076.000000	100.069089 
3075.000000	100.065521 
3074.000000	100.063160 
3073.000000	100.063052 
3072.000000	100.065106 
3071.000000	100.068251 
3070.000000	100.071420 
3069.000000	100.073864 
3068.000000	100.074529 
3067.000000	100.072222 
3066.000000	100.067225 
3065.000000	100.062153 
3064.000000	100.059882 
3063.000000	100.060721 
3062.000000	100.062531 
3061.000000	100.063558 
3060.000000	100.064154 
3059.000000	100.065522 
3058.000000	100.067738 
3057.000000	100.069700 
3056.000000	100.070536 
3055.000000	100.070508 
3054.000000	100.070565 
3053.000000	100.071142 
3052.000000	100.071471 
3051.000000	100.070275 
3050.000000	100.067330 
3049.000000	100.063866 
3048.000000	100.060942 
3047.000000	100.057957 
3046.000000	100.053770 
3045.000000	100.048942 
3044.000000	100.045623 
3043.000000	100.044904 
3042.000000	100.045265 
3041.000000	100.044193 
3040.000000	100.040718 
3039.000000	100.035954 
3038.000000	100.031714 
3037.000000	100.029055 
3036.000000	100.027752 
3035.000000	100.026678 
3034.000000	100.024748 
3033.000000	100.021543 
3032.000000	100.016951 
3031.000000	100.010650 
3030.000000	100.002455 
3029.000000	99.992985  
3028.000000	99.983580  
3027.000000	99.975463  
3026.000000	99.969136  
3025.000000	99.964313  
3024.000000	99.959873  
3023.000000	99.954061  
3022.000000	99.945561  
3021.000000	99.934670  
3020.000000	99.923133  
3019.000000	99.912746  
3018.000000	99.904423  
3017.000000	99.898192  
3016.000000	99.893131  
3015.000000	99.887331  
3014.000000	99.878920  
3013.000000	99.867478  
3012.000000	99.853863  
3011.000000	99.838666  
3010.000000	99.821878  
3009.000000	99.804320  
3008.000000	99.788275  
3007.000000	99.775839  
3006.000000	99.767088  
3005.000000	99.760257  
3004.000000	99.753034  
3003.000000	99.743339  
3002.000000	99.729982  
3001.000000	99.713823  
3000.000000	99.697903  
2999.000000	99.685186  
2998.000000	99.676103  
2997.000000	99.669095  
2996.000000	99.663211  
2995.000000	99.658633  
2994.000000	99.653995  
2993.000000	99.644799  
2992.000000	99.626735  
2991.000000	99.601118  
2990.000000	99.575753  
2989.000000	99.558987  
2988.000000	99.553170  
2987.000000	99.554460  
2986.000000	99.558146  
2985.000000	99.562990  
2984.000000	99.569835  
2983.000000	99.577662  
2982.000000	99.583102  
2981.000000	99.583854  
2980.000000	99.581176  
2979.000000	99.578303  
2978.000000	99.577233  
2977.000000	99.577612  
2976.000000	99.578071  
2975.000000	99.577811  
2974.000000	99.577009  
2973.000000	99.576382  
2972.000000	99.576627  
2971.000000	99.578169  
2970.000000	99.581356  
2969.000000	99.586671  
2968.000000	99.594451  
2967.000000	99.604304  
2966.000000	99.615101  
2965.000000	99.625713  
2964.000000	99.635663  
2963.000000	99.645035  
2962.000000	99.653906  
2961.000000	99.661935  
2960.000000	99.668463  
2959.000000	99.673267  
2958.000000	99.677414  
2957.000000	99.682855  
2956.000000	99.690292  
2955.000000	99.697554  
2954.000000	99.701268  
2953.000000	99.700928  
2952.000000	99.700626  
2951.000000	99.705634  
2950.000000	99.717045  
2949.000000	99.730397  
2948.000000	99.739923  
2947.000000	99.743671  
2946.000000	99.744174  
2945.000000	99.745009  
2944.000000	99.747540  
2943.000000	99.751089  
2942.000000	99.755011  
2941.000000	99.759182  
2940.000000	99.762797  
2939.000000	99.764292  
2938.000000	99.763225  
2937.000000	99.761386  
2936.000000	99.761321  
2935.000000	99.764086  
2934.000000	99.768843  
2933.000000	99.773961  
2932.000000	99.777851  
2931.000000	99.779262  
2930.000000	99.777808  
2929.000000	99.774303  
2928.000000	99.770093  
2927.000000	99.766153  
2926.000000	99.763074  
2925.000000	99.761230  
2924.000000	99.760242  
2923.000000	99.758853  
2922.000000	99.756267  
2921.000000	99.753160  
2920.000000	99.750416  
2919.000000	99.747383  
2918.000000	99.742689  
2917.000000	99.736507  
2916.000000	99.730636  
2915.000000	99.726295  
2914.000000	99.723188  
2913.000000	99.720902  
2912.000000	99.719742  
2911.000000	99.719545  
2910.000000	99.718886  
2909.000000	99.716404  
2908.000000	99.712249  
2907.000000	99.707410  
2906.000000	99.702154  
2905.000000	99.695828  
2904.000000	99.687855  
2903.000000	99.678818  
2902.000000	99.670935  
2901.000000	99.667839  
2900.000000	99.672421  
2899.000000	99.683834  
2898.000000	99.696995  
2897.000000	99.706162  
2896.000000	99.709579  
2895.000000	99.710105  
2894.000000	99.711693  
2893.000000	99.715829  
2892.000000	99.721081  
2891.000000	99.725092  
2890.000000	99.726664  
2889.000000	99.726427  
2888.000000	99.726013  
2887.000000	99.726709  
2886.000000	99.728884  
2885.000000	99.732444  
2884.000000	99.737386  
2883.000000	99.743652  
2882.000000	99.750818  
2881.000000	99.758424  
2880.000000	99.766616  
2879.000000	99.776141  
2878.000000	99.787532  
2877.000000	99.800220  
2876.000000	99.812329  
2875.000000	99.821477  
2874.000000	99.826250  
2873.000000	99.827345  
2872.000000	99.827315  
2871.000000	99.828933  
2870.000000	99.833554  
2869.000000	99.840751  
2868.000000	99.849219  
2867.000000	99.858046  
2866.000000	99.867404  
2865.000000	99.878071  
2864.000000	99.890036  
2863.000000	99.901622  
2862.000000	99.910486  
2861.000000	99.915728  
2860.000000	99.918833  
2859.000000	99.922396  
2858.000000	99.928020  
2857.000000	99.935517  
2856.000000	99.943729  
2855.000000	99.951763  
2854.000000	99.959410  
2853.000000	99.966710  
2852.000000	99.973386  
2851.000000	99.978931  
2850.000000	99.983300  
2849.000000	99.987145  
2848.000000	99.991072  
2847.000000	99.994889  
2846.000000	99.997831  
2845.000000	99.999332  
2844.000000	99.999470  
2843.000000	99.999105  
2842.000000	99.999891  
2841.000000	100.003477 
2840.000000	100.009809 
2839.000000	100.016407 
2838.000000	100.020173 
2837.000000	100.020060 
2836.000000	100.017588 
2835.000000	100.015147 
2834.000000	100.014400 
2833.000000	100.016035 
2832.000000	100.019785 
2831.000000	100.024216 
2830.000000	100.027491 
2829.000000	100.029031 
2828.000000	100.029986 
2827.000000	100.031710 
2826.000000	100.034246 
2825.000000	100.036656 
2824.000000	100.038314 
2823.000000	100.039450 
2822.000000	100.040772 
2821.000000	100.042886 
2820.000000	100.045755 
2819.000000	100.048564 
2818.000000	100.050479 
2817.000000	100.051587 
2816.000000	100.052574 
2815.000000	100.053540 
2814.000000	100.053889 
2813.000000	100.053561 
2812.000000	100.053448 
2811.000000	100.054128 
2810.000000	100.054969 
2809.000000	100.055114 
2808.000000	100.054749 
2807.000000	100.054731 
2806.000000	100.055408 
2805.000000	100.056449 
2804.000000	100.057560 
2803.000000	100.058789 
2802.000000	100.060221 
2801.000000	100.061764 
2800.000000	100.063202 
2799.000000	100.064228 
2798.000000	100.064559 
2797.000000	100.064284 
2796.000000	100.063921 
2795.000000	100.063929 
2794.000000	100.064261 
2793.000000	100.064532 
2792.000000	100.064540 
2791.000000	100.064457 
2790.000000	100.064613 
2789.000000	100.065288 
2788.000000	100.066600 
2787.000000	100.068322 
2786.000000	100.069892 
2785.000000	100.070888 
2784.000000	100.071454 
2783.000000	100.072024 
2782.000000	100.072662 
2781.000000	100.072953 
2780.000000	100.072576 
2779.000000	100.071759 
2778.000000	100.071119 
2777.000000	100.071146 
2776.000000	100.071859 
2775.000000	100.072767 
2774.000000	100.073175 
2773.000000	100.072748 
2772.000000	100.071894 
2771.000000	100.071481 
2770.000000	100.072121 
2769.000000	100.073816 
2768.000000	100.076147 
2767.000000	100.078557 
2766.000000	100.080453 
2765.000000	100.081363 
2764.000000	100.081262 
2763.000000	100.080702 
2762.000000	100.080447 
2761.000000	100.080935 
2760.000000	100.082137 
2759.000000	100.083755 
2758.000000	100.085397 
2757.000000	100.086707 
2756.000000	100.087606 
2755.000000	100.088383 
2754.000000	100.089290 
2753.000000	100.089973 
2752.000000	100.089626 
2751.000000	100.087892 
2750.000000	100.085418 
2749.000000	100.083348 
2748.000000	100.082224 
2747.000000	100.081729 
2746.000000	100.081422 
2745.000000	100.081361 
2744.000000	100.081841 
2743.000000	100.082824 
2742.000000	100.083936 
2741.000000	100.084885 
2740.000000	100.085661 
2739.000000	100.086401 
2738.000000	100.087276 
2737.000000	100.088439 
2736.000000	100.089789 
2735.000000	100.090822 
2734.000000	100.090952 
2733.000000	100.090066 
2732.000000	100.088667 
2731.000000	100.087458 
2730.000000	100.086884 
2729.000000	100.087017 
2728.000000	100.087748 
2727.000000	100.088901 
2726.000000	100.090217 
2725.000000	100.091380 
2724.000000	100.092072 
2723.000000	100.092187 
2722.000000	100.091980 
2721.000000	100.091860 
2720.000000	100.091970 
2719.000000	100.092105 
2718.000000	100.092071 
2717.000000	100.091956 
2716.000000	100.091959 
2715.000000	100.092163 
2714.000000	100.092573 
2713.000000	100.093187 
2712.000000	100.093864 
2711.000000	100.094294 
2710.000000	100.094314 
2709.000000	100.094137 
2708.000000	100.094129 
2707.000000	100.094332 
2706.000000	100.094419 
2705.000000	100.094159 
2704.000000	100.093692 
2703.000000	100.093325 
2702.000000	100.093194 
2701.000000	100.093224 
2700.000000	100.093293 
2699.000000	100.093345 
2698.000000	100.093391 
2697.000000	100.093459 
2696.000000	100.093554 
2695.000000	100.093666 
2694.000000	100.093803 
2693.000000	100.094006 
2692.000000	100.094257 
2691.000000	100.094419 
2690.000000	100.094385 
2689.000000	100.094276 
2688.000000	100.094372 
2687.000000	100.094792 
2686.000000	100.095297 
2685.000000	100.095485 
2684.000000	100.095204 
2683.000000	100.094667 
2682.000000	100.094270 
2681.000000	100.094214 
2680.000000	100.094380 
2679.000000	100.094486 
2678.000000	100.094362 
2677.000000	100.094101 
2676.000000	100.093940 
2675.000000	100.093981 
2674.000000	100.094068 
2673.000000	100.093969 
2672.000000	100.093619 
2671.000000	100.093131 
2670.000000	100.092608 
2669.000000	100.092030 
2668.000000	100.091354 
2667.000000	100.090680 
2666.000000	100.090281 
2665.000000	100.090420 
2664.000000	100.091102 
2663.000000	100.092014 
2662.000000	100.092765 
2661.000000	100.093206 
2660.000000	100.093408 
2659.000000	100.093384 
2658.000000	100.093007 
2657.000000	100.092274 
2656.000000	100.091485 
2655.000000	100.090985 
2654.000000	100.090790 
2653.000000	100.090608 
2652.000000	100.090200 
2651.000000	100.089656 
2650.000000	100.089292 
2649.000000	100.089317 
2648.000000	100.089608 
2647.000000	100.089785 
2646.000000	100.089591 
2645.000000	100.089170 
2644.000000	100.088835 
2643.000000	100.088661 
2642.000000	100.088550 
2641.000000	100.088606 
2640.000000	100.089070 
2639.000000	100.089929 
2638.000000	100.090845 
2637.000000	100.091538 
2636.000000	100.091948 
2635.000000	100.091993 
2634.000000	100.091593 
2633.000000	100.091019 
2632.000000	100.090784 
2631.000000	100.091012 
2630.000000	100.091330 
2629.000000	100.091423 
2628.000000	100.091399 
2627.000000	100.091508 
2626.000000	100.091773 
2625.000000	100.092068 
2624.000000	100.092353 
2623.000000	100.092651 
2622.000000	100.092909 
2621.000000	100.093045 
2620.000000	100.093090 
2619.000000	100.093126 
2618.000000	100.093141 
2617.000000	100.093080 
2616.000000	100.092947 
2615.000000	100.092796 
2614.000000	100.092662 
2613.000000	100.092568 
2612.000000	100.092557 
2611.000000	100.092651 
2610.000000	100.092801 
2609.000000	100.092918 
2608.000000	100.092956 
2607.000000	100.092934 
2606.000000	100.092892 
2605.000000	100.092855 
2604.000000	100.092830 
2603.000000	100.092804 
2602.000000	100.092751 
2601.000000	100.092658 
2600.000000	100.092547 
2599.000000	100.092459 
2598.000000	100.092411 
2597.000000	100.092380 
2596.000000	100.092316 
2595.000000	100.092188 
2594.000000	100.092005 
2593.000000	100.091797 
2592.000000	100.091605 
2591.000000	100.091463 
2590.000000	100.091380 
2589.000000	100.091338 
2588.000000	100.091291 
2587.000000	100.091205 
2586.000000	100.091074 
2585.000000	100.090896 
2584.000000	100.090671 
2583.000000	100.090412 
2582.000000	100.090162 
2581.000000	100.089951 
2580.000000	100.089775 
2579.000000	100.089601 
2578.000000	100.089407 
2577.000000	100.089204 
2576.000000	100.089022 
2575.000000	100.088882 
2574.000000	100.088782 
2573.000000	100.088702 
2572.000000	100.088615 
2571.000000	100.088499 
2570.000000	100.088342 
2569.000000	100.088150 
2568.000000	100.087959 
2567.000000	100.087825 
2566.000000	100.087792 
2565.000000	100.087846 
2564.000000	100.087921 
2563.000000	100.087973 
2562.000000	100.088019 
2561.000000	100.088106 
2560.000000	100.088267 
2559.000000	100.088539 
2558.000000	100.088938 
2557.000000	100.089322 
2556.000000	100.089380 
2555.000000	100.088952 
2554.000000	100.088376 
2553.000000	100.088290 
2552.000000	100.088942 
2551.000000	100.089886 
2550.000000	100.090483 
2549.000000	100.090625 
2548.000000	100.090583 
2547.000000	100.090326 
2546.000000	100.089558 
2545.000000	100.088377 
2544.000000	100.087422 
2543.000000	100.087233 
2542.000000	100.087793 
2541.000000	100.088739 
2540.000000	100.089698 
2539.000000	100.090334 
2538.000000	100.090381 
2537.000000	100.089810 
2536.000000	100.088804 
2535.000000	100.087555 
2534.000000	100.086339 
2533.000000	100.085744 
2532.000000	100.086334 
2531.000000	100.087970 
2530.000000	100.089907 
2529.000000	100.091714 
2528.000000	100.093570 
2527.000000	100.095483 
2526.000000	100.096839 
2525.000000	100.097199 
2524.000000	100.097026 
2523.000000	100.097157 
2522.000000	100.097759 
2521.000000	100.098245 
2520.000000	100.097999 
2519.000000	100.096812 
2518.000000	100.094882 
2517.000000	100.092803 
2516.000000	100.091324 
2515.000000	100.090764 
2514.000000	100.090794 
2513.000000	100.090925 
2512.000000	100.090918 
2511.000000	100.090548 
2510.000000	100.089514 
2509.000000	100.088093 
2508.000000	100.087445 
2507.000000	100.088514 
2506.000000	100.090765 
2505.000000	100.092439 
2504.000000	100.092337 
2503.000000	100.090836 
2502.000000	100.089263 
2501.000000	100.088638 
2500.000000	100.089163 
2499.000000	100.090544 
2498.000000	100.092330 
2497.000000	100.094078 
2496.000000	100.095476 
2495.000000	100.096357 
2494.000000	100.096523 
2493.000000	100.095676 
2492.000000	100.093722 
2491.000000	100.091112 
2490.000000	100.088709 
2489.000000	100.087188 
2488.000000	100.086551 
2487.000000	100.086250 
2486.000000	100.085816 
2485.000000	100.085406 
2484.000000	100.085580 
2483.000000	100.086507 
2482.000000	100.087541 
2481.000000	100.087757 
2480.000000	100.086854 
2479.000000	100.085348 
2478.000000	100.083947 
2477.000000	100.082885 
2476.000000	100.082018 
2475.000000	100.081391 
2474.000000	100.081369 
2473.000000	100.082123 
2472.000000	100.083253 
2471.000000	100.084166 
2470.000000	100.084710 
2469.000000	100.085138 
2468.000000	100.085490 
2467.000000	100.085355 
2466.000000	100.084476 
2465.000000	100.083410 
2464.000000	100.083142 
2463.000000	100.083991 
2462.000000	100.085183 
2461.000000	100.085623 
2460.000000	100.084967 
2459.000000	100.083689 
2458.000000	100.082505 
2457.000000	100.081823 
2456.000000	100.081595 
2455.000000	100.081494 
2454.000000	100.081173 
2453.000000	100.080476 
2452.000000	100.079501 
2451.000000	100.078501 
2450.000000	100.077739 
2449.000000	100.077348 
2448.000000	100.077270 
2447.000000	100.077332 
2446.000000	100.077416 
2445.000000	100.077534 
2444.000000	100.077741 
2443.000000	100.078017 
2442.000000	100.078299 
2441.000000	100.078543 
2440.000000	100.078707 
2439.000000	100.078714 
2438.000000	100.078517 
2437.000000	100.078176 
2436.000000	100.077804 
2435.000000	100.077427 
2434.000000	100.077005 
2433.000000	100.076553 
2432.000000	100.076169 
2431.000000	100.075949 
2430.000000	100.075891 
2429.000000	100.075917 
2428.000000	100.075957 
2427.000000	100.076001 
2426.000000	100.076055 
2425.000000	100.076084 
2424.000000	100.076025 
2423.000000	100.075867 
2422.000000	100.075661 
2421.000000	100.075515 
2420.000000	100.075495 
2419.000000	100.075584 
2418.000000	100.075720 
2417.000000	100.075841 
2416.000000	100.075930 
2415.000000	100.075993 
2414.000000	100.076051 
2413.000000	100.076132 
2412.000000	100.076265 
2411.000000	100.076454 
2410.000000	100.076682 
2409.000000	100.076931 
2408.000000	100.077190 
2407.000000	100.077461 
2406.000000	100.077739 
2405.000000	100.078012 
2404.000000	100.078272 
2403.000000	100.078510 
2402.000000	100.078718 
2401.000000	100.078904 
2400.000000	100.079081 
2399.000000	100.079265 
2398.000000	100.079467 
2397.000000	100.079696 
2396.000000	100.079960 
2395.000000	100.080261 
2394.000000	100.080596 
2393.000000	100.080957 
2392.000000	100.081332 
2391.000000	100.081716 
2390.000000	100.082106 
2389.000000	100.082498 
2388.000000	100.082889 
2387.000000	100.083272 
2386.000000	100.083640 
2385.000000	100.083994 
2384.000000	100.084337 
2383.000000	100.084677 
2382.000000	100.085021 
2381.000000	100.085374 
2380.000000	100.085736 
2379.000000	100.086103 
2378.000000	100.086466 
2377.000000	100.086824 
2376.000000	100.087183 
2375.000000	100.087551 
2374.000000	100.087932 
2373.000000	100.088324 
2372.000000	100.088719 
2371.000000	100.089111 
2370.000000	100.089492 
2369.000000	100.089850 
2368.000000	100.090173 
2367.000000	100.090450 
2366.000000	100.090682 
2365.000000	100.090884 
2364.000000	100.091078 
2363.000000	100.091286 
2362.000000	100.091518 
2361.000000	100.091770 
2360.000000	100.092037 
2359.000000	100.092320 
2358.000000	100.092620 
2357.000000	100.092938 
2356.000000	100.093266 
2355.000000	100.093590 
2354.000000	100.093893 
2353.000000	100.094165 
2352.000000	100.094406 
2351.000000	100.094627 
2350.000000	100.094842 
2349.000000	100.095060 
2348.000000	100.095287 
2347.000000	100.095511 
2346.000000	100.095702 
2345.000000	100.095830 
2344.000000	100.095885 
2343.000000	100.095905 
2342.000000	100.095985 
2341.000000	100.096223 
2340.000000	100.096580 
2339.000000	100.096887 
2338.000000	100.097016 
2337.000000	100.097136 
2336.000000	100.097568 
2335.000000	100.098339 
2334.000000	100.098965 
2333.000000	100.099038 
2332.000000	100.098636 
2331.000000	100.098051 
2330.000000	100.097291 
2329.000000	100.096245 
2328.000000	100.095201 
2327.000000	100.094486 
2326.000000	100.094005 
2325.000000	100.093238 
2324.000000	100.091981 
2323.000000	100.090845 
2322.000000	100.090855 
2321.000000	100.092750 
2320.000000	100.096032 
2319.000000	100.099218 
2318.000000	100.101030 
2317.000000	100.101271 
2316.000000	100.100431 
2315.000000	100.098822 
2314.000000	100.096459 
2313.000000	100.093688 
2312.000000	100.091356 
2311.000000	100.090256 
2310.000000	100.090787 
2309.000000	100.092653 
2308.000000	100.094576 
2307.000000	100.094732 
2306.000000	100.092353 
2305.000000	100.088544 
2304.000000	100.085109 
2303.000000	100.082758 
2302.000000	100.081091 
2301.000000	100.079881 
2300.000000	100.079240 
2299.000000	100.078684 
2298.000000	100.077337 
2297.000000	100.075343 
2296.000000	100.074042 
2295.000000	100.074095 
2294.000000	100.074331 
2293.000000	100.073109 
2292.000000	100.070398 
2291.000000	100.067714 
2290.000000	100.066293 
2289.000000	100.065956 
2288.000000	100.065749 
2287.000000	100.065107 
2286.000000	100.064260 
2285.000000	100.063747 
2284.000000	100.063714 
2283.000000	100.063683 
2282.000000	100.062987 
2281.000000	100.061437 
2280.000000	100.059570 
2279.000000	100.058345 
2278.000000	100.058601 
2277.000000	100.060521 
2276.000000	100.063319 
2275.000000	100.065562 
2274.000000	100.066233 
2273.000000	100.065451 
2272.000000	100.064031 
2271.000000	100.062489 
2270.000000	100.060950 
2269.000000	100.060063 
2268.000000	100.060975 
2267.000000	100.063880 
2266.000000	100.067292 
2265.000000	100.069372 
2264.000000	100.069486 
2263.000000	100.068224 
2262.000000	100.066797 
2261.000000	100.066703 
2260.000000	100.068884 
2259.000000	100.072276 
2258.000000	100.074102 
2257.000000	100.072775 
2256.000000	100.069617 
2255.000000	100.067010 
2254.000000	100.065567 
2253.000000	100.064445 
2252.000000	100.063593 
2251.000000	100.063982 
2250.000000	100.065950 
2249.000000	100.068767 
2248.000000	100.071675 
2247.000000	100.074161 
2246.000000	100.075448 
2245.000000	100.074927 
2244.000000	100.073206 
2243.000000	100.071695 
2242.000000	100.071067 
2241.000000	100.070898 
2240.000000	100.070657 
2239.000000	100.070176 
2238.000000	100.069236 
2237.000000	100.067472 
2236.000000	100.064650 
2235.000000	100.060689 
2234.000000	100.055978 
2233.000000	100.052180 
2232.000000	100.051660 
2231.000000	100.055296 
2230.000000	100.061666 
2229.000000	100.068796 
2228.000000	100.075890 
2227.000000	100.082443 
2226.000000	100.086828 
2225.000000	100.087484 
2224.000000	100.084986 
2223.000000	100.081871 
2222.000000	100.080476 
2221.000000	100.081420 
2220.000000	100.083778 
2219.000000	100.085868 
2218.000000	100.086375 
2217.000000	100.085591 
2216.000000	100.085288 
2215.000000	100.086770 
2214.000000	100.089369 
2213.000000	100.091315 
2212.000000	100.091710 
2211.000000	100.091120 
2210.000000	100.090695 
2209.000000	100.091253 
2208.000000	100.092871 
2207.000000	100.094760 
2206.000000	100.095736 
2205.000000	100.095274 
2204.000000	100.093920 
2203.000000	100.092553 
2202.000000	100.091657 
2201.000000	100.091518 
2200.000000	100.092416 
2199.000000	100.094097 
2198.000000	100.095559 
2197.000000	100.096034 
2196.000000	100.095925 
2195.000000	100.096326 
2194.000000	100.097753 
2193.000000	100.099839 
2192.000000	100.101898 
2191.000000	100.103438 
2190.000000	100.104299 
2189.000000	100.104615 
2188.000000	100.104828 
2187.000000	100.105478 
2186.000000	100.106768 
2185.000000	100.108422 
2184.000000	100.110060 
2183.000000	100.111592 
2182.000000	100.112952 
2181.000000	100.113941 
2180.000000	100.114703 
2179.000000	100.115833 
2178.000000	100.117506 
2177.000000	100.118922 
2176.000000	100.119149 
2175.000000	100.118114 
2174.000000	100.116479 
2173.000000	100.114975 
2172.000000	100.114214 
2171.000000	100.114702 
2170.000000	100.116559 
2169.000000	100.119296 
2168.000000	100.122096 
2167.000000	100.124201 
2166.000000	100.125015 
2165.000000	100.124459 
2164.000000	100.123431 
2163.000000	100.123253 
2162.000000	100.124438 
2161.000000	100.126602 
2160.000000	100.129461 
2159.000000	100.132778 
2158.000000	100.135297 
2157.000000	100.135550 
2156.000000	100.134074 
2155.000000	100.133063 
2154.000000	100.133356 
2153.000000	100.133447 
2152.000000	100.132070 
2151.000000	100.130326 
2150.000000	100.130424 
2149.000000	100.133326 
2148.000000	100.138253 
2147.000000	100.143281 
2146.000000	100.145950 
2145.000000	100.144560 
2144.000000	100.139845 
2143.000000	100.134850 
2142.000000	100.131800 
2141.000000	100.130084 
2140.000000	100.128092 
2139.000000	100.125630 
2138.000000	100.123605 
2137.000000	100.122290 
2136.000000	100.121169 
2135.000000	100.120148 
2134.000000	100.119779 
2133.000000	100.120205 
2132.000000	100.120507 
2131.000000	100.119166 
2130.000000	100.115070 
2129.000000	100.108589 
2128.000000	100.101877 
2127.000000	100.097279 
2126.000000	100.095214 
2125.000000	100.094252 
2124.000000	100.093551 
2123.000000	100.094234 
2122.000000	100.097314 
2121.000000	100.101259 
2120.000000	100.103017 
2119.000000	100.101419 
2118.000000	100.098213 
2117.000000	100.095706 
2116.000000	100.094295 
2115.000000	100.092952 
2114.000000	100.091228 
2113.000000	100.089758 
2112.000000	100.088999 
2111.000000	100.088357 
2110.000000	100.086827 
2109.000000	100.084178 
2108.000000	100.081234 
2107.000000	100.078974 
2106.000000	100.077442 
2105.000000	100.075658 
2104.000000	100.072814 
2103.000000	100.069533 
2102.000000	100.067620 
2101.000000	100.068222 
2100.000000	100.070473 
2099.000000	100.072202 
2098.000000	100.072222 
2097.000000	100.071473 
2096.000000	100.071554 
2095.000000	100.072409 
2094.000000	100.072095 
2093.000000	100.069065 
2092.000000	100.064356 
2091.000000	100.061155 
2090.000000	100.061973 
2089.000000	100.066361 
2088.000000	100.071124 
2087.000000	100.073121 
2086.000000	100.072057 
2085.000000	100.070366 
2084.000000	100.070515 
2083.000000	100.072723 
2082.000000	100.075476 
2081.000000	100.077595 
2080.000000	100.079128 
2079.000000	100.080547 
2078.000000	100.082200 
2077.000000	100.084801 
2076.000000	100.089283 
2075.000000	100.095432 
2074.000000	100.101205 
2073.000000	100.104353 
2072.000000	100.104578 
2071.000000	100.103455 
2070.000000	100.102585 
2069.000000	100.102359 
2068.000000	100.102390 
2067.000000	100.102310 
2066.000000	100.102000 
2065.000000	100.101583 
2064.000000	100.101532 
2063.000000	100.102482 
2062.000000	100.104707 
2061.000000	100.108020 
2060.000000	100.111765 
2059.000000	100.114993 
2058.000000	100.116966 
2057.000000	100.117632 
2056.000000	100.117592 
2055.000000	100.117490 
2054.000000	100.117577 
2053.000000	100.117908 
2052.000000	100.118614 
2051.000000	100.119746 
2050.000000	100.121070 
2049.000000	100.122210 
2048.000000	100.122980 
2047.000000	100.123488 
2046.000000	100.123928 
2045.000000	100.124420 
2044.000000	100.124979 
2043.000000	100.125563 
2042.000000	100.126129 
2041.000000	100.126659 
2040.000000	100.127145 
2039.000000	100.127575 
2038.000000	100.127945 
2037.000000	100.128260 
2036.000000	100.128528 
2035.000000	100.128760 
2034.000000	100.128962 
2033.000000	100.129134 
2032.000000	100.129270 
2031.000000	100.129366 
2030.000000	100.129427 
2029.000000	100.129470 
2028.000000	100.129517 
2027.000000	100.129585 
2026.000000	100.129685 
2025.000000	100.129823 
2024.000000	100.129996 
2023.000000	100.130183 
2022.000000	100.130340 
2021.000000	100.130431 
2020.000000	100.130451 
2019.000000	100.130435 
2018.000000	100.130426 
2017.000000	100.130451 
2016.000000	100.130511 
2015.000000	100.130595 
2014.000000	100.130698 
2013.000000	100.130833 
2012.000000	100.131012 
2011.000000	100.131242 
2010.000000	100.131515 
2009.000000	100.131816 
2008.000000	100.132124 
2007.000000	100.132426 
2006.000000	100.132710 
2005.000000	100.132970 
2004.000000	100.133209 
2003.000000	100.133430 
2002.000000	100.133633 
2001.000000	100.133810 
2000.000000	100.133957 
1999.000000	100.134080 
1998.000000	100.134199 
1997.000000	100.134340 
1996.000000	100.134522 
1995.000000	100.134753 
1994.000000	100.135024 
1993.000000	100.135317 
1992.000000	100.135611 
1991.000000	100.135889 
1990.000000	100.136149 
1989.000000	100.136402 
1988.000000	100.136656 
1987.000000	100.136922 
1986.000000	100.137202 
1985.000000	100.137439 
1984.000000	100.137542 
1983.000000	100.137491 
1982.000000	100.137379 
1981.000000	100.137238 
1980.000000	100.136941 
1979.000000	100.136444 
1978.000000	100.136078 
1977.000000	100.136257 
1976.000000	100.136874 
1975.000000	100.137247 
1974.000000	100.136973 
1973.000000	100.136753 
1972.000000	100.137798 
1971.000000	100.140168 
1970.000000	100.142047 
1969.000000	100.141555 
1968.000000	100.138714 
1967.000000	100.135475 
1966.000000	100.133400 
1965.000000	100.132128 
1964.000000	100.130684 
1963.000000	100.129123 
1962.000000	100.128274 
1961.000000	100.128342 
1960.000000	100.128593 
1959.000000	100.128467 
1958.000000	100.128296 
1957.000000	100.128597 
1956.000000	100.129144 
1955.000000	100.129236 
1954.000000	100.128654 
1953.000000	100.127905 
1952.000000	100.127357 
1951.000000	100.126427 
1950.000000	100.124034 
1949.000000	100.119958 
1948.000000	100.115460 
1947.000000	100.112033 
1946.000000	100.109547 
1945.000000	100.106170 
1944.000000	100.100643 
1943.000000	100.094667 
1942.000000	100.091825 
1941.000000	100.093262 
1940.000000	100.095947 
1939.000000	100.096213 
1938.000000	100.094336 
1937.000000	100.094055 
1936.000000	100.097480 
1935.000000	100.102105 
1934.000000	100.103863 
1933.000000	100.102273 
1932.000000	100.100752 
1931.000000	100.102054 
1930.000000	100.105094 
1929.000000	100.106807 
1928.000000	100.105910 
1927.000000	100.103581 
1926.000000	100.101456 
1925.000000	100.100165 
1924.000000	100.099372 
1923.000000	100.098544 
1922.000000	100.097469 
1921.000000	100.096221 
1920.000000	100.094558 
1919.000000	100.091568 
1918.000000	100.086737 
1917.000000	100.081417 
1916.000000	100.077842 
1915.000000	100.076591 
1914.000000	100.076579 
1913.000000	100.077133 
1912.000000	100.078731 
1911.000000	100.081408 
1910.000000	100.083697 
1909.000000	100.084260 
1908.000000	100.083868 
1907.000000	100.084412 
1906.000000	100.086429 
1905.000000	100.088621 
1904.000000	100.089364 
1903.000000	100.088032 
1902.000000	100.085239 
1901.000000	100.082504 
1900.000000	100.081189 
1899.000000	100.081454 
1898.000000	100.082402 
1897.000000	100.083193 
1896.000000	100.083701 
1895.000000	100.083935 
1894.000000	100.083524 
1893.000000	100.082364 
1892.000000	100.081148 
1891.000000	100.080658 
1890.000000	100.080850 
1889.000000	100.081155 
1888.000000	100.081450 
1887.000000	100.081978 
1886.000000	100.082653 
1885.000000	100.083118 
1884.000000	100.083330 
1883.000000	100.083581 
1882.000000	100.084037 
1881.000000	100.084610 
1880.000000	100.085217 
1879.000000	100.085870 
1878.000000	100.086550 
1877.000000	100.087212 
1876.000000	100.087837 
1875.000000	100.088293 
1874.000000	100.088263 
1873.000000	100.087585 
1872.000000	100.086546 
1871.000000	100.085639 
1870.000000	100.085144 
1869.000000	100.085102 
1868.000000	100.085584 
1867.000000	100.086634 
1866.000000	100.087882 
1865.000000	100.088616 
1864.000000	100.088319 
1863.000000	100.086968 
1862.000000	100.085061 
1861.000000	100.083490 
1860.000000	100.083082 
1859.000000	100.084086 
1858.000000	100.085959 
1857.000000	100.087703 
1856.000000	100.088721 
1855.000000	100.089118 
1854.000000	100.089306 
1853.000000	100.089544 
1852.000000	100.089769 
1851.000000	100.089815 
1850.000000	100.089727 
1849.000000	100.089873 
1848.000000	100.090592 
1847.000000	100.091705 
1846.000000	100.092556 
1845.000000	100.092692 
1844.000000	100.092484 
1843.000000	100.092660 
1842.000000	100.093314 
1841.000000	100.093945 
1840.000000	100.094074 
1839.000000	100.093536 
1838.000000	100.092466 
1837.000000	100.091193 
1836.000000	100.090089 
1835.000000	100.089404 
1834.000000	100.089196 
1833.000000	100.089304 
1832.000000	100.089338 
1831.000000	100.088947 
1830.000000	100.088310 
1829.000000	100.088109 
1828.000000	100.088674 
1827.000000	100.089430 
1826.000000	100.089419 
1825.000000	100.088484 
1824.000000	100.087578 
1823.000000	100.087376 
1822.000000	100.087205 
1821.000000	100.086120 
1820.000000	100.084595 
1819.000000	100.084145 
1818.000000	100.085323 
1817.000000	100.087037 
1816.000000	100.088052 
1815.000000	100.088476 
1814.000000	100.089018 
1813.000000	100.089812 
1812.000000	100.090606 
1811.000000	100.091447 
1810.000000	100.092388 
1809.000000	100.092974 
1808.000000	100.092737 
1807.000000	100.091632 
1806.000000	100.089863 
1805.000000	100.087906 
1804.000000	100.086524 
1803.000000	100.086183 
1802.000000	100.086438 
1801.000000	100.086236 
1800.000000	100.085327 
1799.000000	100.084678 
1798.000000	100.085104 
1797.000000	100.086489 
1796.000000	100.088270 
1795.000000	100.089920 
1794.000000	100.090974 
1793.000000	100.091044 
1792.000000	100.090355 
1791.000000	100.089829 
1790.000000	100.089976 
1789.000000	100.090538 
1788.000000	100.091221 
1787.000000	100.091984 
1786.000000	100.092690 
1785.000000	100.092964 
1784.000000	100.092579 
1783.000000	100.091732 
1782.000000	100.090811 
1781.000000	100.090122 
1780.000000	100.089897 
1779.000000	100.090179 
1778.000000	100.090807 
1777.000000	100.091585 
1776.000000	100.092410 
1775.000000	100.093153 
1774.000000	100.093629 
1773.000000	100.093833 
1772.000000	100.094118 
1771.000000	100.094889 
1770.000000	100.096061 
1769.000000	100.097010 
1768.000000	100.097202 
1767.000000	100.096829 
1766.000000	100.096558 
1765.000000	100.096713 
1764.000000	100.097066 
1763.000000	100.097363 
1762.000000	100.097743 
1761.000000	100.098425 
1760.000000	100.099331 
1759.000000	100.100264 
1758.000000	100.101164 
1757.000000	100.102066 
1756.000000	100.102913 
1755.000000	100.103659 
1754.000000	100.104397 
1753.000000	100.105127 
1752.000000	100.105550 
1751.000000	100.105298 
1750.000000	100.104471 
1749.000000	100.103716 
1748.000000	100.103522 
1747.000000	100.103905 
1746.000000	100.104622 
1745.000000	100.105345 
1744.000000	100.105816 
1743.000000	100.106013 
1742.000000	100.106123 
1741.000000	100.106278 
1740.000000	100.106452 
1739.000000	100.106686 
1738.000000	100.107177 
1737.000000	100.107951 
1736.000000	100.108734 
1735.000000	100.109152 
1734.000000	100.109063 
1733.000000	100.108707 
1732.000000	100.108424 
1731.000000	100.108218 
1730.000000	100.107974 
1729.000000	100.107779 
1728.000000	100.107710 
1727.000000	100.107730 
1726.000000	100.107751 
1725.000000	100.107735 
1724.000000	100.107658 
1723.000000	100.107482 
1722.000000	100.107219 
1721.000000	100.106963 
1720.000000	100.106797 
1719.000000	100.106745 
1718.000000	100.106759 
1717.000000	100.106685 
1716.000000	100.106474 
1715.000000	100.106205 
1714.000000	100.105900 
1713.000000	100.105557 
1712.000000	100.105213 
1711.000000	100.104890 
1710.000000	100.104586 
1709.000000	100.104300 
1708.000000	100.104036 
1707.000000	100.103790 
1706.000000	100.103534 
1705.000000	100.103249 
1704.000000	100.102970 
1703.000000	100.102729 
1702.000000	100.102512 
1701.000000	100.102286 
1700.000000	100.102043 
1699.000000	100.101813 
1698.000000	100.101600 
1697.000000	100.101375 
1696.000000	100.101119 
1695.000000	100.100841 
1694.000000	100.100566 
1693.000000	100.100305 
1692.000000	100.100060 
1691.000000	100.099829 
1690.000000	100.099611 
1689.000000	100.099408 
1688.000000	100.099230 
1687.000000	100.099088 
1686.000000	100.098983 
1685.000000	100.098893 
1684.000000	100.098768 
1683.000000	100.098574 
1682.000000	100.098355 
1681.000000	100.098164 
1680.000000	100.097972 
1679.000000	100.097771 
1678.000000	100.097550 
1677.000000	100.097298 
1676.000000	100.097004 
1675.000000	100.096723 
1674.000000	100.096552 
1673.000000	100.096510 
1672.000000	100.096523 
1671.000000	100.096509 
1670.000000	100.096429 
1669.000000	100.096294 
1668.000000	100.096146 
1667.000000	100.096014 
1666.000000	100.095901 
1665.000000	100.095788 
1664.000000	100.095665 
1663.000000	100.095571 
1662.000000	100.095542 
1661.000000	100.095591 
1660.000000	100.095692 
1659.000000	100.095736 
1658.000000	100.095553 
1657.000000	100.095268 
1656.000000	100.095038 
1655.000000	100.094790 
1654.000000	100.094469 
1653.000000	100.094329 
1652.000000	100.094275 
1651.000000	100.094443 
1650.000000	100.094950 
1649.000000	100.094897 
1648.000000	100.094265 
1647.000000	100.093389 
1646.000000	100.092817 
1645.000000	100.092603 
1644.000000	100.093030 
1643.000000	100.093898 
1642.000000	100.094556 
1641.000000	100.094235 
1640.000000	100.093067 
1639.000000	100.091999 
1638.000000	100.091719 
1637.000000	100.092359 
1636.000000	100.093836 
1635.000000	100.095287 
1634.000000	100.095902 
1633.000000	100.095815 
1632.000000	100.094834 
1631.000000	100.092626 
1630.000000	100.089451 
1629.000000	100.086643 
1628.000000	100.085582 
1627.000000	100.086130 
1626.000000	100.086870 
1625.000000	100.086777 
1624.000000	100.086153 
1623.000000	100.085865 
1622.000000	100.086386 
1621.000000	100.087961 
1620.000000	100.090392 
1619.000000	100.092693 
1618.000000	100.093739 
1617.000000	100.093784 
1616.000000	100.094397 
1615.000000	100.095972 
1614.000000	100.097747 
1613.000000	100.099236 
1612.000000	100.100422 
1611.000000	100.101183 
1610.000000	100.101159 
1609.000000	100.100551 
1608.000000	100.100182 
1607.000000	100.100418 
1606.000000	100.101036 
1605.000000	100.101815 
1604.000000	100.102643 
1603.000000	100.103310 
1602.000000	100.103860 
1601.000000	100.104830 
1600.000000	100.106463 
1599.000000	100.108193 
1598.000000	100.109481 
1597.000000	100.110521 
1596.000000	100.111584 
1595.000000	100.112208 
1594.000000	100.111866 
1593.000000	100.111232 
1592.000000	100.111586 
1591.000000	100.113088 
1590.000000	100.114735 
1589.000000	100.115913 
1588.000000	100.116985 
1587.000000	100.118197 
1586.000000	100.119199 
1585.000000	100.119786 
1584.000000	100.120191 
1583.000000	100.120511 
1582.000000	100.120583 
1581.000000	100.120508 
1580.000000	100.120473 
1579.000000	100.120378 
1578.000000	100.120011 
1577.000000	100.119567 
1576.000000	100.119498 
1575.000000	100.119773 
1574.000000	100.120275 
1573.000000	100.121026 
1572.000000	100.121851 
1571.000000	100.122576 
1570.000000	100.123189 
1569.000000	100.123784 
1568.000000	100.124301 
1567.000000	100.124614 
1566.000000	100.124709 
1565.000000	100.124728 
1564.000000	100.124776 
1563.000000	100.124892 
1562.000000	100.125058 
1561.000000	100.125260 
1560.000000	100.125550 
1559.000000	100.125882 
1558.000000	100.126103 
1557.000000	100.126403 
1556.000000	100.126834 
1555.000000	100.127186 
1554.000000	100.127428 
1553.000000	100.127585 
1552.000000	100.127709 
1551.000000	100.127801 
1550.000000	100.127872 
1549.000000	100.127936 
1548.000000	100.127989 
1547.000000	100.128014 
1546.000000	100.128011 
1545.000000	100.127992 
1544.000000	100.127972 
1543.000000	100.127959 
1542.000000	100.127956 
1541.000000	100.127949 
1540.000000	100.127922 
1539.000000	100.127861 
1538.000000	100.127761 
1537.000000	100.127627 
1536.000000	100.127466 
1535.000000	100.127278 
1534.000000	100.127062 
1533.000000	100.126817 
1532.000000	100.126549 
1531.000000	100.126262 
1530.000000	100.125954 
1529.000000	100.125623 
1528.000000	100.125271 
1527.000000	100.124906 
1526.000000	100.124530 
1525.000000	100.124142 
1524.000000	100.123745 
1523.000000	100.123343 
1522.000000	100.122930 
1521.000000	100.122476 
1520.000000	100.121963 
1519.000000	100.121401 
1518.000000	100.120804 
1517.000000	100.120182 
1516.000000	100.119555 
1515.000000	100.118943 
1514.000000	100.118347 
1513.000000	100.117746 
1512.000000	100.117121 
1511.000000	100.116482 
1510.000000	100.115847 
1509.000000	100.115218 
1508.000000	100.114611 
1507.000000	100.114097 
1506.000000	100.113605 
1505.000000	100.112985 
1504.000000	100.112313 
1503.000000	100.111716 
1502.000000	100.111222 
1501.000000	100.110717 
1500.000000	100.110049 
1499.000000	100.109224 
1498.000000	100.108371 
1497.000000	100.107439 
1496.000000	100.106341 
1495.000000	100.105264 
1494.000000	100.104436 
1493.000000	100.103865 
1492.000000	100.103378 
1491.000000	100.102773 
1490.000000	100.101965 
1489.000000	100.100957 
1488.000000	100.099885 
1487.000000	100.098930 
1486.000000	100.098043 
1485.000000	100.097086 
1484.000000	100.096068 
1483.000000	100.095123 
1482.000000	100.094355 
1481.000000	100.093723 
1480.000000	100.093099 
1479.000000	100.092389 
1478.000000	100.091505 
1477.000000	100.090420 
1476.000000	100.089462 
1475.000000	100.089209 
1474.000000	100.089731 
1473.000000	100.090058 
1472.000000	100.089275 
1471.000000	100.088039 
1470.000000	100.087403 
1469.000000	100.087082 
1468.000000	100.086247 
1467.000000	100.084851 
1466.000000	100.083694 
1465.000000	100.083324 
1464.000000	100.083535 
1463.000000	100.084063 
1462.000000	100.084628 
1461.000000	100.084632 
1460.000000	100.083722 
1459.000000	100.082084 
1458.000000	100.080037 
1457.000000	100.076223 
1456.000000	100.069290 
1455.000000	100.062518 
1454.000000	100.059353 
1453.000000	100.058989 
1452.000000	100.059773 
1451.000000	100.060570 
1450.000000	100.060856 
1449.000000	100.059481 
1448.000000	100.056161 
1447.000000	100.053162 
1446.000000	100.052979 
1445.000000	100.055016 
1444.000000	100.057286 
1443.000000	100.058909 
1442.000000	100.059980 
1441.000000	100.060455 
1440.000000	100.060269 
1439.000000	100.059981 
1438.000000	100.060376 
1437.000000	100.060637 
1436.000000	100.058483 
1435.000000	100.054669 
1434.000000	100.051689 
1433.000000	100.049120 
1432.000000	100.045745 
1431.000000	100.042077 
1430.000000	100.039363 
1429.000000	100.037235 
1428.000000	100.034385 
1427.000000	100.031081 
1426.000000	100.028466 
1425.000000	100.026550 
1424.000000	100.023998 
1423.000000	100.020137 
1422.000000	100.015638 
1421.000000	100.010364 
1420.000000	100.003136 
1419.000000	99.995023  
1418.000000	99.989080  
1417.000000	99.984770  
1416.000000	99.978617  
1415.000000	99.969462  
1414.000000	99.959481  
1413.000000	99.951022  
1412.000000	99.944241  
1411.000000	99.937972  
1410.000000	99.931683  
1409.000000	99.925520  
1408.000000	99.920210  
1407.000000	99.917368  
1406.000000	99.918316  
1405.000000	99.922186  
1404.000000	99.926419  
1403.000000	99.930117  
1402.000000	99.934752  
1401.000000	99.941224  
1400.000000	99.948401  
1399.000000	99.953841  
1398.000000	99.955104  
1397.000000	99.950191  
1396.000000	99.938616  
1395.000000	99.925087  
1394.000000	99.919111  
1393.000000	99.925589  
1392.000000	99.940144  
1391.000000	99.954842  
1390.000000	99.964895  
1389.000000	99.969670  
1388.000000	99.970275  
1387.000000	99.968005  
1386.000000	99.964732  
1385.000000	99.962540  
1384.000000	99.962159  
1383.000000	99.962809  
1382.000000	99.963660  
1381.000000	99.964931  
1380.000000	99.967519  
1379.000000	99.971786  
1378.000000	99.977175  
1377.000000	99.982906  
1376.000000	99.988543  
1375.000000	99.994034  
1374.000000	99.999801  
1373.000000	100.006586 
1372.000000	100.014548 
1371.000000	100.022619 
1370.000000	100.029190 
1369.000000	100.033629 
1368.000000	100.036678 
1367.000000	100.039649 
1366.000000	100.043558 
1365.000000	100.048773 
1364.000000	100.055048 
1363.000000	100.061428 
1362.000000	100.066444 
1361.000000	100.069399 
1360.000000	100.071171 
1359.000000	100.073393 
1358.000000	100.077401 
1357.000000	100.083566 
1356.000000	100.090885 
1355.000000	100.097605 
1354.000000	100.102787 
1353.000000	100.106890 
1352.000000	100.110517 
1351.000000	100.112934 
1350.000000	100.113251 
1349.000000	100.112863 
1348.000000	100.113838 
1347.000000	100.116119 
1346.000000	100.117975 
1345.000000	100.118802 
1344.000000	100.119715 
1343.000000	100.121412 
1342.000000	100.123239 
1341.000000	100.124719 
1340.000000	100.126220 
1339.000000	100.127515 
1338.000000	100.127714 
1337.000000	100.127288 
1336.000000	100.128100 
1335.000000	100.130806 
1334.000000	100.133664 
1333.000000	100.134717 
1332.000000	100.134131 
1331.000000	100.133386 
1330.000000	100.133114 
1329.000000	100.132993 
1328.000000	100.133066 
1327.000000	100.133637 
1326.000000	100.134293 
1325.000000	100.134359 
1324.000000	100.133898 
1323.000000	100.133626 
1322.000000	100.133977 
1321.000000	100.134885 
1320.000000	100.136412 
1319.000000	100.138804 
1318.000000	100.141590 
1317.000000	100.143266 
1316.000000	100.142494 
1315.000000	100.139512 
1314.000000	100.136091 
1313.000000	100.133972 
1312.000000	100.133501 
1311.000000	100.133889 
1310.000000	100.134451 
1309.000000	100.135177 
1308.000000	100.136213 
1307.000000	100.137105 
1306.000000	100.136943 
1305.000000	100.135484 
1304.000000	100.133717 
1303.000000	100.133187 
1302.000000	100.134563 
1301.000000	100.136868 
1300.000000	100.138355 
1299.000000	100.138372 
1298.000000	100.138134 
1297.000000	100.139294 
1296.000000	100.141814 
1295.000000	100.143753 
1294.000000	100.143373 
1293.000000	100.140854 
1292.000000	100.137711 
1291.000000	100.135139 
1290.000000	100.133477 
1289.000000	100.132898 
1288.000000	100.133608 
1287.000000	100.135100 
1286.000000	100.136018 
1285.000000	100.135276 
1284.000000	100.132944 
1283.000000	100.129837 
1282.000000	100.126487 
1281.000000	100.122957 
1280.000000	100.119595 
1279.000000	100.117108 
1278.000000	100.115767 
1277.000000	100.115101 
1276.000000	100.114518 
1275.000000	100.113717 
1274.000000	100.112293 
1273.000000	100.109533 
1272.000000	100.105223 
1271.000000	100.100444 
1270.000000	100.096874 
1269.000000	100.095002 
1268.000000	100.093451 
1267.000000	100.090387 
1266.000000	100.085394 
1265.000000	100.079639 
1264.000000	100.074407 
1263.000000	100.069856 
1262.000000	100.065211 
1261.000000	100.059935 
1260.000000	100.054508 
1259.000000	100.049965 
1258.000000	100.046789 
1257.000000	100.044518 
1256.000000	100.042591 
1255.000000	100.041305 
1254.000000	100.041407 
1253.000000	100.042782 
1252.000000	100.044208 
1251.000000	100.044733 
1250.000000	100.044785 
1249.000000	100.045456 
1248.000000	100.047022 
1247.000000	100.048627 
1246.000000	100.049021 
1245.000000	100.047025 
1244.000000	100.041941 
1243.000000	100.034797 
1242.000000	100.029024 
1241.000000	100.028216 
1240.000000	100.032608 
1239.000000	100.038384 
1238.000000	100.041176 
1237.000000	100.039797 
1236.000000	100.035911 
1235.000000	100.031332 
1234.000000	100.026784 
1233.000000	100.022514 
1232.000000	100.018416 
1231.000000	100.013594 
1230.000000	100.007327 
1229.000000	100.000889 
1228.000000	99.997182  
1227.000000	99.997822  
1226.000000	100.001226 
1225.000000	100.004098 
1224.000000	100.004362 
1223.000000	100.002195 
1222.000000	99.998965  
1221.000000	99.996014  
1220.000000	99.994211  
1219.000000	99.993845  
1218.000000	99.994550  
1217.000000	99.995364  
1216.000000	99.994903  
1215.000000	99.991762  
1214.000000	99.985263  
1213.000000	99.975974  
1212.000000	99.965442  
1211.000000	99.955468  
1210.000000	99.947487  
1209.000000	99.942021  
1208.000000	99.938019  
1207.000000	99.933155  
1206.000000	99.925830  
1205.000000	99.917028  
1204.000000	99.909281  
1203.000000	99.903604  
1202.000000	99.898434  
1201.000000	99.891950  
1200.000000	99.884356  
1199.000000	99.877180  
1198.000000	99.871149  
1197.000000	99.865428  
1196.000000	99.858360  
1195.000000	99.848526  
1194.000000	99.835937  
1193.000000	99.822662  
1192.000000	99.811424  
1191.000000	99.802844  
1190.000000	99.794696  
1189.000000	99.784582  
1188.000000	99.772585  
1187.000000	99.760639  
1186.000000	99.750207  
1185.000000	99.741557  
1184.000000	99.734371  
1183.000000	99.727610  
1182.000000	99.719313  
1181.000000	99.708085  
1180.000000	99.694614  
1179.000000	99.680648  
1178.000000	99.667037  
1177.000000	99.654000  
1176.000000	99.642456  
1175.000000	99.632890  
1174.000000	99.623052  
1173.000000	99.609214  
1172.000000	99.590506  
1171.000000	99.570315  
1170.000000	99.552475  
1169.000000	99.537489  
1168.000000	99.523337  
1167.000000	99.508687  
1166.000000	99.494410  
1165.000000	99.482856  
1164.000000	99.476525  
1163.000000	99.476604  
1162.000000	99.481806  
1161.000000	99.489156  
1160.000000	99.496465  
1159.000000	99.503261  
1158.000000	99.508889  
1157.000000	99.510861  
1156.000000	99.506259  
1155.000000	99.494666  
1154.000000	99.479227  
1153.000000	99.464575  
1152.000000	99.453386  
1151.000000	99.444529  
1150.000000	99.434638  
1149.000000	99.421817  
1148.000000	99.407511  
1147.000000	99.394261  
1146.000000	99.382225  
1145.000000	99.369216  
1144.000000	99.353815  
1143.000000	99.336964  
1142.000000	99.320538  
1141.000000	99.305838  
1140.000000	99.293704  
1139.000000	99.284391  
1138.000000	99.276484  
1137.000000	99.267209  
1136.000000	99.254721  
1135.000000	99.239299  
1134.000000	99.221878  
1133.000000	99.202528  
1132.000000	99.181288  
1131.000000	99.159733  
1130.000000	99.140623  
1129.000000	99.125811  
1128.000000	99.114465  
1127.000000	99.102932  
1126.000000	99.086892  
1125.000000	99.064976  
1124.000000	99.040496  
1123.000000	99.018544  
1122.000000	99.000899  
1121.000000	98.984820  
1120.000000	98.966931  
1119.000000	98.946743  
1118.000000	98.925875  
1117.000000	98.905487  
1116.000000	98.885600  
1115.000000	98.865960  
1114.000000	98.846446  
1113.000000	98.827021  
1112.000000	98.807737  
1111.000000	98.788130  
1110.000000	98.766411  
1109.000000	98.740641  
1108.000000	98.711691  
1107.000000	98.683734  
1106.000000	98.660494  
1105.000000	98.641774  
1104.000000	98.624141  
1103.000000	98.604504  
1102.000000	98.582726  
1101.000000	98.560910  
1100.000000	98.541028  
1099.000000	98.523474  
1098.000000	98.507058  
1097.000000	98.490449  
1096.000000	98.473085  
1095.000000	98.454803  
1094.000000	98.435092  
1093.000000	98.413185  
1092.000000	98.388674  
1091.000000	98.361734  
1090.000000	98.333067  
1089.000000	98.304055  
1088.000000	98.276514  
1087.000000	98.251567  
1086.000000	98.228776  
1085.000000	98.206861  
1084.000000	98.185076  
1083.000000	98.163401  
1082.000000	98.141854  
1081.000000	98.120399  
1080.000000	98.099103  
1079.000000	98.077573  
1078.000000	98.054977  
1077.000000	98.031903  
1076.000000	98.011402  
1075.000000	97.996461  
1074.000000	97.986811  
1073.000000	97.979628  
1072.000000	97.972311  
1071.000000	97.962116  
1070.000000	97.944211  
1069.000000	97.914468  
1068.000000	97.875882  
1067.000000	97.839589  
1066.000000	97.816264  
1065.000000	97.807579  
1064.000000	97.806848  
1063.000000	97.805465  
1062.000000	97.797377  
1061.000000	97.779470  
1060.000000	97.751815  
1059.000000	97.718929  
1058.000000	97.688554  
1057.000000	97.666993  
1056.000000	97.655290  
1055.000000	97.649499  
1054.000000	97.644071  
1053.000000	97.635480  
1052.000000	97.623564  
1051.000000	97.610202  
1050.000000	97.597059  
1049.000000	97.584296  
1048.000000	97.570744  
1047.000000	97.555226  
1046.000000	97.538390  
1045.000000	97.523131  
1044.000000	97.511962  
1043.000000	97.503800  
1042.000000	97.494868  
1041.000000	97.483420  
1040.000000	97.471949  
1039.000000	97.464062  
1038.000000	97.461355  
1037.000000	97.464170  
1036.000000	97.472496  
1035.000000	97.484152  
1034.000000	97.494711  
1033.000000	97.501539  
1032.000000	97.505416  
1031.000000	97.506192  
1030.000000	97.500831  
1029.000000	97.489756  
1028.000000	97.481755  
1027.000000	97.486617  
1026.000000	97.503701  
1025.000000	97.522410  
1024.000000	97.533720  
1023.000000	97.536943  
1022.000000	97.535957  
1021.000000	97.534274  
1020.000000	97.534477  
1019.000000	97.537776  
1018.000000	97.542336  
1017.000000	97.545285  
1016.000000	97.547272  
1015.000000	97.551923  
1014.000000	97.560302  
1013.000000	97.569166  
1012.000000	97.575361  
1011.000000	97.578837  
1010.000000	97.580847  
1009.000000	97.582440  
1008.000000	97.585451  
1007.000000	97.591881  
1006.000000	97.601261  
1005.000000	97.611091  
1004.000000	97.620473  
1003.000000	97.630865  
1002.000000	97.642987  
1001.000000	97.655561  
1000.000000	97.667344  
999.000000	 97.677844  
998.000000	 97.686049  
997.000000	 97.691446  
996.000000	 97.696551  
995.000000	 97.705324  
994.000000	 97.718403  
993.000000	 97.732514  
992.000000	 97.744892  
991.000000	 97.755491  
990.000000	 97.764574  
989.000000	 97.771501  
988.000000	 97.777020  
987.000000	 97.784075  
986.000000	 97.795165  
985.000000	 97.810786  
984.000000	 97.830401  
983.000000	 97.852402  
982.000000	 97.873474  
981.000000	 97.890778  
980.000000	 97.905233  
979.000000	 97.920614  
978.000000	 97.939424  
977.000000	 97.961733  
976.000000	 97.987169  
975.000000	 98.015022  
974.000000	 98.042861  
973.000000	 98.068445  
972.000000	 98.093101  
971.000000	 98.120114  
970.000000	 98.149888  
969.000000	 98.179708  
968.000000	 98.208040  
967.000000	 98.235653  
966.000000	 98.262552  
965.000000	 98.287391  
964.000000	 98.310401  
963.000000	 98.333761  
962.000000	 98.358561  
961.000000	 98.384146  
960.000000	 98.410453  
959.000000	 98.437770  
958.000000	 98.464025  
957.000000	 98.485966  
956.000000	 98.503856  
955.000000	 98.521977  
954.000000	 98.543518  
953.000000	 98.567475  
952.000000	 98.591194  
951.000000	 98.613050  
950.000000	 98.631824  
949.000000	 98.646444  
948.000000	 98.657679  
947.000000	 98.667952  
946.000000	 98.678484  
945.000000	 98.688461  
944.000000	 98.697602  
943.000000	 98.707447  
942.000000	 98.719471  
941.000000	 98.733638  
940.000000	 98.748965  
939.000000	 98.763551  
938.000000	 98.774412  
937.000000	 98.780061  
936.000000	 98.783660  
935.000000	 98.791030  
934.000000	 98.804688  
933.000000	 98.821970  
932.000000	 98.839366  
931.000000	 98.856042  
930.000000	 98.872282  
929.000000	 98.886859  
928.000000	 98.897485  
927.000000	 98.902883  
926.000000	 98.904151  
925.000000	 98.905136  
924.000000	 98.910923  
923.000000	 98.923835  
922.000000	 98.940728  
921.000000	 98.955821  
920.000000	 98.965984  
919.000000	 98.971653  
918.000000	 98.973886  
917.000000	 98.973547  
916.000000	 98.972968  
915.000000	 98.975102  
914.000000	 98.980360  
913.000000	 98.986742  
912.000000	 98.993423  
911.000000	 99.001760  
910.000000	 99.012617  
909.000000	 99.025446  
908.000000	 99.040306  
907.000000	 99.058035  
906.000000	 99.077765  
905.000000	 99.096873  
904.000000	 99.113951  
903.000000	 99.129818  
902.000000	 99.145826  
901.000000	 99.163275  
900.000000	 99.183908  
899.000000	 99.208021  
898.000000	 99.232109  
897.000000	 99.251455  
896.000000	 99.265202  
895.000000	 99.276492  
894.000000	 99.288174  
893.000000	 99.301366  
892.000000	 99.317672  
891.000000	 99.338846  
890.000000	 99.363687  
889.000000	 99.388729  
888.000000	 99.412672  
887.000000	 99.436906  
886.000000	 99.461229  
885.000000	 99.482797  
884.000000	 99.500231  
883.000000	 99.515016  
882.000000	 99.527685  
881.000000	 99.536864  
880.000000	 99.544281  
879.000000	 99.556320  
878.000000	 99.576856  
877.000000	 99.601506  
876.000000	 99.622507  
875.000000	 99.637191  
874.000000	 99.648637  
873.000000	 99.660298  
872.000000	 99.673242  
871.000000	 99.687169  
870.000000	 99.701331  
869.000000	 99.715653  
868.000000	 99.732697  
867.000000	 99.756230  
866.000000	 99.785474  
865.000000	 99.813268  
864.000000	 99.833393  
863.000000	 99.848000  
862.000000	 99.864396  
861.000000	 99.885334  
860.000000	 99.906423  
859.000000	 99.923109  
858.000000	 99.935891  
857.000000	 99.947383  
856.000000	 99.958072  
855.000000	 99.967879  
854.000000	 99.979292  
853.000000	 99.994990  
852.000000	 100.012956 
851.000000	 100.027719 
850.000000	 100.037349 
849.000000	 100.046035 
848.000000	 100.057947 
847.000000	 100.071277 
846.000000	 100.081347 
845.000000	 100.087611 
844.000000	 100.093621 
843.000000	 100.100939 
842.000000	 100.107600 
841.000000	 100.112818 
840.000000	 100.118148 
839.000000	 100.122437 
838.000000	 100.120831 
837.000000	 100.112007 
836.000000	 100.102063 
835.000000	 100.097090 
834.000000	 100.095448 
833.000000	 100.092473 
832.000000	 100.089545 
831.000000	 100.091592 
830.000000	 100.096813 
829.000000	 100.096795 
828.000000	 100.088683 
827.000000	 100.080688 
826.000000	 100.081741 
825.000000	 100.090247 
824.000000	 100.097384 
823.000000	 100.098191 
822.000000	 100.095562 
821.000000	 100.095456 
820.000000	 100.101074 
819.000000	 100.110513 
818.000000	 100.118528 
817.000000	 100.121243 
816.000000	 100.118838 
815.000000	 100.112632 
814.000000	 100.101257 
813.000000	 100.082431 
812.000000	 100.057184 
811.000000	 100.028402 
810.000000	 99.995182  
809.000000	 99.952425  
808.000000	 99.896871  
807.000000	 99.830730  
806.000000	 99.759027  
805.000000	 99.686532  
804.000000	 99.617948  
803.000000	 99.557476  
802.000000	 99.506351  
801.000000	 99.463163  
800.000000	 99.427441  
799.000000	 99.400461  
798.000000	 99.382520  
797.000000	 99.372484  
796.000000	 99.370023  
795.000000	 99.375107  
794.000000	 99.385301  
793.000000	 99.396629  
792.000000	 99.407036  
791.000000	 99.416403  
790.000000	 99.424325  
789.000000	 99.430890  
788.000000	 99.437474  
787.000000	 99.442413  
786.000000	 99.437808  
785.000000	 99.416155  
784.000000	 99.379783  
783.000000	 99.339329  
782.000000	 99.303613  
781.000000	 99.275484  
780.000000	 99.255815  
779.000000	 99.244862  
778.000000	 99.239886  
777.000000	 99.238227  
776.000000	 99.243588  
775.000000	 99.262933  
774.000000	 99.295988  
773.000000	 99.333533  
772.000000	 99.367407  
771.000000	 99.396749  
770.000000	 99.423236  
769.000000	 99.446350  
768.000000	 99.465515  
767.000000	 99.481920  
766.000000	 99.496240  
765.000000	 99.508712  
764.000000	 99.522433  
763.000000	 99.541353  
762.000000	 99.563206  
761.000000	 99.579495  
760.000000	 99.585158  
759.000000	 99.584610  
758.000000	 99.586361  
757.000000	 99.594542  
756.000000	 99.606680  
755.000000	 99.616391  
754.000000	 99.617796  
753.000000	 99.611331  
752.000000	 99.606101  
751.000000	 99.612731  
750.000000	 99.632814  
749.000000	 99.658186  
748.000000	 99.680514  
747.000000	 99.698024  
746.000000	 99.712966  
745.000000	 99.727375  
744.000000	 99.742642  
743.000000	 99.759366  
742.000000	 99.776331  
741.000000	 99.792509  
740.000000	 99.809877  
739.000000	 99.830664  
738.000000	 99.852330  
737.000000	 99.869327  
736.000000	 99.879362  
735.000000	 99.884011  
734.000000	 99.884430  
733.000000	 99.881679  
732.000000	 99.881196  
731.000000	 99.890538  
730.000000	 99.910372  
729.000000	 99.932641  
728.000000	 99.949775  
727.000000	 99.961176  
726.000000	 99.968864  
725.000000	 99.972226  
724.000000	 99.970636  
723.000000	 99.966898  
722.000000	 99.964779  
721.000000	 99.966551  
720.000000	 99.974782  
719.000000	 99.991677  
718.000000	 100.014002 
717.000000	 100.033372 
716.000000	 100.044352 
715.000000	 100.048249 
714.000000	 100.048210 
713.000000	 100.046004 
712.000000	 100.045726 
711.000000	 100.053931 
710.000000	 100.070667 
709.000000	 100.085336 
708.000000	 100.087115 
707.000000	 100.076002 
706.000000	 100.060113 
705.000000	 100.045502 
704.000000	 100.033170 
703.000000	 100.023512 
702.000000	 100.017672 
701.000000	 100.014480 
700.000000	 100.009742 
699.000000	 99.998663  
698.000000	 99.979125  
697.000000	 99.954421  
696.000000	 99.932845  
695.000000	 99.921552  
694.000000	 99.919877  
693.000000	 99.922184  
692.000000	 99.927267  
691.000000	 99.939505  
690.000000	 99.960416  
689.000000	 99.984802  
688.000000	 100.006996 
687.000000	 100.025351 
686.000000	 100.037798 
685.000000	 100.040253 
684.000000	 100.033577 
683.000000	 100.026310 
682.000000	 100.026738 
681.000000	 100.035742 
680.000000	 100.048799 
679.000000	 100.060162 
678.000000	 100.064526 
677.000000	 100.060841 
676.000000	 100.056087 
675.000000	 100.059286 
674.000000	 100.070462 
673.000000	 100.080140 
672.000000	 100.080987 
671.000000	 100.075401 
670.000000	 100.070671 
669.000000	 100.073379 
668.000000	 100.085640 
667.000000	 100.099365 
666.000000	 100.106887 
665.000000	 100.110405 
664.000000	 100.113781 
663.000000	 100.121686 
662.000000	 100.134571 
661.000000	 100.145048 
660.000000	 100.145459 
659.000000	 100.136376 
658.000000	 100.125076 
657.000000	 100.117374 
656.000000	 100.113600 
655.000000	 100.113033 
654.000000	 100.116393 
653.000000	 100.123231 
652.000000	 100.130972 
651.000000	 100.137708 
650.000000	 100.143557 

