4000.000000	99.731340 
3999.000000	99.731154 
3998.000000	99.730753 
3997.000000	99.730622 
3996.000000	99.730844 
3995.000000	99.731127 
3994.000000	99.731249 
3993.000000	99.731303 
3992.000000	99.731457 
3991.000000	99.731580 
3990.000000	99.731260 
3989.000000	99.730225 
3988.000000	99.728717 
3987.000000	99.727417 
3986.000000	99.726885 
3985.000000	99.727149 
3984.000000	99.727780 
3983.000000	99.728399 
3982.000000	99.729063 
3981.000000	99.730028 
3980.000000	99.731285 
3979.000000	99.732446 
3978.000000	99.733086 
3977.000000	99.733103 
3976.000000	99.732735 
3975.000000	99.732262 
3974.000000	99.731732 
3973.000000	99.731026 
3972.000000	99.730168 
3971.000000	99.729485 
3970.000000	99.729379 
3969.000000	99.729976 
3968.000000	99.731004 
3967.000000	99.731944 
3966.000000	99.732349 
3965.000000	99.732049 
3964.000000	99.731228 
3963.000000	99.730409 
3962.000000	99.730137 
3961.000000	99.730503 
3960.000000	99.731026 
3959.000000	99.731081 
3958.000000	99.730498 
3957.000000	99.729705 
3956.000000	99.729267 
3955.000000	99.729288 
3954.000000	99.729366 
3953.000000	99.729059 
3952.000000	99.728318 
3951.000000	99.727468 
3950.000000	99.726883 
3949.000000	99.726672 
3948.000000	99.726662 
3947.000000	99.726637 
3946.000000	99.726526 
3945.000000	99.726363 
3944.000000	99.726150 
3943.000000	99.725864 
3942.000000	99.725539 
3941.000000	99.725246 
3940.000000	99.725020 
3939.000000	99.724844 
3938.000000	99.724678 
3937.000000	99.724515 
3936.000000	99.724399 
3935.000000	99.724377 
3934.000000	99.724440 
3933.000000	99.724521 
3932.000000	99.724569 
3931.000000	99.724613 
3930.000000	99.724701 
3929.000000	99.724730 
3928.000000	99.724408 
3927.000000	99.723517 
3926.000000	99.722251 
3925.000000	99.721220 
3924.000000	99.720978 
3923.000000	99.721508 
3922.000000	99.722205 
3921.000000	99.722444 
3920.000000	99.722134 
3919.000000	99.721723 
3918.000000	99.721659 
3917.000000	99.721913 
3916.000000	99.722165 
3915.000000	99.722250 
3914.000000	99.722234 
3913.000000	99.722121 
3912.000000	99.721747 
3911.000000	99.720996 
3910.000000	99.720021 
3909.000000	99.719236 
3908.000000	99.719077 
3907.000000	99.719710 
3906.000000	99.721015 
3905.000000	99.722691 
3904.000000	99.724391 
3903.000000	99.725629 
3902.000000	99.725729 
3901.000000	99.724379 
3900.000000	99.721967 
3899.000000	99.719321 
3898.000000	99.717099 
3897.000000	99.715348 
3896.000000	99.713871 
3895.000000	99.712809 
3894.000000	99.712643 
3893.000000	99.713757 
3892.000000	99.715989 
3891.000000	99.718611 
3890.000000	99.720918 
3889.000000	99.722644 
3888.000000	99.723710 
3887.000000	99.723681 
3886.000000	99.722233 
3885.000000	99.719998 
3884.000000	99.718161 
3883.000000	99.717141 
3882.000000	99.716424 
3881.000000	99.715579 
3880.000000	99.714860 
3879.000000	99.714673 
3878.000000	99.714997 
3877.000000	99.715501 
3876.000000	99.715740 
3875.000000	99.715555 
3874.000000	99.715366 
3873.000000	99.715609 
3872.000000	99.715874 
3871.000000	99.715218 
3870.000000	99.713604 
3869.000000	99.712385 
3868.000000	99.712682 
3867.000000	99.714156 
3866.000000	99.715441 
3865.000000	99.715517 
3864.000000	99.714937 
3863.000000	99.714896 
3862.000000	99.715454 
3861.000000	99.715620 
3860.000000	99.714452 
3859.000000	99.711622 
3858.000000	99.707716 
3857.000000	99.704144 
3856.000000	99.702594 
3855.000000	99.703418 
3854.000000	99.705223 
3853.000000	99.707288 
3852.000000	99.710002 
3851.000000	99.713056 
3850.000000	99.715713 
3849.000000	99.717317 
3848.000000	99.717742 
3847.000000	99.717392 
3846.000000	99.716750 
3845.000000	99.716249 
3844.000000	99.716274 
3843.000000	99.716666 
3842.000000	99.716850 
3841.000000	99.716642 
3840.000000	99.716403 
3839.000000	99.716558 
3838.000000	99.717070 
3837.000000	99.717293 
3836.000000	99.716780 
3835.000000	99.715707 
3834.000000	99.714714 
3833.000000	99.714331 
3832.000000	99.714478 
3831.000000	99.714667 
3830.000000	99.714529 
3829.000000	99.713995 
3828.000000	99.713276 
3827.000000	99.712709 
3826.000000	99.712620 
3825.000000	99.713384 
3824.000000	99.715187 
3823.000000	99.717281 
3822.000000	99.718228 
3821.000000	99.717680 
3820.000000	99.716784 
3819.000000	99.716275 
3818.000000	99.715974 
3817.000000	99.715402 
3816.000000	99.714430 
3815.000000	99.713603 
3814.000000	99.713376 
3813.000000	99.713396 
3812.000000	99.712932 
3811.000000	99.711913 
3810.000000	99.711083 
3809.000000	99.711143 
3808.000000	99.711982 
3807.000000	99.712892 
3806.000000	99.713510 
3805.000000	99.713890 
3804.000000	99.713764 
3803.000000	99.712365 
3802.000000	99.709338 
3801.000000	99.705953 
3800.000000	99.704037 
3799.000000	99.703832 
3798.000000	99.704180 
3797.000000	99.703957 
3796.000000	99.703148 
3795.000000	99.702656 
3794.000000	99.703288 
3793.000000	99.705037 
3792.000000	99.707086 
3791.000000	99.708484 
3790.000000	99.708793 
3789.000000	99.708321 
3788.000000	99.707891 
3787.000000	99.708302 
3786.000000	99.709863 
3785.000000	99.712326 
3784.000000	99.715119 
3783.000000	99.717655 
3782.000000	99.719404 
3781.000000	99.719877 
3780.000000	99.718959 
3779.000000	99.717170 
3778.000000	99.715189 
3777.000000	99.713328 
3776.000000	99.711771 
3775.000000	99.710809 
3774.000000	99.710854 
3773.000000	99.712087 
3772.000000	99.713998 
3771.000000	99.715348 
3770.000000	99.715209 
3769.000000	99.713970 
3768.000000	99.712751 
3767.000000	99.712359 
3766.000000	99.712945 
3765.000000	99.714166 
3764.000000	99.715633 
3763.000000	99.717149 
3762.000000	99.718492 
3761.000000	99.719339 
3760.000000	99.719763 
3759.000000	99.720561 
3758.000000	99.722117 
3757.000000	99.723533 
3756.000000	99.723977 
3755.000000	99.723790 
3754.000000	99.724222 
3753.000000	99.726035 
3752.000000	99.728122 
3751.000000	99.728295 
3750.000000	99.725417 
3749.000000	99.720622 
3748.000000	99.716396 
3747.000000	99.714504 
3746.000000	99.714554 
3745.000000	99.714072 
3744.000000	99.711958 
3743.000000	99.710273 
3742.000000	99.710705 
3741.000000	99.712334 
3740.000000	99.713386 
3739.000000	99.713707 
3738.000000	99.714010 
3737.000000	99.713851 
3736.000000	99.712648 
3735.000000	99.710942 
3734.000000	99.709387 
3733.000000	99.707597 
3732.000000	99.705414 
3731.000000	99.703835 
3730.000000	99.703635 
3729.000000	99.704530 
3728.000000	99.705586 
3727.000000	99.706232 
3726.000000	99.706931 
3725.000000	99.708245 
3724.000000	99.709425 
3723.000000	99.708790 
3722.000000	99.705853 
3721.000000	99.701960 
3720.000000	99.698667 
3719.000000	99.696499 
3718.000000	99.694554 
3717.000000	99.691281 
3716.000000	99.685892 
3715.000000	99.678412 
3714.000000	99.669150 
3713.000000	99.658875 
3712.000000	99.649967 
3711.000000	99.645702 
3710.000000	99.646579 
3709.000000	99.649398 
3708.000000	99.650227 
3707.000000	99.646982 
3706.000000	99.639790 
3705.000000	99.630033 
3704.000000	99.619433 
3703.000000	99.609702 
3702.000000	99.602348 
3701.000000	99.597814 
3700.000000	99.594734 
3699.000000	99.590897 
3698.000000	99.584871 
3697.000000	99.576629 
3696.000000	99.567670 
3695.000000	99.560194 
3694.000000	99.555226 
3693.000000	99.551855 
3692.000000	99.548296 
3691.000000	99.543479 
3690.000000	99.537641 
3689.000000	99.531558 
3688.000000	99.525568 
3687.000000	99.519890 
3686.000000	99.515318 
3685.000000	99.512361 
3684.000000	99.510663 
3683.000000	99.509323 
3682.000000	99.507216 
3681.000000	99.503173 
3680.000000	99.496334 
3679.000000	99.486620 
3678.000000	99.475097 
3677.000000	99.463833 
3676.000000	99.456146 
3675.000000	99.455495 
3674.000000	99.460621 
3673.000000	99.466185 
3672.000000	99.468181 
3671.000000	99.465296 
3670.000000	99.459176 
3669.000000	99.453205 
3668.000000	99.448480 
3667.000000	99.443607 
3666.000000	99.437885 
3665.000000	99.432284 
3664.000000	99.428324 
3663.000000	99.426887 
3662.000000	99.427541 
3661.000000	99.429009 
3660.000000	99.430441 
3659.000000	99.431902 
3658.000000	99.433745 
3657.000000	99.435812 
3656.000000	99.437724 
3655.000000	99.439739 
3654.000000	99.442642 
3653.000000	99.446892 
3652.000000	99.451732 
3651.000000	99.454846 
3650.000000	99.454101 
3649.000000	99.450156 
3648.000000	99.446049 
3647.000000	99.444087 
3646.000000	99.444406 
3645.000000	99.445919 
3644.000000	99.447515 
3643.000000	99.448704 
3642.000000	99.449410 
3641.000000	99.450028 
3640.000000	99.451482 
3639.000000	99.454778 
3638.000000	99.460233 
3637.000000	99.466792 
3636.000000	99.472323 
3635.000000	99.474767 
3634.000000	99.473462 
3633.000000	99.469622 
3632.000000	99.465563 
3631.000000	99.463347 
3630.000000	99.463392 
3629.000000	99.464619 
3628.000000	99.465563 
3627.000000	99.465428 
3626.000000	99.464743 
3625.000000	99.464491 
3624.000000	99.464856 
3623.000000	99.465149 
3622.000000	99.464714 
3621.000000	99.463642 
3620.000000	99.463139 
3619.000000	99.464994 
3618.000000	99.469873 
3617.000000	99.476477 
3616.000000	99.482847 
3615.000000	99.487379 
3614.000000	99.489250 
3613.000000	99.488799 
3612.000000	99.487164 
3611.000000	99.485520 
3610.000000	99.484880 
3609.000000	99.485984 
3608.000000	99.488952 
3607.000000	99.493022 
3606.000000	99.496844 
3605.000000	99.499537 
3604.000000	99.501005 
3603.000000	99.501485 
3602.000000	99.501590 
3601.000000	99.502367 
3600.000000	99.504809 
3599.000000	99.508815 
3598.000000	99.512847 
3597.000000	99.515047 
3596.000000	99.514896 
3595.000000	99.513514 
3594.000000	99.512875 
3593.000000	99.514692 
3592.000000	99.519415 
3591.000000	99.525989 
3590.000000	99.531925 
3589.000000	99.534259 
3588.000000	99.531865 
3587.000000	99.526903 
3586.000000	99.522328 
3585.000000	99.519139 
3584.000000	99.516758 
3583.000000	99.514334 
3582.000000	99.511292 
3581.000000	99.507683 
3580.000000	99.504205 
3579.000000	99.501552 
3578.000000	99.499729 
3577.000000	99.498265 
3576.000000	99.497089 
3575.000000	99.496724 
3574.000000	99.497391 
3573.000000	99.498421 
3572.000000	99.498642 
3571.000000	99.497255 
3570.000000	99.494247 
3569.000000	99.490197 
3568.000000	99.486267 
3567.000000	99.484137 
3566.000000	99.484554 
3565.000000	99.486282 
3564.000000	99.487370 
3563.000000	99.486801 
3562.000000	99.484875 
3561.000000	99.482712 
3560.000000	99.481225 
3559.000000	99.480402 
3558.000000	99.479485 
3557.000000	99.477817 
3556.000000	99.475450 
3555.000000	99.473034 
3554.000000	99.471258 
3553.000000	99.470364 
3552.000000	99.470013 
3551.000000	99.469548 
3550.000000	99.468566 
3549.000000	99.467256 
3548.000000	99.466088 
3547.000000	99.465235 
3546.000000	99.464468 
3545.000000	99.463593 
3544.000000	99.462640 
3543.000000	99.461681 
3542.000000	99.460739 
3541.000000	99.459817 
3540.000000	99.458920 
3539.000000	99.458053 
3538.000000	99.457211 
3537.000000	99.456389 
3536.000000	99.455577 
3535.000000	99.454771 
3534.000000	99.453971 
3533.000000	99.453180 
3532.000000	99.452399 
3531.000000	99.451633 
3530.000000	99.450880 
3529.000000	99.450140 
3528.000000	99.449408 
3527.000000	99.448683 
3526.000000	99.447961 
3525.000000	99.447239 
3524.000000	99.446513 
3523.000000	99.445783 
3522.000000	99.445050 
3521.000000	99.444317 
3520.000000	99.443586 
3519.000000	99.442855 
3518.000000	99.442129 
3517.000000	99.441409 
3516.000000	99.440696 
3515.000000	99.439990 
3514.000000	99.439286 
3513.000000	99.438582 
3512.000000	99.437871 
3511.000000	99.437152 
3510.000000	99.436420 
3509.000000	99.435675 
3508.000000	99.434918 
3507.000000	99.434145 
3506.000000	99.433352 
3505.000000	99.432532 
3504.000000	99.431686 
3503.000000	99.430820 
3502.000000	99.429945 
3501.000000	99.429072 
3500.000000	99.428200 
3499.000000	99.427320 
3498.000000	99.426421 
3497.000000	99.425495 
3496.000000	99.424541 
3495.000000	99.423565 
3494.000000	99.422572 
3493.000000	99.421567 
3492.000000	99.420551 
3491.000000	99.419521 
3490.000000	99.418479 
3489.000000	99.417425 
3488.000000	99.416363 
3487.000000	99.415293 
3486.000000	99.414216 
3485.000000	99.413131 
3484.000000	99.412035 
3483.000000	99.410930 
3482.000000	99.409815 
3481.000000	99.408691 
3480.000000	99.407557 
3479.000000	99.406416 
3478.000000	99.405267 
3477.000000	99.404110 
3476.000000	99.402942 
3475.000000	99.401759 
3474.000000	99.400558 
3473.000000	99.399343 
3472.000000	99.398119 
3471.000000	99.396890 
3470.000000	99.395658 
3469.000000	99.394422 
3468.000000	99.393175 
3467.000000	99.391906 
3466.000000	99.390616 
3465.000000	99.389310 
3464.000000	99.387989 
3463.000000	99.386646 
3462.000000	99.385280 
3461.000000	99.383904 
3460.000000	99.382522 
3459.000000	99.381115 
3458.000000	99.379692 
3457.000000	99.378336 
3456.000000	99.377122 
3455.000000	99.375997 
3454.000000	99.374832 
3453.000000	99.373609 
3452.000000	99.372450 
3451.000000	99.371446 
3450.000000	99.370543 
3449.000000	99.369641 
3448.000000	99.368674 
3447.000000	99.367527 
3446.000000	99.366055 
3445.000000	99.364322 
3444.000000	99.362683 
3443.000000	99.361433 
3442.000000	99.360470 
3441.000000	99.359459 
3440.000000	99.358276 
3439.000000	99.357084 
3438.000000	99.356005 
3437.000000	99.354879 
3436.000000	99.353434 
3435.000000	99.351606 
3434.000000	99.349659 
3433.000000	99.347999 
3432.000000	99.346853 
3431.000000	99.346118 
3430.000000	99.345443 
3429.000000	99.344517 
3428.000000	99.343303 
3427.000000	99.341996 
3426.000000	99.340805 
3425.000000	99.339799 
3424.000000	99.338917 
3423.000000	99.338078 
3422.000000	99.337240 
3421.000000	99.336379 
3420.000000	99.335457 
3419.000000	99.334474 
3418.000000	99.333543 
3417.000000	99.332820 
3416.000000	99.332283 
3415.000000	99.331669 
3414.000000	99.330713 
3413.000000	99.329462 
3412.000000	99.328274 
3411.000000	99.327495 
3410.000000	99.327199 
3409.000000	99.327197 
3408.000000	99.327173 
3407.000000	99.326820 
3406.000000	99.326000 
3405.000000	99.324892 
3404.000000	99.323967 
3403.000000	99.323633 
3402.000000	99.323929 
3401.000000	99.324507 
3400.000000	99.324908 
3399.000000	99.324892 
3398.000000	99.324543 
3397.000000	99.324130 
3396.000000	99.323815 
3395.000000	99.323468 
3394.000000	99.322858 
3393.000000	99.322018 
3392.000000	99.321325 
3391.000000	99.321116 
3390.000000	99.321328 
3389.000000	99.321563 
3388.000000	99.321495 
3387.000000	99.321129 
3386.000000	99.320707 
3385.000000	99.320474 
3384.000000	99.320522 
3383.000000	99.320765 
3382.000000	99.321027 
3381.000000	99.321150 
3380.000000	99.321056 
3379.000000	99.320748 
3378.000000	99.320332 
3377.000000	99.320065 
3376.000000	99.320266 
3375.000000	99.321075 
3374.000000	99.322336 
3373.000000	99.323696 
3372.000000	99.324801 
3371.000000	99.325406 
3370.000000	99.325443 
3369.000000	99.325119 
3368.000000	99.324831 
3367.000000	99.324806 
3366.000000	99.324863 
3365.000000	99.324670 
3364.000000	99.324226 
3363.000000	99.323927 
3362.000000	99.324094 
3361.000000	99.324563 
3360.000000	99.324822 
3359.000000	99.324518 
3358.000000	99.323832 
3357.000000	99.323382 
3356.000000	99.323705 
3355.000000	99.324785 
3354.000000	99.326069 
3353.000000	99.326971 
3352.000000	99.327393 
3351.000000	99.327690 
3350.000000	99.328226 
3349.000000	99.329069 
3348.000000	99.330073 
3347.000000	99.331085 
3346.000000	99.332016 
3345.000000	99.332766 
3344.000000	99.333241 
3343.000000	99.333421 
3342.000000	99.333421 
3341.000000	99.333449 
3340.000000	99.333685 
3339.000000	99.334146 
3338.000000	99.334670 
3337.000000	99.335062 
3336.000000	99.335302 
3335.000000	99.335566 
3334.000000	99.336038 
3333.000000	99.336728 
3332.000000	99.337482 
3331.000000	99.338120 
3330.000000	99.338586 
3329.000000	99.338963 
3328.000000	99.339391 
3327.000000	99.339954 
3326.000000	99.340614 
3325.000000	99.341263 
3324.000000	99.341842 
3323.000000	99.342409 
3322.000000	99.343063 
3321.000000	99.343791 
3320.000000	99.344438 
3319.000000	99.344870 
3318.000000	99.345117 
3317.000000	99.345350 
3316.000000	99.345723 
3315.000000	99.346248 
3314.000000	99.346834 
3313.000000	99.347393 
3312.000000	99.347920 
3311.000000	99.348467 
3310.000000	99.349065 
3309.000000	99.349685 
3308.000000	99.350267 
3307.000000	99.350782 
3306.000000	99.351257 
3305.000000	99.351728 
3304.000000	99.352167 
3303.000000	99.352520 
3302.000000	99.352803 
3301.000000	99.353143 
3300.000000	99.353667 
3299.000000	99.354381 
3298.000000	99.355180 
3297.000000	99.355957 
3296.000000	99.356673 
3295.000000	99.357336 
3294.000000	99.357968 
3293.000000	99.358608 
3292.000000	99.359301 
3291.000000	99.360029 
3290.000000	99.360702 
3289.000000	99.361221 
3288.000000	99.361564 
3287.000000	99.361820 
3286.000000	99.362131 
3285.000000	99.362595 
3284.000000	99.363208 
3283.000000	99.363897 
3282.000000	99.364593 
3281.000000	99.365275 
3280.000000	99.365918 
3279.000000	99.366475 
3278.000000	99.366937 
3277.000000	99.367389 
3276.000000	99.367967 
3275.000000	99.368724 
3274.000000	99.369598 
3273.000000	99.370471 
3272.000000	99.371250 
3271.000000	99.371898 
3270.000000	99.372422 
3269.000000	99.372897 
3268.000000	99.373456 
3267.000000	99.374197 
3266.000000	99.375115 
3265.000000	99.376117 
3264.000000	99.377101 
3263.000000	99.378018 
3262.000000	99.378862 
3261.000000	99.379656 
3260.000000	99.380431 
3259.000000	99.381209 
3258.000000	99.381987 
3257.000000	99.382755 
3256.000000	99.383506 
3255.000000	99.384240 
3254.000000	99.384972 
3253.000000	99.385727 
3252.000000	99.386526 
3251.000000	99.387363 
3250.000000	99.388204 
3249.000000	99.389021 
3248.000000	99.389813 
3247.000000	99.390591 
3246.000000	99.391359 
3245.000000	99.392125 
3244.000000	99.392910 
3243.000000	99.393752 
3242.000000	99.394684 
3241.000000	99.395716 
3240.000000	99.396815 
3239.000000	99.397891 
3238.000000	99.398840 
3237.000000	99.399618 
3236.000000	99.400307 
3235.000000	99.401062 
3234.000000	99.401964 
3233.000000	99.402994 
3232.000000	99.404099 
3231.000000	99.405252 
3230.000000	99.406432 
3229.000000	99.407582 
3228.000000	99.408606 
3227.000000	99.409418 
3226.000000	99.409990 
3225.000000	99.410421 
3224.000000	99.410949 
3223.000000	99.411805 
3222.000000	99.413020 
3221.000000	99.414390 
3220.000000	99.415639 
3219.000000	99.416621 
3218.000000	99.417327 
3217.000000	99.417827 
3216.000000	99.418278 
3215.000000	99.418917 
3214.000000	99.419945 
3213.000000	99.421384 
3212.000000	99.423063 
3211.000000	99.424770 
3210.000000	99.426395 
3209.000000	99.427907 
3208.000000	99.429248 
3207.000000	99.430309 
3206.000000	99.431046 
3205.000000	99.431628 
3204.000000	99.432371 
3203.000000	99.433493 
3202.000000	99.434970 
3201.000000	99.436675 
3200.000000	99.438517 
3199.000000	99.440324 
3198.000000	99.441734 
3197.000000	99.442475 
3196.000000	99.442770 
3195.000000	99.443238 
3194.000000	99.444192 
3193.000000	99.445210 
3192.000000	99.445638 
3191.000000	99.445445 
3190.000000	99.445407 
3189.000000	99.446383 
3188.000000	99.448505 
3187.000000	99.451086 
3186.000000	99.453230 
3185.000000	99.454578 
3184.000000	99.455390 
3183.000000	99.456028 
3182.000000	99.456487 
3181.000000	99.456541 
3180.000000	99.456263 
3179.000000	99.456137 
3178.000000	99.456543 
3177.000000	99.457294 
3176.000000	99.457865 
3175.000000	99.458123 
3174.000000	99.458684 
3173.000000	99.460349 
3172.000000	99.463210 
3171.000000	99.466357 
3170.000000	99.468572 
3169.000000	99.469452 
3168.000000	99.469755 
3167.000000	99.470642 
3166.000000	99.472577 
3165.000000	99.475052 
3164.000000	99.477224 
3163.000000	99.478689 
3162.000000	99.479647 
3161.000000	99.480601 
3160.000000	99.482018 
3159.000000	99.484069 
3158.000000	99.486488 
3157.000000	99.488673 
3156.000000	99.490079 
3155.000000	99.490577 
3154.000000	99.490486 
3153.000000	99.490324 
3152.000000	99.490487 
3151.000000	99.490999 
3150.000000	99.491475 
3149.000000	99.491477 
3148.000000	99.491055 
3147.000000	99.490888 
3146.000000	99.491688 
3145.000000	99.493489 
3144.000000	99.495670 
3143.000000	99.497663 
3142.000000	99.499483 
3141.000000	99.501454 
3140.000000	99.503584 
3139.000000	99.505405 
3138.000000	99.506444 
3137.000000	99.506686 
3136.000000	99.506498 
3135.000000	99.506182 
3134.000000	99.505777 
3133.000000	99.505335 
3132.000000	99.505215 
3131.000000	99.505845 
3130.000000	99.507200 
3129.000000	99.508634 
3128.000000	99.509439 
3127.000000	99.509572 
3126.000000	99.509674 
3125.000000	99.510369 
3124.000000	99.511646 
3123.000000	99.512957 
3122.000000	99.513808 
3121.000000	99.514225 
3120.000000	99.514648 
3119.000000	99.515442 
3118.000000	99.516519 
3117.000000	99.517450 
3116.000000	99.517942 
3115.000000	99.518140 
3114.000000	99.518411 
3113.000000	99.518869 
3112.000000	99.519278 
3111.000000	99.519439 
3110.000000	99.519531 
3109.000000	99.519897 
3108.000000	99.520572 
3107.000000	99.521256 
3106.000000	99.521734 
3105.000000	99.522148 
3104.000000	99.522748 
3103.000000	99.523617 
3102.000000	99.524728 
3101.000000	99.526062 
3100.000000	99.527494 
3099.000000	99.528674 
3098.000000	99.529247 
3097.000000	99.529196 
3096.000000	99.528932 
3095.000000	99.528972 
3094.000000	99.529541 
3093.000000	99.530516 
3092.000000	99.531618 
3091.000000	99.532541 
3090.000000	99.533001 
3089.000000	99.532991 
3088.000000	99.533126 
3087.000000	99.534427 
3086.000000	99.537381 
3085.000000	99.541193 
3084.000000	99.544222 
3083.000000	99.545323 
3082.000000	99.544667 
3081.000000	99.543356 
3080.000000	99.542270 
3079.000000	99.541429 
3078.000000	99.540357 
3077.000000	99.538805 
3076.000000	99.537082 
3075.000000	99.535853 
3074.000000	99.535657 
3073.000000	99.536454 
3072.000000	99.537741 
3071.000000	99.539297 
3070.000000	99.541482 
3069.000000	99.544197 
3068.000000	99.545756 
3067.000000	99.543954 
3066.000000	99.538845 
3065.000000	99.533667 
3064.000000	99.532043 
3063.000000	99.534486 
3062.000000	99.538377 
3061.000000	99.541002 
3060.000000	99.541859 
3059.000000	99.542154 
3058.000000	99.542975 
3057.000000	99.544272 
3056.000000	99.545237 
3055.000000	99.545346 
3054.000000	99.544984 
3053.000000	99.544815 
3052.000000	99.544614 
3051.000000	99.543401 
3050.000000	99.541031 
3049.000000	99.538760 
3048.000000	99.537307 
3047.000000	99.535083 
3046.000000	99.529844 
3045.000000	99.522001 
3044.000000	99.514949 
3043.000000	99.511583 
3042.000000	99.511305 
3041.000000	99.511021 
3040.000000	99.508382 
3039.000000	99.503523 
3038.000000	99.498192 
3037.000000	99.493848 
3036.000000	99.490342 
3035.000000	99.486038 
3034.000000	99.479355 
3033.000000	99.470181 
3032.000000	99.459583 
3031.000000	99.448575 
3030.000000	99.437334 
3029.000000	99.425415 
3028.000000	99.412500 
3027.000000	99.398944 
3026.000000	99.385804 
3025.000000	99.374183 
3024.000000	99.364027 
3023.000000	99.353555 
3022.000000	99.340478 
3021.000000	99.324089 
3020.000000	99.305931 
3019.000000	99.288459 
3018.000000	99.273307 
3017.000000	99.260605 
3016.000000	99.249091 
3015.000000	99.236645 
3014.000000	99.221404 
3013.000000	99.202869 
3012.000000	99.181741 
3011.000000	99.158752 
3010.000000	99.134329 
3009.000000	99.109532 
3008.000000	99.086359 
3007.000000	99.066378 
3006.000000	99.049397 
3005.000000	99.033915 
3004.000000	99.018368 
3003.000000	99.001431 
3002.000000	98.981933 
3001.000000	98.959741 
3000.000000	98.936705 
2999.000000	98.915603 
2998.000000	98.897908 
2997.000000	98.883453 
2996.000000	98.872118 
2995.000000	98.863921 
2994.000000	98.855999 
2993.000000	98.841168 
2992.000000	98.812843 
2991.000000	98.772785 
2990.000000	98.732381 
2989.000000	98.704160 
2988.000000	98.692385 
2987.000000	98.692526 
2986.000000	98.698018 
2985.000000	98.705792 
2984.000000	98.715254 
2983.000000	98.724707 
2982.000000	98.731042 
2981.000000	98.732382 
2980.000000	98.729607 
2979.000000	98.725144 
2978.000000	98.720941 
2977.000000	98.717362 
2976.000000	98.713288 
2975.000000	98.707311 
2974.000000	98.699435 
2973.000000	98.691617 
2972.000000	98.686304 
2971.000000	98.684602 
2970.000000	98.686242 
2969.000000	98.690827 
2968.000000	98.698362 
2967.000000	98.708641 
2966.000000	98.720813 
2965.000000	98.733715 
2964.000000	98.746310 
2963.000000	98.757882 
2962.000000	98.768235 
2961.000000	98.777726 
2960.000000	98.786818 
2959.000000	98.795782 
2958.000000	98.805075 
2957.000000	98.815459 
2956.000000	98.826903 
2955.000000	98.837646 
2954.000000	98.845526 
2953.000000	98.850804 
2952.000000	98.856939 
2951.000000	98.867694 
2950.000000	98.883219 
2949.000000	98.899249 
2948.000000	98.910487 
2947.000000	98.914782 
2946.000000	98.914297 
2945.000000	98.913044 
2944.000000	98.913230 
2943.000000	98.914132 
2942.000000	98.914229 
2941.000000	98.913095 
2940.000000	98.910842 
2939.000000	98.906945 
2938.000000	98.900701 
2937.000000	98.892611 
2936.000000	98.884561 
2935.000000	98.878580 
2934.000000	98.875549 
2933.000000	98.874705 
2932.000000	98.873838 
2931.000000	98.870367 
2930.000000	98.863059 
2929.000000	98.852885 
2928.000000	98.842061 
2927.000000	98.832515 
2926.000000	98.825525 
2925.000000	98.821964 
2924.000000	98.821921 
2923.000000	98.824304 
2922.000000	98.827639 
2921.000000	98.831187 
2920.000000	98.834761 
2919.000000	98.837916 
2918.000000	98.840181 
2917.000000	98.841839 
2916.000000	98.843535 
2915.000000	98.845239 
2914.000000	98.846502 
2913.000000	98.847635 
2912.000000	98.849563 
2911.000000	98.852187 
2910.000000	98.853884 
2909.000000	98.853181 
2908.000000	98.850400 
2907.000000	98.846979 
2906.000000	98.843434 
2905.000000	98.838471 
2904.000000	98.830463 
2903.000000	98.820155 
2902.000000	98.812123 
2901.000000	98.812515 
2900.000000	98.824696 
2899.000000	98.845972 
2898.000000	98.868850 
2897.000000	98.886164 
2896.000000	98.895657 
2895.000000	98.900113 
2894.000000	98.904200 
2893.000000	98.910953 
2892.000000	98.920182 
2891.000000	98.929323 
2890.000000	98.936031 
2889.000000	98.940300 
2888.000000	98.944167 
2887.000000	98.949532 
2886.000000	98.956674 
2885.000000	98.964727 
2884.000000	98.972997 
2883.000000	98.981620 
2882.000000	98.991367 
2881.000000	99.003018 
2880.000000	99.016651 
2879.000000	99.031385 
2878.000000	99.045979 
2877.000000	99.059640 
2876.000000	99.071945 
2875.000000	99.082217 
2874.000000	99.089712 
2873.000000	99.094679 
2872.000000	99.098808 
2871.000000	99.104287 
2870.000000	99.112460 
2869.000000	99.123236 
2868.000000	99.135386 
2867.000000	99.147486 
2866.000000	99.159173 
2865.000000	99.171493 
2864.000000	99.185404 
2863.000000	99.199771 
2862.000000	99.211637 
2861.000000	99.219035 
2860.000000	99.223244 
2859.000000	99.227910 
2858.000000	99.235911 
2857.000000	99.247101 
2856.000000	99.258809 
2855.000000	99.268568 
2854.000000	99.276516 
2853.000000	99.285165 
2852.000000	99.296688 
2851.000000	99.310809 
2850.000000	99.325751 
2849.000000	99.340636 
2848.000000	99.355877 
2847.000000	99.371318 
2846.000000	99.385336 
2845.000000	99.396349 
2844.000000	99.404482 
2843.000000	99.411405 
2842.000000	99.419090 
2841.000000	99.428784 
2840.000000	99.440230 
2839.000000	99.451413 
2838.000000	99.459871 
2837.000000	99.464914 
2836.000000	99.468153 
2835.000000	99.471732 
2834.000000	99.476681 
2833.000000	99.483102 
2832.000000	99.490738 
2831.000000	99.498569 
2830.000000	99.504898 
2829.000000	99.508943 
2828.000000	99.511918 
2827.000000	99.515589 
2826.000000	99.520016 
2825.000000	99.523562 
2824.000000	99.525067 
2823.000000	99.525359 
2822.000000	99.526543 
2821.000000	99.530111 
2820.000000	99.535646 
2819.000000	99.541238 
2818.000000	99.545305 
2817.000000	99.547960 
2816.000000	99.550257 
2815.000000	99.552412 
2814.000000	99.553681 
2813.000000	99.553942 
2812.000000	99.554259 
2811.000000	99.555354 
2810.000000	99.556543 
2809.000000	99.556998 
2808.000000	99.557248 
2807.000000	99.558502 
2806.000000	99.560977 
2805.000000	99.563820 
2804.000000	99.566368 
2803.000000	99.568749 
2802.000000	99.571332 
2801.000000	99.574083 
2800.000000	99.576371 
2799.000000	99.577251 
2798.000000	99.576352 
2797.000000	99.574611 
2796.000000	99.573548 
2795.000000	99.573573 
2794.000000	99.573755 
2793.000000	99.573483 
2792.000000	99.573359 
2791.000000	99.574016 
2790.000000	99.575100 
2789.000000	99.576222 
2788.000000	99.577958 
2787.000000	99.580867 
2786.000000	99.584218 
2785.000000	99.586801 
2784.000000	99.588527 
2783.000000	99.590102 
2782.000000	99.591435 
2781.000000	99.591600 
2780.000000	99.590477 
2779.000000	99.589407 
2778.000000	99.589745 
2777.000000	99.591382 
2776.000000	99.593165 
2775.000000	99.594269 
2774.000000	99.594694 
2773.000000	99.594747 
2772.000000	99.594619 
2771.000000	99.594497 
2770.000000	99.594738 
2769.000000	99.595729 
2768.000000	99.597607 
2767.000000	99.600077 
2766.000000	99.602449 
2765.000000	99.604025 
2764.000000	99.604589 
2763.000000	99.604531 
2762.000000	99.604441 
2761.000000	99.604688 
2760.000000	99.605462 
2759.000000	99.607045 
2758.000000	99.609662 
2757.000000	99.613004 
2756.000000	99.616137 
2755.000000	99.618170 
2754.000000	99.618923 
2753.000000	99.618832 
2752.000000	99.618318 
2751.000000	99.617419 
2750.000000	99.616053 
2749.000000	99.614346 
2748.000000	99.612541 
2747.000000	99.610794 
2746.000000	99.609288 
2745.000000	99.608410 
2744.000000	99.608519 
2743.000000	99.609613 
2742.000000	99.611410 
2741.000000	99.613664 
2740.000000	99.616170 
2739.000000	99.618530 
2738.000000	99.620281 
2737.000000	99.621362 
2736.000000	99.622167 
2735.000000	99.623007 
2734.000000	99.623707 
2733.000000	99.623850 
2732.000000	99.623267 
2731.000000	99.622216 
2730.000000	99.621281 
2729.000000	99.621134 
2728.000000	99.622187 
2727.000000	99.624261 
2726.000000	99.626623 
2725.000000	99.628511 
2724.000000	99.629611 
2723.000000	99.630061 
2722.000000	99.630183 
2721.000000	99.630279 
2720.000000	99.630538 
2719.000000	99.630996 
2718.000000	99.631567 
2717.000000	99.632146 
2716.000000	99.632707 
2715.000000	99.633365 
2714.000000	99.634328 
2713.000000	99.635645 
2712.000000	99.636950 
2711.000000	99.637669 
2710.000000	99.637644 
2709.000000	99.637369 
2708.000000	99.637404 
2707.000000	99.637628 
2706.000000	99.637444 
2705.000000	99.636644 
2704.000000	99.635753 
2703.000000	99.635442 
2702.000000	99.635852 
2701.000000	99.636641 
2700.000000	99.637416 
2699.000000	99.638015 
2698.000000	99.638460 
2697.000000	99.638798 
2696.000000	99.639028 
2695.000000	99.639145 
2694.000000	99.639239 
2693.000000	99.639461 
2692.000000	99.639809 
2691.000000	99.640015 
2690.000000	99.639869 
2689.000000	99.639616 
2688.000000	99.639806 
2687.000000	99.640620 
2686.000000	99.641544 
2685.000000	99.641878 
2684.000000	99.641505 
2683.000000	99.640946 
2682.000000	99.640776 
2681.000000	99.641107 
2680.000000	99.641664 
2679.000000	99.642086 
2678.000000	99.642132 
2677.000000	99.641797 
2676.000000	99.641356 
2675.000000	99.641137 
2674.000000	99.641204 
2673.000000	99.641321 
2672.000000	99.641236 
2671.000000	99.640908 
2670.000000	99.640419 
2669.000000	99.639776 
2668.000000	99.638902 
2667.000000	99.637840 
2666.000000	99.636900 
2665.000000	99.636481 
2664.000000	99.636684 
2663.000000	99.637146 
2662.000000	99.637356 
2661.000000	99.637192 
2660.000000	99.636970 
2659.000000	99.636949 
2658.000000	99.636982 
2657.000000	99.636780 
2656.000000	99.636346 
2655.000000	99.635975 
2654.000000	99.635855 
2653.000000	99.635839 
2652.000000	99.635629 
2651.000000	99.635123 
2650.000000	99.634551 
2649.000000	99.634272 
2648.000000	99.634425 
2647.000000	99.634785 
2646.000000	99.635023 
2645.000000	99.635119 
2644.000000	99.635337 
2643.000000	99.635810 
2642.000000	99.636311 
2641.000000	99.636507 
2640.000000	99.636371 
2639.000000	99.636181 
2638.000000	99.636214 
2637.000000	99.636515 
2636.000000	99.636920 
2635.000000	99.637203 
2634.000000	99.637285 
2633.000000	99.637295 
2632.000000	99.637455 
2631.000000	99.637825 
2630.000000	99.638286 
2629.000000	99.638715 
2628.000000	99.639099 
2627.000000	99.639469 
2626.000000	99.639816 
2625.000000	99.640109 
2624.000000	99.640367 
2623.000000	99.640633 
2622.000000	99.640901 
2621.000000	99.641143 
2620.000000	99.641372 
2619.000000	99.641631 
2618.000000	99.641929 
2617.000000	99.642237 
2616.000000	99.642522 
2615.000000	99.642786 
2614.000000	99.643049 
2613.000000	99.643321 
2612.000000	99.643600 
2611.000000	99.643876 
2610.000000	99.644140 
2609.000000	99.644386 
2608.000000	99.644612 
2607.000000	99.644820 
2606.000000	99.645012 
2605.000000	99.645186 
2604.000000	99.645340 
2603.000000	99.645469 
2602.000000	99.645571 
2601.000000	99.645650 
2600.000000	99.645715 
2599.000000	99.645776 
2598.000000	99.645837 
2597.000000	99.645891 
2596.000000	99.645929 
2595.000000	99.645939 
2594.000000	99.645919 
2593.000000	99.645878 
2592.000000	99.645824 
2591.000000	99.645770 
2590.000000	99.645721 
2589.000000	99.645675 
2588.000000	99.645626 
2587.000000	99.645563 
2586.000000	99.645482 
2585.000000	99.645384 
2584.000000	99.645277 
2583.000000	99.645176 
2582.000000	99.645096 
2581.000000	99.645040 
2580.000000	99.645006 
2579.000000	99.644984 
2578.000000	99.644967 
2577.000000	99.644949 
2576.000000	99.644931 
2575.000000	99.644915 
2574.000000	99.644906 
2573.000000	99.644908 
2572.000000	99.644919 
2571.000000	99.644936 
2570.000000	99.644958 
2569.000000	99.644986 
2568.000000	99.645026 
2567.000000	99.645082 
2566.000000	99.645157 
2565.000000	99.645252 
2564.000000	99.645364 
2563.000000	99.645490 
2562.000000	99.645631 
2561.000000	99.645790 
2560.000000	99.645971 
2559.000000	99.646173 
2558.000000	99.646389 
2557.000000	99.646602 
2556.000000	99.646779 
2555.000000	99.646903 
2554.000000	99.647025 
2553.000000	99.647250 
2552.000000	99.647631 
2551.000000	99.648078 
2550.000000	99.648454 
2549.000000	99.648766 
2548.000000	99.649126 
2547.000000	99.649537 
2546.000000	99.649859 
2545.000000	99.650063 
2544.000000	99.650334 
2543.000000	99.650831 
2542.000000	99.651473 
2541.000000	99.652051 
2540.000000	99.652471 
2539.000000	99.652751 
2538.000000	99.652900 
2537.000000	99.652907 
2536.000000	99.652802 
2535.000000	99.652679 
2534.000000	99.652682 
2533.000000	99.652978 
2532.000000	99.653652 
2531.000000	99.654585 
2530.000000	99.655482 
2529.000000	99.656108 
2528.000000	99.656435 
2527.000000	99.656566 
2526.000000	99.656614 
2525.000000	99.656690 
2524.000000	99.656925 
2523.000000	99.657371 
2522.000000	99.657914 
2521.000000	99.658371 
2520.000000	99.658641 
2519.000000	99.658709 
2518.000000	99.658594 
2517.000000	99.658359 
2516.000000	99.658125 
2515.000000	99.657986 
2514.000000	99.657961 
2513.000000	99.658043 
2512.000000	99.658221 
2511.000000	99.658433 
2510.000000	99.658580 
2509.000000	99.658641 
2508.000000	99.658745 
2507.000000	99.659031 
2506.000000	99.659465 
2505.000000	99.659857 
2504.000000	99.660039 
2503.000000	99.659994 
2502.000000	99.659818 
2501.000000	99.659650 
2500.000000	99.659602 
2499.000000	99.659709 
2498.000000	99.659944 
2497.000000	99.660229 
2496.000000	99.660474 
2495.000000	99.660622 
2494.000000	99.660663 
2493.000000	99.660621 
2492.000000	99.660528 
2491.000000	99.660406 
2490.000000	99.660281 
2489.000000	99.660179 
2488.000000	99.660114 
2487.000000	99.660083 
2486.000000	99.660090 
2485.000000	99.660145 
2484.000000	99.660239 
2483.000000	99.660320 
2482.000000	99.660323 
2481.000000	99.660235 
2480.000000	99.660105 
2479.000000	99.660002 
2478.000000	99.659946 
2477.000000	99.659918 
2476.000000	99.659893 
2475.000000	99.659874 
2474.000000	99.659875 
2473.000000	99.659901 
2472.000000	99.659932 
2471.000000	99.659941 
2470.000000	99.659920 
2469.000000	99.659875 
2468.000000	99.659793 
2467.000000	99.659631 
2466.000000	99.659372 
2465.000000	99.659083 
2464.000000	99.658882 
2463.000000	99.658809 
2462.000000	99.658774 
2461.000000	99.658637 
2460.000000	99.658358 
2459.000000	99.658024 
2458.000000	99.657753 
2457.000000	99.657598 
2456.000000	99.657532 
2455.000000	99.657457 
2454.000000	99.657242 
2453.000000	99.656824 
2452.000000	99.656291 
2451.000000	99.655815 
2450.000000	99.655492 
2449.000000	99.655299 
2448.000000	99.655182 
2447.000000	99.655122 
2446.000000	99.655134 
2445.000000	99.655282 
2444.000000	99.655659 
2443.000000	99.656220 
2442.000000	99.656655 
2441.000000	99.656648 
2440.000000	99.656267 
2439.000000	99.655936 
2438.000000	99.655966 
2437.000000	99.656226 
2436.000000	99.656367 
2435.000000	99.656157 
2434.000000	99.655511 
2433.000000	99.654392 
2432.000000	99.652910 
2431.000000	99.651489 
2430.000000	99.650677 
2429.000000	99.650745 
2428.000000	99.651593 
2427.000000	99.652956 
2426.000000	99.654558 
2425.000000	99.655966 
2424.000000	99.656541 
2423.000000	99.655856 
2422.000000	99.654188 
2421.000000	99.652532 
2420.000000	99.651721 
2419.000000	99.651696 
2418.000000	99.651900 
2417.000000	99.652141 
2416.000000	99.652743 
2415.000000	99.653831 
2414.000000	99.654961 
2413.000000	99.655661 
2412.000000	99.656004 
2411.000000	99.656403 
2410.000000	99.657049 
2409.000000	99.657781 
2408.000000	99.658432 
2407.000000	99.659082 
2406.000000	99.659906 
2405.000000	99.660920 
2404.000000	99.661927 
2403.000000	99.662662 
2402.000000	99.662992 
2401.000000	99.663010 
2400.000000	99.662972 
2399.000000	99.663125 
2398.000000	99.663573 
2397.000000	99.664282 
2396.000000	99.665176 
2395.000000	99.666202 
2394.000000	99.667326 
2393.000000	99.668458 
2392.000000	99.669395 
2391.000000	99.669975 
2390.000000	99.670325 
2389.000000	99.670862 
2388.000000	99.671906 
2387.000000	99.673339 
2386.000000	99.674746 
2385.000000	99.675864 
2384.000000	99.676773 
2383.000000	99.677644 
2382.000000	99.678509 
2381.000000	99.679331 
2380.000000	99.680119 
2379.000000	99.680822 
2378.000000	99.681287 
2377.000000	99.681510 
2376.000000	99.681848 
2375.000000	99.682737 
2374.000000	99.684250 
2373.000000	99.685990 
2372.000000	99.687487 
2371.000000	99.688648 
2370.000000	99.689629 
2369.000000	99.690408 
2368.000000	99.690708 
2367.000000	99.690346 
2366.000000	99.689503 
2365.000000	99.688759 
2364.000000	99.688762 
2363.000000	99.689719 
2362.000000	99.691113 
2361.000000	99.692047 
2360.000000	99.692174 
2359.000000	99.691965 
2358.000000	99.692091 
2357.000000	99.692804 
2356.000000	99.693928 
2355.000000	99.695033 
2354.000000	99.695452 
2353.000000	99.694890 
2352.000000	99.693813 
2351.000000	99.692980 
2350.000000	99.692696 
2349.000000	99.692732 
2348.000000	99.692828 
2347.000000	99.692749 
2346.000000	99.692154 
2345.000000	99.690738 
2344.000000	99.688676 
2343.000000	99.686856 
2342.000000	99.686123 
2341.000000	99.686795 
2340.000000	99.688385 
2339.000000	99.689826 
2338.000000	99.690066 
2337.000000	99.688990 
2336.000000	99.687715 
2335.000000	99.687329 
2334.000000	99.687784 
2333.000000	99.688206 
2332.000000	99.688034 
2331.000000	99.686748 
2330.000000	99.683958 
2329.000000	99.679712 
2328.000000	99.675232 
2327.000000	99.671457 
2326.000000	99.668361 
2325.000000	99.665309 
2324.000000	99.662372 
2323.000000	99.660504 
2322.000000	99.660789 
2321.000000	99.663572 
2320.000000	99.667797 
2319.000000	99.671237 
2318.000000	99.672171 
2317.000000	99.670665 
2316.000000	99.668461 
2315.000000	99.666903 
2314.000000	99.666151 
2313.000000	99.665605 
2312.000000	99.665277 
2311.000000	99.665511 
2310.000000	99.666743 
2309.000000	99.668725 
2308.000000	99.670260 
2307.000000	99.669277 
2306.000000	99.664843 
2305.000000	99.658368 
2304.000000	99.652417 
2303.000000	99.647955 
2302.000000	99.644309 
2301.000000	99.641191 
2300.000000	99.639497 
2299.000000	99.639234 
2298.000000	99.638797 
2297.000000	99.637012 
2296.000000	99.635121 
2295.000000	99.635022 
2294.000000	99.636587 
2293.000000	99.637682 
2292.000000	99.636760 
2291.000000	99.634185 
2290.000000	99.631223 
2289.000000	99.628730 
2288.000000	99.626992 
2287.000000	99.625987 
2286.000000	99.625481 
2285.000000	99.625210 
2284.000000	99.625111 
2283.000000	99.625229 
2282.000000	99.625333 
2281.000000	99.624978 
2280.000000	99.624090 
2279.000000	99.623355 
2278.000000	99.623765 
2277.000000	99.625684 
2276.000000	99.628393 
2275.000000	99.630619 
2274.000000	99.631649 
2273.000000	99.631722 
2272.000000	99.631307 
2271.000000	99.630371 
2270.000000	99.628781 
2269.000000	99.627227 
2268.000000	99.627003 
2267.000000	99.628681 
2266.000000	99.631481 
2265.000000	99.633935 
2264.000000	99.635078 
2263.000000	99.634891 
2262.000000	99.634161 
2261.000000	99.634099 
2260.000000	99.635418 
2259.000000	99.637460 
2258.000000	99.638624 
2257.000000	99.638203 
2256.000000	99.637272 
2255.000000	99.637356 
2254.000000	99.638529 
2253.000000	99.639549 
2252.000000	99.639629 
2251.000000	99.639389 
2250.000000	99.640096 
2249.000000	99.642435 
2248.000000	99.645977 
2247.000000	99.649218 
2246.000000	99.650474 
2245.000000	99.649147 
2244.000000	99.646245 
2243.000000	99.643487 
2242.000000	99.641862 
2241.000000	99.641384 
2240.000000	99.641638 
2239.000000	99.641959 
2238.000000	99.641599 
2237.000000	99.640482 
2236.000000	99.639528 
2235.000000	99.639444 
2234.000000	99.639551 
2233.000000	99.638784 
2232.000000	99.637613 
2231.000000	99.637729 
2230.000000	99.639932 
2229.000000	99.643380 
2228.000000	99.646844 
2227.000000	99.649748 
2226.000000	99.651848 
2225.000000	99.652899 
2224.000000	99.652918 
2223.000000	99.652272 
2222.000000	99.651505 
2221.000000	99.651403 
2220.000000	99.652649 
2219.000000	99.654836 
2218.000000	99.656454 
2217.000000	99.656787 
2216.000000	99.657255 
2215.000000	99.659763 
2214.000000	99.664026 
2213.000000	99.667556 
2212.000000	99.668324 
2211.000000	99.666460 
2210.000000	99.663761 
2209.000000	99.662342 
2208.000000	99.663263 
2207.000000	99.665577 
2206.000000	99.666784 
2205.000000	99.665252 
2204.000000	99.661870 
2203.000000	99.658982 
2202.000000	99.657820 
2201.000000	99.657933 
2200.000000	99.658578 
2199.000000	99.659351 
2198.000000	99.659919 
2197.000000	99.660296 
2196.000000	99.661281 
2195.000000	99.663598 
2194.000000	99.666724 
2193.000000	99.669448 
2192.000000	99.671235 
2191.000000	99.672161 
2190.000000	99.672042 
2189.000000	99.670906 
2188.000000	99.670075 
2187.000000	99.671259 
2186.000000	99.674549 
2185.000000	99.678357 
2184.000000	99.681460 
2183.000000	99.683993 
2182.000000	99.686110 
2181.000000	99.687450 
2180.000000	99.688374 
2179.000000	99.689955 
2178.000000	99.692094 
2177.000000	99.693200 
2176.000000	99.692533 
2175.000000	99.691408 
2174.000000	99.691206 
2173.000000	99.691420 
2172.000000	99.690710 
2171.000000	99.688923 
2170.000000	99.687298 
2169.000000	99.687344 
2168.000000	99.689869 
2167.000000	99.694435 
2166.000000	99.699152 
2165.000000	99.701814 
2164.000000	99.701976 
2163.000000	99.701319 
2162.000000	99.701974 
2161.000000	99.705024 
2160.000000	99.710325 
2159.000000	99.716299 
2158.000000	99.720231 
2157.000000	99.720731 
2156.000000	99.719722 
2155.000000	99.720415 
2154.000000	99.723123 
2153.000000	99.724969 
2152.000000	99.723932 
2151.000000	99.721403 
2150.000000	99.720326 
2149.000000	99.722031 
2148.000000	99.725596 
2147.000000	99.728964 
2146.000000	99.729989 
2145.000000	99.727561 
2144.000000	99.722758 
2143.000000	99.718436 
2142.000000	99.716537 
2141.000000	99.716439 
2140.000000	99.716310 
2139.000000	99.715293 
2138.000000	99.713738 
2137.000000	99.711957 
2136.000000	99.709834 
2135.000000	99.707623 
2134.000000	99.706256 
2133.000000	99.706444 
2132.000000	99.707596 
2131.000000	99.707854 
2130.000000	99.705515 
2129.000000	99.700543 
2128.000000	99.694833 
2127.000000	99.690583 
2126.000000	99.688290 
2125.000000	99.686829 
2124.000000	99.685268 
2123.000000	99.684087 
2122.000000	99.684054 
2121.000000	99.684566 
2120.000000	99.684077 
2119.000000	99.681978 
2118.000000	99.679285 
2117.000000	99.677374 
2116.000000	99.676459 
2115.000000	99.675660 
2114.000000	99.674222 
2113.000000	99.672332 
2112.000000	99.670673 
2111.000000	99.669479 
2110.000000	99.668295 
2109.000000	99.666715 
2108.000000	99.665049 
2107.000000	99.663887 
2106.000000	99.663092 
2105.000000	99.661711 
2104.000000	99.659012 
2103.000000	99.655363 
2102.000000	99.652042 
2101.000000	99.650273 
2100.000000	99.650466 
2099.000000	99.651981 
2098.000000	99.653567 
2097.000000	99.654525 
2096.000000	99.655249 
2095.000000	99.656217 
2094.000000	99.656626 
2093.000000	99.654941 
2092.000000	99.651109 
2091.000000	99.647461 
2090.000000	99.646555 
2089.000000	99.648446 
2088.000000	99.650749 
2087.000000	99.651325 
2086.000000	99.650352 
2085.000000	99.649652 
2084.000000	99.650602 
2083.000000	99.652938 
2082.000000	99.655326 
2081.000000	99.656844 
2080.000000	99.657757 
2079.000000	99.658893 
2078.000000	99.660629 
2077.000000	99.662853 
2076.000000	99.665699 
2075.000000	99.669552 
2074.000000	99.674045 
2073.000000	99.677632 
2072.000000	99.678897 
2071.000000	99.677928 
2070.000000	99.676185 
2069.000000	99.675220 
2068.000000	99.675650 
2067.000000	99.677223 
2066.000000	99.679239 
2065.000000	99.680906 
2064.000000	99.681825 
2063.000000	99.682315 
2062.000000	99.683081 
2061.000000	99.684541 
2060.000000	99.686551 
2059.000000	99.688737 
2058.000000	99.690814 
2057.000000	99.692590 
2056.000000	99.693846 
2055.000000	99.694378 
2054.000000	99.694200 
2053.000000	99.693692 
2052.000000	99.693549 
2051.000000	99.694457 
2050.000000	99.696631 
2049.000000	99.699558 
2048.000000	99.702224 
2047.000000	99.703882 
2046.000000	99.704513 
2045.000000	99.704676 
2044.000000	99.705082 
2043.000000	99.706073 
2042.000000	99.707549 
2041.000000	99.709280 
2040.000000	99.711119 
2039.000000	99.712976 
2038.000000	99.714827 
2037.000000	99.716851 
2036.000000	99.719187 
2035.000000	99.721338 
2034.000000	99.722373 
2033.000000	99.722076 
2032.000000	99.721434 
2031.000000	99.721444 
2030.000000	99.721858 
2029.000000	99.721748 
2028.000000	99.720874 
2027.000000	99.719880 
2026.000000	99.719468 
2025.000000	99.719967 
2024.000000	99.721363 
2023.000000	99.723023 
2022.000000	99.723620 
2021.000000	99.722287 
2020.000000	99.720028 
2019.000000	99.719126 
2018.000000	99.720611 
2017.000000	99.722788 
2016.000000	99.722863 
2015.000000	99.719989 
2014.000000	99.716089 
2013.000000	99.713836 
2012.000000	99.714102 
2011.000000	99.715721 
2010.000000	99.717477 
2009.000000	99.719902 
2008.000000	99.724242 
2007.000000	99.729957 
2006.000000	99.734521 
2005.000000	99.736185 
2004.000000	99.735717 
2003.000000	99.734872 
2002.000000	99.734012 
2001.000000	99.732292 
2000.000000	99.729340 
1999.000000	99.725548 
1998.000000	99.721491 
1997.000000	99.718112 
1996.000000	99.716763 
1995.000000	99.718037 
1994.000000	99.720803 
1993.000000	99.722928 
1992.000000	99.723274 
1991.000000	99.722398 
1990.000000	99.721343 
1989.000000	99.720670 
1988.000000	99.720663 
1987.000000	99.721459 
1986.000000	99.722618 
1985.000000	99.723185 
1984.000000	99.722598 
1983.000000	99.721184 
1982.000000	99.719553 
1981.000000	99.717926 
1980.000000	99.716357 
1979.000000	99.715284 
1978.000000	99.715352 
1977.000000	99.716594 
1976.000000	99.718062 
1975.000000	99.718506 
1974.000000	99.717632 
1973.000000	99.716679 
1972.000000	99.717434 
1971.000000	99.720382 
1970.000000	99.723863 
1969.000000	99.725343 
1968.000000	99.723826 
1967.000000	99.720522 
1966.000000	99.717563 
1965.000000	99.715883 
1964.000000	99.714990 
1963.000000	99.714282 
1962.000000	99.713781 
1961.000000	99.713736 
1960.000000	99.714104 
1959.000000	99.714707 
1958.000000	99.715647 
1957.000000	99.717075 
1956.000000	99.718489 
1955.000000	99.718688 
1954.000000	99.716825 
1953.000000	99.713353 
1952.000000	99.709684 
1951.000000	99.706833 
1950.000000	99.704809 
1949.000000	99.703296 
1948.000000	99.702251 
1947.000000	99.701443 
1946.000000	99.699864 
1945.000000	99.696386 
1944.000000	99.691203 
1943.000000	99.686400 
1942.000000	99.684454 
1941.000000	99.685976 
1940.000000	99.689197 
1939.000000	99.691652 
1938.000000	99.692414 
1937.000000	99.692522 
1936.000000	99.693253 
1935.000000	99.694209 
1934.000000	99.693817 
1933.000000	99.691730 
1932.000000	99.689806 
1931.000000	99.690023 
1930.000000	99.692011 
1929.000000	99.693532 
1928.000000	99.693175 
1927.000000	99.691450 
1926.000000	99.689300 
1925.000000	99.686975 
1924.000000	99.684577 
1923.000000	99.682816 
1922.000000	99.682408 
1921.000000	99.682987 
1920.000000	99.683234 
1919.000000	99.681887 
1918.000000	99.678713 
1917.000000	99.674881 
1916.000000	99.671998 
1915.000000	99.670536 
1914.000000	99.669885 
1913.000000	99.669512 
1912.000000	99.669505 
1911.000000	99.669950 
1910.000000	99.670269 
1909.000000	99.669827 
1908.000000	99.668935 
1907.000000	99.668480 
1906.000000	99.668737 
1905.000000	99.669140 
1904.000000	99.669109 
1903.000000	99.668555 
1902.000000	99.667600 
1901.000000	99.666439 
1900.000000	99.665449 
1899.000000	99.665041 
1898.000000	99.665351 
1897.000000	99.666220 
1896.000000	99.667314 
1895.000000	99.668072 
1894.000000	99.667921 
1893.000000	99.666882 
1892.000000	99.665789 
1891.000000	99.665429 
1890.000000	99.665532 
1889.000000	99.665120 
1888.000000	99.663955 
1887.000000	99.662812 
1886.000000	99.662355 
1885.000000	99.662594 
1884.000000	99.663274 
1883.000000	99.664195 
1882.000000	99.665013 
1881.000000	99.665313 
1880.000000	99.665183 
1879.000000	99.665313 
1878.000000	99.666277 
1877.000000	99.667948 
1876.000000	99.669691 
1875.000000	99.670864 
1874.000000	99.670990 
1873.000000	99.669917 
1872.000000	99.668157 
1871.000000	99.666652 
1870.000000	99.665848 
1869.000000	99.665305 
1868.000000	99.664776 
1867.000000	99.664928 
1866.000000	99.666137 
1865.000000	99.667566 
1864.000000	99.667857 
1863.000000	99.666425 
1862.000000	99.664032 
1861.000000	99.662299 
1860.000000	99.662389 
1859.000000	99.664241 
1858.000000	99.666722 
1857.000000	99.668628 
1856.000000	99.669725 
1855.000000	99.670567 
1854.000000	99.671560 
1853.000000	99.672519 
1852.000000	99.673066 
1851.000000	99.673121 
1850.000000	99.673076 
1849.000000	99.673591 
1848.000000	99.675014 
1847.000000	99.676929 
1846.000000	99.678471 
1845.000000	99.679222 
1844.000000	99.679756 
1843.000000	99.680844 
1842.000000	99.682139 
1841.000000	99.682674 
1840.000000	99.682132 
1839.000000	99.681059 
1838.000000	99.680240 
1837.000000	99.680013 
1836.000000	99.680228 
1835.000000	99.680625 
1834.000000	99.681011 
1833.000000	99.681231 
1832.000000	99.681082 
1831.000000	99.680417 
1830.000000	99.679558 
1829.000000	99.679314 
1828.000000	99.680055 
1827.000000	99.681243 
1826.000000	99.682066 
1825.000000	99.682255 
1824.000000	99.682208 
1823.000000	99.682238 
1822.000000	99.682027 
1821.000000	99.681266 
1820.000000	99.680449 
1819.000000	99.680479 
1818.000000	99.681567 
1817.000000	99.682905 
1816.000000	99.683560 
1815.000000	99.683545 
1814.000000	99.683500 
1813.000000	99.683806 
1812.000000	99.684280 
1811.000000	99.684711 
1810.000000	99.685093 
1809.000000	99.685229 
1808.000000	99.684820 
1807.000000	99.683844 
1806.000000	99.682515 
1805.000000	99.681169 
1804.000000	99.680214 
1803.000000	99.679851 
1802.000000	99.679734 
1801.000000	99.679255 
1800.000000	99.678500 
1799.000000	99.678320 
1798.000000	99.679103 
1797.000000	99.680364 
1796.000000	99.681543 
1795.000000	99.682554 
1794.000000	99.683355 
1793.000000	99.683527 
1792.000000	99.682853 
1791.000000	99.682135 
1790.000000	99.682108 
1789.000000	99.682461 
1788.000000	99.682746 
1787.000000	99.683109 
1786.000000	99.683832 
1785.000000	99.684611 
1784.000000	99.684892 
1783.000000	99.684553 
1782.000000	99.683831 
1781.000000	99.683058 
1780.000000	99.682541 
1779.000000	99.682490 
1778.000000	99.682921 
1777.000000	99.683717 
1776.000000	99.684708 
1775.000000	99.685523 
1774.000000	99.685894 
1773.000000	99.686119 
1772.000000	99.686754 
1771.000000	99.687879 
1770.000000	99.688760 
1769.000000	99.688491 
1768.000000	99.687013 
1767.000000	99.685363 
1766.000000	99.684541 
1765.000000	99.684434 
1764.000000	99.684375 
1763.000000	99.684067 
1762.000000	99.683782 
1761.000000	99.683854 
1760.000000	99.684190 
1759.000000	99.684633 
1758.000000	99.685353 
1757.000000	99.686697 
1756.000000	99.688482 
1755.000000	99.689801 
1754.000000	99.689998 
1753.000000	99.689196 
1752.000000	99.687910 
1751.000000	99.686210 
1750.000000	99.684013 
1749.000000	99.681890 
1748.000000	99.680644 
1747.000000	99.680506 
1746.000000	99.681035 
1745.000000	99.681617 
1744.000000	99.681804 
1743.000000	99.681536 
1742.000000	99.681055 
1741.000000	99.680469 
1740.000000	99.679850 
1739.000000	99.679805 
1738.000000	99.680789 
1737.000000	99.682104 
1736.000000	99.682848 
1735.000000	99.682904 
1734.000000	99.682429 
1733.000000	99.682068 
1732.000000	99.682370 
1731.000000	99.682581 
1730.000000	99.682082 
1729.000000	99.681288 
1728.000000	99.680866 
1727.000000	99.680915 
1726.000000	99.681205 
1725.000000	99.681620 
1724.000000	99.682078 
1723.000000	99.682461 
1722.000000	99.682603 
1721.000000	99.682290 
1720.000000	99.681700 
1719.000000	99.681772 
1718.000000	99.683236 
1717.000000	99.684692 
1716.000000	99.684701 
1715.000000	99.683927 
1714.000000	99.682982 
1713.000000	99.681631 
1712.000000	99.679890 
1711.000000	99.678351 
1710.000000	99.677599 
1709.000000	99.677604 
1708.000000	99.677755 
1707.000000	99.677512 
1706.000000	99.676721 
1705.000000	99.675492 
1704.000000	99.674187 
1703.000000	99.673098 
1702.000000	99.672264 
1701.000000	99.671412 
1700.000000	99.670087 
1699.000000	99.669072 
1698.000000	99.668736 
1697.000000	99.668110 
1696.000000	99.666645 
1695.000000	99.664811 
1694.000000	99.663285 
1693.000000	99.661936 
1692.000000	99.660436 
1691.000000	99.658871 
1690.000000	99.657517 
1689.000000	99.656403 
1688.000000	99.655295 
1687.000000	99.654016 
1686.000000	99.652727 
1685.000000	99.651592 
1684.000000	99.650258 
1683.000000	99.648782 
1682.000000	99.647340 
1681.000000	99.645724 
1680.000000	99.643927 
1679.000000	99.642082 
1678.000000	99.640019 
1677.000000	99.637518 
1676.000000	99.634885 
1675.000000	99.632834 
1674.000000	99.631843 
1673.000000	99.631677 
1672.000000	99.631609 
1671.000000	99.631012 
1670.000000	99.629321 
1669.000000	99.626549 
1668.000000	99.623737 
1667.000000	99.621560 
1666.000000	99.619821 
1665.000000	99.618181 
1664.000000	99.616666 
1663.000000	99.615432 
1662.000000	99.614276 
1661.000000	99.613192 
1660.000000	99.612590 
1659.000000	99.612423 
1658.000000	99.611913 
1657.000000	99.610036 
1656.000000	99.606252 
1655.000000	99.601099 
1654.000000	99.596243 
1653.000000	99.592600 
1652.000000	99.591753 
1651.000000	99.593965 
1650.000000	99.596555 
1649.000000	99.597665 
1648.000000	99.597811 
1647.000000	99.597459 
1646.000000	99.596618 
1645.000000	99.596284 
1644.000000	99.597241 
1643.000000	99.598851 
1642.000000	99.599796 
1641.000000	99.599461 
1640.000000	99.598417 
1639.000000	99.597384 
1638.000000	99.596653 
1637.000000	99.596738 
1636.000000	99.598184 
1635.000000	99.599839 
1634.000000	99.600413 
1633.000000	99.599737 
1632.000000	99.598266 
1631.000000	99.596969 
1630.000000	99.596558 
1629.000000	99.597030 
1628.000000	99.598273 
1627.000000	99.600100 
1626.000000	99.601857 
1625.000000	99.603161 
1624.000000	99.604472 
1623.000000	99.606247 
1622.000000	99.608333 
1621.000000	99.610622 
1620.000000	99.612725 
1619.000000	99.613887 
1618.000000	99.613932 
1617.000000	99.614024 
1616.000000	99.616481 
1615.000000	99.621428 
1614.000000	99.626251 
1613.000000	99.629613 
1612.000000	99.632569 
1611.000000	99.635968 
1610.000000	99.638620 
1609.000000	99.639608 
1608.000000	99.640100 
1607.000000	99.641221 
1606.000000	99.642655 
1605.000000	99.644261 
1604.000000	99.646545 
1603.000000	99.649142 
1602.000000	99.651070 
1601.000000	99.652588 
1600.000000	99.654982 
1599.000000	99.658467 
1598.000000	99.661936 
1597.000000	99.664622 
1596.000000	99.666644 
1595.000000	99.667941 
1594.000000	99.668113 
1593.000000	99.667817 
1592.000000	99.668658 
1591.000000	99.671115 
1590.000000	99.673932 
1589.000000	99.676126 
1588.000000	99.678221 
1587.000000	99.680790 
1586.000000	99.683156 
1585.000000	99.684531 
1584.000000	99.685253 
1583.000000	99.685839 
1582.000000	99.686290 
1581.000000	99.686695 
1580.000000	99.687114 
1579.000000	99.687014 
1578.000000	99.685945 
1577.000000	99.684635 
1576.000000	99.684563 
1575.000000	99.686043 
1574.000000	99.688039 
1573.000000	99.689719 
1572.000000	99.690976 
1571.000000	99.692012 
1570.000000	99.692698 
1569.000000	99.693051 
1568.000000	99.693457 
1567.000000	99.693777 
1566.000000	99.693756 
1565.000000	99.693564 
1564.000000	99.693473 
1563.000000	99.693382 
1562.000000	99.693092 
1561.000000	99.692860 
1560.000000	99.693174 
1559.000000	99.693668 
1558.000000	99.693828 
1557.000000	99.694130 
1556.000000	99.694511 
1555.000000	99.694712 
1554.000000	99.694727 
1553.000000	99.694676 
1552.000000	99.694627 
1551.000000	99.694577 
1550.000000	99.694518 
1549.000000	99.694445 
1548.000000	99.694349 
1547.000000	99.694222 
1546.000000	99.694065 
1545.000000	99.693887 
1544.000000	99.693694 
1543.000000	99.693497 
1542.000000	99.693296 
1541.000000	99.693080 
1540.000000	99.692831 
1539.000000	99.692544 
1538.000000	99.692219 
1537.000000	99.691863 
1536.000000	99.691474 
1535.000000	99.691050 
1534.000000	99.690576 
1533.000000	99.690039 
1532.000000	99.689464 
1531.000000	99.688916 
1530.000000	99.688421 
1529.000000	99.687922 
1528.000000	99.687347 
1527.000000	99.686721 
1526.000000	99.686150 
1525.000000	99.685669 
1524.000000	99.685235 
1523.000000	99.684846 
1522.000000	99.684412 
1521.000000	99.683588 
1520.000000	99.682306 
1519.000000	99.680855 
1518.000000	99.679329 
1517.000000	99.677774 
1516.000000	99.676441 
1515.000000	99.675524 
1514.000000	99.674854 
1513.000000	99.674130 
1512.000000	99.673185 
1511.000000	99.672058 
1510.000000	99.670818 
1509.000000	99.669541 
1508.000000	99.668575 
1507.000000	99.668112 
1506.000000	99.667275 
1505.000000	99.665490 
1504.000000	99.663464 
1503.000000	99.661666 
1502.000000	99.660050 
1501.000000	99.658362 
1500.000000	99.656196 
1499.000000	99.653467 
1498.000000	99.650589 
1497.000000	99.647563 
1496.000000	99.644268 
1495.000000	99.641821 
1494.000000	99.641218 
1493.000000	99.641913 
1492.000000	99.642604 
1491.000000	99.642286 
1490.000000	99.640407 
1489.000000	99.636748 
1488.000000	99.632111 
1487.000000	99.628225 
1486.000000	99.625373 
1485.000000	99.622435 
1484.000000	99.619082 
1483.000000	99.616045 
1482.000000	99.614081 
1481.000000	99.612815 
1480.000000	99.611332 
1479.000000	99.609482 
1478.000000	99.607456 
1477.000000	99.604817 
1476.000000	99.601287 
1475.000000	99.598382 
1474.000000	99.597327 
1473.000000	99.596288 
1472.000000	99.592442 
1471.000000	99.587215 
1470.000000	99.582930 
1469.000000	99.578847 
1468.000000	99.573802 
1467.000000	99.568960 
1466.000000	99.566446 
1465.000000	99.566153 
1464.000000	99.566106 
1463.000000	99.565388 
1462.000000	99.564136 
1461.000000	99.561647 
1460.000000	99.557218 
1459.000000	99.551025 
1458.000000	99.543340 
1457.000000	99.532566 
1456.000000	99.519831 
1455.000000	99.510832 
1454.000000	99.506938 
1453.000000	99.505800 
1452.000000	99.506081 
1451.000000	99.507689 
1450.000000	99.510334 
1449.000000	99.512648 
1448.000000	99.513377 
1447.000000	99.513800 
1446.000000	99.515917 
1445.000000	99.519454 
1444.000000	99.522710 
1443.000000	99.525017 
1442.000000	99.527268 
1441.000000	99.529711 
1440.000000	99.530703 
1439.000000	99.529059 
1438.000000	99.526956 
1437.000000	99.526541 
1436.000000	99.526026 
1435.000000	99.523966 
1434.000000	99.521137 
1433.000000	99.517295 
1432.000000	99.512351 
1431.000000	99.507098 
1430.000000	99.502629 
1429.000000	99.498946 
1428.000000	99.494788 
1427.000000	99.489573 
1426.000000	99.483854 
1425.000000	99.478780 
1424.000000	99.474280 
1423.000000	99.468617 
1422.000000	99.460648 
1421.000000	99.450266 
1420.000000	99.437705 
1419.000000	99.424056 
1418.000000	99.412772 
1417.000000	99.404594 
1416.000000	99.395546 
1415.000000	99.383085 
1414.000000	99.368584 
1413.000000	99.354972 
1412.000000	99.343755 
1411.000000	99.334661 
1410.000000	99.327234 
1409.000000	99.321211 
1408.000000	99.316523 
1407.000000	99.314108 
1406.000000	99.315289 
1405.000000	99.320467 
1404.000000	99.328339 
1403.000000	99.337178 
1402.000000	99.346613 
1401.000000	99.356972 
1400.000000	99.367679 
1399.000000	99.375809 
1398.000000	99.377050 
1397.000000	99.367891 
1396.000000	99.348416 
1395.000000	99.326989 
1394.000000	99.318306 
1393.000000	99.329755 
1392.000000	99.354581 
1391.000000	99.380003 
1390.000000	99.397441 
1389.000000	99.405315 
1388.000000	99.406006 
1387.000000	99.402740 
1386.000000	99.398627 
1385.000000	99.396063 
1384.000000	99.395799 
1383.000000	99.397126 
1382.000000	99.399224 
1381.000000	99.402222 
1380.000000	99.407188 
1379.000000	99.414916 
1378.000000	99.424996 
1377.000000	99.436292 
1376.000000	99.447753 
1375.000000	99.458554 
1374.000000	99.468443 
1373.000000	99.478382 
1372.000000	99.489345 
1371.000000	99.500807 
1370.000000	99.511376 
1369.000000	99.520903 
1368.000000	99.530456 
1367.000000	99.540427 
1366.000000	99.550116 
1365.000000	99.559157 
1364.000000	99.568240 
1363.000000	99.577926 
1362.000000	99.587419 
1361.000000	99.595742 
1360.000000	99.603331 
1359.000000	99.611472 
1358.000000	99.620922 
1357.000000	99.631518 
1356.000000	99.642294 
1355.000000	99.651963 
1354.000000	99.659954 
1353.000000	99.666927 
1352.000000	99.673611 
1351.000000	99.679338 
1350.000000	99.682716 
1349.000000	99.684811 
1348.000000	99.687657 
1347.000000	99.691193 
1346.000000	99.693846 
1345.000000	99.695555 
1344.000000	99.697899 
1343.000000	99.701243 
1342.000000	99.704042 
1341.000000	99.705542 
1340.000000	99.707042 
1339.000000	99.709568 
1338.000000	99.712586 
1337.000000	99.715931 
1336.000000	99.720334 
1335.000000	99.725233 
1334.000000	99.728300 
1333.000000	99.728331 
1332.000000	99.727016 
1331.000000	99.726573 
1330.000000	99.726929 
1329.000000	99.726829 
1328.000000	99.726240 
1327.000000	99.725960 
1326.000000	99.725877 
1325.000000	99.725613 
1324.000000	99.725460 
1323.000000	99.725717 
1322.000000	99.726101 
1321.000000	99.726688 
1320.000000	99.728480 
1319.000000	99.731948 
1318.000000	99.735611 
1317.000000	99.737165 
1316.000000	99.735764 
1315.000000	99.732484 
1314.000000	99.729105 
1313.000000	99.726870 
1312.000000	99.726067 
1311.000000	99.726281 
1310.000000	99.727076 
1309.000000	99.728514 
1308.000000	99.730694 
1307.000000	99.732898 
1306.000000	99.733801 
1305.000000	99.733184 
1304.000000	99.732250 
1303.000000	99.732018 
1302.000000	99.732105 
1301.000000	99.731693 
1300.000000	99.730995 
1299.000000	99.731084 
1298.000000	99.732585 
1297.000000	99.734994 
1296.000000	99.737125 
1295.000000	99.737759 
1294.000000	99.736399 
1293.000000	99.733846 
1292.000000	99.731674 
1291.000000	99.730863 
1290.000000	99.731142 
1289.000000	99.731750 
1288.000000	99.732296 
1287.000000	99.732513 
1286.000000	99.731884 
1285.000000	99.730081 
1284.000000	99.727353 
1283.000000	99.724155 
1282.000000	99.720466 
1281.000000	99.716012 
1280.000000	99.711252 
1279.000000	99.707047 
1278.000000	99.703570 
1277.000000	99.700503 
1276.000000	99.698106 
1275.000000	99.696934 
1274.000000	99.696452 
1273.000000	99.694982 
1272.000000	99.691460 
1271.000000	99.686536 
1270.000000	99.681462 
1269.000000	99.676452 
1268.000000	99.670756 
1267.000000	99.663954 
1266.000000	99.656521 
1265.000000	99.649190 
1264.000000	99.642283 
1263.000000	99.635721 
1262.000000	99.629271 
1261.000000	99.622790 
1260.000000	99.616541 
1259.000000	99.611023 
1258.000000	99.606242 
1257.000000	99.601478 
1256.000000	99.596444 
1255.000000	99.592306 
1254.000000	99.590464 
1253.000000	99.590190 
1252.000000	99.588799 
1251.000000	99.585022 
1250.000000	99.581302 
1249.000000	99.581477 
1248.000000	99.586595 
1247.000000	99.593742 
1246.000000	99.598369 
1245.000000	99.596732 
1244.000000	99.587241 
1243.000000	99.572443 
1242.000000	99.560033 
1241.000000	99.558333 
1240.000000	99.568639 
1239.000000	99.582906 
1238.000000	99.590971 
1237.000000	99.589560 
1236.000000	99.582422 
1235.000000	99.573843 
1234.000000	99.565026 
1233.000000	99.556161 
1232.000000	99.548155 
1231.000000	99.540950 
1230.000000	99.532934 
1229.000000	99.523818 
1228.000000	99.516254 
1227.000000	99.512757 
1226.000000	99.512261 
1225.000000	99.511492 
1224.000000	99.508854 
1223.000000	99.505211 
1222.000000	99.501557 
1221.000000	99.497841 
1220.000000	99.494041 
1219.000000	99.490635 
1218.000000	99.487488 
1217.000000	99.483199 
1216.000000	99.476099 
1215.000000	99.465474 
1214.000000	99.451673 
1213.000000	99.435421 
1212.000000	99.417346 
1211.000000	99.398243 
1210.000000	99.379550 
1209.000000	99.362929 
1208.000000	99.348724 
1207.000000	99.335006 
1206.000000	99.319136 
1205.000000	99.300581 
1204.000000	99.281253 
1203.000000	99.262852 
1202.000000	99.245063 
1201.000000	99.226848 
1200.000000	99.208116 
1199.000000	99.189151 
1198.000000	99.169649 
1197.000000	99.149377 
1196.000000	99.128592 
1195.000000	99.106834 
1194.000000	99.082593 
1193.000000	99.055436 
1192.000000	99.027517 
1191.000000	99.001430 
1190.000000	98.977104 
1189.000000	98.952422 
1188.000000	98.926428 
1187.000000	98.900203 
1186.000000	98.874813 
1185.000000	98.849983 
1184.000000	98.824792 
1183.000000	98.798351 
1182.000000	98.769988 
1181.000000	98.740100 
1180.000000	98.710443 
1179.000000	98.682044 
1178.000000	98.653236 
1177.000000	98.621495 
1176.000000	98.586764 
1175.000000	98.550928 
1174.000000	98.514318 
1173.000000	98.475271 
1172.000000	98.433604 
1171.000000	98.392035 
1170.000000	98.353107 
1169.000000	98.316495 
1168.000000	98.280439 
1167.000000	98.244599 
1166.000000	98.211008 
1165.000000	98.183586 
1164.000000	98.167012 
1163.000000	98.164229 
1162.000000	98.173903 
1161.000000	98.191133 
1160.000000	98.210747 
1159.000000	98.228632 
1158.000000	98.240344 
1157.000000	98.241047 
1156.000000	98.228070 
1155.000000	98.202996 
1154.000000	98.171103 
1153.000000	98.138862 
1152.000000	98.110744 
1151.000000	98.086593 
1150.000000	98.062181 
1149.000000	98.033826 
1148.000000	98.002287 
1147.000000	97.970952 
1146.000000	97.941042 
1145.000000	97.910703 
1144.000000	97.878257 
1143.000000	97.843956 
1142.000000	97.808835 
1141.000000	97.774327 
1140.000000	97.742826 
1139.000000	97.715756 
1138.000000	97.690585 
1137.000000	97.662312 
1136.000000	97.628539 
1135.000000	97.591114 
1134.000000	97.552674 
1133.000000	97.513866 
1132.000000	97.474463 
1131.000000	97.434990 
1130.000000	97.396481 
1129.000000	97.360054 
1128.000000	97.326318 
1127.000000	97.293303 
1126.000000	97.256018 
1125.000000	97.211243 
1124.000000	97.162440 
1123.000000	97.116779 
1122.000000	97.077180 
1121.000000	97.040378 
1120.000000	97.002609 
1119.000000	96.963187 
1118.000000	96.922143 
1117.000000	96.878742 
1116.000000	96.833741 
1115.000000	96.789602 
1114.000000	96.747084 
1113.000000	96.704612 
1112.000000	96.661783 
1111.000000	96.619914 
1110.000000	96.578153 
1109.000000	96.533168 
1108.000000	96.484307 
1107.000000	96.435587 
1106.000000	96.390780 
1105.000000	96.349534 
1104.000000	96.309210 
1103.000000	96.268087 
1102.000000	96.225927 
1101.000000	96.183413 
1100.000000	96.141721 
1099.000000	96.101750 
1098.000000	96.062820 
1097.000000	96.023578 
1096.000000	95.983760 
1095.000000	95.943719 
1094.000000	95.902434 
1093.000000	95.857669 
1092.000000	95.808394 
1091.000000	95.755910 
1090.000000	95.702509 
1089.000000	95.650036 
1088.000000	95.599682 
1087.000000	95.551708 
1086.000000	95.504984 
1085.000000	95.458127 
1084.000000	95.411288 
1083.000000	95.365367 
1082.000000	95.319560 
1081.000000	95.271914 
1080.000000	95.222705 
1079.000000	95.174859 
1078.000000	95.130425 
1077.000000	95.089284 
1076.000000	95.051929 
1075.000000	95.020295 
1074.000000	94.994622 
1073.000000	94.972212 
1072.000000	94.949368 
1071.000000	94.920724 
1070.000000	94.877159 
1069.000000	94.811264 
1068.000000	94.728360 
1067.000000	94.648164 
1066.000000	94.589915 
1065.000000	94.557034 
1064.000000	94.537970 
1063.000000	94.517405 
1062.000000	94.484097 
1061.000000	94.432433 
1060.000000	94.363607 
1059.000000	94.286846 
1058.000000	94.215551 
1057.000000	94.159261 
1056.000000	94.118489 
1055.000000	94.085773 
1054.000000	94.051509 
1053.000000	94.011208 
1052.000000	93.968089 
1051.000000	93.927341 
1050.000000	93.888660 
1049.000000	93.847430 
1048.000000	93.802217 
1047.000000	93.756674 
1046.000000	93.714272 
1045.000000	93.675143 
1044.000000	93.637836 
1043.000000	93.600703 
1042.000000	93.562075 
1041.000000	93.522379 
1040.000000	93.485658 
1039.000000	93.456205 
1038.000000	93.434720 
1037.000000	93.420217 
1036.000000	93.413229 
1035.000000	93.413466 
1034.000000	93.416902 
1033.000000	93.418955 
1032.000000	93.417081 
1031.000000	93.406552 
1030.000000	93.380319 
1029.000000	93.341298 
1028.000000	93.309754 
1027.000000	93.306929 
1026.000000	93.331766 
1025.000000	93.362170 
1024.000000	93.379157 
1023.000000	93.381081 
1022.000000	93.374979 
1021.000000	93.365836 
1020.000000	93.357204 
1019.000000	93.352453 
1018.000000	93.350431 
1017.000000	93.346285 
1016.000000	93.339634 
1015.000000	93.335914 
1014.000000	93.337568 
1013.000000	93.340470 
1012.000000	93.341248 
1011.000000	93.341638 
1010.000000	93.343343 
1009.000000	93.344988 
1008.000000	93.346768 
1007.000000	93.352253 
1006.000000	93.363052 
1005.000000	93.376643 
1004.000000	93.391041 
1003.000000	93.406434 
1002.000000	93.421174 
1001.000000	93.432015 
1000.000000	93.439675 
999.000000	 93.448564 
998.000000	 93.459922 
997.000000	 93.471075 
996.000000	 93.482347 
995.000000	 93.498091 
994.000000	 93.519122 
993.000000	 93.540391 
992.000000	 93.558251 
991.000000	 93.574355 
990.000000	 93.590628 
989.000000	 93.606344 
988.000000	 93.622278 
987.000000	 93.642205 
986.000000	 93.668059 
985.000000	 93.698408 
984.000000	 93.732596 
983.000000	 93.771082 
982.000000	 93.811762 
981.000000	 93.851261 
980.000000	 93.890533 
979.000000	 93.934385 
978.000000	 93.984701 
977.000000	 94.039189 
976.000000	 94.096693 
975.000000	 94.157633 
974.000000	 94.219111 
973.000000	 94.276616 
972.000000	 94.331821 
971.000000	 94.392218 
970.000000	 94.461352 
969.000000	 94.534874 
968.000000	 94.607213 
967.000000	 94.676780 
966.000000	 94.743722 
965.000000	 94.808260 
964.000000	 94.872579 
963.000000	 94.939332 
962.000000	 95.007232 
961.000000	 95.072648 
960.000000	 95.135518 
959.000000	 95.198465 
958.000000	 95.260307 
957.000000	 95.316604 
956.000000	 95.367174 
955.000000	 95.417091 
954.000000	 95.469292 
953.000000	 95.521837 
952.000000	 95.573351 
951.000000	 95.624942 
950.000000	 95.675275 
949.000000	 95.719808 
948.000000	 95.757083 
947.000000	 95.790731 
946.000000	 95.823392 
945.000000	 95.853484 
944.000000	 95.880197 
943.000000	 95.907146 
942.000000	 95.938446 
941.000000	 95.974128 
940.000000	 96.010748 
939.000000	 96.043612 
938.000000	 96.068549 
937.000000	 96.085754 
936.000000	 96.102420 
935.000000	 96.127301 
934.000000	 96.161736 
933.000000	 96.199746 
932.000000	 96.236566 
931.000000	 96.272223 
930.000000	 96.306873 
929.000000	 96.338258 
928.000000	 96.365101 
927.000000	 96.388597 
926.000000	 96.409775 
925.000000	 96.429473 
924.000000	 96.451010 
923.000000	 96.477926 
922.000000	 96.508429 
921.000000	 96.536725 
920.000000	 96.560247 
919.000000	 96.580977 
918.000000	 96.599850 
917.000000	 96.615492 
916.000000	 96.628958 
915.000000	 96.643855 
914.000000	 96.660587 
913.000000	 96.676195 
912.000000	 96.691537 
911.000000	 96.712956 
910.000000	 96.744556 
909.000000	 96.783683 
908.000000	 96.825992 
907.000000	 96.870272 
906.000000	 96.916202 
905.000000	 96.962091 
904.000000	 97.007442 
903.000000	 97.054388 
902.000000	 97.104824 
901.000000	 97.158820 
900.000000	 97.216352 
899.000000	 97.277158 
898.000000	 97.338232 
897.000000	 97.395141 
896.000000	 97.446203 
895.000000	 97.492614 
894.000000	 97.535393 
893.000000	 97.576159 
892.000000	 97.620182 
891.000000	 97.673727 
890.000000	 97.737500 
889.000000	 97.805800 
888.000000	 97.871643 
887.000000	 97.929638 
886.000000	 97.976263 
885.000000	 98.012857 
884.000000	 98.046996 
883.000000	 98.084632 
882.000000	 98.121603 
881.000000	 98.150170 
880.000000	 98.173623 
879.000000	 98.205683 
878.000000	 98.253083 
877.000000	 98.307111 
876.000000	 98.355863 
875.000000	 98.397038 
874.000000	 98.434593 
873.000000	 98.470390 
872.000000	 98.504906 
871.000000	 98.540951 
870.000000	 98.581444 
869.000000	 98.627099 
868.000000	 98.679161 
867.000000	 98.739275 
866.000000	 98.803218 
865.000000	 98.860436 
864.000000	 98.904903 
863.000000	 98.942617 
862.000000	 98.983605 
861.000000	 99.029288 
860.000000	 99.072935 
859.000000	 99.110376 
858.000000	 99.144510 
857.000000	 99.179752 
856.000000	 99.217082 
855.000000	 99.255546 
854.000000	 99.294627 
853.000000	 99.333063 
852.000000	 99.367624 
851.000000	 99.395639 
850.000000	 99.418581 
849.000000	 99.441461 
848.000000	 99.467869 
847.000000	 99.496246 
846.000000	 99.521958 
845.000000	 99.542375 
844.000000	 99.558022 
843.000000	 99.569194 
842.000000	 99.574836 
841.000000	 99.575844 
840.000000	 99.575687 
839.000000	 99.575248 
838.000000	 99.570594 
837.000000	 99.559428 
836.000000	 99.546314 
835.000000	 99.536737 
834.000000	 99.529070 
833.000000	 99.518897 
832.000000	 99.509375 
831.000000	 99.508951 
830.000000	 99.517768 
829.000000	 99.524596 
828.000000	 99.521338 
827.000000	 99.514219 
826.000000	 99.515411 
825.000000	 99.527715 
824.000000	 99.543121 
823.000000	 99.553981 
822.000000	 99.560667 
821.000000	 99.569051 
820.000000	 99.583141 
819.000000	 99.599860 
818.000000	 99.610743 
817.000000	 99.609988 
816.000000	 99.599547 
815.000000	 99.583709 
814.000000	 99.560557 
813.000000	 99.523330 
812.000000	 99.469009 
811.000000	 99.399245 
810.000000	 99.312269 
809.000000	 99.201181 
808.000000	 99.063878 
807.000000	 98.909115 
806.000000	 98.747822 
805.000000	 98.582549 
804.000000	 98.411314 
803.000000	 98.238999 
802.000000	 98.078755 
801.000000	 97.942609 
800.000000	 97.834994 
799.000000	 97.754848 
798.000000	 97.700605 
797.000000	 97.672412 
796.000000	 97.669655 
795.000000	 97.686302 
794.000000	 97.711662 
793.000000	 97.739035 
792.000000	 97.770753 
791.000000	 97.809994 
790.000000	 97.850141 
789.000000	 97.877935 
788.000000	 97.885392 
787.000000	 97.872950 
786.000000	 97.842953 
785.000000	 97.796870 
784.000000	 97.738589 
783.000000	 97.674114 
782.000000	 97.607428 
781.000000	 97.541635 
780.000000	 97.483463 
779.000000	 97.440707 
778.000000	 97.415845 
777.000000	 97.408282 
776.000000	 97.421358 
775.000000	 97.459310 
774.000000	 97.517888 
773.000000	 97.586111 
772.000000	 97.657477 
771.000000	 97.731703 
770.000000	 97.805833 
769.000000	 97.872117 
768.000000	 97.925549 
767.000000	 97.966614 
766.000000	 97.997108 
765.000000	 98.020651 
764.000000	 98.046262 
763.000000	 98.081908 
762.000000	 98.123222 
761.000000	 98.157291 
760.000000	 98.179495 
759.000000	 98.198851 
758.000000	 98.225411 
757.000000	 98.260162 
756.000000	 98.298336 
755.000000	 98.333986 
754.000000	 98.359993 
753.000000	 98.373327 
752.000000	 98.383530 
751.000000	 98.407402 
750.000000	 98.450452 
749.000000	 98.499560 
748.000000	 98.537669 
747.000000	 98.560547 
746.000000	 98.576679 
745.000000	 98.596816 
744.000000	 98.627098 
743.000000	 98.667445 
742.000000	 98.712970 
741.000000	 98.759720 
740.000000	 98.809164 
739.000000	 98.862868 
738.000000	 98.914423 
737.000000	 98.953841 
736.000000	 98.979750 
735.000000	 99.000054 
734.000000	 99.020794 
733.000000	 99.042231 
732.000000	 99.065925 
731.000000	 99.095672 
730.000000	 99.128498 
729.000000	 99.154222 
728.000000	 99.168107 
727.000000	 99.176369 
726.000000	 99.185602 
725.000000	 99.194012 
724.000000	 99.198034 
723.000000	 99.200718 
722.000000	 99.208320 
721.000000	 99.224082 
720.000000	 99.249462 
719.000000	 99.285346 
718.000000	 99.327212 
717.000000	 99.364551 
716.000000	 99.389794 
715.000000	 99.404159 
714.000000	 99.412934 
713.000000	 99.420351 
712.000000	 99.431679 
711.000000	 99.453366 
710.000000	 99.485036 
709.000000	 99.515630 
708.000000	 99.532606 
707.000000	 99.531980 
706.000000	 99.517527 
705.000000	 99.494824 
704.000000	 99.469469 
703.000000	 99.446523 
702.000000	 99.426368 
701.000000	 99.402792 
700.000000	 99.367411 
699.000000	 99.313623 
698.000000	 99.238928 
697.000000	 99.150268 
696.000000	 99.067322 
695.000000	 99.012760 
694.000000	 98.995463 
693.000000	 99.008515 
692.000000	 99.042701 
691.000000	 99.092952 
690.000000	 99.151937 
689.000000	 99.208614 
688.000000	 99.257854 
687.000000	 99.302312 
686.000000	 99.339756 
685.000000	 99.360435 
684.000000	 99.363168 
683.000000	 99.362607 
682.000000	 99.374292 
681.000000	 99.400285 
680.000000	 99.432787 
679.000000	 99.462506 
678.000000	 99.480619 
677.000000	 99.484855 
676.000000	 99.487481 
675.000000	 99.504194 
674.000000	 99.532771 
673.000000	 99.552396 
672.000000	 99.547828 
671.000000	 99.525559 
670.000000	 99.505657 
669.000000	 99.510435 
668.000000	 99.550682 
667.000000	 99.604972 
666.000000	 99.644825 
665.000000	 99.665198 
664.000000	 99.675392 
663.000000	 99.691178 
662.000000	 99.719272 
661.000000	 99.747214 
660.000000	 99.759557 
659.000000	 99.756511 
658.000000	 99.748261 
657.000000	 99.739039 
656.000000	 99.727312 
655.000000	 99.716884 
654.000000	 99.715977 
653.000000	 99.723650 
652.000000	 99.729023 
651.000000	 99.726706 
650.000000	 99.723371 

