4000.000000	99.554111 
3999.000000	99.553763 
3998.000000	99.552512 
3997.000000	99.552410 
3996.000000	99.553782 
3995.000000	99.555401 
3994.000000	99.556355 
3993.000000	99.557044 
3992.000000	99.558182 
3991.000000	99.559236 
3990.000000	99.558508 
3989.000000	99.554914 
3988.000000	99.549522 
3987.000000	99.545056 
3986.000000	99.543702 
3985.000000	99.545435 
3984.000000	99.548483 
3983.000000	99.551435 
3982.000000	99.554556 
3981.000000	99.558887 
3980.000000	99.564410 
3979.000000	99.569611 
3978.000000	99.572774 
3977.000000	99.573434 
3976.000000	99.572494 
3975.000000	99.571033 
3974.000000	99.569210 
3973.000000	99.566477 
3972.000000	99.562890 
3971.000000	99.559853 
3970.000000	99.559293 
3969.000000	99.562039 
3968.000000	99.566995 
3967.000000	99.571806 
3966.000000	99.574226 
3965.000000	99.573184 
3964.000000	99.569422 
3963.000000	99.565554 
3962.000000	99.564587 
3961.000000	99.567292 
3960.000000	99.571130 
3959.000000	99.572393 
3958.000000	99.569816 
3957.000000	99.565872 
3956.000000	99.564094 
3955.000000	99.565335 
3954.000000	99.567091 
3953.000000	99.566312 
3952.000000	99.562459 
3951.000000	99.557727 
3950.000000	99.554789 
3949.000000	99.554568 
3948.000000	99.555869 
3947.000000	99.557064 
3946.000000	99.557585 
3945.000000	99.557664 
3944.000000	99.557285 
3943.000000	99.556254 
3942.000000	99.554879 
3941.000000	99.553805 
3940.000000	99.553383 
3939.000000	99.553497 
3938.000000	99.553801 
3937.000000	99.554233 
3936.000000	99.555127 
3935.000000	99.556762 
3934.000000	99.558935 
3933.000000	99.561018 
3932.000000	99.562623 
3931.000000	99.563987 
3930.000000	99.565434 
3929.000000	99.566330 
3928.000000	99.565007 
3927.000000	99.560536 
3926.000000	99.554378 
3925.000000	99.549870 
3924.000000	99.549693 
3923.000000	99.553259 
3922.000000	99.557288 
3921.000000	99.558937 
3920.000000	99.558054 
3919.000000	99.556793 
3918.000000	99.557017 
3917.000000	99.558499 
3916.000000	99.559881 
3915.000000	99.560546 
3914.000000	99.560798 
3913.000000	99.560686 
3912.000000	99.559628 
3911.000000	99.557232 
3910.000000	99.554065 
3909.000000	99.551602 
3908.000000	99.551375 
3907.000000	99.553950 
3906.000000	99.558877 
3905.000000	99.565063 
3904.000000	99.571303 
3903.000000	99.575966 
3902.000000	99.576746 
3901.000000	99.572485 
3900.000000	99.564505 
3899.000000	99.555748 
3898.000000	99.548551 
3897.000000	99.543115 
3896.000000	99.538738 
3895.000000	99.535829 
3894.000000	99.535958 
3893.000000	99.540406 
3892.000000	99.548582 
3891.000000	99.558008 
3890.000000	99.566317 
3889.000000	99.572626 
3888.000000	99.576717 
3887.000000	99.577139 
3886.000000	99.572772 
3885.000000	99.565763 
3884.000000	99.560097 
3883.000000	99.557193 
3882.000000	99.555310 
3881.000000	99.552975 
3880.000000	99.551048 
3879.000000	99.550925 
3878.000000	99.552546 
3877.000000	99.554783 
3876.000000	99.556101 
3875.000000	99.555939 
3874.000000	99.555759 
3873.000000	99.557095 
3872.000000	99.558516 
3871.000000	99.556657 
3870.000000	99.551370 
3869.000000	99.547462 
3868.000000	99.548964 
3867.000000	99.554627 
3866.000000	99.559576 
3865.000000	99.560216 
3864.000000	99.558549 
3863.000000	99.558761 
3862.000000	99.561042 
3861.000000	99.561918 
3860.000000	99.558151 
3859.000000	99.548788 
3858.000000	99.536038 
3857.000000	99.524584 
3856.000000	99.519876 
3855.000000	99.522819 
3854.000000	99.528634 
3853.000000	99.535108 
3852.000000	99.543650 
3851.000000	99.553355 
3850.000000	99.561863 
3849.000000	99.566994 
3848.000000	99.568268 
3847.000000	99.567003 
3846.000000	99.564782 
3845.000000	99.563019 
3844.000000	99.562984 
3843.000000	99.564194 
3842.000000	99.564741 
3841.000000	99.563994 
3840.000000	99.563163 
3839.000000	99.563715 
3838.000000	99.565543 
3837.000000	99.566427 
3836.000000	99.564811 
3835.000000	99.561306 
3834.000000	99.558119 
3833.000000	99.557059 
3832.000000	99.557835 
3831.000000	99.558761 
3830.000000	99.558581 
3829.000000	99.557067 
3828.000000	99.554933 
3827.000000	99.553306 
3826.000000	99.553294 
3825.000000	99.556174 
3824.000000	99.562568 
3823.000000	99.569906 
3822.000000	99.573302 
3821.000000	99.571601 
3820.000000	99.568793 
3819.000000	99.567333 
3818.000000	99.566614 
3817.000000	99.565047 
3816.000000	99.562184 
3815.000000	99.559806 
3814.000000	99.559475 
3813.000000	99.560028 
3812.000000	99.558961 
3811.000000	99.556020 
3810.000000	99.553772 
3809.000000	99.554613 
3808.000000	99.558091 
3807.000000	99.561764 
3806.000000	99.564420 
3805.000000	99.566255 
3804.000000	99.566390 
3803.000000	99.562277 
3802.000000	99.552879 
3801.000000	99.542485 
3800.000000	99.536977 
3799.000000	99.536946 
3798.000000	99.538507 
3797.000000	99.538162 
3796.000000	99.535917 
3795.000000	99.534523 
3794.000000	99.536421 
3793.000000	99.541563 
3792.000000	99.547511 
3791.000000	99.551451 
3790.000000	99.552054 
3789.000000	99.550253 
3788.000000	99.548539 
3787.000000	99.549364 
3786.000000	99.553717 
3785.000000	99.560858 
3784.000000	99.569041 
3783.000000	99.576495 
3782.000000	99.581622 
3781.000000	99.582890 
3780.000000	99.579856 
3779.000000	99.574069 
3778.000000	99.567568 
3777.000000	99.561306 
3776.000000	99.555887 
3775.000000	99.552309 
3774.000000	99.552006 
3773.000000	99.555680 
3772.000000	99.561686 
3771.000000	99.565859 
3770.000000	99.564981 
3769.000000	99.560372 
3768.000000	99.555893 
3767.000000	99.554283 
3766.000000	99.555970 
3765.000000	99.559646 
3764.000000	99.563905 
3763.000000	99.568036 
3762.000000	99.571363 
3761.000000	99.573082 
3760.000000	99.573582 
3759.000000	99.574994 
3758.000000	99.578107 
3757.000000	99.580732 
3756.000000	99.581153 
3755.000000	99.580328 
3754.000000	99.580949 
3753.000000	99.584443 
3752.000000	99.588475 
3751.000000	99.588763 
3750.000000	99.583294 
3749.000000	99.574465 
3748.000000	99.566960 
3747.000000	99.563930 
3746.000000	99.564513 
3745.000000	99.564167 
3744.000000	99.560976 
3743.000000	99.558625 
3742.000000	99.560036 
3741.000000	99.563536 
3740.000000	99.566037 
3739.000000	99.567301 
3738.000000	99.568572 
3737.000000	99.569102 
3736.000000	99.567913 
3735.000000	99.565932 
3734.000000	99.564277 
3733.000000	99.562295 
3732.000000	99.559722 
3731.000000	99.558241 
3730.000000	99.559155 
3729.000000	99.561976 
3728.000000	99.565136 
3727.000000	99.567691 
3726.000000	99.570425 
3725.000000	99.574296 
3724.000000	99.578081 
3723.000000	99.578976 
3722.000000	99.576142 
3721.000000	99.571823 
3720.000000	99.568645 
3719.000000	99.567555 
3718.000000	99.567116 
3717.000000	99.564609 
3716.000000	99.558460 
3715.000000	99.548557 
3714.000000	99.535301 
3713.000000	99.519911 
3712.000000	99.506802 
3711.000000	99.502493 
3710.000000	99.508366 
3709.000000	99.518377 
3708.000000	99.524749 
3707.000000	99.523101 
3706.000000	99.513477 
3705.000000	99.498598 
3704.000000	99.481940 
3703.000000	99.467025 
3702.000000	99.457029 
3701.000000	99.452941 
3700.000000	99.451933 
3699.000000	99.449384 
3698.000000	99.442289 
3697.000000	99.430585 
3696.000000	99.417402 
3695.000000	99.407307 
3694.000000	99.402409 
3693.000000	99.400772 
3692.000000	99.398680 
3691.000000	99.393925 
3690.000000	99.387005 
3689.000000	99.379520 
3688.000000	99.372162 
3687.000000	99.365376 
3686.000000	99.360802 
3685.000000	99.359505 
3684.000000	99.360744 
3683.000000	99.362646 
3682.000000	99.362866 
3681.000000	99.358955 
3680.000000	99.349119 
3679.000000	99.333241 
3678.000000	99.313577 
3677.000000	99.294355 
3676.000000	99.282380 
3675.000000	99.284836 
3674.000000	99.298806 
3673.000000	99.313212 
3672.000000	99.320134 
3671.000000	99.317166 
3670.000000	99.307816 
3669.000000	99.298792 
3668.000000	99.292139 
3667.000000	99.285131 
3666.000000	99.276467 
3665.000000	99.267953 
3664.000000	99.262348 
3663.000000	99.261227 
3662.000000	99.263747 
3661.000000	99.267541 
3660.000000	99.271078 
3659.000000	99.274507 
3658.000000	99.278491 
3657.000000	99.282766 
3656.000000	99.286652 
3655.000000	99.290652 
3654.000000	99.296276 
3653.000000	99.304461 
3652.000000	99.313837 
3651.000000	99.319976 
3650.000000	99.318612 
3649.000000	99.310864 
3648.000000	99.302605 
3647.000000	99.298416 
3646.000000	99.298659 
3645.000000	99.301233 
3644.000000	99.303927 
3643.000000	99.305738 
3642.000000	99.306494 
3641.000000	99.306986 
3640.000000	99.309156 
3639.000000	99.315200 
3638.000000	99.325919 
3637.000000	99.339190 
3636.000000	99.350490 
3635.000000	99.355151 
3634.000000	99.351357 
3633.000000	99.341646 
3632.000000	99.331190 
3631.000000	99.324719 
3630.000000	99.323375 
3629.000000	99.324741 
3628.000000	99.325370 
3627.000000	99.323323 
3626.000000	99.319844 
3625.000000	99.317332 
3624.000000	99.316278 
3623.000000	99.315013 
3622.000000	99.311926 
3621.000000	99.307248 
3620.000000	99.303980 
3619.000000	99.306665 
3618.000000	99.316973 
3617.000000	99.331514 
3616.000000	99.345356 
3615.000000	99.354562 
3614.000000	99.357222 
3613.000000	99.354368 
3612.000000	99.348902 
3611.000000	99.343645 
3610.000000	99.340877 
3609.000000	99.342149 
3608.000000	99.347561 
3607.000000	99.355297 
3606.000000	99.362381 
3605.000000	99.366963 
3604.000000	99.368925 
3603.000000	99.368847 
3602.000000	99.368059 
3601.000000	99.368748 
3600.000000	99.372908 
3599.000000	99.380251 
3598.000000	99.387605 
3597.000000	99.391260 
3596.000000	99.390285 
3595.000000	99.386993 
3594.000000	99.385277 
3593.000000	99.388419 
3592.000000	99.397198 
3591.000000	99.409534 
3590.000000	99.420692 
3589.000000	99.425036 
3588.000000	99.420454 
3587.000000	99.411178 
3586.000000	99.402792 
3585.000000	99.397142 
3584.000000	99.393109 
3583.000000	99.389034 
3582.000000	99.383768 
3581.000000	99.377366 
3580.000000	99.371181 
3579.000000	99.366614 
3578.000000	99.363729 
3577.000000	99.361597 
3576.000000	99.360091 
3575.000000	99.360347 
3574.000000	99.362916 
3573.000000	99.366437 
3572.000000	99.368349 
3571.000000	99.366758 
3570.000000	99.361418 
3569.000000	99.353452 
3568.000000	99.345481 
3567.000000	99.341674 
3566.000000	99.344274 
3565.000000	99.350519 
3564.000000	99.355481 
3563.000000	99.356230 
3562.000000	99.353231 
3561.000000	99.349422 
3560.000000	99.347525 
3559.000000	99.347755 
3558.000000	99.347837 
3557.000000	99.345363 
3556.000000	99.339975 
3555.000000	99.333648 
3554.000000	99.329189 
3553.000000	99.328419 
3552.000000	99.330802 
3551.000000	99.333398 
3550.000000	99.332939 
3549.000000	99.328644 
3548.000000	99.323173 
3547.000000	99.320831 
3546.000000	99.323893 
3545.000000	99.330409 
3544.000000	99.335948 
3543.000000	99.337201 
3542.000000	99.333857 
3541.000000	99.328066 
3540.000000	99.322809 
3539.000000	99.320400 
3538.000000	99.321370 
3537.000000	99.324197 
3536.000000	99.326310 
3535.000000	99.325619 
3534.000000	99.321881 
3533.000000	99.316850 
3532.000000	99.313206 
3531.000000	99.312810 
3530.000000	99.315385 
3529.000000	99.318826 
3528.000000	99.320938 
3527.000000	99.321060 
3526.000000	99.320036 
3525.000000	99.318969 
3524.000000	99.318351 
3523.000000	99.318193 
3522.000000	99.318246 
3521.000000	99.317898 
3520.000000	99.316274 
3519.000000	99.312961 
3518.000000	99.308761 
3517.000000	99.305390 
3516.000000	99.304287 
3515.000000	99.305558 
3514.000000	99.308172 
3513.000000	99.310867 
3512.000000	99.312730 
3511.000000	99.313303 
3510.000000	99.312897 
3509.000000	99.312677 
3508.000000	99.313832 
3507.000000	99.316199 
3506.000000	99.317603 
3505.000000	99.315045 
3504.000000	99.307425 
3503.000000	99.297655 
3502.000000	99.291265 
3501.000000	99.292156 
3500.000000	99.299394 
3499.000000	99.307917 
3498.000000	99.312297 
3497.000000	99.310525 
3496.000000	99.304980 
3495.000000	99.299885 
3494.000000	99.297789 
3493.000000	99.298144 
3492.000000	99.298583 
3491.000000	99.297082 
3490.000000	99.293347 
3489.000000	99.288828 
3488.000000	99.285680 
3487.000000	99.285293 
3486.000000	99.287161 
3485.000000	99.289161 
3484.000000	99.289423 
3483.000000	99.288043 
3482.000000	99.286643 
3481.000000	99.286054 
3480.000000	99.285265 
3479.000000	99.283303 
3478.000000	99.281149 
3477.000000	99.280462 
3476.000000	99.280767 
3475.000000	99.279484 
3474.000000	99.275370 
3473.000000	99.270706 
3472.000000	99.269042 
3471.000000	99.271266 
3470.000000	99.274826 
3469.000000	99.276565 
3468.000000	99.275368 
3467.000000	99.272254 
3466.000000	99.268768 
3465.000000	99.265699 
3464.000000	99.262969 
3463.000000	99.260267 
3462.000000	99.257676 
3461.000000	99.255526 
3460.000000	99.253749 
3459.000000	99.251888 
3458.000000	99.249924 
3457.000000	99.248627 
3456.000000	99.248526 
3455.000000	99.248914 
3454.000000	99.248730 
3453.000000	99.247981 
3452.000000	99.247646 
3451.000000	99.248240 
3450.000000	99.249289 
3449.000000	99.250177 
3448.000000	99.250568 
3447.000000	99.249863 
3446.000000	99.247326 
3445.000000	99.243436 
3444.000000	99.240167 
3443.000000	99.239065 
3442.000000	99.239488 
3441.000000	99.239589 
3440.000000	99.238695 
3439.000000	99.237700 
3438.000000	99.237268 
3437.000000	99.236537 
3436.000000	99.234039 
3435.000000	99.229440 
3434.000000	99.224177 
3433.000000	99.220379 
3432.000000	99.219258 
3431.000000	99.220227 
3430.000000	99.221418 
3429.000000	99.221199 
3428.000000	99.219343 
3427.000000	99.216870 
3426.000000	99.214911 
3425.000000	99.213851 
3424.000000	99.213379 
3423.000000	99.213042 
3422.000000	99.212606 
3421.000000	99.211932 
3420.000000	99.210791 
3419.000000	99.209160 
3418.000000	99.207733 
3417.000000	99.207518 
3416.000000	99.208436 
3415.000000	99.208755 
3414.000000	99.206625 
3413.000000	99.202261 
3412.000000	99.198050 
3411.000000	99.196415 
3410.000000	99.197965 
3409.000000	99.201473 
3408.000000	99.204741 
3407.000000	99.205483 
3406.000000	99.202540 
3405.000000	99.197194 
3404.000000	99.192925 
3403.000000	99.192954 
3402.000000	99.197695 
3401.000000	99.204505 
3400.000000	99.209864 
3399.000000	99.211847 
3398.000000	99.211130 
3397.000000	99.209865 
3396.000000	99.209287 
3395.000000	99.208392 
3394.000000	99.205453 
3393.000000	99.200788 
3392.000000	99.197164 
3391.000000	99.196968 
3390.000000	99.199578 
3389.000000	99.202125 
3388.000000	99.202427 
3387.000000	99.200627 
3386.000000	99.198405 
3385.000000	99.197328 
3384.000000	99.197889 
3383.000000	99.199488 
3382.000000	99.201039 
3381.000000	99.201643 
3380.000000	99.200921 
3379.000000	99.198951 
3378.000000	99.196368 
3377.000000	99.194575 
3376.000000	99.195227 
3375.000000	99.199012 
3374.000000	99.204995 
3373.000000	99.211291 
3372.000000	99.216133 
3371.000000	99.218368 
3370.000000	99.217756 
3369.000000	99.215391 
3368.000000	99.213248 
3367.000000	99.212434 
3366.000000	99.212016 
3365.000000	99.210331 
3364.000000	99.207365 
3363.000000	99.205051 
3362.000000	99.204972 
3361.000000	99.206339 
3360.000000	99.206605 
3359.000000	99.203965 
3358.000000	99.199232 
3357.000000	99.195454 
3356.000000	99.195499 
3355.000000	99.199521 
3354.000000	99.204710 
3353.000000	99.207869 
3352.000000	99.208258 
3351.000000	99.207786 
3350.000000	99.208668 
3349.000000	99.211506 
3348.000000	99.215536 
3347.000000	99.219866 
3346.000000	99.223896 
3345.000000	99.226907 
3344.000000	99.228022 
3343.000000	99.226791 
3342.000000	99.223789 
3341.000000	99.220629 
3340.000000	99.219128 
3339.000000	99.219858 
3338.000000	99.221323 
3337.000000	99.221135 
3336.000000	99.218565 
3335.000000	99.215741 
3334.000000	99.215735 
3333.000000	99.219445 
3332.000000	99.224605 
3331.000000	99.227848 
3330.000000	99.227604 
3329.000000	99.225205 
3328.000000	99.223558 
3327.000000	99.224632 
3326.000000	99.227817 
3325.000000	99.230722 
3324.000000	99.231930 
3323.000000	99.232774 
3322.000000	99.235651 
3321.000000	99.240494 
3320.000000	99.243818 
3319.000000	99.242103 
3318.000000	99.235799 
3317.000000	99.229134 
3316.000000	99.226038 
3315.000000	99.226862 
3314.000000	99.229091 
3313.000000	99.230481 
3312.000000	99.231031 
3311.000000	99.232286 
3310.000000	99.235258 
3309.000000	99.239142 
3308.000000	99.242125 
3307.000000	99.243346 
3306.000000	99.243614 
3305.000000	99.243797 
3304.000000	99.243101 
3303.000000	99.240033 
3302.000000	99.235114 
3301.000000	99.231435 
3300.000000	99.231816 
3299.000000	99.236061 
3298.000000	99.241637 
3297.000000	99.246327 
3296.000000	99.249517 
3295.000000	99.251504 
3294.000000	99.252835 
3293.000000	99.254401 
3292.000000	99.257089 
3291.000000	99.260686 
3290.000000	99.263481 
3289.000000	99.263372 
3288.000000	99.259603 
3287.000000	99.253644 
3286.000000	99.248486 
3285.000000	99.246617 
3284.000000	99.248258 
3283.000000	99.251695 
3282.000000	99.255252 
3281.000000	99.258305 
3280.000000	99.260143 
3279.000000	99.259191 
3278.000000	99.254796 
3277.000000	99.249328 
3276.000000	99.247006 
3275.000000	99.250171 
3274.000000	99.257328 
3273.000000	99.264686 
3272.000000	99.268683 
3271.000000	99.267346 
3270.000000	99.261030 
3269.000000	99.252829 
3268.000000	99.247317 
3267.000000	99.247619 
3266.000000	99.253442 
3265.000000	99.261912 
3264.000000	99.269873 
3263.000000	99.275386 
3262.000000	99.277989 
3261.000000	99.278478 
3260.000000	99.278229 
3259.000000	99.278232 
3258.000000	99.278626 
3257.000000	99.279040 
3256.000000	99.279057 
3255.000000	99.278479 
3254.000000	99.277725 
3253.000000	99.277964 
3252.000000	99.280194 
3251.000000	99.283904 
3250.000000	99.287246 
3249.000000	99.288773 
3248.000000	99.288478 
3247.000000	99.287023 
3246.000000	99.284751 
3245.000000	99.281965 
3244.000000	99.279657 
3243.000000	99.279364 
3242.000000	99.282322 
3241.000000	99.288650 
3240.000000	99.296604 
3239.000000	99.302652 
3238.000000	99.303516 
3237.000000	99.299132 
3236.000000	99.293111 
3235.000000	99.289617 
3234.000000	99.290082 
3233.000000	99.293252 
3232.000000	99.297541 
3231.000000	99.302287 
3230.000000	99.307085 
3229.000000	99.311035 
3228.000000	99.312845 
3227.000000	99.311379 
3226.000000	99.306507 
3225.000000	99.300042 
3224.000000	99.295482 
3223.000000	99.295677 
3222.000000	99.300372 
3221.000000	99.306482 
3220.000000	99.310752 
3219.000000	99.311830 
3218.000000	99.310116 
3217.000000	99.306816 
3216.000000	99.303609 
3215.000000	99.302397 
3214.000000	99.304369 
3213.000000	99.309149 
3212.000000	99.315177 
3211.000000	99.320964 
3210.000000	99.325869 
3209.000000	99.329819 
3208.000000	99.332561 
3207.000000	99.333521 
3206.000000	99.332582 
3205.000000	99.330847 
3204.000000	99.330142 
3203.000000	99.331569 
3202.000000	99.334844 
3201.000000	99.339169 
3200.000000	99.344004 
3199.000000	99.348505 
3198.000000	99.351000 
3197.000000	99.350347 
3196.000000	99.347776 
3195.000000	99.346136 
3194.000000	99.346719 
3193.000000	99.347602 
3192.000000	99.345974 
3191.000000	99.341785 
3190.000000	99.338374 
3189.000000	99.339297 
3188.000000	99.344906 
3187.000000	99.352155 
3186.000000	99.357453 
3185.000000	99.359539 
3184.000000	99.359600 
3183.000000	99.359082 
3182.000000	99.357986 
3181.000000	99.355557 
3180.000000	99.352116 
3179.000000	99.349336 
3178.000000	99.348434 
3177.000000	99.348673 
3176.000000	99.348278 
3175.000000	99.346831 
3174.000000	99.346274 
3173.000000	99.349167 
3172.000000	99.355837 
3171.000000	99.363400 
3170.000000	99.368023 
3169.000000	99.368417 
3168.000000	99.366998 
3167.000000	99.367437 
3166.000000	99.371188 
3165.000000	99.376607 
3164.000000	99.381054 
3163.000000	99.383278 
3162.000000	99.383933 
3161.000000	99.384604 
3160.000000	99.386727 
3159.000000	99.390827 
3158.000000	99.396085 
3157.000000	99.400664 
3156.000000	99.402890 
3155.000000	99.402356 
3154.000000	99.400027 
3153.000000	99.397481 
3152.000000	99.395953 
3151.000000	99.395533 
3150.000000	99.395007 
3149.000000	99.392938 
3148.000000	99.389465 
3147.000000	99.386779 
3146.000000	99.387262 
3145.000000	99.391115 
3144.000000	99.396318 
3143.000000	99.400972 
3142.000000	99.405126 
3141.000000	99.409921 
3140.000000	99.415456 
3139.000000	99.420126 
3138.000000	99.422161 
3137.000000	99.421336 
3136.000000	99.418830 
3135.000000	99.415639 
3134.000000	99.411769 
3133.000000	99.407344 
3132.000000	99.404022 
3131.000000	99.404198 
3130.000000	99.408197 
3129.000000	99.412941 
3128.000000	99.414503 
3127.000000	99.412219 
3126.000000	99.409522 
3125.000000	99.410302 
3124.000000	99.414834 
3123.000000	99.419769 
3122.000000	99.421834 
3121.000000	99.421048 
3120.000000	99.420294 
3119.000000	99.422072 
3118.000000	99.425863 
3117.000000	99.428763 
3116.000000	99.428696 
3115.000000	99.426614 
3114.000000	99.425041 
3113.000000	99.424777 
3112.000000	99.424158 
3111.000000	99.421851 
3110.000000	99.419135 
3109.000000	99.418290 
3108.000000	99.419482 
3107.000000	99.420655 
3106.000000	99.420428 
3105.000000	99.419719 
3104.000000	99.420195 
3103.000000	99.422504 
3102.000000	99.426566 
3101.000000	99.432298 
3100.000000	99.438735 
3099.000000	99.443292 
3098.000000	99.443529 
3097.000000	99.439854 
3096.000000	99.435487 
3095.000000	99.433479 
3094.000000	99.434412 
3093.000000	99.436951 
3092.000000	99.439569 
3091.000000	99.441226 
3090.000000	99.441360 
3089.000000	99.440357 
3088.000000	99.439996 
3087.000000	99.442447 
3086.000000	99.448206 
3085.000000	99.455161 
3084.000000	99.460051 
3083.000000	99.461074 
3082.000000	99.459038 
3081.000000	99.456150 
3080.000000	99.453910 
3079.000000	99.452262 
3078.000000	99.450411 
3077.000000	99.447991 
3076.000000	99.445479 
3075.000000	99.443812 
3074.000000	99.443670 
3073.000000	99.444900 
3072.000000	99.446758 
3071.000000	99.448932 
3070.000000	99.451879 
3069.000000	99.455451 
3068.000000	99.457504 
3067.000000	99.455330 
3066.000000	99.449131 
3065.000000	99.442993 
3064.000000	99.441295 
3063.000000	99.444530 
3062.000000	99.449446 
3061.000000	99.452800 
3060.000000	99.454045 
3059.000000	99.454637 
3058.000000	99.455849 
3057.000000	99.457615 
3056.000000	99.459006 
3055.000000	99.459433 
3054.000000	99.459346 
3053.000000	99.459505 
3052.000000	99.459654 
3051.000000	99.458687 
3050.000000	99.456452 
3049.000000	99.454373 
3048.000000	99.453253 
3047.000000	99.451302 
3046.000000	99.445999 
3045.000000	99.437822 
3044.000000	99.430586 
3043.000000	99.427504 
3042.000000	99.427895 
3041.000000	99.428314 
3040.000000	99.426150 
3039.000000	99.421556 
3038.000000	99.416484 
3037.000000	99.412552 
3036.000000	99.409626 
3035.000000	99.405982 
3034.000000	99.399857 
3033.000000	99.391007 
3032.000000	99.380651 
3031.000000	99.370009 
3030.000000	99.359223 
3029.000000	99.347685 
3028.000000	99.334980 
3027.000000	99.321510 
3026.000000	99.308514 
3025.000000	99.297315 
3024.000000	99.287891 
3023.000000	99.278153 
3022.000000	99.265360 
3021.000000	99.248624 
3020.000000	99.229761 
3019.000000	99.211714 
3018.000000	99.196467 
3017.000000	99.184210 
3016.000000	99.173432 
3015.000000	99.161557 
3014.000000	99.146287 
3013.000000	99.126980 
3012.000000	99.104474 
3011.000000	99.079654 
3010.000000	99.053032 
3009.000000	99.025912 
3008.000000	99.000761 
3007.000000	98.979529 
3006.000000	98.961986 
3005.000000	98.946275 
3004.000000	98.930447 
3003.000000	98.912853 
3002.000000	98.892025 
3001.000000	98.867789 
3000.000000	98.842432 
2999.000000	98.819408 
2998.000000	98.800551 
2997.000000	98.785651 
2996.000000	98.774560 
2995.000000	98.767300 
2994.000000	98.760295 
2993.000000	98.744585 
2992.000000	98.711998 
2991.000000	98.664781 
2990.000000	98.617071 
2989.000000	98.584534 
2988.000000	98.572530 
2987.000000	98.575209 
2986.000000	98.584258 
2985.000000	98.595857 
2984.000000	98.609293 
2983.000000	98.622502 
2982.000000	98.631710 
2981.000000	98.634670 
2980.000000	98.632492 
2979.000000	98.628157 
2978.000000	98.624039 
2977.000000	98.620583 
2976.000000	98.616440 
2975.000000	98.609919 
2974.000000	98.601042 
2973.000000	98.592166 
2972.000000	98.586224 
2971.000000	98.584530 
2970.000000	98.586746 
2969.000000	98.592386 
2968.000000	98.601446 
2967.000000	98.613678 
2966.000000	98.628066 
2965.000000	98.643233 
2964.000000	98.657956 
2963.000000	98.671396 
2962.000000	98.683331 
2961.000000	98.694192 
2960.000000	98.704532 
2959.000000	98.714674 
2958.000000	98.725157 
2957.000000	98.736875 
2956.000000	98.749787 
2955.000000	98.761831 
2954.000000	98.770495 
2953.000000	98.776103 
2952.000000	98.782687 
2951.000000	98.794583 
2950.000000	98.811946 
2949.000000	98.829903 
2948.000000	98.842346 
2947.000000	98.846788 
2946.000000	98.845855 
2945.000000	98.844218 
2944.000000	98.844363 
2943.000000	98.845471 
2942.000000	98.845763 
2941.000000	98.844662 
2940.000000	98.842278 
2939.000000	98.838001 
2938.000000	98.830950 
2937.000000	98.821628 
2936.000000	98.812240 
2935.000000	98.805227 
2934.000000	98.801708 
2933.000000	98.800827 
2932.000000	98.799915 
2931.000000	98.795757 
2930.000000	98.786737 
2929.000000	98.773993 
2928.000000	98.760267 
2927.000000	98.748013 
2926.000000	98.738908 
2925.000000	98.734142 
2924.000000	98.733897 
2923.000000	98.736807 
2922.000000	98.740976 
2921.000000	98.745441 
2920.000000	98.749955 
2919.000000	98.753919 
2918.000000	98.756696 
2917.000000	98.758639 
2916.000000	98.760604 
2915.000000	98.762547 
2914.000000	98.763851 
2913.000000	98.764930 
2912.000000	98.767047 
2911.000000	98.770077 
2910.000000	98.771771 
2909.000000	98.770038 
2908.000000	98.765261 
2907.000000	98.759418 
2906.000000	98.753214 
2905.000000	98.744772 
2904.000000	98.731687 
2903.000000	98.714923 
2902.000000	98.701036 
2901.000000	98.699200 
2900.000000	98.714753 
2899.000000	98.743794 
2898.000000	98.775213 
2897.000000	98.798432 
2896.000000	98.810000 
2895.000000	98.813956 
2894.000000	98.817237 
2893.000000	98.824400 
2892.000000	98.835169 
2891.000000	98.845702 
2890.000000	98.852473 
2889.000000	98.855456 
2888.000000	98.857699 
2887.000000	98.862066 
2886.000000	98.868998 
2885.000000	98.877195 
2884.000000	98.885612 
2883.000000	98.894461 
2882.000000	98.904935 
2881.000000	98.918256 
2880.000000	98.934579 
2879.000000	98.952569 
2878.000000	98.970319 
2877.000000	98.986597 
2876.000000	99.000732 
2875.000000	99.011660 
2874.000000	99.018207 
2873.000000	99.020757 
2872.000000	99.021955 
2871.000000	99.025220 
2870.000000	99.032651 
2869.000000	99.044096 
2868.000000	99.057625 
2867.000000	99.071027 
2866.000000	99.083748 
2865.000000	99.097403 
2864.000000	99.113448 
2863.000000	99.130132 
2862.000000	99.142971 
2861.000000	99.149078 
2860.000000	99.150548 
2859.000000	99.152909 
2858.000000	99.160297 
2857.000000	99.172313 
2856.000000	99.185036 
2855.000000	99.195006 
2854.000000	99.202488 
2853.000000	99.210979 
2852.000000	99.223416 
2851.000000	99.239338 
2850.000000	99.256289 
2849.000000	99.273087 
2848.000000	99.290286 
2847.000000	99.307688 
2846.000000	99.323186 
2845.000000	99.334754 
2844.000000	99.342631 
2843.000000	99.349028 
2842.000000	99.356475 
2841.000000	99.366519 
2840.000000	99.378800 
2839.000000	99.390771 
2838.000000	99.399363 
2837.000000	99.403753 
2836.000000	99.405995 
2835.000000	99.408752 
2834.000000	99.413266 
2833.000000	99.419640 
2832.000000	99.427539 
2831.000000	99.435723 
2830.000000	99.442129 
2829.000000	99.445821 
2828.000000	99.448286 
2827.000000	99.451653 
2826.000000	99.455982 
2825.000000	99.459300 
2824.000000	99.460223 
2823.000000	99.459751 
2822.000000	99.460391 
2821.000000	99.463896 
2820.000000	99.469762 
2819.000000	99.475731 
2818.000000	99.479940 
2817.000000	99.482517 
2816.000000	99.484707 
2815.000000	99.486774 
2814.000000	99.487828 
2813.000000	99.487715 
2812.000000	99.487694 
2811.000000	99.488619 
2810.000000	99.489680 
2809.000000	99.489887 
2808.000000	99.489865 
2807.000000	99.491057 
2806.000000	99.493743 
2805.000000	99.496904 
2804.000000	99.499742 
2803.000000	99.502411 
2802.000000	99.505375 
2801.000000	99.508604 
2800.000000	99.511308 
2799.000000	99.512261 
2798.000000	99.510917 
2797.000000	99.508416 
2796.000000	99.506722 
2795.000000	99.506419 
2794.000000	99.506284 
2793.000000	99.505450 
2792.000000	99.504742 
2791.000000	99.505105 
2790.000000	99.506075 
2789.000000	99.507090 
2788.000000	99.509104 
2787.000000	99.513167 
2786.000000	99.518229 
2785.000000	99.522206 
2784.000000	99.524802 
2783.000000	99.527227 
2782.000000	99.529272 
2781.000000	99.528960 
2780.000000	99.525814 
2779.000000	99.522558 
2778.000000	99.522259 
2777.000000	99.524917 
2776.000000	99.528009 
2775.000000	99.529564 
2774.000000	99.529493 
2773.000000	99.528503 
2772.000000	99.527063 
2771.000000	99.525644 
2770.000000	99.525133 
2769.000000	99.526482 
2768.000000	99.530006 
2767.000000	99.534936 
2766.000000	99.539588 
2765.000000	99.542298 
2764.000000	99.542595 
2763.000000	99.541458 
2762.000000	99.540300 
2761.000000	99.539959 
2760.000000	99.540847 
2759.000000	99.543555 
2758.000000	99.548509 
2757.000000	99.554943 
2756.000000	99.560805 
2755.000000	99.564229 
2754.000000	99.564929 
2753.000000	99.563929 
2752.000000	99.562133 
2751.000000	99.559605 
2750.000000	99.556167 
2749.000000	99.552078 
2748.000000	99.547830 
2747.000000	99.543736 
2746.000000	99.540155 
2745.000000	99.537840 
2744.000000	99.537510 
2743.000000	99.539171 
2742.000000	99.542257 
2741.000000	99.546286 
2740.000000	99.550860 
2739.000000	99.555168 
2738.000000	99.558243 
2737.000000	99.559935 
2736.000000	99.561064 
2735.000000	99.562293 
2734.000000	99.563244 
2733.000000	99.562993 
2732.000000	99.561118 
2731.000000	99.558141 
2730.000000	99.555324 
2729.000000	99.554224 
2728.000000	99.555893 
2727.000000	99.560031 
2726.000000	99.564998 
2725.000000	99.568975 
2724.000000	99.571108 
2723.000000	99.571635 
2722.000000	99.571295 
2721.000000	99.570847 
2720.000000	99.570809 
2719.000000	99.571320 
2718.000000	99.572180 
2717.000000	99.573101 
2716.000000	99.574010 
2715.000000	99.575280 
2714.000000	99.577655 
2713.000000	99.581415 
2712.000000	99.585353 
2711.000000	99.587290 
2710.000000	99.586396 
2709.000000	99.584447 
2708.000000	99.583697 
2707.000000	99.583773 
2706.000000	99.582049 
2705.000000	99.577316 
2704.000000	99.571795 
2703.000000	99.568811 
2702.000000	99.569468 
2701.000000	99.572250 
2700.000000	99.575160 
2699.000000	99.577293 
2698.000000	99.578706 
2697.000000	99.579621 
2696.000000	99.580003 
2695.000000	99.579782 
2694.000000	99.579464 
2693.000000	99.579999 
2692.000000	99.581413 
2691.000000	99.582051 
2690.000000	99.580507 
2689.000000	99.578339 
2688.000000	99.579120 
2687.000000	99.584006 
2686.000000	99.589590 
2685.000000	99.591452 
2684.000000	99.589007 
2683.000000	99.585654 
2682.000000	99.584765 
2681.000000	99.586868 
2680.000000	99.590265 
2679.000000	99.592900 
2678.000000	99.593488 
2677.000000	99.592102 
2676.000000	99.590260 
2675.000000	99.589742 
2674.000000	99.590917 
2673.000000	99.592509 
2672.000000	99.593110 
2671.000000	99.592428 
2670.000000	99.590845 
2669.000000	99.588273 
2668.000000	99.584099 
2667.000000	99.578499 
2666.000000	99.573445 
2665.000000	99.571656 
2664.000000	99.573928 
2663.000000	99.577871 
2662.000000	99.580133 
2661.000000	99.579909 
2660.000000	99.579307 
2659.000000	99.580082 
2658.000000	99.581261 
2657.000000	99.580808 
2656.000000	99.578692 
2655.000000	99.576957 
2654.000000	99.576966 
2653.000000	99.577667 
2652.000000	99.576882 
2651.000000	99.573805 
2650.000000	99.570038 
2649.000000	99.568227 
2648.000000	99.569491 
2647.000000	99.572214 
2646.000000	99.573898 
2645.000000	99.574262 
2644.000000	99.575509 
2643.000000	99.579055 
2642.000000	99.583063 
2641.000000	99.584294 
2640.000000	99.581897 
2639.000000	99.578348 
2638.000000	99.576894 
2637.000000	99.578679 
2636.000000	99.581953 
2635.000000	99.583500 
2634.000000	99.581466 
2633.000000	99.577508 
2632.000000	99.575551 
2631.000000	99.577697 
2630.000000	99.582195 
2629.000000	99.586148 
2628.000000	99.588869 
2627.000000	99.591188 
2626.000000	99.592803 
2625.000000	99.592662 
2624.000000	99.591337 
2623.000000	99.590497 
2622.000000	99.589970 
2621.000000	99.587853 
2620.000000	99.584159 
2619.000000	99.581938 
2618.000000	99.583469 
2617.000000	99.587068 
2616.000000	99.589243 
2615.000000	99.588874 
2614.000000	99.587761 
2613.000000	99.587925 
2612.000000	99.589847 
2611.000000	99.592937 
2610.000000	99.596263 
2609.000000	99.598745 
2608.000000	99.599770 
2607.000000	99.600069 
2606.000000	99.601402 
2605.000000	99.604819 
2604.000000	99.609107 
2603.000000	99.611143 
2602.000000	99.608295 
2601.000000	99.601060 
2600.000000	99.593319 
2599.000000	99.589511 
2598.000000	99.591387 
2597.000000	99.597434 
2596.000000	99.604513 
2595.000000	99.609208 
2594.000000	99.608602 
2593.000000	99.602052 
2592.000000	99.592931 
2591.000000	99.587039 
2590.000000	99.588034 
2589.000000	99.594804 
2588.000000	99.603366 
2587.000000	99.609951 
2586.000000	99.611781 
2585.000000	99.607133 
2584.000000	99.597105 
2583.000000	99.586705 
2582.000000	99.581761 
2581.000000	99.583918 
2580.000000	99.589504 
2579.000000	99.593396 
2578.000000	99.593084 
2577.000000	99.589401 
2576.000000	99.585136 
2575.000000	99.583551 
2574.000000	99.586600 
2573.000000	99.593130 
2572.000000	99.599255 
2571.000000	99.601469 
2570.000000	99.599288 
2569.000000	99.594787 
2568.000000	99.590594 
2567.000000	99.588897 
2566.000000	99.591019 
2565.000000	99.596217 
2564.000000	99.601300 
2563.000000	99.603060 
2562.000000	99.601356 
2561.000000	99.598918 
2560.000000	99.598187 
2559.000000	99.599222 
2558.000000	99.600246 
2557.000000	99.598907 
2556.000000	99.593614 
2555.000000	99.585707 
2554.000000	99.580293 
2553.000000	99.582274 
2552.000000	99.590570 
2551.000000	99.598572 
2550.000000	99.601665 
2549.000000	99.601934 
2548.000000	99.603554 
2547.000000	99.606153 
2546.000000	99.606180 
2545.000000	99.603472 
2544.000000	99.602314 
2543.000000	99.605609 
2542.000000	99.611307 
2541.000000	99.615649 
2540.000000	99.617303 
2539.000000	99.616889 
2538.000000	99.614580 
2537.000000	99.610012 
2536.000000	99.603617 
2535.000000	99.596896 
2534.000000	99.592103 
2533.000000	99.591915 
2532.000000	99.597824 
2531.000000	99.607902 
2530.000000	99.617412 
2529.000000	99.622642 
2528.000000	99.623392 
2527.000000	99.621490 
2526.000000	99.618563 
2525.000000	99.616174 
2524.000000	99.616281 
2523.000000	99.619709 
2522.000000	99.624860 
2521.000000	99.629124 
2520.000000	99.630994 
2519.000000	99.630084 
2518.000000	99.626305 
2517.000000	99.620308 
2516.000000	99.613920 
2515.000000	99.608884 
2514.000000	99.605725 
2513.000000	99.604494 
2512.000000	99.605355 
2511.000000	99.607228 
2510.000000	99.607447 
2509.000000	99.605003 
2508.000000	99.603443 
2507.000000	99.607954 
2506.000000	99.619009 
2505.000000	99.630512 
2504.000000	99.634995 
2503.000000	99.629825 
2502.000000	99.618363 
2501.000000	99.606747 
2500.000000	99.600335 
2499.000000	99.601701 
2498.000000	99.609907 
2497.000000	99.621072 
2496.000000	99.630468 
2495.000000	99.635072 
2494.000000	99.634623 
2493.000000	99.630588 
2492.000000	99.624506 
2491.000000	99.617554 
2490.000000	99.611168 
2489.000000	99.606925 
2488.000000	99.605314 
2487.000000	99.605646 
2486.000000	99.608078 
2485.000000	99.614531 
2484.000000	99.625575 
2483.000000	99.636801 
2482.000000	99.641015 
2481.000000	99.635437 
2480.000000	99.625153 
2479.000000	99.617799 
2478.000000	99.615943 
2477.000000	99.616227 
2476.000000	99.615135 
2475.000000	99.613333 
2474.000000	99.613893 
2473.000000	99.617936 
2472.000000	99.623412 
2471.000000	99.627805 
2470.000000	99.630723 
2469.000000	99.633017 
2468.000000	99.633934 
2467.000000	99.630946 
2466.000000	99.623549 
2465.000000	99.615985 
2464.000000	99.613910 
2463.000000	99.618102 
2462.000000	99.623316 
2461.000000	99.624085 
2460.000000	99.620176 
2459.000000	99.615573 
2458.000000	99.613750 
2457.000000	99.615252 
2456.000000	99.618517 
2455.000000	99.621153 
2454.000000	99.620978 
2453.000000	99.617541 
2452.000000	99.612788 
2451.000000	99.609319 
2450.000000	99.608071 
2449.000000	99.608289 
2448.000000	99.609114 
2447.000000	99.610302 
2446.000000	99.611983 
2445.000000	99.614727 
2444.000000	99.619279 
2443.000000	99.625027 
2442.000000	99.629302 
2441.000000	99.629748 
2440.000000	99.627297 
2439.000000	99.625427 
2438.000000	99.626291 
2437.000000	99.628769 
2436.000000	99.630368 
2435.000000	99.629567 
2434.000000	99.625826 
2433.000000	99.618909 
2432.000000	99.609664 
2431.000000	99.600908 
2430.000000	99.596133 
2429.000000	99.597036 
2428.000000	99.602859 
2427.000000	99.611892 
2426.000000	99.622365 
2425.000000	99.631410 
2424.000000	99.634730 
2423.000000	99.629552 
2422.000000	99.618274 
2421.000000	99.607496 
2420.000000	99.602175 
2419.000000	99.601581 
2418.000000	99.602027 
2417.000000	99.602320 
2416.000000	99.604447 
2415.000000	99.609292 
2414.000000	99.614332 
2413.000000	99.616688 
2412.000000	99.616678 
2411.000000	99.616825 
2410.000000	99.618360 
2409.000000	99.620304 
2408.000000	99.621635 
2407.000000	99.622898 
2406.000000	99.625325 
2405.000000	99.629142 
2404.000000	99.633052 
2403.000000	99.635104 
2402.000000	99.634076 
2401.000000	99.630384 
2400.000000	99.625824 
2399.000000	99.622330 
2398.000000	99.620891 
2397.000000	99.621431 
2396.000000	99.623418 
2395.000000	99.626488 
2394.000000	99.630446 
2393.000000	99.634435 
2392.000000	99.636379 
2391.000000	99.634465 
2390.000000	99.629890 
2389.000000	99.627075 
2388.000000	99.629619 
2387.000000	99.636389 
2386.000000	99.642965 
2385.000000	99.646591 
2384.000000	99.648149 
2383.000000	99.649454 
2382.000000	99.650777 
2381.000000	99.651692 
2380.000000	99.652251 
2379.000000	99.651901 
2378.000000	99.648911 
2377.000000	99.643162 
2376.000000	99.638725 
2375.000000	99.640925 
2374.000000	99.650353 
2373.000000	99.661904 
2372.000000	99.670438 
2371.000000	99.675484 
2370.000000	99.679177 
2369.000000	99.681548 
2368.000000	99.679878 
2367.000000	99.672164 
2366.000000	99.660295 
2365.000000	99.650164 
2364.000000	99.647948 
2363.000000	99.654692 
2362.000000	99.664637 
2361.000000	99.670237 
2360.000000	99.669435 
2359.000000	99.666501 
2358.000000	99.666304 
2357.000000	99.670190 
2356.000000	99.676564 
2355.000000	99.682603 
2354.000000	99.684502 
2353.000000	99.680981 
2352.000000	99.675082 
2351.000000	99.670967 
2350.000000	99.669999 
2349.000000	99.670737 
2348.000000	99.671788 
2347.000000	99.672076 
2346.000000	99.670210 
2345.000000	99.665095 
2344.000000	99.657724 
2343.000000	99.651842 
2342.000000	99.650635 
2341.000000	99.654933 
2340.000000	99.662429 
2339.000000	99.669032 
2338.000000	99.671152 
2337.000000	99.668778 
2336.000000	99.665958 
2335.000000	99.666211 
2334.000000	99.669188 
2333.000000	99.672055 
2332.000000	99.673150 
2331.000000	99.670991 
2330.000000	99.664491 
2329.000000	99.653959 
2328.000000	99.643108 
2327.000000	99.634628 
2326.000000	99.628327 
2325.000000	99.622326 
2324.000000	99.616737 
2323.000000	99.614046 
2322.000000	99.617002 
2321.000000	99.626272 
2320.000000	99.638968 
2319.000000	99.649440 
2318.000000	99.653441 
2317.000000	99.651343 
2316.000000	99.647603 
2315.000000	99.645496 
2314.000000	99.645356 
2313.000000	99.645714 
2312.000000	99.646584 
2311.000000	99.648799 
2310.000000	99.653444 
2309.000000	99.659989 
2308.000000	99.665643 
2307.000000	99.665487 
2306.000000	99.657082 
2305.000000	99.643564 
2304.000000	99.631053 
2303.000000	99.621975 
2302.000000	99.614701 
2301.000000	99.608546 
2300.000000	99.605903 
2299.000000	99.606990 
2298.000000	99.607608 
2297.000000	99.604425 
2296.000000	99.600744 
2295.000000	99.602145 
2294.000000	99.608611 
2293.000000	99.613885 
2292.000000	99.612974 
2291.000000	99.606577 
2290.000000	99.598496 
2289.000000	99.591488 
2288.000000	99.586540 
2287.000000	99.583733 
2286.000000	99.582417 
2285.000000	99.581706 
2284.000000	99.581425 
2283.000000	99.581861 
2282.000000	99.582158 
2281.000000	99.580340 
2280.000000	99.575779 
2279.000000	99.571389 
2278.000000	99.572229 
2277.000000	99.581092 
2276.000000	99.595126 
2275.000000	99.607623 
2274.000000	99.613885 
2273.000000	99.614499 
2272.000000	99.611866 
2271.000000	99.605410 
2270.000000	99.593824 
2269.000000	99.581499 
2268.000000	99.577923 
2267.000000	99.588307 
2266.000000	99.607363 
2265.000000	99.623987 
2264.000000	99.630334 
2263.000000	99.626038 
2262.000000	99.617382 
2261.000000	99.613819 
2260.000000	99.620797 
2259.000000	99.633078 
2258.000000	99.638565 
2257.000000	99.632082 
2256.000000	99.621950 
2255.000000	99.619318 
2254.000000	99.624390 
2253.000000	99.628091 
2252.000000	99.625151 
2251.000000	99.620180 
2250.000000	99.621597 
2249.000000	99.633434 
2248.000000	99.652390 
2247.000000	99.669117 
2246.000000	99.673531 
2245.000000	99.662421 
2244.000000	99.642507 
2243.000000	99.624147 
2242.000000	99.613072 
2241.000000	99.609111 
2240.000000	99.609506 
2239.000000	99.610341 
2238.000000	99.607641 
2237.000000	99.601290 
2236.000000	99.596105 
2235.000000	99.595331 
2234.000000	99.595346 
2233.000000	99.591117 
2232.000000	99.584878 
2231.000000	99.584280 
2230.000000	99.592818 
2229.000000	99.606662 
2228.000000	99.620457 
2227.000000	99.631719 
2226.000000	99.639376 
2225.000000	99.642329 
2224.000000	99.640651 
2223.000000	99.635921 
2222.000000	99.630550 
2221.000000	99.628080 
2220.000000	99.631688 
2219.000000	99.639577 
2218.000000	99.644832 
2217.000000	99.644087 
2216.000000	99.643944 
2215.000000	99.653428 
2214.000000	99.671337 
2213.000000	99.686070 
2212.000000	99.687806 
2211.000000	99.677085 
2210.000000	99.662511 
2209.000000	99.654098 
2208.000000	99.657017 
2207.000000	99.666791 
2206.000000	99.671380 
2205.000000	99.662490 
2204.000000	99.644508 
2203.000000	99.628798 
2202.000000	99.621287 
2201.000000	99.619739 
2200.000000	99.620383 
2199.000000	99.621305 
2198.000000	99.620880 
2197.000000	99.619124 
2196.000000	99.620194 
2195.000000	99.628124 
2194.000000	99.640483 
2193.000000	99.650856 
2192.000000	99.656211 
2191.000000	99.656760 
2190.000000	99.651245 
2189.000000	99.639813 
2188.000000	99.630076 
2187.000000	99.631805 
2186.000000	99.645074 
2185.000000	99.660572 
2184.000000	99.671832 
2183.000000	99.679812 
2182.000000	99.685464 
2181.000000	99.687053 
2180.000000	99.686562 
2179.000000	99.689489 
2178.000000	99.695291 
2177.000000	99.696060 
2176.000000	99.688211 
2175.000000	99.678288 
2174.000000	99.672976 
2173.000000	99.669682 
2172.000000	99.661737 
2171.000000	99.648315 
2170.000000	99.635350 
2169.000000	99.630172 
2168.000000	99.637203 
2167.000000	99.654723 
2166.000000	99.673347 
2165.000000	99.681755 
2164.000000	99.677301 
2163.000000	99.668512 
2162.000000	99.666505 
2161.000000	99.677313 
2160.000000	99.700398 
2159.000000	99.727447 
2158.000000	99.743990 
2157.000000	99.742437 
2156.000000	99.733372 
2155.000000	99.733837 
2154.000000	99.745429 
2153.000000	99.753010 
2152.000000	99.745782 
2151.000000	99.731143 
2150.000000	99.724584 
2149.000000	99.733102 
2148.000000	99.751803 
2147.000000	99.770156 
2146.000000	99.777050 
2145.000000	99.766195 
2144.000000	99.743010 
2143.000000	99.722505 
2142.000000	99.715500 
2141.000000	99.719005 
2140.000000	99.722794 
2139.000000	99.721835 
2138.000000	99.717990 
2137.000000	99.712984 
2136.000000	99.706010 
2135.000000	99.698482 
2134.000000	99.696319 
2133.000000	99.704510 
2132.000000	99.719770 
2131.000000	99.730057 
2130.000000	99.723240 
2129.000000	99.698521 
2128.000000	99.668942 
2127.000000	99.649781 
2126.000000	99.644549 
2125.000000	99.645104 
2124.000000	99.644950 
2123.000000	99.647177 
2122.000000	99.656722 
2121.000000	99.669706 
2120.000000	99.676171 
2119.000000	99.672252 
2118.000000	99.664608 
2117.000000	99.661935 
2116.000000	99.665408 
2115.000000	99.669236 
2114.000000	99.668648 
2113.000000	99.664896 
2112.000000	99.662342 
2111.000000	99.662407 
2110.000000	99.662237 
2109.000000	99.659412 
2108.000000	99.655862 
2107.000000	99.655036 
2106.000000	99.656067 
2105.000000	99.653439 
2104.000000	99.643174 
2103.000000	99.627726 
2102.000000	99.614212 
2101.000000	99.608950 
2100.000000	99.613418 
2099.000000	99.623701 
2098.000000	99.633558 
2097.000000	99.639752 
2096.000000	99.644387 
2095.000000	99.649876 
2094.000000	99.652424 
2093.000000	99.644911 
2092.000000	99.627496 
2091.000000	99.611082 
2090.000000	99.607040 
2089.000000	99.615151 
2088.000000	99.624477 
2087.000000	99.625545 
2086.000000	99.619123 
2085.000000	99.613382 
2084.000000	99.614806 
2083.000000	99.622557 
2082.000000	99.630622 
2081.000000	99.634443 
2080.000000	99.635053 
2079.000000	99.636574 
2078.000000	99.641060 
2077.000000	99.648062 
2076.000000	99.658518 
2075.000000	99.674912 
2074.000000	99.695483 
2073.000000	99.711445 
2072.000000	99.713795 
2071.000000	99.702255 
2070.000000	99.685307 
2069.000000	99.672492 
2068.000000	99.668238 
2067.000000	99.671487 
2066.000000	99.677829 
2065.000000	99.681774 
2064.000000	99.680219 
2063.000000	99.675143 
2062.000000	99.671767 
2061.000000	99.673648 
2060.000000	99.680232 
2059.000000	99.688834 
2058.000000	99.697259 
2057.000000	99.703775 
2056.000000	99.705923 
2055.000000	99.700938 
2054.000000	99.688089 
2053.000000	99.670881 
2052.000000	99.656791 
2051.000000	99.653940 
2050.000000	99.666043 
2049.000000	99.688186 
2048.000000	99.708243 
2047.000000	99.715576 
2046.000000	99.709307 
2045.000000	99.697777 
2044.000000	99.690348 
2043.000000	99.690385 
2042.000000	99.695665 
2041.000000	99.703034 
2040.000000	99.710867 
2039.000000	99.718384 
2038.000000	99.725558 
2037.000000	99.733855 
2036.000000	99.744130 
2035.000000	99.753009 
2034.000000	99.754704 
2033.000000	99.748433 
2032.000000	99.740795 
2031.000000	99.737785 
2030.000000	99.737577 
2029.000000	99.734379 
2028.000000	99.726778 
2027.000000	99.718718 
2026.000000	99.714347 
2025.000000	99.715492 
2024.000000	99.721970 
2023.000000	99.730043 
2022.000000	99.732133 
2021.000000	99.723579 
2020.000000	99.710399 
2019.000000	99.705172 
2018.000000	99.712960 
2017.000000	99.724138 
2016.000000	99.724310 
2015.000000	99.710002 
2014.000000	99.691446 
2013.000000	99.681344 
2012.000000	99.683115 
2011.000000	99.690607 
2010.000000	99.698318 
2009.000000	99.708899 
2008.000000	99.727991 
2007.000000	99.753124 
2006.000000	99.773133 
2005.000000	99.780352 
2004.000000	99.778550 
2003.000000	99.775566 
2002.000000	99.772832 
2001.000000	99.766235 
2000.000000	99.753417 
1999.000000	99.735536 
1998.000000	99.714998 
1997.000000	99.696686 
1996.000000	99.688585 
1995.000000	99.695272 
1994.000000	99.711091 
1993.000000	99.723759 
1992.000000	99.725974 
1991.000000	99.720583 
1990.000000	99.713904 
1989.000000	99.709528 
1988.000000	99.709403 
1987.000000	99.714650 
1986.000000	99.722573 
1985.000000	99.726869 
1984.000000	99.723710 
1983.000000	99.715268 
1982.000000	99.705626 
1981.000000	99.696156 
1980.000000	99.687057 
1979.000000	99.681088 
1978.000000	99.682530 
1977.000000	99.691831 
1976.000000	99.702779 
1975.000000	99.706901 
1974.000000	99.701887 
1973.000000	99.696138 
1972.000000	99.702713 
1971.000000	99.725630 
1970.000000	99.752826 
1969.000000	99.765653 
1968.000000	99.756458 
1967.000000	99.735116 
1966.000000	99.717079 
1965.000000	99.708530 
1964.000000	99.705658 
1963.000000	99.704032 
1962.000000	99.703670 
1961.000000	99.706121 
1960.000000	99.710903 
1959.000000	99.716751 
1958.000000	99.724187 
1957.000000	99.733999 
1956.000000	99.743363 
1955.000000	99.746039 
1954.000000	99.738096 
1953.000000	99.722595 
1952.000000	99.706931 
1951.000000	99.695968 
1950.000000	99.689471 
1949.000000	99.685660 
1948.000000	99.684195 
1947.000000	99.683882 
1946.000000	99.679953 
1945.000000	99.667339 
1944.000000	99.647292 
1943.000000	99.629236 
1942.000000	99.624005 
1941.000000	99.633925 
1940.000000	99.650808 
1939.000000	99.664064 
1938.000000	99.669831 
1937.000000	99.672699 
1936.000000	99.678249 
1935.000000	99.684763 
1934.000000	99.685472 
1933.000000	99.678986 
1932.000000	99.673298 
1931.000000	99.676657 
1930.000000	99.687281 
1929.000000	99.695944 
1928.000000	99.697019 
1927.000000	99.692582 
1926.000000	99.686532 
1925.000000	99.679772 
1924.000000	99.672517 
1923.000000	99.667785 
1922.000000	99.668829 
1921.000000	99.674355 
1920.000000	99.678668 
1919.000000	99.675795 
1918.000000	99.664128 
1917.000000	99.648844 
1916.000000	99.637551 
1915.000000	99.632793 
1914.000000	99.631772 
1913.000000	99.631911 
1912.000000	99.633731 
1911.000000	99.637790 
1910.000000	99.641143 
1909.000000	99.640351 
1908.000000	99.636942 
1907.000000	99.635716 
1906.000000	99.638373 
1905.000000	99.641950 
1904.000000	99.643088 
1903.000000	99.641012 
1902.000000	99.636193 
1901.000000	99.629726 
1900.000000	99.624219 
1899.000000	99.622725 
1898.000000	99.626544 
1897.000000	99.634665 
1896.000000	99.644458 
1895.000000	99.651790 
1894.000000	99.652377 
1893.000000	99.646406 
1892.000000	99.640041 
1891.000000	99.638899 
1890.000000	99.640946 
1889.000000	99.639152 
1888.000000	99.631825 
1887.000000	99.624431 
1886.000000	99.621679 
1885.000000	99.623564 
1884.000000	99.628178 
1883.000000	99.634029 
1882.000000	99.638722 
1881.000000	99.639629 
1880.000000	99.637617 
1879.000000	99.637213 
1878.000000	99.641814 
1877.000000	99.650322 
1876.000000	99.658903 
1875.000000	99.664048 
1874.000000	99.663238 
1873.000000	99.655744 
1872.000000	99.644537 
1871.000000	99.634897 
1870.000000	99.629304 
1869.000000	99.625220 
1868.000000	99.621166 
1867.000000	99.620871 
1866.000000	99.626393 
1865.000000	99.633013 
1864.000000	99.633248 
1863.000000	99.624136 
1862.000000	99.610200 
1861.000000	99.599838 
1860.000000	99.598945 
1859.000000	99.606919 
1858.000000	99.617815 
1857.000000	99.625652 
1856.000000	99.629267 
1855.000000	99.631532 
1854.000000	99.634575 
1853.000000	99.637415 
1852.000000	99.638001 
1851.000000	99.635892 
1850.000000	99.633150 
1849.000000	99.633345 
1848.000000	99.638409 
1847.000000	99.646154 
1846.000000	99.651975 
1845.000000	99.653656 
1844.000000	99.654325 
1843.000000	99.658206 
1842.000000	99.663508 
1841.000000	99.664972 
1840.000000	99.660662 
1839.000000	99.653418 
1838.000000	99.647549 
1837.000000	99.645026 
1836.000000	99.645143 
1835.000000	99.646464 
1834.000000	99.647834 
1833.000000	99.648234 
1832.000000	99.646143 
1831.000000	99.640284 
1830.000000	99.632681 
1829.000000	99.629215 
1828.000000	99.633002 
1827.000000	99.640296 
1826.000000	99.645060 
1825.000000	99.645098 
1824.000000	99.643410 
1823.000000	99.642440 
1822.000000	99.639613 
1821.000000	99.632252 
1820.000000	99.624067 
1819.000000	99.622945 
1818.000000	99.631289 
1817.000000	99.641893 
1816.000000	99.646631 
1815.000000	99.645727 
1814.000000	99.644743 
1813.000000	99.646543 
1812.000000	99.649503 
1811.000000	99.652048 
1810.000000	99.654246 
1809.000000	99.654878 
1808.000000	99.652048 
1807.000000	99.645669 
1806.000000	99.637217 
1805.000000	99.628846 
1804.000000	99.623111 
1803.000000	99.621194 
1802.000000	99.620728 
1801.000000	99.617843 
1800.000000	99.613025 
1799.000000	99.611585 
1798.000000	99.616071 
1797.000000	99.623344 
1796.000000	99.629932 
1795.000000	99.635298 
1794.000000	99.639212 
1793.000000	99.639175 
1792.000000	99.634077 
1791.000000	99.628937 
1790.000000	99.627957 
1789.000000	99.629129 
1788.000000	99.629873 
1787.000000	99.631003 
1786.000000	99.633966 
1785.000000	99.637141 
1784.000000	99.637767 
1783.000000	99.635391 
1782.000000	99.631323 
1781.000000	99.627211 
1780.000000	99.624439 
1779.000000	99.623838 
1778.000000	99.625319 
1777.000000	99.628288 
1776.000000	99.631988 
1775.000000	99.634925 
1774.000000	99.636019 
1773.000000	99.636540 
1772.000000	99.638809 
1771.000000	99.643171 
1770.000000	99.646644 
1769.000000	99.645329 
1768.000000	99.638887 
1767.000000	99.631737 
1766.000000	99.628076 
1765.000000	99.627416 
1764.000000	99.626936 
1763.000000	99.625430 
1762.000000	99.624034 
1761.000000	99.624077 
1760.000000	99.625187 
1759.000000	99.626715 
1758.000000	99.629317 
1757.000000	99.634292 
1756.000000	99.640785 
1755.000000	99.645353 
1754.000000	99.645665 
1753.000000	99.642472 
1752.000000	99.637760 
1751.000000	99.631691 
1750.000000	99.623894 
1749.000000	99.616360 
1748.000000	99.611968 
1747.000000	99.611556 
1746.000000	99.613491 
1745.000000	99.615575 
1744.000000	99.616238 
1743.000000	99.615271 
1742.000000	99.613522 
1741.000000	99.611333 
1740.000000	99.608938 
1739.000000	99.608497 
1738.000000	99.611832 
1737.000000	99.616522 
1736.000000	99.619208 
1735.000000	99.619346 
1734.000000	99.617429 
1733.000000	99.615961 
1732.000000	99.617195 
1731.000000	99.618127 
1730.000000	99.616144 
1729.000000	99.612877 
1728.000000	99.611150 
1727.000000	99.611450 
1726.000000	99.612818 
1725.000000	99.614784 
1724.000000	99.617016 
1723.000000	99.619012 
1722.000000	99.620020 
1721.000000	99.619014 
1720.000000	99.616792 
1719.000000	99.617761 
1718.000000	99.625419 
1717.000000	99.633325 
1716.000000	99.634657 
1715.000000	99.632556 
1714.000000	99.629912 
1713.000000	99.625355 
1712.000000	99.618590 
1711.000000	99.612534 
1710.000000	99.610695 
1709.000000	99.613427 
1708.000000	99.617443 
1707.000000	99.619478 
1706.000000	99.618355 
1705.000000	99.614517 
1704.000000	99.610203 
1703.000000	99.607497 
1702.000000	99.606916 
1701.000000	99.606507 
1700.000000	99.602299 
1699.000000	99.600914 
1698.000000	99.606476 
1697.000000	99.610217 
1696.000000	99.605567 
1695.000000	99.597230 
1694.000000	99.592588 
1693.000000	99.590256 
1692.000000	99.586766 
1691.000000	99.583010 
1690.000000	99.581577 
1689.000000	99.582482 
1688.000000	99.583438 
1687.000000	99.582969 
1686.000000	99.582504 
1685.000000	99.583347 
1684.000000	99.582694 
1683.000000	99.581106 
1682.000000	99.579917 
1681.000000	99.577600 
1680.000000	99.574144 
1679.000000	99.570507 
1678.000000	99.565494 
1677.000000	99.557677 
1676.000000	99.549111 
1675.000000	99.544409 
1674.000000	99.546540 
1673.000000	99.553536 
1672.000000	99.560541 
1671.000000	99.563807 
1670.000000	99.560508 
1669.000000	99.551614 
1668.000000	99.543165 
1667.000000	99.538284 
1666.000000	99.535589 
1665.000000	99.533312 
1664.000000	99.531498 
1663.000000	99.530705 
1662.000000	99.530032 
1661.000000	99.529458 
1660.000000	99.530466 
1659.000000	99.532748 
1658.000000	99.533565 
1657.000000	99.529676 
1656.000000	99.519777 
1655.000000	99.506055 
1654.000000	99.493703 
1653.000000	99.485107 
1652.000000	99.484667 
1651.000000	99.492671 
1650.000000	99.501182 
1649.000000	99.505219 
1648.000000	99.506393 
1647.000000	99.506067 
1646.000000	99.504327 
1645.000000	99.503818 
1644.000000	99.506525 
1643.000000	99.510702 
1642.000000	99.512997 
1641.000000	99.511961 
1640.000000	99.509126 
1639.000000	99.506293 
1638.000000	99.504153 
1637.000000	99.503877 
1636.000000	99.506634 
1635.000000	99.509688 
1634.000000	99.510180 
1633.000000	99.507873 
1632.000000	99.503865 
1631.000000	99.500254 
1630.000000	99.498504 
1629.000000	99.498537 
1628.000000	99.500038 
1627.000000	99.502576 
1626.000000	99.504842 
1625.000000	99.506102 
1624.000000	99.507290 
1623.000000	99.509331 
1622.000000	99.511909 
1621.000000	99.514808 
1620.000000	99.517276 
1619.000000	99.517842 
1618.000000	99.516158 
1617.000000	99.514486 
1616.000000	99.517425 
1615.000000	99.525231 
1614.000000	99.532744 
1613.000000	99.537365 
1612.000000	99.541180 
1611.000000	99.545882 
1610.000000	99.549110 
1609.000000	99.549017 
1608.000000	99.547914 
1607.000000	99.548060 
1606.000000	99.548828 
1605.000000	99.549942 
1604.000000	99.552445 
1603.000000	99.555617 
1602.000000	99.557440 
1601.000000	99.558424 
1600.000000	99.561274 
1599.000000	99.566507 
1598.000000	99.571819 
1597.000000	99.575558 
1596.000000	99.577926 
1595.000000	99.578720 
1594.000000	99.576934 
1593.000000	99.573991 
1592.000000	99.573651 
1591.000000	99.577207 
1590.000000	99.581759 
1589.000000	99.584924 
1588.000000	99.587997 
1587.000000	99.592462 
1586.000000	99.596698 
1585.000000	99.598630 
1584.000000	99.598941 
1583.000000	99.598995 
1582.000000	99.598752 
1581.000000	99.598378 
1580.000000	99.598053 
1579.000000	99.595776 
1578.000000	99.589374 
1577.000000	99.581162 
1576.000000	99.577485 
1575.000000	99.580823 
1574.000000	99.587220 
1573.000000	99.592851 
1572.000000	99.596976 
1571.000000	99.600507 
1570.000000	99.602525 
1569.000000	99.602818 
1568.000000	99.603844 
1567.000000	99.604676 
1566.000000	99.602875 
1565.000000	99.599187 
1564.000000	99.595957 
1563.000000	99.592133 
1562.000000	99.584630 
1561.000000	99.576265 
1560.000000	99.576405 
1559.000000	99.581098 
1558.000000	99.579473 
1557.000000	99.582557 
1556.000000	99.591304 
1555.000000	99.597401 
1554.000000	99.597216 
1553.000000	99.593856 
1552.000000	99.590875 
1551.000000	99.588835 
1550.000000	99.587921 
1549.000000	99.589368 
1548.000000	99.593069 
1547.000000	99.595678 
1546.000000	99.593040 
1545.000000	99.584576 
1544.000000	99.575987 
1543.000000	99.575145 
1542.000000	99.584520 
1541.000000	99.596708 
1540.000000	99.599686 
1539.000000	99.593804 
1538.000000	99.589736 
1537.000000	99.590151 
1536.000000	99.591225 
1535.000000	99.590398 
1534.000000	99.585830 
1533.000000	99.577359 
1532.000000	99.570621 
1531.000000	99.570679 
1530.000000	99.575222 
1529.000000	99.578620 
1528.000000	99.578386 
1527.000000	99.577082 
1526.000000	99.578144 
1525.000000	99.581352 
1524.000000	99.584929 
1523.000000	99.588747 
1522.000000	99.591528 
1521.000000	99.588830 
1520.000000	99.581244 
1519.000000	99.573212 
1518.000000	99.565786 
1517.000000	99.559267 
1516.000000	99.555855 
1515.000000	99.556681 
1514.000000	99.559525 
1513.000000	99.561695 
1512.000000	99.562078 
1511.000000	99.561243 
1510.000000	99.559833 
1509.000000	99.558431 
1508.000000	99.559137 
1507.000000	99.562797 
1506.000000	99.564230 
1505.000000	99.560593 
1504.000000	99.556100 
1503.000000	99.553151 
1502.000000	99.551387 
1501.000000	99.549522 
1500.000000	99.545676 
1499.000000	99.539429 
1498.000000	99.532703 
1497.000000	99.525556 
1496.000000	99.517521 
1495.000000	99.513860 
1494.000000	99.518432 
1493.000000	99.527594 
1492.000000	99.535599 
1491.000000	99.539064 
1490.000000	99.536816 
1489.000000	99.528979 
1488.000000	99.518742 
1487.000000	99.511409 
1486.000000	99.507448 
1485.000000	99.503369 
1484.000000	99.498267 
1483.000000	99.494157 
1482.000000	99.492867 
1481.000000	99.493194 
1480.000000	99.492780 
1479.000000	99.491346 
1478.000000	99.489411 
1477.000000	99.486086 
1476.000000	99.480945 
1475.000000	99.477199 
1474.000000	99.477062 
1473.000000	99.476790 
1472.000000	99.471313 
1471.000000	99.463607 
1470.000000	99.457782 
1469.000000	99.452453 
1468.000000	99.445708 
1467.000000	99.439462 
1466.000000	99.436914 
1465.000000	99.437656 
1464.000000	99.438601 
1463.000000	99.438442 
1462.000000	99.437445 
1461.000000	99.434678 
1460.000000	99.429249 
1459.000000	99.421491 
1458.000000	99.411838 
1457.000000	99.398209 
1456.000000	99.382200 
1455.000000	99.371343 
1454.000000	99.367303 
1453.000000	99.366836 
1452.000000	99.368109 
1451.000000	99.370959 
1450.000000	99.375002 
1449.000000	99.378514 
1448.000000	99.379975 
1447.000000	99.380995 
1446.000000	99.384011 
1445.000000	99.388669 
1444.000000	99.392914 
1443.000000	99.395970 
1442.000000	99.398922 
1441.000000	99.402118 
1440.000000	99.403734 
1439.000000	99.402406 
1438.000000	99.400595 
1437.000000	99.400987 
1436.000000	99.401778 
1435.000000	99.401056 
1434.000000	99.399414 
1433.000000	99.396452 
1432.000000	99.392047 
1431.000000	99.387183 
1430.000000	99.383325 
1429.000000	99.380523 
1428.000000	99.377009 
1427.000000	99.371901 
1426.000000	99.365964 
1425.000000	99.360917 
1424.000000	99.356701 
1423.000000	99.350639 
1422.000000	99.340849 
1421.000000	99.327026 
1420.000000	99.309418 
1419.000000	99.289701 
1418.000000	99.273534 
1417.000000	99.262260 
1416.000000	99.249326 
1415.000000	99.230379 
1414.000000	99.207614 
1413.000000	99.185963 
1412.000000	99.168032 
1411.000000	99.153388 
1410.000000	99.141257 
1409.000000	99.131176 
1408.000000	99.123022 
1407.000000	99.118510 
1406.000000	99.120183 
1405.000000	99.129032 
1404.000000	99.142917 
1403.000000	99.158789 
1402.000000	99.176067 
1401.000000	99.195520 
1400.000000	99.216108 
1399.000000	99.231846 
1398.000000	99.233367 
1397.000000	99.212450 
1396.000000	99.168437 
1395.000000	99.118657 
1394.000000	99.095575 
1393.000000	99.117195 
1392.000000	99.168548 
1391.000000	99.221052 
1390.000000	99.255644 
1389.000000	99.268580 
1388.000000	99.265187 
1387.000000	99.252812 
1386.000000	99.238456 
1385.000000	99.227410 
1384.000000	99.221262 
1383.000000	99.218391 
1382.000000	99.216963 
1381.000000	99.217219 
1380.000000	99.221398 
1379.000000	99.231127 
1378.000000	99.245479 
1377.000000	99.262043 
1376.000000	99.278642 
1375.000000	99.293605 
1374.000000	99.306463 
1373.000000	99.319252 
1372.000000	99.333990 
1371.000000	99.349606 
1370.000000	99.363278 
1369.000000	99.374748 
1368.000000	99.386197 
1367.000000	99.398387 
1366.000000	99.409908 
1365.000000	99.420057 
1364.000000	99.430167 
1363.000000	99.441238 
1362.000000	99.451747 
1361.000000	99.459992 
1360.000000	99.466868 
1359.000000	99.474578 
1358.000000	99.484208 
1357.000000	99.495272 
1356.000000	99.506162 
1355.000000	99.515097 
1354.000000	99.521559 
1353.000000	99.526558 
1352.000000	99.531040 
1351.000000	99.534679 
1350.000000	99.536347 
1349.000000	99.536942 
1348.000000	99.538528 
1347.000000	99.541157 
1346.000000	99.543102 
1345.000000	99.544181 
1344.000000	99.546039 
1343.000000	99.549044 
1342.000000	99.551466 
1341.000000	99.552462 
1340.000000	99.553482 
1339.000000	99.555674 
1338.000000	99.558444 
1337.000000	99.561617 
1336.000000	99.566024 
1335.000000	99.571034 
1334.000000	99.574000 
1333.000000	99.573530 
1332.000000	99.571544 
1331.000000	99.570564 
1330.000000	99.570510 
1329.000000	99.569952 
1328.000000	99.568851 
1327.000000	99.568118 
1326.000000	99.567626 
1325.000000	99.566942 
1324.000000	99.566397 
1323.000000	99.566341 
1322.000000	99.566445 
1321.000000	99.566793 
1320.000000	99.568543 
1319.000000	99.572241 
1318.000000	99.576159 
1317.000000	99.577593 
1316.000000	99.575531 
1315.000000	99.571240 
1314.000000	99.566812 
1313.000000	99.563708 
1312.000000	99.562276 
1311.000000	99.562038 
1310.000000	99.562487 
1309.000000	99.563693 
1308.000000	99.565765 
1307.000000	99.567860 
1306.000000	99.568428 
1305.000000	99.567208 
1304.000000	99.565592 
1303.000000	99.564742 
1302.000000	99.564201 
1301.000000	99.563006 
1300.000000	99.561376 
1299.000000	99.560497 
1298.000000	99.561022 
1297.000000	99.562321 
1296.000000	99.562984 
1295.000000	99.561582 
1294.000000	99.557551 
1293.000000	99.551834 
1292.000000	99.546301 
1291.000000	99.542147 
1290.000000	99.539108 
1289.000000	99.536372 
1288.000000	99.533607 
1287.000000	99.530600 
1286.000000	99.526706 
1285.000000	99.521469 
1284.000000	99.515290 
1283.000000	99.508730 
1282.000000	99.501570 
1281.000000	99.493385 
1280.000000	99.484749 
1279.000000	99.476750 
1278.000000	99.469637 
1277.000000	99.463033 
1276.000000	99.457361 
1275.000000	99.453498 
1274.000000	99.450773 
1273.000000	99.446717 
1272.000000	99.439604 
1271.000000	99.430297 
1270.000000	99.420696 
1269.000000	99.411141 
1268.000000	99.400383 
1267.000000	99.387641 
1266.000000	99.373643 
1265.000000	99.359626 
1264.000000	99.346185 
1263.000000	99.333234 
1262.000000	99.320394 
1261.000000	99.307438 
1260.000000	99.294883 
1259.000000	99.283695 
1258.000000	99.273915 
1257.000000	99.264229 
1256.000000	99.254106 
1255.000000	99.245698 
1254.000000	99.241559 
1253.000000	99.240284 
1252.000000	99.236943 
1251.000000	99.229293 
1250.000000	99.221781 
1249.000000	99.221240 
1248.000000	99.229339 
1247.000000	99.240743 
1246.000000	99.247505 
1245.000000	99.243337 
1244.000000	99.225911 
1243.000000	99.200001 
1242.000000	99.178548 
1241.000000	99.174867 
1240.000000	99.190155 
1239.000000	99.210862 
1238.000000	99.221184 
1237.000000	99.216690 
1236.000000	99.203731 
1235.000000	99.188975 
1234.000000	99.174202 
1233.000000	99.159659 
1232.000000	99.146570 
1231.000000	99.134784 
1230.000000	99.122053 
1229.000000	99.108015 
1228.000000	99.096212 
1227.000000	99.089854 
1226.000000	99.087382 
1225.000000	99.084485 
1224.000000	99.079152 
1223.000000	99.072546 
1222.000000	99.065940 
1221.000000	99.059275 
1220.000000	99.052524 
1219.000000	99.046276 
1218.000000	99.040353 
1217.000000	99.033067 
1216.000000	99.022446 
1215.000000	99.007696 
1214.000000	98.989294 
1213.000000	98.968147 
1212.000000	98.945027 
1211.000000	98.920877 
1210.000000	98.897351 
1209.000000	98.876323 
1208.000000	98.858134 
1207.000000	98.840586 
1206.000000	98.820758 
1205.000000	98.798086 
1204.000000	98.774680 
1203.000000	98.752403 
1202.000000	98.730908 
1201.000000	98.709049 
1200.000000	98.686726 
1199.000000	98.664308 
1198.000000	98.641505 
1197.000000	98.617982 
1196.000000	98.593926 
1195.000000	98.568832 
1194.000000	98.540986 
1193.000000	98.509824 
1192.000000	98.477752 
1191.000000	98.447738 
1190.000000	98.419731 
1189.000000	98.391316 
1188.000000	98.361385 
1187.000000	98.331186 
1186.000000	98.301960 
1185.000000	98.273401 
1184.000000	98.244438 
1183.000000	98.214024 
1182.000000	98.181351 
1181.000000	98.146873 
1180.000000	98.112659 
1179.000000	98.079931 
1178.000000	98.046717 
1177.000000	98.010004 
1176.000000	97.969707 
1175.000000	97.928074 
1174.000000	97.885492 
1173.000000	97.839971 
1172.000000	97.791281 
1171.000000	97.742669 
1170.000000	97.697190 
1169.000000	97.654448 
1168.000000	97.612307 
1167.000000	97.570342 
1166.000000	97.531000 
1165.000000	97.499048 
1164.000000	97.480263 
1163.000000	97.478328 
1162.000000	97.491618 
1161.000000	97.514126 
1160.000000	97.539563 
1159.000000	97.562938 
1158.000000	97.578850 
1157.000000	97.581376 
1156.000000	97.567239 
1155.000000	97.538429 
1154.000000	97.501458 
1153.000000	97.464189 
1152.000000	97.431983 
1151.000000	97.404627 
1150.000000	97.377040 
1149.000000	97.344816 
1148.000000	97.308888 
1147.000000	97.273308 
1146.000000	97.239525 
1145.000000	97.205325 
1144.000000	97.168708 
1143.000000	97.129979 
1142.000000	97.090373 
1141.000000	97.051586 
1140.000000	97.016449 
1139.000000	96.986636 
1138.000000	96.959147 
1137.000000	96.928057 
1136.000000	96.890534 
1135.000000	96.848797 
1134.000000	96.805971 
1133.000000	96.762803 
1132.000000	96.719019 
1131.000000	96.675241 
1130.000000	96.632705 
1129.000000	96.592735 
1128.000000	96.556068 
1127.000000	96.520373 
1126.000000	96.479682 
1125.000000	96.430101 
1124.000000	96.375766 
1123.000000	96.325269 
1122.000000	96.282124 
1121.000000	96.242451 
1120.000000	96.201761 
1119.000000	96.159219 
1118.000000	96.114839 
1117.000000	96.067693 
1116.000000	96.018651 
1115.000000	95.970697 
1114.000000	95.924794 
1113.000000	95.879062 
1112.000000	95.833028 
1111.000000	95.788336 
1110.000000	95.743873 
1109.000000	95.695125 
1108.000000	95.640729 
1107.000000	95.585884 
1106.000000	95.536440 
1105.000000	95.492603 
1104.000000	95.450628 
1103.000000	95.407687 
1102.000000	95.363177 
1101.000000	95.318235 
1100.000000	95.275347 
1099.000000	95.236883 
1098.000000	95.201820 
1097.000000	95.167107 
1096.000000	95.131910 
1095.000000	95.096915 
1094.000000	95.059173 
1093.000000	95.012085 
1092.000000	94.952145 
1091.000000	94.882722 
1090.000000	94.810477 
1089.000000	94.741026 
1088.000000	94.678038 
1087.000000	94.622229 
1086.000000	94.570281 
1085.000000	94.518360 
1084.000000	94.466850 
1083.000000	94.417895 
1082.000000	94.369348 
1081.000000	94.316717 
1080.000000	94.260970 
1079.000000	94.208532 
1078.000000	94.163229 
1077.000000	94.124146 
1076.000000	94.091746 
1075.000000	94.069248 
1074.000000	94.056541 
1073.000000	94.048324 
1072.000000	94.037990 
1071.000000	94.016355 
1070.000000	93.968139 
1069.000000	93.881748 
1068.000000	93.767857 
1067.000000	93.660201 
1066.000000	93.589903 
1065.000000	93.560955 
1064.000000	93.553139 
1063.000000	93.541674 
1062.000000	93.509452 
1061.000000	93.448761 
1060.000000	93.362558 
1059.000000	93.265485 
1058.000000	93.177454 
1057.000000	93.111893 
1056.000000	93.068725 
1055.000000	93.036602 
1054.000000	93.001766 
1053.000000	92.958136 
1052.000000	92.910385 
1051.000000	92.865672 
1050.000000	92.823507 
1049.000000	92.777671 
1048.000000	92.726365 
1047.000000	92.674507 
1046.000000	92.626637 
1045.000000	92.582838 
1044.000000	92.541156 
1043.000000	92.499439 
1042.000000	92.455562 
1041.000000	92.410093 
1040.000000	92.368157 
1039.000000	92.335128 
1038.000000	92.311791 
1037.000000	92.296819 
1036.000000	92.290824 
1035.000000	92.293388 
1034.000000	92.299472 
1033.000000	92.303416 
1032.000000	92.302134 
1031.000000	92.289903 
1030.000000	92.258238 
1029.000000	92.210883 
1028.000000	92.172588 
1027.000000	92.169117 
1026.000000	92.198703 
1025.000000	92.234302 
1024.000000	92.253259 
1023.000000	92.253857 
1022.000000	92.244672 
1021.000000	92.231737 
1020.000000	92.219268 
1019.000000	92.211165 
1018.000000	92.206033 
1017.000000	92.198253 
1016.000000	92.187447 
1015.000000	92.179889 
1014.000000	92.178332 
1013.000000	92.178022 
1012.000000	92.175140 
1011.000000	92.171689 
1010.000000	92.169601 
1009.000000	92.167323 
1008.000000	92.165084 
1007.000000	92.166894 
1006.000000	92.174526 
1005.000000	92.185124 
1004.000000	92.196471 
1003.000000	92.208780 
1002.000000	92.220237 
1001.000000	92.227298 
1000.000000	92.230802 
999.000000	 92.235608 
998.000000	 92.243068 
997.000000	 92.250266 
996.000000	 92.257563 
995.000000	 92.269658 
994.000000	 92.287385 
993.000000	 92.305293 
992.000000	 92.319512 
991.000000	 92.331844 
990.000000	 92.344360 
989.000000	 92.356294 
988.000000	 92.368438 
987.000000	 92.384729 
986.000000	 92.407200 
985.000000	 92.434227 
984.000000	 92.464871 
983.000000	 92.499702 
982.000000	 92.536706 
981.000000	 92.572323 
980.000000	 92.607537 
979.000000	 92.647419 
978.000000	 92.693961 
977.000000	 92.744775 
976.000000	 92.798678 
975.000000	 92.856126 
974.000000	 92.914112 
973.000000	 92.967944 
972.000000	 93.019356 
971.000000	 93.076166 
970.000000	 93.142111 
969.000000	 93.212649 
968.000000	 93.281964 
967.000000	 93.348396 
966.000000	 93.412095 
965.000000	 93.473292 
964.000000	 93.534278 
963.000000	 93.597844 
962.000000	 93.662650 
961.000000	 93.724884 
960.000000	 93.784479 
959.000000	 93.844199 
958.000000	 93.902805 
957.000000	 93.955597 
956.000000	 94.002370 
955.000000	 94.048488 
954.000000	 94.097073 
953.000000	 94.146098 
952.000000	 94.194117 
951.000000	 94.242299 
950.000000	 94.289217 
949.000000	 94.330004 
948.000000	 94.363065 
947.000000	 94.392275 
946.000000	 94.420456 
945.000000	 94.445906 
944.000000	 94.467748 
943.000000	 94.489859 
942.000000	 94.516667 
941.000000	 94.548226 
940.000000	 94.580840 
939.000000	 94.609425 
938.000000	 94.629409 
937.000000	 94.640977 
936.000000	 94.651949 
935.000000	 94.671846 
934.000000	 94.702166 
933.000000	 94.736426 
932.000000	 94.769429 
931.000000	 94.801195 
930.000000	 94.831890 
929.000000	 94.859047 
928.000000	 94.881245 
927.000000	 94.899766 
926.000000	 94.915714 
925.000000	 94.929999 
924.000000	 94.946275 
923.000000	 94.968462 
922.000000	 94.994601 
921.000000	 95.018275 
920.000000	 95.036607 
919.000000	 95.051767 
918.000000	 95.064771 
917.000000	 95.074059 
916.000000	 95.080786 
915.000000	 95.088983 
914.000000	 95.099099 
913.000000	 95.107787 
912.000000	 95.115986 
911.000000	 95.130893 
910.000000	 95.157261 
909.000000	 95.192120 
908.000000	 95.230518 
907.000000	 95.271061 
906.000000	 95.313407 
905.000000	 95.355644 
904.000000	 95.397208 
903.000000	 95.440584 
902.000000	 95.488018 
901.000000	 95.539648 
900.000000	 95.595506 
899.000000	 95.655328 
898.000000	 95.715585 
897.000000	 95.770988 
896.000000	 95.819454 
895.000000	 95.862341 
894.000000	 95.900823 
893.000000	 95.936825 
892.000000	 95.976715 
891.000000	 96.028124 
890.000000	 96.091933 
889.000000	 96.161210 
888.000000	 96.227459 
887.000000	 96.284104 
886.000000	 96.326866 
885.000000	 96.357457 
884.000000	 96.385128 
883.000000	 96.417054 
882.000000	 96.448235 
881.000000	 96.469448 
880.000000	 96.484722 
879.000000	 96.510374 
878.000000	 96.554244 
877.000000	 96.605887 
876.000000	 96.651293 
875.000000	 96.687869 
874.000000	 96.720323 
873.000000	 96.750858 
872.000000	 96.780043 
871.000000	 96.811107 
870.000000	 96.847354 
869.000000	 96.889530 
868.000000	 96.938972 
867.000000	 96.997437 
866.000000	 97.060081 
865.000000	 97.115047 
864.000000	 97.155692 
863.000000	 97.188861 
862.000000	 97.225698 
861.000000	 97.267696 
860.000000	 97.307448 
859.000000	 97.340449 
858.000000	 97.369920 
857.000000	 97.400656 
856.000000	 97.433705 
855.000000	 97.468041 
854.000000	 97.503114 
853.000000	 97.537601 
852.000000	 97.568125 
851.000000	 97.591909 
850.000000	 97.610505 
849.000000	 97.629185 
848.000000	 97.651727 
847.000000	 97.676482 
846.000000	 97.698547 
845.000000	 97.715166 
844.000000	 97.726951 
843.000000	 97.734253 
842.000000	 97.735936 
841.000000	 97.732905 
840.000000	 97.728804 
839.000000	 97.724557 
838.000000	 97.715971 
837.000000	 97.700572 
836.000000	 97.683200 
835.000000	 97.669698 
834.000000	 97.658340 
833.000000	 97.644433 
832.000000	 97.631341 
831.000000	 97.628089 
830.000000	 97.634853 
829.000000	 97.639667 
828.000000	 97.633858 
827.000000	 97.624070 
826.000000	 97.623327 
825.000000	 97.634642 
824.000000	 97.649461 
823.000000	 97.659584 
822.000000	 97.665420 
821.000000	 97.673289 
820.000000	 97.687509 
819.000000	 97.704804 
818.000000	 97.716089 
817.000000	 97.715087 
816.000000	 97.703865 
815.000000	 97.687028 
814.000000	 97.662487 
813.000000	 97.622881 
812.000000	 97.564879 
811.000000	 97.490215 
810.000000	 97.396893 
809.000000	 97.277305 
808.000000	 97.129079 
807.000000	 96.961719 
806.000000	 96.787099 
805.000000	 96.607964 
804.000000	 96.422124 
803.000000	 96.234869 
802.000000	 96.060535 
801.000000	 95.912322 
800.000000	 95.795149 
799.000000	 95.707885 
798.000000	 95.648813 
797.000000	 95.618092 
796.000000	 95.615036 
795.000000	 95.633018 
794.000000	 95.660321 
793.000000	 95.689626 
792.000000	 95.723536 
791.000000	 95.765572 
790.000000	 95.808505 
789.000000	 95.837817 
788.000000	 95.844730 
787.000000	 95.829673 
786.000000	 95.795171 
785.000000	 95.742799 
784.000000	 95.676795 
783.000000	 95.603720 
782.000000	 95.527918 
781.000000	 95.452771 
780.000000	 95.385658 
779.000000	 95.335186 
778.000000	 95.304123 
777.000000	 95.291854 
776.000000	 95.302151 
775.000000	 95.339803 
774.000000	 95.400132 
773.000000	 95.470972 
772.000000	 95.545137 
771.000000	 95.622345 
770.000000	 95.699332 
769.000000	 95.767482 
768.000000	 95.821189 
767.000000	 95.860947 
766.000000	 95.888720 
765.000000	 95.908533 
764.000000	 95.930489 
763.000000	 95.963568 
762.000000	 96.002928 
761.000000	 96.034051 
760.000000	 96.051682 
759.000000	 96.065960 
758.000000	 96.088294 
757.000000	 96.119888 
756.000000	 96.155398 
755.000000	 96.188047 
754.000000	 96.209600 
753.000000	 96.216410 
752.000000	 96.219402 
751.000000	 96.238159 
750.000000	 96.279303 
749.000000	 96.327618 
748.000000	 96.363072 
747.000000	 96.380565 
746.000000	 96.390019 
745.000000	 96.404119 
744.000000	 96.430199 
743.000000	 96.468276 
742.000000	 96.512650 
741.000000	 96.558704 
740.000000	 96.608295 
739.000000	 96.663398 
738.000000	 96.716337 
737.000000	 96.754920 
736.000000	 96.777226 
735.000000	 96.792744 
734.000000	 96.808858 
733.000000	 96.825909 
732.000000	 96.845872 
731.000000	 96.873474 
730.000000	 96.905022 
729.000000	 96.927901 
728.000000	 96.936310 
727.000000	 96.938027 
726.000000	 96.941183 
725.000000	 96.943549 
724.000000	 96.940715 
723.000000	 96.936411 
722.000000	 96.938321 
721.000000	 96.950434 
720.000000	 96.974547 
719.000000	 97.011746 
718.000000	 97.056489 
717.000000	 97.095849 
716.000000	 97.120465 
715.000000	 97.131887 
714.000000	 97.136653 
713.000000	 97.139934 
712.000000	 97.148317 
711.000000	 97.169949 
710.000000	 97.204413 
709.000000	 97.237970 
708.000000	 97.254880 
707.000000	 97.249879 
706.000000	 97.227459 
705.000000	 97.194532 
704.000000	 97.158084 
703.000000	 97.124530 
702.000000	 97.094381 
701.000000	 97.059599 
700.000000	 97.009187 
699.000000	 96.934333 
698.000000	 96.831566 
697.000000	 96.709760 
696.000000	 96.594568 
695.000000	 96.516139 
694.000000	 96.486749 
693.000000	 96.497396 
692.000000	 96.535920 
691.000000	 96.595807 
690.000000	 96.667548 
689.000000	 96.736536 
688.000000	 96.795914 
687.000000	 96.849255 
686.000000	 96.893444 
685.000000	 96.914853 
684.000000	 96.911425 
683.000000	 96.903230 
682.000000	 96.912143 
681.000000	 96.941461 
680.000000	 96.980448 
679.000000	 97.015947 
678.000000	 97.035066 
677.000000	 97.034062 
676.000000	 97.030589 
675.000000	 97.048076 
674.000000	 97.083760 
673.000000	 97.106304 
672.000000	 97.091701 
671.000000	 97.049172 
670.000000	 97.009508 
669.000000	 97.008091 
668.000000	 97.062786 
667.000000	 97.139970 
666.000000	 97.194355 
665.000000	 97.217600 
664.000000	 97.224491 
663.000000	 97.240066 
662.000000	 97.274818 
661.000000	 97.308972 
660.000000	 97.317917 
659.000000	 97.302053 
658.000000	 97.277689 
657.000000	 97.251449 
656.000000	 97.220968 
655.000000	 97.192247 
654.000000	 97.178031 
653.000000	 97.176903 
652.000000	 97.172178 
651.000000	 97.155690 
650.000000	 97.137723 

