4000.000000	99.283405 
3999.000000	99.282555 
3998.000000	99.281555 
3997.000000	99.281102 
3996.000000	99.281327 
3995.000000	99.281798 
3994.000000	99.282070 
3993.000000	99.282116 
3992.000000	99.282156 
3991.000000	99.282256 
3990.000000	99.282168 
3989.000000	99.281534 
3988.000000	99.280237 
3987.000000	99.278650 
3986.000000	99.277501 
3985.000000	99.277348 
3984.000000	99.278169 
3983.000000	99.279463 
3982.000000	99.280757 
3981.000000	99.281950 
3980.000000	99.283119 
3979.000000	99.284176 
3978.000000	99.284855 
3977.000000	99.284960 
3976.000000	99.284473 
3975.000000	99.283471 
3974.000000	99.282053 
3973.000000	99.280426 
3972.000000	99.278966 
3971.000000	99.278108 
3970.000000	99.278134 
3969.000000	99.278968 
3968.000000	99.280141 
3967.000000	99.281015 
3966.000000	99.281177 
3965.000000	99.280638 
3964.000000	99.279757 
3963.000000	99.279046 
3962.000000	99.278902 
3961.000000	99.279373 
3960.000000	99.280035 
3959.000000	99.280256 
3958.000000	99.279780 
3957.000000	99.278928 
3956.000000	99.278212 
3955.000000	99.277749 
3954.000000	99.277276 
3953.000000	99.276612 
3952.000000	99.275903 
3951.000000	99.275422 
3950.000000	99.275175 
3949.000000	99.274866 
3948.000000	99.274316 
3947.000000	99.273806 
3946.000000	99.273764 
3945.000000	99.274177 
3944.000000	99.274511 
3943.000000	99.274259 
3942.000000	99.273498 
3941.000000	99.272794 
3940.000000	99.272473 
3939.000000	99.272305 
3938.000000	99.272018 
3937.000000	99.271656 
3936.000000	99.271415 
3935.000000	99.271314 
3934.000000	99.271297 
3933.000000	99.271500 
3932.000000	99.272042 
3931.000000	99.272717 
3930.000000	99.273087 
3929.000000	99.272929 
3928.000000	99.272452 
3927.000000	99.271762 
3926.000000	99.270697 
3925.000000	99.269294 
3924.000000	99.268056 
3923.000000	99.267370 
3922.000000	99.266911 
3921.000000	99.266274 
3920.000000	99.265708 
3919.000000	99.265641 
3918.000000	99.265944 
3917.000000	99.266134 
3916.000000	99.266081 
3915.000000	99.265999 
3914.000000	99.265958 
3913.000000	99.265840 
3912.000000	99.265631 
3911.000000	99.265410 
3910.000000	99.265257 
3909.000000	99.265173 
3908.000000	99.265148 
3907.000000	99.265137 
3906.000000	99.265076 
3905.000000	99.264927 
3904.000000	99.264724 
3903.000000	99.264535 
3902.000000	99.264376 
3901.000000	99.264209 
3900.000000	99.264019 
3899.000000	99.263817 
3898.000000	99.263608 
3897.000000	99.263396 
3896.000000	99.263193 
3895.000000	99.263000 
3894.000000	99.262828 
3893.000000	99.262680 
3892.000000	99.262540 
3891.000000	99.262388 
3890.000000	99.262244 
3889.000000	99.262132 
3888.000000	99.262042 
3887.000000	99.261945 
3886.000000	99.261823 
3885.000000	99.261693 
3884.000000	99.261608 
3883.000000	99.261585 
3882.000000	99.261575 
3881.000000	99.261526 
3880.000000	99.261448 
3879.000000	99.261416 
3878.000000	99.261505 
3877.000000	99.261667 
3876.000000	99.261766 
3875.000000	99.261709 
3874.000000	99.261529 
3873.000000	99.261388 
3872.000000	99.261330 
3871.000000	99.261165 
3870.000000	99.260776 
3869.000000	99.260495 
3868.000000	99.260772 
3867.000000	99.261437 
3866.000000	99.261823 
3865.000000	99.261761 
3864.000000	99.261620 
3863.000000	99.261643 
3862.000000	99.261686 
3861.000000	99.261541 
3860.000000	99.261257 
3859.000000	99.260790 
3858.000000	99.259967 
3857.000000	99.258882 
3856.000000	99.258296 
3855.000000	99.259030 
3854.000000	99.260437 
3853.000000	99.260755 
3852.000000	99.260849 
3851.000000	99.262143 
3850.000000	99.263715 
3849.000000	99.264653 
3848.000000	99.265233 
3847.000000	99.265809 
3846.000000	99.266289 
3845.000000	99.266488 
3844.000000	99.266483 
3843.000000	99.266520 
3842.000000	99.266773 
3841.000000	99.267120 
3840.000000	99.267361 
3839.000000	99.267428 
3838.000000	99.267396 
3837.000000	99.267350 
3836.000000	99.267359 
3835.000000	99.267400 
3834.000000	99.267406 
3833.000000	99.267364 
3832.000000	99.267322 
3831.000000	99.267328 
3830.000000	99.267378 
3829.000000	99.267408 
3828.000000	99.267373 
3827.000000	99.267293 
3826.000000	99.267232 
3825.000000	99.267221 
3824.000000	99.267241 
3823.000000	99.267264 
3822.000000	99.267275 
3821.000000	99.267270 
3820.000000	99.267254 
3819.000000	99.267232 
3818.000000	99.267200 
3817.000000	99.267149 
3816.000000	99.267077 
3815.000000	99.266991 
3814.000000	99.266895 
3813.000000	99.266782 
3812.000000	99.266644 
3811.000000	99.266486 
3810.000000	99.266322 
3809.000000	99.266155 
3808.000000	99.265980 
3807.000000	99.265797 
3806.000000	99.265613 
3805.000000	99.265445 
3804.000000	99.265303 
3803.000000	99.265168 
3802.000000	99.264997 
3801.000000	99.264747 
3800.000000	99.264512 
3799.000000	99.264435 
3798.000000	99.264379 
3797.000000	99.264074 
3796.000000	99.263555 
3795.000000	99.263171 
3794.000000	99.263145 
3793.000000	99.263363 
3792.000000	99.263634 
3791.000000	99.263936 
3790.000000	99.264204 
3789.000000	99.264356 
3788.000000	99.264579 
3787.000000	99.265283 
3786.000000	99.266544 
3785.000000	99.267861 
3784.000000	99.268788 
3783.000000	99.269377 
3782.000000	99.269734 
3781.000000	99.269584 
3780.000000	99.268657 
3779.000000	99.267099 
3778.000000	99.265621 
3777.000000	99.264635 
3776.000000	99.263808 
3775.000000	99.262933 
3774.000000	99.262595 
3773.000000	99.263323 
3772.000000	99.264620 
3771.000000	99.265240 
3770.000000	99.264553 
3769.000000	99.263320 
3768.000000	99.262735 
3767.000000	99.262808 
3766.000000	99.262800 
3765.000000	99.262648 
3764.000000	99.263128 
3763.000000	99.264598 
3762.000000	99.266255 
3761.000000	99.267317 
3760.000000	99.267916 
3759.000000	99.268104 
3758.000000	99.267503 
3757.000000	99.266015 
3756.000000	99.264203 
3755.000000	99.262454 
3754.000000	99.260846 
3753.000000	99.259983 
3752.000000	99.260528 
3751.000000	99.261173 
3750.000000	99.259642 
3749.000000	99.256637 
3748.000000	99.254643 
3747.000000	99.253850 
3746.000000	99.252961 
3745.000000	99.251139 
3744.000000	99.248549 
3743.000000	99.248567 
3742.000000	99.252172 
3741.000000	99.254461 
3740.000000	99.253423 
3739.000000	99.252037 
3738.000000	99.252863 
3737.000000	99.255034 
3736.000000	99.256374 
3735.000000	99.256434 
3734.000000	99.255764 
3733.000000	99.253958 
3732.000000	99.251081 
3731.000000	99.249278 
3730.000000	99.249913 
3729.000000	99.251321 
3728.000000	99.251409 
3727.000000	99.250833 
3726.000000	99.251725 
3725.000000	99.254309 
3724.000000	99.255846 
3723.000000	99.254062 
3722.000000	99.249843 
3721.000000	99.245980 
3720.000000	99.244209 
3719.000000	99.243682 
3718.000000	99.242542 
3717.000000	99.239826 
3716.000000	99.235903 
3715.000000	99.231481 
3714.000000	99.227327 
3713.000000	99.224346 
3712.000000	99.222104 
3711.000000	99.218971 
3710.000000	99.214904 
3709.000000	99.211132 
3708.000000	99.208039 
3707.000000	99.205149 
3706.000000	99.202075 
3705.000000	99.198778 
3704.000000	99.195428 
3703.000000	99.192283 
3702.000000	99.189408 
3701.000000	99.186965 
3700.000000	99.185563 
3699.000000	99.184752 
3698.000000	99.182573 
3697.000000	99.177978 
3696.000000	99.172354 
3695.000000	99.167902 
3694.000000	99.165225 
3693.000000	99.163503 
3692.000000	99.162025 
3691.000000	99.160205 
3690.000000	99.156845 
3689.000000	99.151047 
3688.000000	99.144895 
3687.000000	99.141927 
3686.000000	99.142157 
3685.000000	99.142379 
3684.000000	99.140919 
3683.000000	99.138918 
3682.000000	99.137494 
3681.000000	99.135687 
3680.000000	99.131949 
3679.000000	99.126855 
3678.000000	99.122075 
3677.000000	99.118177 
3676.000000	99.113760 
3675.000000	99.108875 
3674.000000	99.108150 
3673.000000	99.112392 
3672.000000	99.115798 
3671.000000	99.115558 
3670.000000	99.113091 
3669.000000	99.110236 
3668.000000	99.108748 
3667.000000	99.108113 
3666.000000	99.106980 
3665.000000	99.105857 
3664.000000	99.105821 
3663.000000	99.106708 
3662.000000	99.107420 
3661.000000	99.107331 
3660.000000	99.107027 
3659.000000	99.107612 
3658.000000	99.109210 
3657.000000	99.110803 
3656.000000	99.111613 
3655.000000	99.113276 
3654.000000	99.117084 
3653.000000	99.121514 
3652.000000	99.125268 
3651.000000	99.128865 
3650.000000	99.131456 
3649.000000	99.130450 
3648.000000	99.126197 
3647.000000	99.122386 
3646.000000	99.121527 
3645.000000	99.123186 
3644.000000	99.125840 
3643.000000	99.128505 
3642.000000	99.131055 
3641.000000	99.133500 
3640.000000	99.135763 
3639.000000	99.138006 
3638.000000	99.140834 
3637.000000	99.144607 
3636.000000	99.148301 
3635.000000	99.150159 
3634.000000	99.149711 
3633.000000	99.148470 
3632.000000	99.148058 
3631.000000	99.148735 
3630.000000	99.149704 
3629.000000	99.149366 
3628.000000	99.147919 
3627.000000	99.148226 
3626.000000	99.150314 
3625.000000	99.152105 
3624.000000	99.153427 
3623.000000	99.155170 
3622.000000	99.157383 
3621.000000	99.159250 
3620.000000	99.160084 
3619.000000	99.159945 
3618.000000	99.159908 
3617.000000	99.161109 
3616.000000	99.163336 
3615.000000	99.165405 
3614.000000	99.166394 
3613.000000	99.166222 
3612.000000	99.165516 
3611.000000	99.164928 
3610.000000	99.164671 
3609.000000	99.164861 
3608.000000	99.165636 
3607.000000	99.166997 
3606.000000	99.168761 
3605.000000	99.170655 
3604.000000	99.172723 
3603.000000	99.175157 
3602.000000	99.177677 
3601.000000	99.179766 
3600.000000	99.181397 
3599.000000	99.182923 
3598.000000	99.184238 
3597.000000	99.184921 
3596.000000	99.184647 
3595.000000	99.183535 
3594.000000	99.182156 
3593.000000	99.181495 
3592.000000	99.182228 
3591.000000	99.184257 
3590.000000	99.186720 
3589.000000	99.188312 
3588.000000	99.187845 
3587.000000	99.185372 
3586.000000	99.182643 
3585.000000	99.181238 
3584.000000	99.181088 
3583.000000	99.181502 
3582.000000	99.182051 
3581.000000	99.182563 
3580.000000	99.182880 
3579.000000	99.182831 
3578.000000	99.182260 
3577.000000	99.181258 
3576.000000	99.180227 
3575.000000	99.179616 
3574.000000	99.179580 
3573.000000	99.179898 
3572.000000	99.180244 
3571.000000	99.180403 
3570.000000	99.180297 
3569.000000	99.179894 
3568.000000	99.179214 
3567.000000	99.178454 
3566.000000	99.178021 
3565.000000	99.178083 
3564.000000	99.178313 
3563.000000	99.178293 
3562.000000	99.177955 
3561.000000	99.177482 
3560.000000	99.177059 
3559.000000	99.176727 
3558.000000	99.176439 
3557.000000	99.176154 
3556.000000	99.175876 
3555.000000	99.175612 
3554.000000	99.175349 
3553.000000	99.175077 
3552.000000	99.174799 
3551.000000	99.174525 
3550.000000	99.174271 
3549.000000	99.174045 
3548.000000	99.173848 
3547.000000	99.173675 
3546.000000	99.173521 
3545.000000	99.173385 
3544.000000	99.173258 
3543.000000	99.173128 
3542.000000	99.172995 
3541.000000	99.172862 
3540.000000	99.172738 
3539.000000	99.172622 
3538.000000	99.172508 
3537.000000	99.172389 
3536.000000	99.172260 
3535.000000	99.172120 
3534.000000	99.171974 
3533.000000	99.171820 
3532.000000	99.171659 
3531.000000	99.171488 
3530.000000	99.171307 
3529.000000	99.171119 
3528.000000	99.170926 
3527.000000	99.170730 
3526.000000	99.170532 
3525.000000	99.170328 
3524.000000	99.170114 
3523.000000	99.169888 
3522.000000	99.169654 
3521.000000	99.169416 
3520.000000	99.169182 
3519.000000	99.168954 
3518.000000	99.168734 
3517.000000	99.168526 
3516.000000	99.168327 
3515.000000	99.168135 
3514.000000	99.167948 
3513.000000	99.167760 
3512.000000	99.167567 
3511.000000	99.167369 
3510.000000	99.167165 
3509.000000	99.166962 
3508.000000	99.166760 
3507.000000	99.166556 
3506.000000	99.166343 
3505.000000	99.166111 
3504.000000	99.165859 
3503.000000	99.165594 
3502.000000	99.165328 
3501.000000	99.165069 
3500.000000	99.164819 
3499.000000	99.164566 
3498.000000	99.164297 
3497.000000	99.164007 
3496.000000	99.163701 
3495.000000	99.163395 
3494.000000	99.163103 
3493.000000	99.162823 
3492.000000	99.162565 
3491.000000	99.162328 
3490.000000	99.162106 
3489.000000	99.161897 
3488.000000	99.161708 
3487.000000	99.161539 
3486.000000	99.161375 
3485.000000	99.161193 
3484.000000	99.160995 
3483.000000	99.160814 
3482.000000	99.160685 
3481.000000	99.160595 
3480.000000	99.160484 
3479.000000	99.160309 
3478.000000	99.160101 
3477.000000	99.159912 
3476.000000	99.159708 
3475.000000	99.159367 
3474.000000	99.158845 
3473.000000	99.158310 
3472.000000	99.158006 
3471.000000	99.157984 
3470.000000	99.158056 
3469.000000	99.158027 
3468.000000	99.157870 
3467.000000	99.157581 
3466.000000	99.157022 
3465.000000	99.156051 
3464.000000	99.154776 
3463.000000	99.153496 
3462.000000	99.152417 
3461.000000	99.151542 
3460.000000	99.150847 
3459.000000	99.150426 
3458.000000	99.150351 
3457.000000	99.150464 
3456.000000	99.150481 
3455.000000	99.150252 
3454.000000	99.149844 
3453.000000	99.149499 
3452.000000	99.149511 
3451.000000	99.150072 
3450.000000	99.151074 
3449.000000	99.152108 
3448.000000	99.152611 
3447.000000	99.152162 
3446.000000	99.150805 
3445.000000	99.149126 
3444.000000	99.147898 
3443.000000	99.147495 
3442.000000	99.147629 
3441.000000	99.147689 
3440.000000	99.147404 
3439.000000	99.147029 
3438.000000	99.146884 
3437.000000	99.146890 
3436.000000	99.146718 
3435.000000	99.146337 
3434.000000	99.146126 
3433.000000	99.146403 
3432.000000	99.146947 
3431.000000	99.147148 
3430.000000	99.146567 
3429.000000	99.145244 
3428.000000	99.143532 
3427.000000	99.141747 
3426.000000	99.140124 
3425.000000	99.138984 
3424.000000	99.138700 
3423.000000	99.139333 
3422.000000	99.140394 
3421.000000	99.141120 
3420.000000	99.141068 
3419.000000	99.140401 
3418.000000	99.139699 
3417.000000	99.139507 
3416.000000	99.139922 
3415.000000	99.140509 
3414.000000	99.140661 
3413.000000	99.140195 
3412.000000	99.139548 
3411.000000	99.139323 
3410.000000	99.139760 
3409.000000	99.140674 
3408.000000	99.141698 
3407.000000	99.142410 
3406.000000	99.142404 
3405.000000	99.141562 
3404.000000	99.140341 
3403.000000	99.139575 
3402.000000	99.139866 
3401.000000	99.141166 
3400.000000	99.142858 
3399.000000	99.144230 
3398.000000	99.145032 
3397.000000	99.145623 
3396.000000	99.146434 
3395.000000	99.147278 
3394.000000	99.147456 
3393.000000	99.146648 
3392.000000	99.145397 
3391.000000	99.144526 
3390.000000	99.144236 
3389.000000	99.144105 
3388.000000	99.143769 
3387.000000	99.143273 
3386.000000	99.142836 
3385.000000	99.142587 
3384.000000	99.142550 
3383.000000	99.142641 
3382.000000	99.142618 
3381.000000	99.142206 
3380.000000	99.141317 
3379.000000	99.140131 
3378.000000	99.139025 
3377.000000	99.138525 
3376.000000	99.139207 
3375.000000	99.141342 
3374.000000	99.144539 
3373.000000	99.147810 
3372.000000	99.150136 
3371.000000	99.151076 
3370.000000	99.150880 
3369.000000	99.150151 
3368.000000	99.149334 
3367.000000	99.148466 
3366.000000	99.147431 
3365.000000	99.146379 
3364.000000	99.145780 
3363.000000	99.145980 
3362.000000	99.146790 
3361.000000	99.147547 
3360.000000	99.147640 
3359.000000	99.147008 
3358.000000	99.146225 
3357.000000	99.146075 
3356.000000	99.146882 
3355.000000	99.148210 
3354.000000	99.149254 
3353.000000	99.149629 
3352.000000	99.149633 
3351.000000	99.149765 
3350.000000	99.150213 
3349.000000	99.150899 
3348.000000	99.151792 
3347.000000	99.152903 
3346.000000	99.154023 
3345.000000	99.154785 
3344.000000	99.155007 
3343.000000	99.154799 
3342.000000	99.154350 
3341.000000	99.153812 
3340.000000	99.153407 
3339.000000	99.153385 
3338.000000	99.153715 
3337.000000	99.153964 
3336.000000	99.153709 
3335.000000	99.153029 
3334.000000	99.152496 
3333.000000	99.152625 
3332.000000	99.153424 
3331.000000	99.154429 
3330.000000	99.155155 
3329.000000	99.155526 
3328.000000	99.155826 
3327.000000	99.156312 
3326.000000	99.156928 
3325.000000	99.157407 
3324.000000	99.157610 
3323.000000	99.157694 
3322.000000	99.157913 
3321.000000	99.158307 
3320.000000	99.158640 
3319.000000	99.158672 
3318.000000	99.158416 
3317.000000	99.158139 
3316.000000	99.158126 
3315.000000	99.158463 
3314.000000	99.159027 
3313.000000	99.159614 
3312.000000	99.160088 
3311.000000	99.160455 
3310.000000	99.160814 
3309.000000	99.161246 
3308.000000	99.161749 
3307.000000	99.162254 
3306.000000	99.162680 
3305.000000	99.162951 
3304.000000	99.163004 
3303.000000	99.162829 
3302.000000	99.162536 
3301.000000	99.162357 
3300.000000	99.162497 
3299.000000	99.163000 
3298.000000	99.163702 
3297.000000	99.164335 
3296.000000	99.164729 
3295.000000	99.164885 
3294.000000	99.164946 
3293.000000	99.165111 
3292.000000	99.165503 
3291.000000	99.166086 
3290.000000	99.166684 
3289.000000	99.167112 
3288.000000	99.167264 
3287.000000	99.167125 
3286.000000	99.166811 
3285.000000	99.166555 
3284.000000	99.166533 
3283.000000	99.166675 
3282.000000	99.166744 
3281.000000	99.166622 
3280.000000	99.166398 
3279.000000	99.166206 
3278.000000	99.166114 
3277.000000	99.166213 
3276.000000	99.166636 
3275.000000	99.167385 
3274.000000	99.168226 
3273.000000	99.168831 
3272.000000	99.168989 
3271.000000	99.168651 
3270.000000	99.167907 
3269.000000	99.167030 
3268.000000	99.166450 
3267.000000	99.166534 
3266.000000	99.167343 
3265.000000	99.168602 
3264.000000	99.169887 
3263.000000	99.170889 
3262.000000	99.171570 
3261.000000	99.172090 
3260.000000	99.172551 
3259.000000	99.172806 
3258.000000	99.172621 
3257.000000	99.171976 
3256.000000	99.171100 
3255.000000	99.170232 
3254.000000	99.169516 
3253.000000	99.169128 
3252.000000	99.169273 
3251.000000	99.169968 
3250.000000	99.170920 
3249.000000	99.171741 
3248.000000	99.172248 
3247.000000	99.172473 
3246.000000	99.172492 
3245.000000	99.172356 
3244.000000	99.172180 
3243.000000	99.172190 
3242.000000	99.172619 
3241.000000	99.173546 
3240.000000	99.174778 
3239.000000	99.175849 
3238.000000	99.176333 
3237.000000	99.176176 
3236.000000	99.175750 
3235.000000	99.175507 
3234.000000	99.175563 
3233.000000	99.175770 
3232.000000	99.176052 
3231.000000	99.176514 
3230.000000	99.177188 
3229.000000	99.177822 
3228.000000	99.178047 
3227.000000	99.177720 
3226.000000	99.177052 
3225.000000	99.176468 
3224.000000	99.176341 
3223.000000	99.176814 
3222.000000	99.177764 
3221.000000	99.178882 
3220.000000	99.179839 
3219.000000	99.180427 
3218.000000	99.180604 
3217.000000	99.180485 
3216.000000	99.180320 
3215.000000	99.180414 
3214.000000	99.180936 
3213.000000	99.181749 
3212.000000	99.182494 
3211.000000	99.182934 
3210.000000	99.183184 
3209.000000	99.183542 
3208.000000	99.184146 
3207.000000	99.184896 
3206.000000	99.185689 
3205.000000	99.186572 
3204.000000	99.187588 
3203.000000	99.188610 
3202.000000	99.189504 
3201.000000	99.190362 
3200.000000	99.191349 
3199.000000	99.192282 
3198.000000	99.192618 
3197.000000	99.192022 
3196.000000	99.190838 
3195.000000	99.189918 
3194.000000	99.189876 
3193.000000	99.190528 
3192.000000	99.191142 
3191.000000	99.191204 
3190.000000	99.190925 
3189.000000	99.190940 
3188.000000	99.191553 
3187.000000	99.192393 
3186.000000	99.192808 
3185.000000	99.192419 
3184.000000	99.191302 
3183.000000	99.189847 
3182.000000	99.188624 
3181.000000	99.188189 
3180.000000	99.188768 
3179.000000	99.190091 
3178.000000	99.191633 
3177.000000	99.192906 
3176.000000	99.193552 
3175.000000	99.193427 
3174.000000	99.192891 
3173.000000	99.192796 
3172.000000	99.193766 
3171.000000	99.195498 
3170.000000	99.196982 
3169.000000	99.197555 
3168.000000	99.197507 
3167.000000	99.197599 
3166.000000	99.198246 
3165.000000	99.199275 
3164.000000	99.200281 
3163.000000	99.200995 
3162.000000	99.201388 
3161.000000	99.201613 
3160.000000	99.201904 
3159.000000	99.202421 
3158.000000	99.203145 
3157.000000	99.203927 
3156.000000	99.204615 
3155.000000	99.205110 
3154.000000	99.205393 
3153.000000	99.205550 
3152.000000	99.205739 
3151.000000	99.206050 
3150.000000	99.206411 
3149.000000	99.206690 
3148.000000	99.206880 
3147.000000	99.207104 
3146.000000	99.207438 
3145.000000	99.207807 
3144.000000	99.208087 
3143.000000	99.208303 
3142.000000	99.208663 
3141.000000	99.209346 
3140.000000	99.210268 
3139.000000	99.211098 
3138.000000	99.211542 
3137.000000	99.211607 
3136.000000	99.211569 
3135.000000	99.211680 
3134.000000	99.211930 
3133.000000	99.212153 
3132.000000	99.212295 
3131.000000	99.212481 
3130.000000	99.212791 
3129.000000	99.213103 
3128.000000	99.213228 
3127.000000	99.213148 
3126.000000	99.213055 
3125.000000	99.213143 
3124.000000	99.213437 
3123.000000	99.213832 
3122.000000	99.214221 
3121.000000	99.214575 
3120.000000	99.214954 
3119.000000	99.215442 
3118.000000	99.216030 
3117.000000	99.216502 
3116.000000	99.216547 
3115.000000	99.216061 
3114.000000	99.215317 
3113.000000	99.214743 
3112.000000	99.214539 
3111.000000	99.214645 
3110.000000	99.214987 
3109.000000	99.215543 
3108.000000	99.216109 
3107.000000	99.216269 
3106.000000	99.215792 
3105.000000	99.215010 
3104.000000	99.214615 
3103.000000	99.215042 
3102.000000	99.216189 
3101.000000	99.217602 
3100.000000	99.218792 
3099.000000	99.219435 
3098.000000	99.219465 
3097.000000	99.219134 
3096.000000	99.218892 
3095.000000	99.219074 
3094.000000	99.219719 
3093.000000	99.220670 
3092.000000	99.221716 
3091.000000	99.222573 
3090.000000	99.222909 
3089.000000	99.222629 
3088.000000	99.222172 
3087.000000	99.222284 
3086.000000	99.223337 
3085.000000	99.224972 
3084.000000	99.226479 
3083.000000	99.227410 
3082.000000	99.227749 
3081.000000	99.227642 
3080.000000	99.227099 
3079.000000	99.226008 
3078.000000	99.224339 
3077.000000	99.222226 
3076.000000	99.219920 
3075.000000	99.217796 
3074.000000	99.216413 
3073.000000	99.216386 
3072.000000	99.218014 
3071.000000	99.221016 
3070.000000	99.224560 
3069.000000	99.227369 
3068.000000	99.227982 
3067.000000	99.225556 
3066.000000	99.220912 
3065.000000	99.216453 
3064.000000	99.214313 
3063.000000	99.214472 
3062.000000	99.215114 
3061.000000	99.214789 
3060.000000	99.213889 
3059.000000	99.213958 
3058.000000	99.215968 
3057.000000	99.219372 
3056.000000	99.222570 
3055.000000	99.224348 
3054.000000	99.224905 
3053.000000	99.225322 
3052.000000	99.225984 
3051.000000	99.226066 
3050.000000	99.224887 
3049.000000	99.222971 
3048.000000	99.220887 
3047.000000	99.217725 
3046.000000	99.212214 
3045.000000	99.205338 
3044.000000	99.200378 
3043.000000	99.199634 
3042.000000	99.201930 
3041.000000	99.203894 
3040.000000	99.203082 
3039.000000	99.199462 
3038.000000	99.194653 
3037.000000	99.190401 
3036.000000	99.187304 
3035.000000	99.184482 
3034.000000	99.180709 
3033.000000	99.175844 
3032.000000	99.170551 
3031.000000	99.164842 
3030.000000	99.157732 
3029.000000	99.148554 
3028.000000	99.138008 
3027.000000	99.127513 
3026.000000	99.117973 
3025.000000	99.109513 
3024.000000	99.101866 
3023.000000	99.094442 
3022.000000	99.086456 
3021.000000	99.077608 
3020.000000	99.068472 
3019.000000	99.059817 
3018.000000	99.051802 
3017.000000	99.044181 
3016.000000	99.036850 
3015.000000	99.029558 
3014.000000	99.021288 
3013.000000	99.010498 
3012.000000	98.996139 
3011.000000	98.978376 
3010.000000	98.958643 
3009.000000	98.939168 
3008.000000	98.922078 
3007.000000	98.908466 
3006.000000	98.898197 
3005.000000	98.890345 
3004.000000	98.883236 
3003.000000	98.874270 
3002.000000	98.861116 
3001.000000	98.844188 
3000.000000	98.827266 
2999.000000	98.814280 
2998.000000	98.805637 
2997.000000	98.798804 
2996.000000	98.792172 
2995.000000	98.786422 
2994.000000	98.781070 
2993.000000	98.771569 
2992.000000	98.752625 
2991.000000	98.724945 
2990.000000	98.696973 
2989.000000	98.678302 
2988.000000	98.671966 
2987.000000	98.673877 
2986.000000	98.678525 
2985.000000	98.683898 
2984.000000	98.690594 
2983.000000	98.698094 
2982.000000	98.703812 
2981.000000	98.705574 
2980.000000	98.703871 
2979.000000	98.701305 
2978.000000	98.700325 
2977.000000	98.701507 
2976.000000	98.703395 
2975.000000	98.703756 
2974.000000	98.701392 
2973.000000	98.697081 
2972.000000	98.692873 
2971.000000	98.690682 
2970.000000	98.691631 
2969.000000	98.696211 
2968.000000	98.704293 
2967.000000	98.714983 
2966.000000	98.726950 
2965.000000	98.739080 
2964.000000	98.750706 
2963.000000	98.761460 
2962.000000	98.771220 
2961.000000	98.779946 
2960.000000	98.787281 
2959.000000	98.792786 
2958.000000	98.797106 
2957.000000	98.802181 
2956.000000	98.809116 
2955.000000	98.816157 
2954.000000	98.820324 
2953.000000	98.821632 
2952.000000	98.824430 
2951.000000	98.833385 
2950.000000	98.848317 
2949.000000	98.863747 
2948.000000	98.873689 
2947.000000	98.876473 
2946.000000	98.875171 
2945.000000	98.874285 
2944.000000	98.875955 
2943.000000	98.879091 
2942.000000	98.881623 
2941.000000	98.882821 
2940.000000	98.883341 
2939.000000	98.883859 
2938.000000	98.884411 
2937.000000	98.884898 
2936.000000	98.885615 
2935.000000	98.887082 
2934.000000	98.889627 
2933.000000	98.893027 
2932.000000	98.896268 
2931.000000	98.897854 
2930.000000	98.896857 
2929.000000	98.893684 
2928.000000	98.889627 
2927.000000	98.885885 
2926.000000	98.883304 
2925.000000	98.882427 
2924.000000	98.882970 
2923.000000	98.883535 
2922.000000	98.882780 
2921.000000	98.880881 
2920.000000	98.879099 
2919.000000	98.878034 
2918.000000	98.877059 
2917.000000	98.875347 
2916.000000	98.872544 
2915.000000	98.868540 
2914.000000	98.863675 
2913.000000	98.859336 
2912.000000	98.857203 
2911.000000	98.857289 
2910.000000	98.857456 
2909.000000	98.855460 
2908.000000	98.851030 
2907.000000	98.845537 
2906.000000	98.840057 
2905.000000	98.834174 
2904.000000	98.826565 
2903.000000	98.816878 
2902.000000	98.807551 
2901.000000	98.803211 
2900.000000	98.807229 
2899.000000	98.818510 
2898.000000	98.831771 
2897.000000	98.841774 
2896.000000	98.847157 
2895.000000	98.850201 
2894.000000	98.853848 
2893.000000	98.859319 
2892.000000	98.865722 
2891.000000	98.871182 
2890.000000	98.874587 
2889.000000	98.876587 
2888.000000	98.878715 
2887.000000	98.881622 
2886.000000	98.884794 
2885.000000	98.887905 
2884.000000	98.891499 
2883.000000	98.896101 
2882.000000	98.901613 
2881.000000	98.908062 
2880.000000	98.916084 
2879.000000	98.926008 
2878.000000	98.937134 
2877.000000	98.948356 
2876.000000	98.958733 
2875.000000	98.966999 
2874.000000	98.971622 
2873.000000	98.972525 
2872.000000	98.972197 
2871.000000	98.973947 
2870.000000	98.979125 
2869.000000	98.986735 
2868.000000	98.995424 
2867.000000	99.004972 
2866.000000	99.015951 
2865.000000	99.028694 
2864.000000	99.042659 
2863.000000	99.056191 
2862.000000	99.067073 
2861.000000	99.074147 
2860.000000	99.078671 
2859.000000	99.083571 
2858.000000	99.090964 
2857.000000	99.100531 
2856.000000	99.110273 
2855.000000	99.118503 
2854.000000	99.124981 
2853.000000	99.130468 
2852.000000	99.135419 
2851.000000	99.139428 
2850.000000	99.142176 
2849.000000	99.144572 
2848.000000	99.148218 
2847.000000	99.153620 
2846.000000	99.159485 
2845.000000	99.164057 
2844.000000	99.166726 
2843.000000	99.168230 
2842.000000	99.169964 
2841.000000	99.173288 
2840.000000	99.178684 
2839.000000	99.184896 
2838.000000	99.189393 
2837.000000	99.190381 
2836.000000	99.188279 
2835.000000	99.185188 
2834.000000	99.183337 
2833.000000	99.184200 
2832.000000	99.188179 
2831.000000	99.194187 
2830.000000	99.199988 
2829.000000	99.203991 
2828.000000	99.206691 
2827.000000	99.209692 
2826.000000	99.213463 
2825.000000	99.216739 
2824.000000	99.218173 
2823.000000	99.217884 
2822.000000	99.217206 
2821.000000	99.217372 
2820.000000	99.218650 
2819.000000	99.220541 
2818.000000	99.222615 
2817.000000	99.225029 
2816.000000	99.228005 
2815.000000	99.230901 
2814.000000	99.232445 
2813.000000	99.232198 
2812.000000	99.231285 
2811.000000	99.231137 
2810.000000	99.231840 
2809.000000	99.232387 
2808.000000	99.232252 
2807.000000	99.232031 
2806.000000	99.232547 
2805.000000	99.233915 
2804.000000	99.235623 
2803.000000	99.237164 
2802.000000	99.238362 
2801.000000	99.239275 
2800.000000	99.239913 
2799.000000	99.240108 
2798.000000	99.239758 
2797.000000	99.239180 
2796.000000	99.238954 
2795.000000	99.239290 
2794.000000	99.239791 
2793.000000	99.240045 
2792.000000	99.240236 
2791.000000	99.240890 
2790.000000	99.242197 
2789.000000	99.243867 
2788.000000	99.245520 
2787.000000	99.246895 
2786.000000	99.247835 
2785.000000	99.248433 
2784.000000	99.249075 
2783.000000	99.250022 
2782.000000	99.251015 
2781.000000	99.251567 
2780.000000	99.251606 
2779.000000	99.251566 
2778.000000	99.251874 
2777.000000	99.252570 
2776.000000	99.253413 
2775.000000	99.254100 
2774.000000	99.254348 
2773.000000	99.254043 
2772.000000	99.253481 
2771.000000	99.253291 
2770.000000	99.253897 
2769.000000	99.255194 
2768.000000	99.256738 
2767.000000	99.258165 
2766.000000	99.259339 
2765.000000	99.260195 
2764.000000	99.260717 
2763.000000	99.261035 
2762.000000	99.261354 
2761.000000	99.261767 
2760.000000	99.262246 
2759.000000	99.262785 
2758.000000	99.263403 
2757.000000	99.264057 
2756.000000	99.264705 
2755.000000	99.265422 
2754.000000	99.266256 
2753.000000	99.266978 
2752.000000	99.267229 
2751.000000	99.266962 
2750.000000	99.266607 
2749.000000	99.266649 
2748.000000	99.267089 
2747.000000	99.267439 
2746.000000	99.267227 
2745.000000	99.266431 
2744.000000	99.265523 
2743.000000	99.265136 
2742.000000	99.265653 
2741.000000	99.266999 
2740.000000	99.268696 
2739.000000	99.270210 
2738.000000	99.271304 
2737.000000	99.272037 
2736.000000	99.272532 
2735.000000	99.272832 
2734.000000	99.272967 
2733.000000	99.273014 
2732.000000	99.273041 
2731.000000	99.273037 
2730.000000	99.272963 
2729.000000	99.272852 
2728.000000	99.272857 
2727.000000	99.273210 
2726.000000	99.274053 
2725.000000	99.275242 
2724.000000	99.276325 
2723.000000	99.276864 
2722.000000	99.276840 
2721.000000	99.276632 
2720.000000	99.276621 
2719.000000	99.276832 
2718.000000	99.277030 
2717.000000	99.277048 
2716.000000	99.276973 
2715.000000	99.277091 
2714.000000	99.277692 
2713.000000	99.278810 
2712.000000	99.280059 
2711.000000	99.280853 
2710.000000	99.280966 
2709.000000	99.280734 
2708.000000	99.280646 
2707.000000	99.280728 
2706.000000	99.280590 
2705.000000	99.280008 
2704.000000	99.279212 
2703.000000	99.278634 
2702.000000	99.278504 
2701.000000	99.278731 
2700.000000	99.279032 
2699.000000	99.279137 
2698.000000	99.278955 
2697.000000	99.278608 
2696.000000	99.278321 
2695.000000	99.278272 
2694.000000	99.278530 
2693.000000	99.279022 
2692.000000	99.279510 
2691.000000	99.279693 
2690.000000	99.279467 
2689.000000	99.279061 
2688.000000	99.278851 
2687.000000	99.278974 
2686.000000	99.279240 
2685.000000	99.279387 
2684.000000	99.279371 
2683.000000	99.279370 
2682.000000	99.279566 
2681.000000	99.279972 
2680.000000	99.280403 
2679.000000	99.280596 
2678.000000	99.280412 
2677.000000	99.279942 
2676.000000	99.279449 
2675.000000	99.279136 
2674.000000	99.279020 
2673.000000	99.279000 
2672.000000	99.278981 
2671.000000	99.278928 
2670.000000	99.278849 
2669.000000	99.278765 
2668.000000	99.278692 
2667.000000	99.278633 
2666.000000	99.278606 
2665.000000	99.278665 
2664.000000	99.278849 
2663.000000	99.279127 
2662.000000	99.279431 
2661.000000	99.279727 
2660.000000	99.279974 
2659.000000	99.280034 
2658.000000	99.279783 
2657.000000	99.279277 
2656.000000	99.278785 
2655.000000	99.278578 
2654.000000	99.278701 
2653.000000	99.278981 
2652.000000	99.279182 
2651.000000	99.279194 
2650.000000	99.279101 
2649.000000	99.279063 
2648.000000	99.279129 
2647.000000	99.279167 
2646.000000	99.279027 
2645.000000	99.278768 
2644.000000	99.278628 
2643.000000	99.278746 
2642.000000	99.279053 
2641.000000	99.279419 
2640.000000	99.279816 
2639.000000	99.280276 
2638.000000	99.280785 
2637.000000	99.281287 
2636.000000	99.281684 
2635.000000	99.281838 
2634.000000	99.281675 
2633.000000	99.281372 
2632.000000	99.281300 
2631.000000	99.281645 
2630.000000	99.282231 
2629.000000	99.282722 
2628.000000	99.282961 
2627.000000	99.283011 
2626.000000	99.282967 
2625.000000	99.282863 
2624.000000	99.282718 
2623.000000	99.282570 
2622.000000	99.282440 
2621.000000	99.282379 
2620.000000	99.282492 
2619.000000	99.282801 
2618.000000	99.283114 
2617.000000	99.283133 
2616.000000	99.282739 
2615.000000	99.282121 
2614.000000	99.281636 
2613.000000	99.281508 
2612.000000	99.281726 
2611.000000	99.282152 
2610.000000	99.282642 
2609.000000	99.283080 
2608.000000	99.283357 
2607.000000	99.283405 
2606.000000	99.283289 
2605.000000	99.283203 
2604.000000	99.283273 
2603.000000	99.283364 
2602.000000	99.283237 
2601.000000	99.282883 
2600.000000	99.282585 
2599.000000	99.282586 
2598.000000	99.282800 
2597.000000	99.282948 
2596.000000	99.282852 
2595.000000	99.282497 
2594.000000	99.281907 
2593.000000	99.281143 
2592.000000	99.280428 
2591.000000	99.280024 
2590.000000	99.279979 
2589.000000	99.280115 
2588.000000	99.280195 
2587.000000	99.280123 
2586.000000	99.279895 
2585.000000	99.279501 
2584.000000	99.278957 
2583.000000	99.278377 
2582.000000	99.277923 
2581.000000	99.277668 
2580.000000	99.277544 
2579.000000	99.277408 
2578.000000	99.277176 
2577.000000	99.276889 
2576.000000	99.276639 
2575.000000	99.276483 
2574.000000	99.276402 
2573.000000	99.276324 
2572.000000	99.276191 
2571.000000	99.275998 
2570.000000	99.275774 
2569.000000	99.275542 
2568.000000	99.275317 
2567.000000	99.275123 
2566.000000	99.274983 
2565.000000	99.274898 
2564.000000	99.274843 
2563.000000	99.274799 
2562.000000	99.274761 
2561.000000	99.274738 
2560.000000	99.274741 
2559.000000	99.274796 
2558.000000	99.274904 
2557.000000	99.275002 
2556.000000	99.274969 
2555.000000	99.274765 
2554.000000	99.274549 
2553.000000	99.274582 
2552.000000	99.274975 
2551.000000	99.275561 
2550.000000	99.276033 
2549.000000	99.276260 
2548.000000	99.276322 
2547.000000	99.276312 
2546.000000	99.276249 
2545.000000	99.276206 
2544.000000	99.276366 
2543.000000	99.276843 
2542.000000	99.277565 
2541.000000	99.278348 
2540.000000	99.279006 
2539.000000	99.279342 
2538.000000	99.279168 
2537.000000	99.278443 
2536.000000	99.277330 
2535.000000	99.276144 
2534.000000	99.275313 
2533.000000	99.275304 
2532.000000	99.276347 
2531.000000	99.278150 
2530.000000	99.280009 
2529.000000	99.281371 
2528.000000	99.282104 
2527.000000	99.282264 
2526.000000	99.281935 
2525.000000	99.281399 
2524.000000	99.281151 
2523.000000	99.281496 
2522.000000	99.282249 
2521.000000	99.282972 
2520.000000	99.283410 
2519.000000	99.283562 
2518.000000	99.283497 
2517.000000	99.283300 
2516.000000	99.283086 
2515.000000	99.282886 
2514.000000	99.282637 
2513.000000	99.282392 
2512.000000	99.282344 
2511.000000	99.282483 
2510.000000	99.282511 
2509.000000	99.282308 
2508.000000	99.282184 
2507.000000	99.282383 
2506.000000	99.282611 
2505.000000	99.282432 
2504.000000	99.281907 
2503.000000	99.281500 
2502.000000	99.281453 
2501.000000	99.281590 
2500.000000	99.281673 
2499.000000	99.281696 
2498.000000	99.281794 
2497.000000	99.282033 
2496.000000	99.282341 
2495.000000	99.282562 
2494.000000	99.282585 
2493.000000	99.282433 
2492.000000	99.282218 
2491.000000	99.282028 
2490.000000	99.281881 
2489.000000	99.281766 
2488.000000	99.281671 
2487.000000	99.281579 
2486.000000	99.281484 
2485.000000	99.281402 
2484.000000	99.281351 
2483.000000	99.281329 
2482.000000	99.281320 
2481.000000	99.281309 
2480.000000	99.281289 
2479.000000	99.281259 
2478.000000	99.281218 
2477.000000	99.281167 
2476.000000	99.281108 
2475.000000	99.281042 
2474.000000	99.280971 
2473.000000	99.280900 
2472.000000	99.280828 
2471.000000	99.280755 
2470.000000	99.280672 
2469.000000	99.280574 
2468.000000	99.280462 
2467.000000	99.280343 
2466.000000	99.280232 
2465.000000	99.280141 
2464.000000	99.280072 
2463.000000	99.280017 
2462.000000	99.279963 
2461.000000	99.279895 
2460.000000	99.279809 
2459.000000	99.279708 
2458.000000	99.279597 
2457.000000	99.279481 
2456.000000	99.279354 
2455.000000	99.279209 
2454.000000	99.279044 
2453.000000	99.278865 
2452.000000	99.278688 
2451.000000	99.278525 
2450.000000	99.278381 
2449.000000	99.278251 
2448.000000	99.278130 
2447.000000	99.278009 
2446.000000	99.277886 
2445.000000	99.277764 
2444.000000	99.277645 
2443.000000	99.277535 
2442.000000	99.277429 
2441.000000	99.277305 
2440.000000	99.277147 
2439.000000	99.276961 
2438.000000	99.276757 
2437.000000	99.276524 
2436.000000	99.276259 
2435.000000	99.275987 
2434.000000	99.275734 
2433.000000	99.275493 
2432.000000	99.275239 
2431.000000	99.274982 
2430.000000	99.274769 
2429.000000	99.274639 
2428.000000	99.274612 
2427.000000	99.274706 
2426.000000	99.274910 
2425.000000	99.275127 
2424.000000	99.275211 
2423.000000	99.275072 
2422.000000	99.274747 
2421.000000	99.274429 
2420.000000	99.274327 
2419.000000	99.274494 
2418.000000	99.274790 
2417.000000	99.274994 
2416.000000	99.274995 
2415.000000	99.274826 
2414.000000	99.274612 
2413.000000	99.274508 
2412.000000	99.274624 
2411.000000	99.274952 
2410.000000	99.275339 
2409.000000	99.275625 
2408.000000	99.275800 
2407.000000	99.275983 
2406.000000	99.276274 
2405.000000	99.276659 
2404.000000	99.277048 
2403.000000	99.277337 
2402.000000	99.277482 
2401.000000	99.277507 
2400.000000	99.277474 
2399.000000	99.277445 
2398.000000	99.277470 
2397.000000	99.277610 
2396.000000	99.277911 
2395.000000	99.278348 
2394.000000	99.278828 
2393.000000	99.279260 
2392.000000	99.279609 
2391.000000	99.279894 
2390.000000	99.280157 
2389.000000	99.280435 
2388.000000	99.280737 
2387.000000	99.281039 
2386.000000	99.281316 
2385.000000	99.281561 
2384.000000	99.281787 
2383.000000	99.282014 
2382.000000	99.282244 
2381.000000	99.282467 
2380.000000	99.282674 
2379.000000	99.282859 
2378.000000	99.283025 
2377.000000	99.283177 
2376.000000	99.283326 
2375.000000	99.283481 
2374.000000	99.283648 
2373.000000	99.283826 
2372.000000	99.284008 
2371.000000	99.284178 
2370.000000	99.284317 
2369.000000	99.284414 
2368.000000	99.284467 
2367.000000	99.284483 
2366.000000	99.284472 
2365.000000	99.284447 
2364.000000	99.284417 
2363.000000	99.284389 
2362.000000	99.284359 
2361.000000	99.284324 
2360.000000	99.284284 
2359.000000	99.284246 
2358.000000	99.284213 
2357.000000	99.284185 
2356.000000	99.284158 
2355.000000	99.284124 
2354.000000	99.284076 
2353.000000	99.284010 
2352.000000	99.283934 
2351.000000	99.283859 
2350.000000	99.283791 
2349.000000	99.283731 
2348.000000	99.283673 
2347.000000	99.283612 
2346.000000	99.283547 
2345.000000	99.283479 
2344.000000	99.283415 
2343.000000	99.283361 
2342.000000	99.283316 
2341.000000	99.283271 
2340.000000	99.283210 
2339.000000	99.283121 
2338.000000	99.283003 
2337.000000	99.282859 
2336.000000	99.282700 
2335.000000	99.282535 
2334.000000	99.282365 
2333.000000	99.282187 
2332.000000	99.281998 
2331.000000	99.281792 
2330.000000	99.281542 
2329.000000	99.281239 
2328.000000	99.280939 
2327.000000	99.280716 
2326.000000	99.280575 
2325.000000	99.280394 
2324.000000	99.280067 
2323.000000	99.279633 
2322.000000	99.279288 
2321.000000	99.279208 
2320.000000	99.279390 
2319.000000	99.279585 
2318.000000	99.279424 
2317.000000	99.278730 
2316.000000	99.277713 
2315.000000	99.276838 
2314.000000	99.276380 
2313.000000	99.276258 
2312.000000	99.276227 
2311.000000	99.276088 
2310.000000	99.275753 
2309.000000	99.275190 
2308.000000	99.274393 
2307.000000	99.273339 
2306.000000	99.272097 
2305.000000	99.270821 
2304.000000	99.269686 
2303.000000	99.268750 
2302.000000	99.267913 
2301.000000	99.267001 
2300.000000	99.265861 
2299.000000	99.264408 
2298.000000	99.262737 
2297.000000	99.261217 
2296.000000	99.260280 
2295.000000	99.259984 
2294.000000	99.259870 
2293.000000	99.259321 
2292.000000	99.258155 
2291.000000	99.256660 
2290.000000	99.255216 
2289.000000	99.253974 
2288.000000	99.252916 
2287.000000	99.251989 
2286.000000	99.251138 
2285.000000	99.250315 
2284.000000	99.249535 
2283.000000	99.248810 
2282.000000	99.247996 
2281.000000	99.246815 
2280.000000	99.245161 
2279.000000	99.243384 
2278.000000	99.242117 
2277.000000	99.241733 
2276.000000	99.242073 
2275.000000	99.242590 
2274.000000	99.242777 
2273.000000	99.242435 
2272.000000	99.241519 
2271.000000	99.239947 
2270.000000	99.237795 
2269.000000	99.235728 
2268.000000	99.234790 
2267.000000	99.235515 
2266.000000	99.237352 
2265.000000	99.238994 
2264.000000	99.239527 
2263.000000	99.238954 
2262.000000	99.237928 
2261.000000	99.237243 
2260.000000	99.237344 
2259.000000	99.237885 
2258.000000	99.237900 
2257.000000	99.236910 
2256.000000	99.235608 
2255.000000	99.234854 
2254.000000	99.234238 
2253.000000	99.232649 
2252.000000	99.230296 
2251.000000	99.228999 
2250.000000	99.230089 
2249.000000	99.232969 
2248.000000	99.236024 
2247.000000	99.238209 
2246.000000	99.239227 
2245.000000	99.238846 
2244.000000	99.236873 
2243.000000	99.233649 
2242.000000	99.230161 
2241.000000	99.227524 
2240.000000	99.226191 
2239.000000	99.225437 
2238.000000	99.223875 
2237.000000	99.220911 
2236.000000	99.217457 
2235.000000	99.214732 
2234.000000	99.212840 
2233.000000	99.211258 
2232.000000	99.210366 
2231.000000	99.211272 
2230.000000	99.214233 
2229.000000	99.218223 
2228.000000	99.222095 
2227.000000	99.225238 
2226.000000	99.227079 
2225.000000	99.227057 
2224.000000	99.225337 
2223.000000	99.222869 
2222.000000	99.220569 
2221.000000	99.218785 
2220.000000	99.217425 
2219.000000	99.216262 
2218.000000	99.215228 
2217.000000	99.214679 
2216.000000	99.215158 
2215.000000	99.216635 
2214.000000	99.218075 
2213.000000	99.218158 
2212.000000	99.216486 
2211.000000	99.213801 
2210.000000	99.211319 
2209.000000	99.209814 
2208.000000	99.209241 
2207.000000	99.208987 
2206.000000	99.208422 
2205.000000	99.207400 
2204.000000	99.206204 
2203.000000	99.205074 
2202.000000	99.203997 
2201.000000	99.202929 
2200.000000	99.201951 
2199.000000	99.201064 
2198.000000	99.200123 
2197.000000	99.199195 
2196.000000	99.198726 
2195.000000	99.198994 
2194.000000	99.199703 
2193.000000	99.200240 
2192.000000	99.200221 
2191.000000	99.199663 
2190.000000	99.198781 
2189.000000	99.197848 
2188.000000	99.197130 
2187.000000	99.196752 
2186.000000	99.196662 
2185.000000	99.196698 
2184.000000	99.196713 
2183.000000	99.196659 
2182.000000	99.196527 
2181.000000	99.196326 
2180.000000	99.196129 
2179.000000	99.196044 
2178.000000	99.196096 
2177.000000	99.196195 
2176.000000	99.196234 
2175.000000	99.196201 
2174.000000	99.196153 
2173.000000	99.196146 
2172.000000	99.196211 
2171.000000	99.196362 
2170.000000	99.196605 
2169.000000	99.196956 
2168.000000	99.197446 
2167.000000	99.198082 
2166.000000	99.198794 
2165.000000	99.199484 
2164.000000	99.200130 
2163.000000	99.200767 
2162.000000	99.201428 
2161.000000	99.202122 
2160.000000	99.202862 
2159.000000	99.203656 
2158.000000	99.204490 
2157.000000	99.205347 
2156.000000	99.206222 
2155.000000	99.207109 
2154.000000	99.207990 
2153.000000	99.208833 
2152.000000	99.209621 
2151.000000	99.210368 
2150.000000	99.211113 
2149.000000	99.211893 
2148.000000	99.212720 
2147.000000	99.213565 
2146.000000	99.214374 
2145.000000	99.215094 
2144.000000	99.215702 
2143.000000	99.216216 
2142.000000	99.216667 
2141.000000	99.217080 
2140.000000	99.217465 
2139.000000	99.217828 
2138.000000	99.218173 
2137.000000	99.218495 
2136.000000	99.218791 
2135.000000	99.219057 
2134.000000	99.219293 
2133.000000	99.219494 
2132.000000	99.219642 
2131.000000	99.219720 
2130.000000	99.219718 
2129.000000	99.219638 
2128.000000	99.219492 
2127.000000	99.219303 
2126.000000	99.219097 
2125.000000	99.218871 
2124.000000	99.218580 
2123.000000	99.218230 
2122.000000	99.217920 
2121.000000	99.217671 
2120.000000	99.217303 
2119.000000	99.216657 
2118.000000	99.215876 
2117.000000	99.215287 
2116.000000	99.215027 
2115.000000	99.214976 
2114.000000	99.215025 
2113.000000	99.215174 
2112.000000	99.215243 
2111.000000	99.214759 
2110.000000	99.213404 
2109.000000	99.211529 
2108.000000	99.209958 
2107.000000	99.209126 
2106.000000	99.208606 
2105.000000	99.207448 
2104.000000	99.205069 
2103.000000	99.201831 
2102.000000	99.198868 
2101.000000	99.197175 
2100.000000	99.196910 
2099.000000	99.197498 
2098.000000	99.198250 
2097.000000	99.199097 
2096.000000	99.200490 
2095.000000	99.202378 
2094.000000	99.203443 
2093.000000	99.201956 
2092.000000	99.197593 
2091.000000	99.192283 
2090.000000	99.188793 
2089.000000	99.188160 
2088.000000	99.189080 
2087.000000	99.189614 
2086.000000	99.189370 
2085.000000	99.189548 
2084.000000	99.191122 
2083.000000	99.193528 
2082.000000	99.195234 
2081.000000	99.195277 
2080.000000	99.193987 
2079.000000	99.192387 
2078.000000	99.191317 
2077.000000	99.191344 
2076.000000	99.193016 
2075.000000	99.196460 
2074.000000	99.200657 
2073.000000	99.203787 
2072.000000	99.204635 
2071.000000	99.203234 
2070.000000	99.200224 
2069.000000	99.196254 
2068.000000	99.192260 
2067.000000	99.189529 
2066.000000	99.188671 
2065.000000	99.188883 
2064.000000	99.188811 
2063.000000	99.188089 
2062.000000	99.187546 
2061.000000	99.187953 
2060.000000	99.189087 
2059.000000	99.189988 
2058.000000	99.189811 
2057.000000	99.188445 
2056.000000	99.186406 
2055.000000	99.184295 
2054.000000	99.182392 
2053.000000	99.180739 
2052.000000	99.179397 
2051.000000	99.178447 
2050.000000	99.177765 
2049.000000	99.176989 
2048.000000	99.175829 
2047.000000	99.174336 
2046.000000	99.172767 
2045.000000	99.171330 
2044.000000	99.170086 
2043.000000	99.168969 
2042.000000	99.167881 
2041.000000	99.166778 
2040.000000	99.165691 
2039.000000	99.164664 
2038.000000	99.163684 
2037.000000	99.162689 
2036.000000	99.161645 
2035.000000	99.160577 
2034.000000	99.159530 
2033.000000	99.158538 
2032.000000	99.157597 
2031.000000	99.156689 
2030.000000	99.155802 
2029.000000	99.154940 
2028.000000	99.154114 
2027.000000	99.153340 
2026.000000	99.152636 
2025.000000	99.152014 
2024.000000	99.151468 
2023.000000	99.150971 
2022.000000	99.150476 
2021.000000	99.149948 
2020.000000	99.149370 
2019.000000	99.148767 
2018.000000	99.148191 
2017.000000	99.147672 
2016.000000	99.147169 
2015.000000	99.146620 
2014.000000	99.146043 
2013.000000	99.145512 
2012.000000	99.145081 
2011.000000	99.144793 
2010.000000	99.144743 
2009.000000	99.145027 
2008.000000	99.145624 
2007.000000	99.146333 
2006.000000	99.146868 
2005.000000	99.147049 
2004.000000	99.146910 
2003.000000	99.146697 
2002.000000	99.146662 
2001.000000	99.146872 
2000.000000	99.147227 
1999.000000	99.147536 
1998.000000	99.147623 
1997.000000	99.147454 
1996.000000	99.147219 
1995.000000	99.147203 
1994.000000	99.147500 
1993.000000	99.147889 
1992.000000	99.148036 
1991.000000	99.147837 
1990.000000	99.147462 
1989.000000	99.147154 
1988.000000	99.147064 
1987.000000	99.147227 
1986.000000	99.147536 
1985.000000	99.147789 
1984.000000	99.147883 
1983.000000	99.147913 
1982.000000	99.147947 
1981.000000	99.147735 
1980.000000	99.146906 
1979.000000	99.145518 
1978.000000	99.144311 
1977.000000	99.143976 
1976.000000	99.144413 
1975.000000	99.144950 
1974.000000	99.145256 
1973.000000	99.145768 
1972.000000	99.147041 
1971.000000	99.148988 
1970.000000	99.150765 
1969.000000	99.151461 
1968.000000	99.150855 
1967.000000	99.149537 
1966.000000	99.148471 
1965.000000	99.148107 
1964.000000	99.148284 
1963.000000	99.148707 
1962.000000	99.149198 
1961.000000	99.149598 
1960.000000	99.149765 
1959.000000	99.149866 
1958.000000	99.150394 
1957.000000	99.151578 
1956.000000	99.152941 
1955.000000	99.153714 
1954.000000	99.153726 
1953.000000	99.153599 
1952.000000	99.153905 
1951.000000	99.154388 
1950.000000	99.154342 
1949.000000	99.153651 
1948.000000	99.153065 
1947.000000	99.153200 
1946.000000	99.153547 
1945.000000	99.152918 
1944.000000	99.151008 
1943.000000	99.149230 
1942.000000	99.149419 
1941.000000	99.151807 
1940.000000	99.154812 
1939.000000	99.156804 
1938.000000	99.157754 
1937.000000	99.158893 
1936.000000	99.161062 
1935.000000	99.163687 
1934.000000	99.165564 
1933.000000	99.166447 
1932.000000	99.167328 
1931.000000	99.169125 
1930.000000	99.171344 
1929.000000	99.172551 
1928.000000	99.172208 
1927.000000	99.171240 
1926.000000	99.170914 
1925.000000	99.171576 
1924.000000	99.172776 
1923.000000	99.174167 
1922.000000	99.175668 
1921.000000	99.177032 
1920.000000	99.177741 
1919.000000	99.177448 
1918.000000	99.176365 
1917.000000	99.175260 
1916.000000	99.174902 
1915.000000	99.175455 
1914.000000	99.176570 
1913.000000	99.177806 
1912.000000	99.178862 
1911.000000	99.179560 
1910.000000	99.179777 
1909.000000	99.179641 
1908.000000	99.179678 
1907.000000	99.180347 
1906.000000	99.181567 
1905.000000	99.182795 
1904.000000	99.183618 
1903.000000	99.184106 
1902.000000	99.184499 
1901.000000	99.184918 
1900.000000	99.185357 
1899.000000	99.185784 
1898.000000	99.186177 
1897.000000	99.186510 
1896.000000	99.186766 
1895.000000	99.186970 
1894.000000	99.187157 
1893.000000	99.187352 
1892.000000	99.187594 
1891.000000	99.187927 
1890.000000	99.188305 
1889.000000	99.188598 
1888.000000	99.188759 
1887.000000	99.188915 
1886.000000	99.189222 
1885.000000	99.189721 
1884.000000	99.190349 
1883.000000	99.191045 
1882.000000	99.191724 
1881.000000	99.192254 
1880.000000	99.192595 
1879.000000	99.192913 
1878.000000	99.193478 
1877.000000	99.194410 
1876.000000	99.195558 
1875.000000	99.196606 
1874.000000	99.197286 
1873.000000	99.197490 
1872.000000	99.197337 
1871.000000	99.197096 
1870.000000	99.196941 
1869.000000	99.196812 
1868.000000	99.196718 
1867.000000	99.196997 
1866.000000	99.197870 
1865.000000	99.199052 
1864.000000	99.199921 
1863.000000	99.200079 
1862.000000	99.199654 
1861.000000	99.199238 
1860.000000	99.199447 
1859.000000	99.200471 
1858.000000	99.202009 
1857.000000	99.203471 
1856.000000	99.204483 
1855.000000	99.205120 
1854.000000	99.205664 
1853.000000	99.206268 
1852.000000	99.206916 
1851.000000	99.207538 
1850.000000	99.208139 
1849.000000	99.208837 
1848.000000	99.209738 
1847.000000	99.210744 
1846.000000	99.211534 
1845.000000	99.211869 
1844.000000	99.212002 
1843.000000	99.212566 
1842.000000	99.213737 
1841.000000	99.214990 
1840.000000	99.215751 
1839.000000	99.215879 
1838.000000	99.215665 
1837.000000	99.215523 
1836.000000	99.215676 
1835.000000	99.216122 
1834.000000	99.216685 
1833.000000	99.217165 
1832.000000	99.217464 
1831.000000	99.217551 
1830.000000	99.217485 
1829.000000	99.217535 
1828.000000	99.217910 
1827.000000	99.218414 
1826.000000	99.218751 
1825.000000	99.218979 
1824.000000	99.219431 
1823.000000	99.220192 
1822.000000	99.220800 
1821.000000	99.220818 
1820.000000	99.220557 
1819.000000	99.220833 
1818.000000	99.221971 
1817.000000	99.223261 
1816.000000	99.223841 
1815.000000	99.223951 
1814.000000	99.224455 
1813.000000	99.225637 
1812.000000	99.226943 
1811.000000	99.228043 
1810.000000	99.229278 
1809.000000	99.230572 
1808.000000	99.231200 
1807.000000	99.230881 
1806.000000	99.230109 
1805.000000	99.229454 
1804.000000	99.229098 
1803.000000	99.228994 
1802.000000	99.228874 
1801.000000	99.228354 
1800.000000	99.227415 
1799.000000	99.226787 
1798.000000	99.227144 
1797.000000	99.228320 
1796.000000	99.229669 
1795.000000	99.230756 
1794.000000	99.231444 
1793.000000	99.231551 
1792.000000	99.230951 
1791.000000	99.230180 
1790.000000	99.229974 
1789.000000	99.230331 
1788.000000	99.230931 
1787.000000	99.231706 
1786.000000	99.232716 
1785.000000	99.233727 
1784.000000	99.234408 
1783.000000	99.234795 
1782.000000	99.235048 
1781.000000	99.235192 
1780.000000	99.235088 
1779.000000	99.234739 
1778.000000	99.234425 
1777.000000	99.234434 
1776.000000	99.234861 
1775.000000	99.235537 
1774.000000	99.236190 
1773.000000	99.236724 
1772.000000	99.237138 
1771.000000	99.237453 
1770.000000	99.237724 
1769.000000	99.237955 
1768.000000	99.238140 
1767.000000	99.238333 
1766.000000	99.238612 
1765.000000	99.239025 
1764.000000	99.239544 
1763.000000	99.240087 
1762.000000	99.240570 
1761.000000	99.241001 
1760.000000	99.241408 
1759.000000	99.241781 
1758.000000	99.242186 
1757.000000	99.242794 
1756.000000	99.243662 
1755.000000	99.244549 
1754.000000	99.245201 
1753.000000	99.245674 
1752.000000	99.246161 
1751.000000	99.246550 
1750.000000	99.246618 
1749.000000	99.246495 
1748.000000	99.246560 
1747.000000	99.246948 
1746.000000	99.247497 
1745.000000	99.248029 
1744.000000	99.248485 
1743.000000	99.248854 
1742.000000	99.249152 
1741.000000	99.249429 
1740.000000	99.249750 
1739.000000	99.250174 
1738.000000	99.250679 
1737.000000	99.251136 
1736.000000	99.251442 
1735.000000	99.251650 
1734.000000	99.251758 
1733.000000	99.251801 
1732.000000	99.251908 
1731.000000	99.252043 
1730.000000	99.252139 
1729.000000	99.252193 
1728.000000	99.252229 
1727.000000	99.252269 
1726.000000	99.252327 
1725.000000	99.252410 
1724.000000	99.252488 
1723.000000	99.252523 
1722.000000	99.252504 
1721.000000	99.252437 
1720.000000	99.252335 
1719.000000	99.252221 
1718.000000	99.252097 
1717.000000	99.251939 
1716.000000	99.251753 
1715.000000	99.251560 
1714.000000	99.251364 
1713.000000	99.251154 
1712.000000	99.250928 
1711.000000	99.250690 
1710.000000	99.250442 
1709.000000	99.250183 
1708.000000	99.249909 
1707.000000	99.249619 
1706.000000	99.249312 
1705.000000	99.248985 
1704.000000	99.248643 
1703.000000	99.248294 
1702.000000	99.247944 
1701.000000	99.247597 
1700.000000	99.247247 
1699.000000	99.246888 
1698.000000	99.246519 
1697.000000	99.246137 
1696.000000	99.245740 
1695.000000	99.245335 
1694.000000	99.244933 
1693.000000	99.244540 
1692.000000	99.244160 
1691.000000	99.243793 
1690.000000	99.243437 
1689.000000	99.243091 
1688.000000	99.242751 
1687.000000	99.242416 
1686.000000	99.242089 
1685.000000	99.241769 
1684.000000	99.241454 
1683.000000	99.241145 
1682.000000	99.240845 
1681.000000	99.240557 
1680.000000	99.240284 
1679.000000	99.240025 
1678.000000	99.239778 
1677.000000	99.239541 
1676.000000	99.239317 
1675.000000	99.239109 
1674.000000	99.238921 
1673.000000	99.238748 
1672.000000	99.238585 
1671.000000	99.238427 
1670.000000	99.238271 
1669.000000	99.238119 
1668.000000	99.237975 
1667.000000	99.237844 
1666.000000	99.237724 
1665.000000	99.237612 
1664.000000	99.237512 
1663.000000	99.237426 
1662.000000	99.237355 
1661.000000	99.237296 
1660.000000	99.237247 
1659.000000	99.237206 
1658.000000	99.237169 
1657.000000	99.237137 
1656.000000	99.237113 
1655.000000	99.237100 
1654.000000	99.237103 
1653.000000	99.237124 
1652.000000	99.237166 
1651.000000	99.237231 
1650.000000	99.237312 
1649.000000	99.237404 
1648.000000	99.237502 
1647.000000	99.237589 
1646.000000	99.237653 
1645.000000	99.237747 
1644.000000	99.237934 
1643.000000	99.238211 
1642.000000	99.238507 
1641.000000	99.238743 
1640.000000	99.238903 
1639.000000	99.239031 
1638.000000	99.239188 
1637.000000	99.239485 
1636.000000	99.239989 
1635.000000	99.240494 
1634.000000	99.240861 
1633.000000	99.241012 
1632.000000	99.240859 
1631.000000	99.240660 
1630.000000	99.240711 
1629.000000	99.241047 
1628.000000	99.241546 
1627.000000	99.242008 
1626.000000	99.242035 
1625.000000	99.241402 
1624.000000	99.240630 
1623.000000	99.240571 
1622.000000	99.241380 
1621.000000	99.242570 
1620.000000	99.243788 
1619.000000	99.244969 
1618.000000	99.246149 
1617.000000	99.246994 
1616.000000	99.247671 
1615.000000	99.248836 
1614.000000	99.250249 
1613.000000	99.251531 
1612.000000	99.253108 
1611.000000	99.255076 
1610.000000	99.256280 
1609.000000	99.255891 
1608.000000	99.254893 
1607.000000	99.254781 
1606.000000	99.255559 
1605.000000	99.256649 
1604.000000	99.258078 
1603.000000	99.259710 
1602.000000	99.260905 
1601.000000	99.261503 
1600.000000	99.262161 
1599.000000	99.263157 
1598.000000	99.264027 
1597.000000	99.264571 
1596.000000	99.265115 
1595.000000	99.265659 
1594.000000	99.265697 
1593.000000	99.265338 
1592.000000	99.265556 
1591.000000	99.266814 
1590.000000	99.268312 
1589.000000	99.269194 
1588.000000	99.269710 
1587.000000	99.270490 
1586.000000	99.271338 
1585.000000	99.271649 
1584.000000	99.271598 
1583.000000	99.271594 
1582.000000	99.271561 
1581.000000	99.271408 
1580.000000	99.271285 
1579.000000	99.271189 
1578.000000	99.270983 
1577.000000	99.270725 
1576.000000	99.270618 
1575.000000	99.270726 
1574.000000	99.270867 
1573.000000	99.270909 
1572.000000	99.270894 
1571.000000	99.270881 
1570.000000	99.270842 
1569.000000	99.270753 
1568.000000	99.270646 
1567.000000	99.270507 
1566.000000	99.270327 
1565.000000	99.270128 
1564.000000	99.269920 
1563.000000	99.269703 
1562.000000	99.269474 
1561.000000	99.269231 
1560.000000	99.268975 
1559.000000	99.268697 
1558.000000	99.268393 
1557.000000	99.268069 
1556.000000	99.267729 
1555.000000	99.267370 
1554.000000	99.266986 
1553.000000	99.266575 
1552.000000	99.266138 
1551.000000	99.265675 
1550.000000	99.265189 
1549.000000	99.264680 
1548.000000	99.264150 
1547.000000	99.263599 
1546.000000	99.263025 
1545.000000	99.262434 
1544.000000	99.261834 
1543.000000	99.261236 
1542.000000	99.260643 
1541.000000	99.260045 
1540.000000	99.259430 
1539.000000	99.258790 
1538.000000	99.258130 
1537.000000	99.257456 
1536.000000	99.256765 
1535.000000	99.256064 
1534.000000	99.255334 
1533.000000	99.254515 
1532.000000	99.253614 
1531.000000	99.252718 
1530.000000	99.251862 
1529.000000	99.250998 
1528.000000	99.250070 
1527.000000	99.249125 
1526.000000	99.248261 
1525.000000	99.247496 
1524.000000	99.246785 
1523.000000	99.246149 
1522.000000	99.245570 
1521.000000	99.244738 
1520.000000	99.243447 
1519.000000	99.241806 
1518.000000	99.239970 
1517.000000	99.238146 
1516.000000	99.236590 
1515.000000	99.235436 
1514.000000	99.234583 
1513.000000	99.233874 
1512.000000	99.233135 
1511.000000	99.232152 
1510.000000	99.230906 
1509.000000	99.229552 
1508.000000	99.228437 
1507.000000	99.227517 
1506.000000	99.226494 
1505.000000	99.225396 
1504.000000	99.224327 
1503.000000	99.223291 
1502.000000	99.222325 
1501.000000	99.221263 
1500.000000	99.219781 
1499.000000	99.217862 
1498.000000	99.216061 
1497.000000	99.214780 
1496.000000	99.213630 
1495.000000	99.212519 
1494.000000	99.211888 
1493.000000	99.211792 
1492.000000	99.211754 
1491.000000	99.211152 
1490.000000	99.209548 
1489.000000	99.207017 
1488.000000	99.204112 
1487.000000	99.201749 
1486.000000	99.200174 
1485.000000	99.198526 
1484.000000	99.196419 
1483.000000	99.194321 
1482.000000	99.192796 
1481.000000	99.191717 
1480.000000	99.190594 
1479.000000	99.189500 
1478.000000	99.188799 
1477.000000	99.188214 
1476.000000	99.187194 
1475.000000	99.186567 
1474.000000	99.187550 
1473.000000	99.189171 
1472.000000	99.189000 
1471.000000	99.187245 
1470.000000	99.185846 
1469.000000	99.184948 
1468.000000	99.183708 
1467.000000	99.182238 
1466.000000	99.181471 
1465.000000	99.181725 
1464.000000	99.182588 
1463.000000	99.183566 
1462.000000	99.184222 
1461.000000	99.183799 
1460.000000	99.181752 
1459.000000	99.177623 
1458.000000	99.170861 
1457.000000	99.161176 
1456.000000	99.151945 
1455.000000	99.147084 
1454.000000	99.146046 
1453.000000	99.147658 
1452.000000	99.151284 
1451.000000	99.155214 
1450.000000	99.157755 
1449.000000	99.158224 
1448.000000	99.156732 
1447.000000	99.154754 
1446.000000	99.153868 
1445.000000	99.154921 
1444.000000	99.157754 
1443.000000	99.160948 
1442.000000	99.163133 
1441.000000	99.163850 
1440.000000	99.163405 
1439.000000	99.162126 
1438.000000	99.161645 
1437.000000	99.162753 
1436.000000	99.163216 
1435.000000	99.161642 
1434.000000	99.159252 
1433.000000	99.156775 
1432.000000	99.154182 
1431.000000	99.151097 
1430.000000	99.147880 
1429.000000	99.145671 
1428.000000	99.144361 
1427.000000	99.143089 
1426.000000	99.141083 
1425.000000	99.138829 
1424.000000	99.136600 
1423.000000	99.132798 
1422.000000	99.126238 
1421.000000	99.117514 
1420.000000	99.108221 
1419.000000	99.099269 
1418.000000	99.092145 
1417.000000	99.087388 
1416.000000	99.082139 
1415.000000	99.073827 
1414.000000	99.062931 
1413.000000	99.052158 
1412.000000	99.043854 
1411.000000	99.038011 
1410.000000	99.033507 
1409.000000	99.029707 
1408.000000	99.026572 
1407.000000	99.024859 
1406.000000	99.025259 
1405.000000	99.027928 
1404.000000	99.032536 
1403.000000	99.038439 
1402.000000	99.045361 
1401.000000	99.052984 
1400.000000	99.060066 
1399.000000	99.064179 
1398.000000	99.063245 
1397.000000	99.056129 
1396.000000	99.042910 
1395.000000	99.028224 
1394.000000	99.021319 
1393.000000	99.027885 
1392.000000	99.044274 
1391.000000	99.061682 
1390.000000	99.073792 
1389.000000	99.079543 
1388.000000	99.080784 
1387.000000	99.079450 
1386.000000	99.077111 
1385.000000	99.075373 
1384.000000	99.075191 
1383.000000	99.076205 
1382.000000	99.077703 
1381.000000	99.079856 
1380.000000	99.083761 
1379.000000	99.089960 
1378.000000	99.097404 
1377.000000	99.104408 
1376.000000	99.110194 
1375.000000	99.115137 
1374.000000	99.120176 
1373.000000	99.126441 
1372.000000	99.134261 
1371.000000	99.142656 
1370.000000	99.150067 
1369.000000	99.155951 
1368.000000	99.161101 
1367.000000	99.166228 
1366.000000	99.171318 
1365.000000	99.176296 
1364.000000	99.181425 
1363.000000	99.186674 
1362.000000	99.191512 
1361.000000	99.195903 
1360.000000	99.200686 
1359.000000	99.206624 
1358.000000	99.213552 
1357.000000	99.220582 
1356.000000	99.226708 
1355.000000	99.231288 
1354.000000	99.234698 
1353.000000	99.238235 
1352.000000	99.242527 
1351.000000	99.246585 
1350.000000	99.248747 
1349.000000	99.249631 
1348.000000	99.251500 
1347.000000	99.254882 
1346.000000	99.258142 
1345.000000	99.260158 
1344.000000	99.261464 
1343.000000	99.262336 
1342.000000	99.261959 
1341.000000	99.260413 
1340.000000	99.259750 
1339.000000	99.261562 
1338.000000	99.264960 
1337.000000	99.268335 
1336.000000	99.271285 
1335.000000	99.273777 
1334.000000	99.275168 
1333.000000	99.275270 
1332.000000	99.275151 
1331.000000	99.275710 
1330.000000	99.276360 
1329.000000	99.276293 
1328.000000	99.275925 
1327.000000	99.276011 
1326.000000	99.276278 
1325.000000	99.276372 
1324.000000	99.276784 
1323.000000	99.277661 
1322.000000	99.278096 
1321.000000	99.277797 
1320.000000	99.278412 
1319.000000	99.281604 
1318.000000	99.286266 
1317.000000	99.289160 
1316.000000	99.288351 
1315.000000	99.284807 
1314.000000	99.281010 
1313.000000	99.278742 
1312.000000	99.278196 
1311.000000	99.278602 
1310.000000	99.279260 
1309.000000	99.280004 
1308.000000	99.280808 
1307.000000	99.281339 
1306.000000	99.281142 
1305.000000	99.280428 
1304.000000	99.279942 
1303.000000	99.279936 
1302.000000	99.280008 
1301.000000	99.279997 
1300.000000	99.280284 
1299.000000	99.281025 
1298.000000	99.281977 
1297.000000	99.283272 
1296.000000	99.285401 
1295.000000	99.287880 
1294.000000	99.288975 
1293.000000	99.287517 
1292.000000	99.284306 
1291.000000	99.281285 
1290.000000	99.279887 
1289.000000	99.280486 
1288.000000	99.282542 
1287.000000	99.284544 
1286.000000	99.284772 
1285.000000	99.282970 
1284.000000	99.280582 
1283.000000	99.278923 
1282.000000	99.277738 
1281.000000	99.276185 
1280.000000	99.274410 
1279.000000	99.272914 
1278.000000	99.271138 
1277.000000	99.268174 
1276.000000	99.264432 
1275.000000	99.261193 
1274.000000	99.258618 
1273.000000	99.255550 
1272.000000	99.251447 
1271.000000	99.247388 
1270.000000	99.244695 
1269.000000	99.243320 
1268.000000	99.242040 
1267.000000	99.239634 
1266.000000	99.235612 
1265.000000	99.230305 
1264.000000	99.224645 
1263.000000	99.219569 
1262.000000	99.215294 
1261.000000	99.211313 
1260.000000	99.207285 
1259.000000	99.203580 
1258.000000	99.200804 
1257.000000	99.199130 
1256.000000	99.198398 
1255.000000	99.198498 
1254.000000	99.199161 
1253.000000	99.199538 
1252.000000	99.198669 
1251.000000	99.196662 
1250.000000	99.194983 
1249.000000	99.195189 
1248.000000	99.197507 
1247.000000	99.200708 
1246.000000	99.202901 
1245.000000	99.202100 
1244.000000	99.196881 
1243.000000	99.188099 
1242.000000	99.180079 
1241.000000	99.178027 
1240.000000	99.183154 
1239.000000	99.191015 
1238.000000	99.195722 
1237.000000	99.195549 
1236.000000	99.192936 
1235.000000	99.190189 
1234.000000	99.187175 
1233.000000	99.183107 
1232.000000	99.178181 
1231.000000	99.172687 
1230.000000	99.166444 
1229.000000	99.160237 
1228.000000	99.156371 
1227.000000	99.156363 
1226.000000	99.158867 
1225.000000	99.160963 
1224.000000	99.160988 
1223.000000	99.159233 
1222.000000	99.156671 
1221.000000	99.154161 
1220.000000	99.152495 
1219.000000	99.152057 
1218.000000	99.152302 
1217.000000	99.152061 
1216.000000	99.150289 
1215.000000	99.146304 
1214.000000	99.139743 
1213.000000	99.130740 
1212.000000	99.119992 
1211.000000	99.108596 
1210.000000	99.097987 
1209.000000	99.089641 
1208.000000	99.083974 
1207.000000	99.079493 
1206.000000	99.074000 
1205.000000	99.066830 
1204.000000	99.058913 
1203.000000	99.050678 
1202.000000	99.041280 
1201.000000	99.030276 
1200.000000	99.018718 
1199.000000	99.007826 
1198.000000	98.997663 
1197.000000	98.987704 
1196.000000	98.977418 
1195.000000	98.965739 
1194.000000	98.951426 
1193.000000	98.934824 
1192.000000	98.918325 
1191.000000	98.904016 
1190.000000	98.891484 
1189.000000	98.878842 
1188.000000	98.865112 
1187.000000	98.850770 
1186.000000	98.836769 
1185.000000	98.823817 
1184.000000	98.811802 
1183.000000	98.799207 
1182.000000	98.784062 
1181.000000	98.766323 
1180.000000	98.748268 
1179.000000	98.731585 
1178.000000	98.715269 
1177.000000	98.697611 
1176.000000	98.678916 
1175.000000	98.660476 
1174.000000	98.641765 
1173.000000	98.620876 
1172.000000	98.597688 
1171.000000	98.574822 
1170.000000	98.555050 
1169.000000	98.538820 
1168.000000	98.524397 
1167.000000	98.509797 
1166.000000	98.495041 
1165.000000	98.483129 
1164.000000	98.478006 
1163.000000	98.480627 
1162.000000	98.487648 
1161.000000	98.494946 
1160.000000	98.501339 
1159.000000	98.507147 
1158.000000	98.510322 
1157.000000	98.506559 
1156.000000	98.493379 
1155.000000	98.472857 
1154.000000	98.450531 
1153.000000	98.432000 
1152.000000	98.419324 
1151.000000	98.409278 
1150.000000	98.395845 
1149.000000	98.376109 
1148.000000	98.353273 
1147.000000	98.332728 
1146.000000	98.315971 
1145.000000	98.300331 
1144.000000	98.283620 
1143.000000	98.266256 
1142.000000	98.249152 
1141.000000	98.232430 
1140.000000	98.216711 
1139.000000	98.203071 
1138.000000	98.190738 
1137.000000	98.176897 
1136.000000	98.159846 
1135.000000	98.140864 
1134.000000	98.122027 
1133.000000	98.103513 
1132.000000	98.084182 
1131.000000	98.063971 
1130.000000	98.044643 
1129.000000	98.028172 
1128.000000	98.014386 
1127.000000	98.000040 
1126.000000	97.981083 
1125.000000	97.956872 
1124.000000	97.931565 
1123.000000	97.910071 
1122.000000	97.893005 
1121.000000	97.877031 
1120.000000	97.859412 
1119.000000	97.840159 
1118.000000	97.819997 
1117.000000	97.798736 
1116.000000	97.776361 
1115.000000	97.753927 
1114.000000	97.732558 
1113.000000	97.712664 
1112.000000	97.694272 
1111.000000	97.676752 
1110.000000	97.658057 
1109.000000	97.635976 
1108.000000	97.610868 
1107.000000	97.585700 
1106.000000	97.562715 
1105.000000	97.541402 
1104.000000	97.519906 
1103.000000	97.497370 
1102.000000	97.474544 
1101.000000	97.452885 
1100.000000	97.433191 
1099.000000	97.414979 
1098.000000	97.396962 
1097.000000	97.378498 
1096.000000	97.360114 
1095.000000	97.342062 
1094.000000	97.322976 
1093.000000	97.300785 
1092.000000	97.274616 
1091.000000	97.245211 
1090.000000	97.214147 
1089.000000	97.183378 
1088.000000	97.154687 
1087.000000	97.128216 
1086.000000	97.101926 
1085.000000	97.074057 
1084.000000	97.045799 
1083.000000	97.019856 
1082.000000	96.996564 
1081.000000	96.973412 
1080.000000	96.948444 
1079.000000	96.922114 
1078.000000	96.895761 
1077.000000	96.870669 
1076.000000	96.848930 
1075.000000	96.832632 
1074.000000	96.821314 
1073.000000	96.812031 
1072.000000	96.801663 
1071.000000	96.786527 
1070.000000	96.760579 
1069.000000	96.719064 
1068.000000	96.666118 
1067.000000	96.615752 
1066.000000	96.581525 
1065.000000	96.565864 
1064.000000	96.560293 
1063.000000	96.553110 
1062.000000	96.535618 
1061.000000	96.504060 
1060.000000	96.460085 
1059.000000	96.410391 
1058.000000	96.363684 
1057.000000	96.326034 
1056.000000	96.298291 
1055.000000	96.276829 
1054.000000	96.256582 
1053.000000	96.234650 
1052.000000	96.211575 
1051.000000	96.188834 
1050.000000	96.165897 
1049.000000	96.141038 
1048.000000	96.114182 
1047.000000	96.087330 
1046.000000	96.062955 
1045.000000	96.042930 
1044.000000	96.027351 
1043.000000	96.013023 
1042.000000	95.995301 
1041.000000	95.973618 
1040.000000	95.953334 
1039.000000	95.940153 
1038.000000	95.934880 
1037.000000	95.935507 
1036.000000	95.941191 
1035.000000	95.950948 
1034.000000	95.961378 
1033.000000	95.969385 
1032.000000	95.974400 
1031.000000	95.974623 
1030.000000	95.965649 
1029.000000	95.948638 
1028.000000	95.936192 
1027.000000	95.941960 
1026.000000	95.964875 
1025.000000	95.989852 
1024.000000	96.004247 
1023.000000	96.007777 
1022.000000	96.006619 
1021.000000	96.005214 
1020.000000	96.005596 
1019.000000	96.008527 
1018.000000	96.012132 
1017.000000	96.013404 
1016.000000	96.013104 
1015.000000	96.015762 
1014.000000	96.023549 
1013.000000	96.033549 
1012.000000	96.041997 
1011.000000	96.047790 
1010.000000	96.051209 
1009.000000	96.053001 
1008.000000	96.055728 
1007.000000	96.062542 
1006.000000	96.073463 
1005.000000	96.085621 
1004.000000	96.097597 
1003.000000	96.110485 
1002.000000	96.124545 
1001.000000	96.138237 
1000.000000	96.150946 
999.000000	 96.163390 
998.000000	 96.175167 
997.000000	 96.185366 
996.000000	 96.195928 
995.000000	 96.210727 
994.000000	 96.230570 
993.000000	 96.252092 
992.000000	 96.271909 
991.000000	 96.288926 
990.000000	 96.302720 
989.000000	 96.313357 
988.000000	 96.323354 
987.000000	 96.336452 
986.000000	 96.353891 
985.000000	 96.374706 
984.000000	 96.399160 
983.000000	 96.428135 
982.000000	 96.459622 
981.000000	 96.489471 
980.000000	 96.516097 
979.000000	 96.541727 
978.000000	 96.568905 
977.000000	 96.598784 
976.000000	 96.632279 
975.000000	 96.669178 
974.000000	 96.706393 
973.000000	 96.740925 
972.000000	 96.774479 
971.000000	 96.811452 
970.000000	 96.852590 
969.000000	 96.894425 
968.000000	 96.934719 
967.000000	 96.974298 
966.000000	 97.013274 
965.000000	 97.049662 
964.000000	 97.082661 
963.000000	 97.114008 
962.000000	 97.145401 
961.000000	 97.177339 
960.000000	 97.210513 
959.000000	 97.245051 
958.000000	 97.278311 
957.000000	 97.306910 
956.000000	 97.331316 
955.000000	 97.355422 
954.000000	 97.381476 
953.000000	 97.408377 
952.000000	 97.434941 
951.000000	 97.461200 
950.000000	 97.486057 
949.000000	 97.507187 
948.000000	 97.524084 
947.000000	 97.538302 
946.000000	 97.550245 
945.000000	 97.558923 
944.000000	 97.565689 
943.000000	 97.575108 
942.000000	 97.590585 
941.000000	 97.610974 
940.000000	 97.632105 
939.000000	 97.649882 
938.000000	 97.662067 
937.000000	 97.669612 
936.000000	 97.676772 
935.000000	 97.687887 
934.000000	 97.703574 
933.000000	 97.721428 
932.000000	 97.739759 
931.000000	 97.758480 
930.000000	 97.776925 
929.000000	 97.793280 
928.000000	 97.806148 
927.000000	 97.815140 
926.000000	 97.820766 
925.000000	 97.825494 
924.000000	 97.833550 
923.000000	 97.847191 
922.000000	 97.863983 
921.000000	 97.879684 
920.000000	 97.892278 
919.000000	 97.901120 
918.000000	 97.904919 
917.000000	 97.904380 
916.000000	 97.904811 
915.000000	 97.911420 
914.000000	 97.922742 
913.000000	 97.932809 
912.000000	 97.939572 
911.000000	 97.947292 
910.000000	 97.960736 
909.000000	 97.980906 
908.000000	 98.006066 
907.000000	 98.032842 
906.000000	 98.056472 
905.000000	 98.074241 
904.000000	 98.089165 
903.000000	 98.107129 
902.000000	 98.130552 
901.000000	 98.157700 
900.000000	 98.186909 
899.000000	 98.217120 
898.000000	 98.244774 
897.000000	 98.265480 
896.000000	 98.279685 
895.000000	 98.292889 
894.000000	 98.309577 
893.000000	 98.330199 
892.000000	 98.354138 
891.000000	 98.381317 
890.000000	 98.409931 
889.000000	 98.436501 
888.000000	 98.459635 
887.000000	 98.480852 
886.000000	 98.501170 
885.000000	 98.520076 
884.000000	 98.538333 
883.000000	 98.557809 
882.000000	 98.577434 
881.000000	 98.593522 
880.000000	 98.606077 
879.000000	 98.620870 
878.000000	 98.642526 
877.000000	 98.668531 
876.000000	 98.692598 
875.000000	 98.711109 
874.000000	 98.724116 
873.000000	 98.733372 
872.000000	 98.742265 
871.000000	 98.755188 
870.000000	 98.773945 
869.000000	 98.796349 
868.000000	 98.819936 
867.000000	 98.844643 
866.000000	 98.870013 
865.000000	 98.892883 
864.000000	 98.911140 
863.000000	 98.927775 
862.000000	 98.947476 
861.000000	 98.969626 
860.000000	 98.988006 
859.000000	 98.998006 
858.000000	 99.002004 
857.000000	 99.007189 
856.000000	 99.019570 
855.000000	 99.040454 
854.000000	 99.066784 
853.000000	 99.093333 
852.000000	 99.115252 
851.000000	 99.130531 
850.000000	 99.141499 
849.000000	 99.153277 
848.000000	 99.169086 
847.000000	 99.186881 
846.000000	 99.201823 
845.000000	 99.212001 
844.000000	 99.219810 
843.000000	 99.227669 
842.000000	 99.235301 
841.000000	 99.242072 
840.000000	 99.248440 
839.000000	 99.252982 
838.000000	 99.251609 
837.000000	 99.243222 
836.000000	 99.233447 
835.000000	 99.228838 
834.000000	 99.229386 
833.000000	 99.231299 
832.000000	 99.235175 
831.000000	 99.245166 
830.000000	 99.259687 
829.000000	 99.269366 
828.000000	 99.267524 
827.000000	 99.258905 
826.000000	 99.254603 
825.000000	 99.259916 
824.000000	 99.270035 
823.000000	 99.276944 
822.000000	 99.278251 
821.000000	 99.278443 
820.000000	 99.282109 
819.000000	 99.287763 
818.000000	 99.290402 
817.000000	 99.289270 
816.000000	 99.288919 
815.000000	 99.290792 
814.000000	 99.287927 
813.000000	 99.272077 
812.000000	 99.243085 
811.000000	 99.206663 
810.000000	 99.164815 
809.000000	 99.113480 
808.000000	 99.049099 
807.000000	 98.973002 
806.000000	 98.889454 
805.000000	 98.803541 
804.000000	 98.721280 
803.000000	 98.647829 
802.000000	 98.584677 
801.000000	 98.531396 
800.000000	 98.489695 
799.000000	 98.462396 
798.000000	 98.449440 
797.000000	 98.448551 
796.000000	 98.458171 
795.000000	 98.475612 
794.000000	 98.494614 
793.000000	 98.510089 
792.000000	 98.523756 
791.000000	 98.539829 
790.000000	 98.556662 
789.000000	 98.567769 
788.000000	 98.569040 
787.000000	 98.559445 
786.000000	 98.537338 
785.000000	 98.503341 
784.000000	 98.465654 
783.000000	 98.434898 
782.000000	 98.413212 
781.000000	 98.394584 
780.000000	 98.375635 
779.000000	 98.359398 
778.000000	 98.348794 
777.000000	 98.344109 
776.000000	 98.347651 
775.000000	 98.363216 
774.000000	 98.388911 
773.000000	 98.416950 
772.000000	 98.442725 
771.000000	 98.468439 
770.000000	 98.496151 
769.000000	 98.522891 
768.000000	 98.544442 
767.000000	 98.559297 
766.000000	 98.568022 
765.000000	 98.573404 
764.000000	 98.581464 
763.000000	 98.596658 
762.000000	 98.614921 
761.000000	 98.626753 
760.000000	 98.628782 
759.000000	 98.627961 
758.000000	 98.633570 
757.000000	 98.649037 
756.000000	 98.671285 
755.000000	 98.692953 
754.000000	 98.705722 
753.000000	 98.707627 
752.000000	 98.708028 
751.000000	 98.720063 
750.000000	 98.746455 
749.000000	 98.776548 
748.000000	 98.797992 
747.000000	 98.807591 
746.000000	 98.810363 
745.000000	 98.813123 
744.000000	 98.820594 
743.000000	 98.833907 
742.000000	 98.850796 
741.000000	 98.869292 
740.000000	 98.890922 
739.000000	 98.917333 
738.000000	 98.944956 
737.000000	 98.967313 
736.000000	 98.981961 
735.000000	 98.990874 
734.000000	 98.995314 
733.000000	 98.995896 
732.000000	 98.997685 
731.000000	 99.008311 
730.000000	 99.028357 
729.000000	 99.049246 
728.000000	 99.063627 
727.000000	 99.072767 
726.000000	 99.081157 
725.000000	 99.089074 
724.000000	 99.094212 
723.000000	 99.096532 
722.000000	 99.097960 
721.000000	 99.100485 
720.000000	 99.106875 
719.000000	 99.119387 
718.000000	 99.135517 
717.000000	 99.148822 
716.000000	 99.155261 
715.000000	 99.155476 
714.000000	 99.151925 
713.000000	 99.148729 
712.000000	 99.153758 
711.000000	 99.173175 
710.000000	 99.201508 
709.000000	 99.224132 
708.000000	 99.232446 
707.000000	 99.230498 
706.000000	 99.224952 
705.000000	 99.215572 
704.000000	 99.199904 
703.000000	 99.180771 
702.000000	 99.163474 
701.000000	 99.148899 
700.000000	 99.133499 
699.000000	 99.113294 
698.000000	 99.086446 
697.000000	 99.056171 
696.000000	 99.031897 
695.000000	 99.022352 
694.000000	 99.026380 
693.000000	 99.035797 
692.000000	 99.047744 
691.000000	 99.066536 
690.000000	 99.091953 
689.000000	 99.114928 
688.000000	 99.129017 
687.000000	 99.138286 
686.000000	 99.148217 
685.000000	 99.156685 
684.000000	 99.159837 
683.000000	 99.159995 
682.000000	 99.162575 
681.000000	 99.169862 
680.000000	 99.180323 
679.000000	 99.189181 
678.000000	 99.189440 
677.000000	 99.179788 
676.000000	 99.172638 
675.000000	 99.182800 
674.000000	 99.207930 
673.000000	 99.229613 
672.000000	 99.236197 
671.000000	 99.234951 
670.000000	 99.239835 
669.000000	 99.255357 
668.000000	 99.270069 
667.000000	 99.274103 
666.000000	 99.272682 
665.000000	 99.269172 
664.000000	 99.266665 
663.000000	 99.273869 
662.000000	 99.293286 
661.000000	 99.312396 
660.000000	 99.316881 
659.000000	 99.306104 
658.000000	 99.289238 
657.000000	 99.272339 
656.000000	 99.256741 
655.000000	 99.245581 
654.000000	 99.242682 
653.000000	 99.247579 
652.000000	 99.257933 
651.000000	 99.272478 
650.000000	 99.286818 

