4000.000000	100.471543 
3999.000000	100.469627 
3998.000000	100.468024 
3997.000000	100.468803 
3996.000000	100.471882 
3995.000000	100.475383 
3994.000000	100.477508 
3993.000000	100.478018 
3992.000000	100.478105 
3991.000000	100.478664 
3990.000000	100.478637 
3989.000000	100.475909 
3988.000000	100.470258 
3987.000000	100.464292 
3986.000000	100.460786 
3985.000000	100.460177 
3984.000000	100.461497 
3983.000000	100.464728 
3982.000000	100.470520 
3981.000000	100.478094 
3980.000000	100.485037 
3979.000000	100.489703 
3978.000000	100.492531 
3977.000000	100.494512 
3976.000000	100.495537 
3975.000000	100.494954 
3974.000000	100.492493 
3973.000000	100.488061 
3972.000000	100.482237 
3971.000000	100.477142 
3970.000000	100.475562 
3969.000000	100.478170 
3968.000000	100.483134 
3967.000000	100.488013 
3966.000000	100.490951 
3965.000000	100.490640 
3964.000000	100.487021 
3963.000000	100.482543 
3962.000000	100.480892 
3961.000000	100.482908 
3960.000000	100.485760 
3959.000000	100.486408 
3958.000000	100.484573 
3957.000000	100.481573 
3956.000000	100.479113 
3955.000000	100.478848 
3954.000000	100.480986 
3953.000000	100.483834 
3952.000000	100.485035 
3951.000000	100.484007 
3950.000000	100.481726 
3949.000000	100.479456 
3948.000000	100.478296 
3947.000000	100.478422 
3946.000000	100.479269 
3945.000000	100.480989 
3944.000000	100.484377 
3943.000000	100.488101 
3942.000000	100.488277 
3941.000000	100.482911 
3940.000000	100.475747 
3939.000000	100.473083 
3938.000000	100.477113 
3937.000000	100.482717 
3936.000000	100.483892 
3935.000000	100.481632 
3934.000000	100.481142 
3933.000000	100.483507 
3932.000000	100.484171 
3931.000000	100.482028 
3930.000000	100.482298 
3929.000000	100.487500 
3928.000000	100.492088 
3927.000000	100.489872 
3926.000000	100.484392 
3925.000000	100.483047 
3924.000000	100.484723 
3923.000000	100.484101 
3922.000000	100.483078 
3921.000000	100.487023 
3920.000000	100.493604 
3919.000000	100.493993 
3918.000000	100.487036 
3917.000000	100.480171 
3916.000000	100.477232 
3915.000000	100.474684 
3914.000000	100.472138 
3913.000000	100.473054 
3912.000000	100.477756 
3911.000000	100.480369 
3910.000000	100.479039 
3909.000000	100.477631 
3908.000000	100.480279 
3907.000000	100.487071 
3906.000000	100.496686 
3905.000000	100.509718 
3904.000000	100.521701 
3903.000000	100.522947 
3902.000000	100.509979 
3901.000000	100.492693 
3900.000000	100.484827 
3899.000000	100.486670 
3898.000000	100.487091 
3897.000000	100.481123 
3896.000000	100.475251 
3895.000000	100.473769 
3894.000000	100.474213 
3893.000000	100.473017 
3892.000000	100.477579 
3891.000000	100.494378 
3890.000000	100.513614 
3889.000000	100.518726 
3888.000000	100.509787 
3887.000000	100.506378 
3886.000000	100.518097 
3885.000000	100.526414 
3884.000000	100.514312 
3883.000000	100.492649 
3882.000000	100.483590 
3881.000000	100.491273 
3880.000000	100.499226 
3879.000000	100.495271 
3878.000000	100.483838 
3877.000000	100.474861 
3876.000000	100.476338 
3875.000000	100.490926 
3874.000000	100.507386 
3873.000000	100.505880 
3872.000000	100.485409 
3871.000000	100.474792 
3870.000000	100.493693 
3869.000000	100.516507 
3868.000000	100.512796 
3867.000000	100.493633 
3866.000000	100.493513 
3865.000000	100.514291 
3864.000000	100.521598 
3863.000000	100.502864 
3862.000000	100.485857 
3861.000000	100.486492 
3860.000000	100.493717 
3859.000000	100.492694 
3858.000000	100.483090 
3857.000000	100.470585 
3856.000000	100.461670 
3855.000000	100.472737 
3854.000000	100.508141 
3853.000000	100.534257 
3852.000000	100.529948 
3851.000000	100.512153 
3850.000000	100.504579 
3849.000000	100.511443 
3848.000000	100.517778 
3847.000000	100.510720 
3846.000000	100.497000 
3845.000000	100.489306 
3844.000000	100.492146 
3843.000000	100.499688 
3842.000000	100.503015 
3841.000000	100.498668 
3840.000000	100.496418 
3839.000000	100.503156 
3838.000000	100.514555 
3837.000000	100.523150 
3836.000000	100.525211 
3835.000000	100.520299 
3834.000000	100.510690 
3833.000000	100.503079 
3832.000000	100.502932 
3831.000000	100.505726 
3830.000000	100.503547 
3829.000000	100.494624 
3828.000000	100.486611 
3827.000000	100.489404 
3826.000000	100.501878 
3825.000000	100.507732 
3824.000000	100.498074 
3823.000000	100.486768 
3822.000000	100.496230 
3821.000000	100.521623 
3820.000000	100.532673 
3819.000000	100.517474 
3818.000000	100.495921 
3817.000000	100.498723 
3816.000000	100.522931 
3815.000000	100.531169 
3814.000000	100.510286 
3813.000000	100.488736 
3812.000000	100.490594 
3811.000000	100.504291 
3810.000000	100.503210 
3809.000000	100.485396 
3808.000000	100.479662 
3807.000000	100.501482 
3806.000000	100.525694 
3805.000000	100.522570 
3804.000000	100.497252 
3803.000000	100.481526 
3802.000000	100.495862 
3801.000000	100.515753 
3800.000000	100.509990 
3799.000000	100.487787 
3798.000000	100.476330 
3797.000000	100.484691 
3796.000000	100.495401 
3795.000000	100.492333 
3794.000000	100.482559 
3793.000000	100.483074 
3792.000000	100.494763 
3791.000000	100.503614 
3790.000000	100.502497 
3789.000000	100.498271 
3788.000000	100.497656 
3787.000000	100.499503 
3786.000000	100.502273 
3785.000000	100.508868 
3784.000000	100.518822 
3783.000000	100.524370 
3782.000000	100.522160 
3781.000000	100.518292 
3780.000000	100.518896 
3779.000000	100.519312 
3778.000000	100.512598 
3777.000000	100.500882 
3776.000000	100.495045 
3775.000000	100.500896 
3774.000000	100.510176 
3773.000000	100.510226 
3772.000000	100.502852 
3771.000000	100.502212 
3770.000000	100.511397 
3769.000000	100.516653 
3768.000000	100.510636 
3767.000000	100.502925 
3766.000000	100.506115 
3765.000000	100.518066 
3764.000000	100.523542 
3763.000000	100.516552 
3762.000000	100.511339 
3761.000000	100.520342 
3760.000000	100.532702 
3759.000000	100.530296 
3758.000000	100.521584 
3757.000000	100.523833 
3756.000000	100.532705 
3755.000000	100.535416 
3754.000000	100.534994 
3753.000000	100.544308 
3752.000000	100.556000 
3751.000000	100.552102 
3750.000000	100.545025 
3749.000000	100.554874 
3748.000000	100.565802 
3747.000000	100.552178 
3746.000000	100.528215 
3745.000000	100.533328 
3744.000000	100.553178 
3743.000000	100.545161 
3742.000000	100.518804 
3741.000000	100.510659 
3740.000000	100.528678 
3739.000000	100.542735 
3738.000000	100.533235 
3737.000000	100.520675 
3736.000000	100.524686 
3735.000000	100.531001 
3734.000000	100.523454 
3733.000000	100.518420 
3732.000000	100.532807 
3731.000000	100.553207 
3730.000000	100.557952 
3729.000000	100.546298 
3728.000000	100.535650 
3727.000000	100.536486 
3726.000000	100.538163 
3725.000000	100.531264 
3724.000000	100.524925 
3723.000000	100.528874 
3722.000000	100.536788 
3721.000000	100.537691 
3720.000000	100.532492 
3719.000000	100.528258 
3718.000000	100.530188 
3717.000000	100.533963 
3716.000000	100.528897 
3715.000000	100.513209 
3714.000000	100.496737 
3713.000000	100.487199 
3712.000000	100.480809 
3711.000000	100.473066 
3710.000000	100.469257 
3709.000000	100.473152 
3708.000000	100.481295 
3707.000000	100.487846 
3706.000000	100.487437 
3705.000000	100.478970 
3704.000000	100.466850 
3703.000000	100.457441 
3702.000000	100.454193 
3701.000000	100.455850 
3700.000000	100.457400 
3699.000000	100.454065 
3698.000000	100.447919 
3697.000000	100.444258 
3696.000000	100.440105 
3695.000000	100.430329 
3694.000000	100.420810 
3693.000000	100.420556 
3692.000000	100.427188 
3691.000000	100.429772 
3690.000000	100.427304 
3689.000000	100.428877 
3688.000000	100.435801 
3687.000000	100.437914 
3686.000000	100.430251 
3685.000000	100.422154 
3684.000000	100.421711 
3683.000000	100.421858 
3682.000000	100.412598 
3681.000000	100.402015 
3680.000000	100.402071 
3679.000000	100.402982 
3678.000000	100.384346 
3677.000000	100.358040 
3676.000000	100.358375 
3675.000000	100.382893 
3674.000000	100.401003 
3673.000000	100.401062 
3672.000000	100.399211 
3671.000000	100.410880 
3670.000000	100.420675 
3669.000000	100.407327 
3668.000000	100.383350 
3667.000000	100.370819 
3666.000000	100.370750 
3665.000000	100.371989 
3664.000000	100.368357 
3663.000000	100.363070 
3662.000000	100.363283 
3661.000000	100.371503 
3660.000000	100.381041 
3659.000000	100.385228 
3658.000000	100.384904 
3657.000000	100.389589 
3656.000000	100.401895 
3655.000000	100.412803 
3654.000000	100.416799 
3653.000000	100.420623 
3652.000000	100.435300 
3651.000000	100.455558 
3650.000000	100.456256 
3649.000000	100.430525 
3648.000000	100.406006 
3647.000000	100.401260 
3646.000000	100.407158 
3645.000000	100.411375 
3644.000000	100.413590 
3643.000000	100.417332 
3642.000000	100.421186 
3641.000000	100.420680 
3640.000000	100.418474 
3639.000000	100.424603 
3638.000000	100.441225 
3637.000000	100.457746 
3636.000000	100.464595 
3635.000000	100.466751 
3634.000000	100.472564 
3633.000000	100.478186 
3632.000000	100.474953 
3631.000000	100.467574 
3630.000000	100.470729 
3629.000000	100.479837 
3628.000000	100.476211 
3627.000000	100.462710 
3626.000000	100.458157 
3625.000000	100.469826 
3624.000000	100.487014 
3623.000000	100.493564 
3622.000000	100.486451 
3621.000000	100.478254 
3620.000000	100.478313 
3619.000000	100.482443 
3618.000000	100.485915 
3617.000000	100.489711 
3616.000000	100.493738 
3615.000000	100.497727 
3614.000000	100.501531 
3613.000000	100.502157 
3612.000000	100.496565 
3611.000000	100.487128 
3610.000000	100.479971 
3609.000000	100.477252 
3608.000000	100.474520 
3607.000000	100.468982 
3606.000000	100.465561 
3605.000000	100.469424 
3604.000000	100.478037 
3603.000000	100.484076 
3602.000000	100.483928 
3601.000000	100.482416 
3600.000000	100.484471 
3599.000000	100.490694 
3598.000000	100.499429 
3597.000000	100.507491 
3596.000000	100.509638 
3595.000000	100.505613 
3594.000000	100.500993 
3593.000000	100.502516 
3592.000000	100.513027 
3591.000000	100.529186 
3590.000000	100.544635 
3589.000000	100.552706 
3588.000000	100.548088 
3587.000000	100.532183 
3586.000000	100.514801 
3585.000000	100.505043 
3584.000000	100.503596 
3583.000000	100.505212 
3582.000000	100.504269 
3581.000000	100.499534 
3580.000000	100.493168 
3579.000000	100.487360 
3578.000000	100.482706 
3577.000000	100.479029 
3576.000000	100.476715 
3575.000000	100.477076 
3574.000000	100.482149 
3573.000000	100.492381 
3572.000000	100.506061 
3571.000000	100.518525 
3570.000000	100.524082 
3569.000000	100.519856 
3568.000000	100.506951 
3567.000000	100.490901 
3566.000000	100.481309 
3565.000000	100.484156 
3564.000000	100.495708 
3563.000000	100.506649 
3562.000000	100.509903 
3561.000000	100.505026 
3560.000000	100.497272 
3559.000000	100.491696 
3558.000000	100.489767 
3557.000000	100.490175 
3556.000000	100.490955 
3555.000000	100.490641 
3554.000000	100.489754 
3553.000000	100.490354 
3552.000000	100.493544 
3551.000000	100.498254 
3550.000000	100.502646 
3549.000000	100.505824 
3548.000000	100.506824 
3547.000000	100.504011 
3546.000000	100.498132 
3545.000000	100.493313 
3544.000000	100.492721 
3543.000000	100.495499 
3542.000000	100.499102 
3541.000000	100.502135 
3540.000000	100.504410 
3539.000000	100.506034 
3538.000000	100.507288 
3537.000000	100.508164 
3536.000000	100.507220 
3535.000000	100.503264 
3534.000000	100.497253 
3533.000000	100.492170 
3532.000000	100.489695 
3531.000000	100.488906 
3530.000000	100.488971 
3529.000000	100.491422 
3528.000000	100.498110 
3527.000000	100.507551 
3526.000000	100.515455 
3525.000000	100.518136 
3524.000000	100.514624 
3523.000000	100.506895 
3522.000000	100.499101 
3521.000000	100.494939 
3520.000000	100.494887 
3519.000000	100.496653 
3518.000000	100.497767 
3517.000000	100.497637 
3516.000000	100.497186 
3515.000000	100.497916 
3514.000000	100.500530 
3513.000000	100.504443 
3512.000000	100.508125 
3511.000000	100.509784 
3510.000000	100.508675 
3509.000000	100.506331 
3508.000000	100.505452 
3507.000000	100.507210 
3506.000000	100.510106 
3505.000000	100.510868 
3504.000000	100.506708 
3503.000000	100.498683 
3502.000000	100.492639 
3501.000000	100.494651 
3500.000000	100.504758 
3499.000000	100.516386 
3498.000000	100.522044 
3497.000000	100.519230 
3496.000000	100.511484 
3495.000000	100.504518 
3494.000000	100.501467 
3493.000000	100.501224 
3492.000000	100.500775 
3491.000000	100.498508 
3490.000000	100.495274 
3489.000000	100.493189 
3488.000000	100.493646 
3487.000000	100.496339 
3486.000000	100.499883 
3485.000000	100.502974 
3484.000000	100.505123 
3483.000000	100.506734 
3482.000000	100.508146 
3481.000000	100.508603 
3480.000000	100.506914 
3479.000000	100.503594 
3478.000000	100.501416 
3477.000000	100.502538 
3476.000000	100.505466 
3475.000000	100.506301 
3474.000000	100.503543 
3473.000000	100.500016 
3472.000000	100.499587 
3471.000000	100.503063 
3470.000000	100.507799 
3469.000000	100.510682 
3468.000000	100.510679 
3467.000000	100.508494 
3466.000000	100.505060 
3465.000000	100.501247 
3464.000000	100.498310 
3463.000000	100.497411 
3462.000000	100.498291 
3461.000000	100.499147 
3460.000000	100.498387 
3459.000000	100.496534 
3458.000000	100.495897 
3457.000000	100.498203 
3456.000000	100.502551 
3455.000000	100.506041 
3454.000000	100.506629 
3453.000000	100.505430 
3452.000000	100.504977 
3451.000000	100.506054 
3450.000000	100.507531 
3449.000000	100.508497 
3448.000000	100.508854 
3447.000000	100.507890 
3446.000000	100.504817 
3445.000000	100.500978 
3444.000000	100.499458 
3443.000000	100.501589 
3442.000000	100.505242 
3441.000000	100.507622 
3440.000000	100.508430 
3439.000000	100.509005 
3438.000000	100.509275 
3437.000000	100.507628 
3436.000000	100.503540 
3435.000000	100.498889 
3434.000000	100.496445 
3433.000000	100.497862 
3432.000000	100.502302 
3431.000000	100.506734 
3430.000000	100.508008 
3429.000000	100.504836 
3428.000000	100.498284 
3427.000000	100.490729 
3426.000000	100.484770 
3425.000000	100.482226 
3424.000000	100.483337 
3423.000000	100.486824 
3422.000000	100.490748 
3421.000000	100.493364 
3420.000000	100.493632 
3419.000000	100.491940 
3418.000000	100.490296 
3417.000000	100.490832 
3416.000000	100.493588 
3415.000000	100.496391 
3414.000000	100.497400 
3413.000000	100.497027 
3412.000000	100.496945 
3411.000000	100.498173 
3410.000000	100.500872 
3409.000000	100.504841 
3408.000000	100.509024 
3407.000000	100.511264 
3406.000000	100.509938 
3405.000000	100.505823 
3404.000000	100.501842 
3403.000000	100.500906 
3402.000000	100.503649 
3401.000000	100.507962 
3400.000000	100.510776 
3399.000000	100.510867 
3398.000000	100.509875 
3397.000000	100.510260 
3396.000000	100.512586 
3395.000000	100.515214 
3394.000000	100.516424 
3393.000000	100.516103 
3392.000000	100.515344 
3391.000000	100.514995 
3390.000000	100.514910 
3389.000000	100.514362 
3388.000000	100.512936 
3387.000000	100.511066 
3386.000000	100.509597 
3385.000000	100.508840 
3384.000000	100.508438 
3383.000000	100.508386 
3382.000000	100.509233 
3381.000000	100.510758 
3380.000000	100.511195 
3379.000000	100.508912 
3378.000000	100.504734 
3377.000000	100.501748 
3376.000000	100.502789 
3375.000000	100.508252 
3374.000000	100.516040 
3373.000000	100.522974 
3372.000000	100.526643 
3371.000000	100.526710 
3370.000000	100.524856 
3369.000000	100.523346 
3368.000000	100.523412 
3367.000000	100.524617 
3366.000000	100.525351 
3365.000000	100.524079 
3364.000000	100.520651 
3363.000000	100.516817 
3362.000000	100.514998 
3361.000000	100.515938 
3360.000000	100.517696 
3359.000000	100.517566 
3358.000000	100.515058 
3357.000000	100.512582 
3356.000000	100.513100 
3355.000000	100.517331 
3354.000000	100.523252 
3353.000000	100.527918 
3352.000000	100.529750 
3351.000000	100.529470 
3350.000000	100.529129 
3349.000000	100.530297 
3348.000000	100.533112 
3347.000000	100.536720 
3346.000000	100.540195 
3345.000000	100.542871 
3344.000000	100.544091 
3343.000000	100.543257 
3342.000000	100.540166 
3341.000000	100.535326 
3340.000000	100.530137 
3339.000000	100.526363 
3338.000000	100.524782 
3337.000000	100.524226 
3336.000000	100.522753 
3335.000000	100.520168 
3334.000000	100.518710 
3333.000000	100.520577 
3332.000000	100.525141 
3331.000000	100.529315 
3330.000000	100.530642 
3329.000000	100.529533 
3328.000000	100.528546 
3327.000000	100.529891 
3326.000000	100.533679 
3325.000000	100.538208 
3324.000000	100.541877 
3323.000000	100.544846 
3322.000000	100.548210 
3321.000000	100.551469 
3320.000000	100.551868 
3319.000000	100.547133 
3318.000000	100.538555 
3317.000000	100.530507 
3316.000000	100.526908 
3315.000000	100.528548 
3314.000000	100.533393 
3313.000000	100.538666 
3312.000000	100.542709 
3311.000000	100.545547 
3310.000000	100.548005 
3309.000000	100.550329 
3308.000000	100.552008 
3307.000000	100.552954 
3306.000000	100.553891 
3305.000000	100.554803 
3304.000000	100.554051 
3303.000000	100.550404 
3302.000000	100.545557 
3301.000000	100.543198 
3300.000000	100.545268 
3299.000000	100.550164 
3298.000000	100.554742 
3297.000000	100.557185 
3296.000000	100.557701 
3295.000000	100.557536 
3294.000000	100.557972 
3293.000000	100.559638 
3292.000000	100.562252 
3291.000000	100.564986 
3290.000000	100.567155 
3289.000000	100.568385 
3288.000000	100.568360 
3287.000000	100.567041 
3286.000000	100.565136 
3285.000000	100.563605 
3284.000000	100.562679 
3283.000000	100.561952 
3282.000000	100.561127 
3281.000000	100.559875 
3280.000000	100.557421 
3279.000000	100.553365 
3278.000000	100.548929 
3277.000000	100.546486 
3276.000000	100.547471 
3275.000000	100.551354 
3274.000000	100.556582 
3273.000000	100.561450 
3272.000000	100.564013 
3271.000000	100.562516 
3270.000000	100.556977 
3269.000000	100.549941 
3268.000000	100.544955 
3267.000000	100.544323 
3266.000000	100.548183 
3265.000000	100.554830 
3264.000000	100.561746 
3263.000000	100.567238 
3262.000000	100.571409 
3261.000000	100.575032 
3260.000000	100.577693 
3259.000000	100.577680 
3258.000000	100.574053 
3257.000000	100.568298 
3256.000000	100.563215 
3255.000000	100.560574 
3254.000000	100.560455 
3253.000000	100.562334 
3252.000000	100.565686 
3251.000000	100.569555 
3250.000000	100.572344 
3249.000000	100.572848 
3248.000000	100.571385 
3247.000000	100.569304 
3246.000000	100.567249 
3245.000000	100.564388 
3244.000000	100.560078 
3243.000000	100.556255 
3242.000000	100.556962 
3241.000000	100.564525 
3240.000000	100.576312 
3239.000000	100.585909 
3238.000000	100.588132 
3237.000000	100.583202 
3236.000000	100.576071 
3235.000000	100.571811 
3234.000000	100.571828 
3233.000000	100.574209 
3232.000000	100.576785 
3231.000000	100.579108 
3230.000000	100.581372 
3229.000000	100.582541 
3228.000000	100.580798 
3227.000000	100.575778 
3226.000000	100.569652 
3225.000000	100.565578 
3224.000000	100.565262 
3223.000000	100.568162 
3222.000000	100.572453 
3221.000000	100.576422 
3220.000000	100.579486 
3219.000000	100.582077 
3218.000000	100.584329 
3217.000000	100.585154 
3216.000000	100.583320 
3215.000000	100.579375 
3214.000000	100.575711 
3213.000000	100.574377 
3212.000000	100.575258 
3211.000000	100.576923 
3210.000000	100.578830 
3209.000000	100.581857 
3208.000000	100.586584 
3207.000000	100.591747 
3206.000000	100.595050 
3205.000000	100.595360 
3204.000000	100.593786 
3203.000000	100.592506 
3202.000000	100.592808 
3201.000000	100.594452 
3200.000000	100.596535 
3199.000000	100.598159 
3198.000000	100.598413 
3197.000000	100.596894 
3196.000000	100.594757 
3195.000000	100.594160 
3194.000000	100.595607 
3193.000000	100.596661 
3192.000000	100.594652 
3191.000000	100.590428 
3190.000000	100.587797 
3189.000000	100.589045 
3188.000000	100.592511 
3187.000000	100.595030 
3186.000000	100.595264 
3185.000000	100.593755 
3184.000000	100.591259 
3183.000000	100.588303 
3182.000000	100.585824 
3181.000000	100.584857 
3180.000000	100.585444 
3179.000000	100.586712 
3178.000000	100.587949 
3177.000000	100.588767 
3176.000000	100.588410 
3175.000000	100.586239 
3174.000000	100.583412 
3173.000000	100.582936 
3172.000000	100.586917 
3171.000000	100.593972 
3170.000000	100.600149 
3169.000000	100.602647 
3168.000000	100.602274 
3167.000000	100.602037 
3166.000000	100.603797 
3165.000000	100.606800 
3164.000000	100.609200 
3163.000000	100.610057 
3162.000000	100.609728 
3161.000000	100.609124 
3160.000000	100.609111 
3159.000000	100.610221 
3158.000000	100.612203 
3157.000000	100.613820 
3156.000000	100.613685 
3155.000000	100.611582 
3154.000000	100.608821 
3153.000000	100.607272 
3152.000000	100.608082 
3151.000000	100.610953 
3150.000000	100.614156 
3149.000000	100.615615 
3148.000000	100.614823 
3147.000000	100.613667 
3146.000000	100.614409 
3145.000000	100.616676 
3144.000000	100.617634 
3143.000000	100.615814 
3142.000000	100.613503 
3141.000000	100.614011 
3140.000000	100.617330 
3139.000000	100.620153 
3138.000000	100.619982 
3137.000000	100.617876 
3136.000000	100.616767 
3135.000000	100.617986 
3134.000000	100.620164 
3133.000000	100.621270 
3132.000000	100.620987 
3131.000000	100.620622 
3130.000000	100.620941 
3129.000000	100.621036 
3128.000000	100.619790 
3127.000000	100.617834 
3126.000000	100.617225 
3125.000000	100.619079 
3124.000000	100.622037 
3123.000000	100.623540 
3122.000000	100.622538 
3121.000000	100.620476 
3120.000000	100.619783 
3119.000000	100.621743 
3118.000000	100.625258 
3117.000000	100.627494 
3116.000000	100.626424 
3115.000000	100.623012 
3114.000000	100.620234 
3113.000000	100.619567 
3112.000000	100.619261 
3111.000000	100.616861 
3110.000000	100.612677 
3109.000000	100.609495 
3108.000000	100.608968 
3107.000000	100.609657 
3106.000000	100.609054 
3105.000000	100.606496 
3104.000000	100.603529 
3103.000000	100.602574 
3102.000000	100.605882 
3101.000000	100.613967 
3100.000000	100.623940 
3099.000000	100.630672 
3098.000000	100.630992 
3097.000000	100.626510 
3096.000000	100.621761 
3095.000000	100.620111 
3094.000000	100.622008 
3093.000000	100.626224 
3092.000000	100.631182 
3091.000000	100.635097 
3090.000000	100.636294 
3089.000000	100.634410 
3088.000000	100.631119 
3087.000000	100.629168 
3086.000000	100.630333 
3085.000000	100.634077 
3084.000000	100.638184 
3083.000000	100.640761 
3082.000000	100.641634 
3081.000000	100.641745 
3080.000000	100.641717 
3079.000000	100.641469 
3078.000000	100.640692 
3077.000000	100.639066 
3076.000000	100.636318 
3075.000000	100.632807 
3074.000000	100.629898 
3073.000000	100.629135 
3072.000000	100.631004 
3071.000000	100.635100 
3070.000000	100.640812 
3069.000000	100.646433 
3068.000000	100.648273 
3067.000000	100.643148 
3066.000000	100.632624 
3065.000000	100.622972 
3064.000000	100.619527 
3063.000000	100.622133 
3062.000000	100.626851 
3061.000000	100.630586 
3060.000000	100.632860 
3059.000000	100.634317 
3058.000000	100.635256 
3057.000000	100.635660 
3056.000000	100.635748 
3055.000000	100.636269 
3054.000000	100.638149 
3053.000000	100.641335 
3052.000000	100.643948 
3051.000000	100.643759 
3050.000000	100.641011 
3049.000000	100.638497 
3048.000000	100.638122 
3047.000000	100.638430 
3046.000000	100.636515 
3045.000000	100.631527 
3044.000000	100.625208 
3043.000000	100.619670 
3042.000000	100.615792 
3041.000000	100.613550 
3040.000000	100.612817 
3039.000000	100.613417 
3038.000000	100.614831 
3037.000000	100.616000 
3036.000000	100.615483 
3035.000000	100.612467 
3034.000000	100.607735 
3033.000000	100.603018 
3032.000000	100.598998 
3031.000000	100.594386 
3030.000000	100.587358 
3029.000000	100.577500 
3028.000000	100.566030 
3027.000000	100.554778 
3026.000000	100.545409 
3025.000000	100.538829 
3024.000000	100.534316 
3023.000000	100.529511 
3022.000000	100.522192 
3021.000000	100.512011 
3020.000000	100.500200 
3019.000000	100.488210 
3018.000000	100.477253 
3017.000000	100.468220 
3016.000000	100.460808 
3015.000000	100.453126 
3014.000000	100.443268 
3013.000000	100.431120 
3012.000000	100.417790 
3011.000000	100.403593 
3010.000000	100.387786 
3009.000000	100.370389 
3008.000000	100.353159 
3007.000000	100.338371 
3006.000000	100.327137 
3005.000000	100.318892 
3004.000000	100.311515 
3003.000000	100.301796 
3002.000000	100.287212 
3001.000000	100.268498 
3000.000000	100.250011 
2999.000000	100.236349 
2998.000000	100.228378 
2997.000000	100.223308 
2996.000000	100.218589 
2995.000000	100.213962 
2994.000000	100.208596 
2993.000000	100.198014 
2992.000000	100.177160 
2991.000000	100.147442 
2990.000000	100.118482 
2989.000000	100.100722 
2988.000000	100.096802 
2987.000000	100.101468 
2986.000000	100.108672 
2985.000000	100.116480 
2984.000000	100.125326 
2983.000000	100.134382 
2982.000000	100.141371 
2981.000000	100.144897 
2980.000000	100.145553 
2979.000000	100.144892 
2978.000000	100.143970 
2977.000000	100.142702 
2976.000000	100.140316 
2975.000000	100.136702 
2974.000000	100.133297 
2973.000000	100.132019 
2972.000000	100.133297 
2971.000000	100.135999 
2970.000000	100.139477 
2969.000000	100.144689 
2968.000000	100.152815 
2967.000000	100.163590 
2966.000000	100.175600 
2965.000000	100.187654 
2964.000000	100.199344 
2963.000000	100.210690 
2962.000000	100.221698 
2961.000000	100.231995 
2960.000000	100.240743 
2959.000000	100.247558 
2958.000000	100.253622 
2957.000000	100.260890 
2956.000000	100.269501 
2955.000000	100.276818 
2954.000000	100.280146 
2953.000000	100.280355 
2952.000000	100.281997 
2951.000000	100.289417 
2950.000000	100.302645 
2949.000000	100.316981 
2948.000000	100.326760 
2947.000000	100.330033 
2946.000000	100.329768 
2945.000000	100.330384 
2944.000000	100.333645 
2943.000000	100.338512 
2942.000000	100.344021 
2941.000000	100.350290 
2940.000000	100.356455 
2939.000000	100.359741 
2938.000000	100.358174 
2937.000000	100.353463 
2936.000000	100.349953 
2935.000000	100.350970 
2934.000000	100.356651 
2933.000000	100.364475 
2932.000000	100.370946 
2931.000000	100.373377 
2930.000000	100.371241 
2929.000000	100.366091 
2928.000000	100.360080 
2927.000000	100.354840 
2926.000000	100.351420 
2925.000000	100.349916 
2924.000000	100.348804 
2923.000000	100.346019 
2922.000000	100.341390 
2921.000000	100.336782 
2920.000000	100.333172 
2919.000000	100.329222 
2918.000000	100.323826 
2917.000000	100.318402 
2916.000000	100.314858 
2915.000000	100.312424 
2914.000000	100.308595 
2913.000000	100.302745 
2912.000000	100.296915 
2911.000000	100.292990 
2910.000000	100.290789 
2909.000000	100.289022 
2908.000000	100.286675 
2907.000000	100.283053 
2906.000000	100.277479 
2905.000000	100.269596 
2904.000000	100.259505 
2903.000000	100.247780 
2902.000000	100.236460 
2901.000000	100.229850 
2900.000000	100.232467 
2899.000000	100.244893 
2898.000000	100.262098 
2897.000000	100.276822 
2896.000000	100.284906 
2895.000000	100.287557 
2894.000000	100.289004 
2893.000000	100.292390 
2892.000000	100.297718 
2891.000000	100.303033 
2890.000000	100.306847 
2889.000000	100.309096 
2888.000000	100.310251 
2887.000000	100.310708 
2886.000000	100.311440 
2885.000000	100.314253 
2884.000000	100.320364 
2883.000000	100.329056 
2882.000000	100.338500 
2881.000000	100.347666 
2880.000000	100.356837 
2879.000000	100.366722 
2878.000000	100.377883 
2877.000000	100.390527 
2876.000000	100.403685 
2875.000000	100.414687 
2874.000000	100.420794 
2873.000000	100.421990 
2872.000000	100.421594 
2871.000000	100.423709 
2870.000000	100.430283 
2869.000000	100.440431 
2868.000000	100.451828 
2867.000000	100.462526 
2866.000000	100.472151 
2865.000000	100.481801 
2864.000000	100.492528 
2863.000000	100.503684 
2862.000000	100.513104 
2861.000000	100.519214 
2860.000000	100.522894 
2859.000000	100.527038 
2858.000000	100.534135 
2857.000000	100.544094 
2856.000000	100.554401 
2855.000000	100.562657 
2854.000000	100.568831 
2853.000000	100.574523 
2852.000000	100.580246 
2851.000000	100.584677 
2850.000000	100.587168 
2849.000000	100.589703 
2848.000000	100.594875 
2847.000000	100.602365 
2846.000000	100.608828 
2845.000000	100.611366 
2844.000000	100.610136 
2843.000000	100.607619 
2842.000000	100.606466 
2841.000000	100.608215 
2840.000000	100.612781 
2839.000000	100.618320 
2838.000000	100.622197 
2837.000000	100.622933 
2836.000000	100.621320 
2835.000000	100.619609 
2834.000000	100.619870 
2833.000000	100.622965 
2832.000000	100.628272 
2831.000000	100.634073 
2830.000000	100.638714 
2829.000000	100.641934 
2828.000000	100.644926 
2827.000000	100.648804 
2826.000000	100.653171 
2825.000000	100.656344 
2824.000000	100.656989 
2823.000000	100.655545 
2822.000000	100.654113 
2821.000000	100.654784 
2820.000000	100.657803 
2819.000000	100.661471 
2818.000000	100.663974 
2817.000000	100.665030 
2816.000000	100.665521 
2815.000000	100.666062 
2814.000000	100.666636 
2813.000000	100.667306 
2812.000000	100.668303 
2811.000000	100.669251 
2810.000000	100.669134 
2809.000000	100.667519 
2808.000000	100.665399 
2807.000000	100.664377 
2806.000000	100.665193 
2805.000000	100.667259 
2804.000000	100.669495 
2803.000000	100.671395 
2802.000000	100.673259 
2801.000000	100.675362 
2800.000000	100.677005 
2799.000000	100.676815 
2798.000000	100.674340 
2797.000000	100.671038 
2796.000000	100.669144 
2795.000000	100.669667 
2794.000000	100.671846 
2793.000000	100.674292 
2792.000000	100.675974 
2791.000000	100.676314 
2790.000000	100.675375 
2789.000000	100.674314 
2788.000000	100.674891 
2787.000000	100.677831 
2786.000000	100.681984 
2785.000000	100.685537 
2784.000000	100.687792 
2783.000000	100.689296 
2782.000000	100.690497 
2781.000000	100.690979 
2780.000000	100.690222 
2779.000000	100.688671 
2778.000000	100.687607 
2777.000000	100.687956 
2776.000000	100.689375 
2775.000000	100.690579 
2774.000000	100.690482 
2773.000000	100.689032 
2772.000000	100.687101 
2771.000000	100.685804 
2770.000000	100.685971 
2769.000000	100.688075 
2768.000000	100.692245 
2767.000000	100.697996 
2766.000000	100.703873 
2765.000000	100.707782 
2764.000000	100.708301 
2763.000000	100.705939 
2762.000000	100.702793 
2761.000000	100.700742 
2760.000000	100.700227 
2759.000000	100.700875 
2758.000000	100.702650 
2757.000000	100.705693 
2756.000000	100.709327 
2755.000000	100.712124 
2754.000000	100.713017 
2753.000000	100.711872 
2752.000000	100.709070 
2751.000000	100.705275 
2750.000000	100.701558 
2749.000000	100.698845 
2748.000000	100.696892 
2747.000000	100.694562 
2746.000000	100.691462 
2745.000000	100.688738 
2744.000000	100.687864 
2743.000000	100.689201 
2742.000000	100.692046 
2741.000000	100.695476 
2740.000000	100.698777 
2739.000000	100.701613 
2738.000000	100.704286 
2737.000000	100.707388 
2736.000000	100.710772 
2735.000000	100.713281 
2734.000000	100.713890 
2733.000000	100.712749 
2732.000000	100.710791 
2731.000000	100.708779 
2730.000000	100.707103 
2729.000000	100.706057 
2728.000000	100.705846 
2727.000000	100.706535 
2726.000000	100.708135 
2725.000000	100.710340 
2724.000000	100.712242 
2723.000000	100.713059 
2722.000000	100.713339 
2721.000000	100.714554 
2720.000000	100.717146 
2719.000000	100.719799 
2718.000000	100.721036 
2717.000000	100.720695 
2716.000000	100.719487 
2715.000000	100.718268 
2714.000000	100.718335 
2713.000000	100.721009 
2712.000000	100.725675 
2711.000000	100.729319 
2710.000000	100.729617 
2709.000000	100.727872 
2708.000000	100.727310 
2707.000000	100.728798 
2706.000000	100.729924 
2705.000000	100.728410 
2704.000000	100.724919 
2703.000000	100.721880 
2702.000000	100.720661 
2701.000000	100.720651 
2700.000000	100.720543 
2699.000000	100.719788 
2698.000000	100.718825 
2697.000000	100.718281 
2696.000000	100.718283 
2695.000000	100.718756 
2694.000000	100.720039 
2693.000000	100.722314 
2692.000000	100.724326 
2691.000000	100.723921 
2690.000000	100.720794 
2689.000000	100.717869 
2688.000000	100.718618 
2687.000000	100.723284 
2686.000000	100.728708 
2685.000000	100.731679 
2684.000000	100.731560 
2683.000000	100.729925 
2682.000000	100.728767 
2681.000000	100.729193 
2680.000000	100.730905 
2679.000000	100.732558 
2678.000000	100.733078 
2677.000000	100.732710 
2676.000000	100.732502 
2675.000000	100.733038 
2674.000000	100.734180 
2673.000000	100.735604 
2672.000000	100.736788 
2671.000000	100.736666 
2670.000000	100.734105 
2669.000000	100.728944 
2668.000000	100.722348 
2667.000000	100.716507 
2666.000000	100.714160 
2665.000000	100.717325 
2664.000000	100.725338 
2663.000000	100.734610 
2662.000000	100.741482 
2661.000000	100.745225 
2660.000000	100.747423 
2659.000000	100.749040 
2658.000000	100.749528 
2657.000000	100.748710 
2656.000000	100.747951 
2655.000000	100.748847 
2654.000000	100.751582 
2653.000000	100.754894 
2652.000000	100.757016 
2651.000000	100.756715 
2650.000000	100.754315 
2649.000000	100.751776 
2648.000000	100.750912 
2647.000000	100.751574 
2646.000000	100.752465 
2645.000000	100.753465 
2644.000000	100.755701 
2643.000000	100.759220 
2642.000000	100.762145 
2641.000000	100.762914 
2640.000000	100.762340 
2639.000000	100.762793 
2638.000000	100.765971 
2637.000000	100.771559 
2636.000000	100.777147 
2635.000000	100.779448 
2634.000000	100.777041 
2633.000000	100.772456 
2632.000000	100.770225 
2631.000000	100.772071 
2630.000000	100.775098 
2629.000000	100.775476 
2628.000000	100.772828 
2627.000000	100.770143 
2626.000000	100.770424 
2625.000000	100.774495 
2624.000000	100.781084 
2623.000000	100.787511 
2622.000000	100.790736 
2621.000000	100.789291 
2620.000000	100.784652 
2619.000000	100.780041 
2618.000000	100.777680 
2617.000000	100.777534 
2616.000000	100.778484 
2615.000000	100.779885 
2614.000000	100.781678 
2613.000000	100.783476 
2612.000000	100.784334 
2611.000000	100.783852 
2610.000000	100.783234 
2609.000000	100.784382 
2608.000000	100.787637 
2607.000000	100.791299 
2606.000000	100.794045 
2605.000000	100.796801 
2604.000000	100.800785 
2603.000000	100.804445 
2602.000000	100.804484 
2601.000000	100.800242 
2600.000000	100.795175 
2599.000000	100.793151 
2598.000000	100.794651 
2597.000000	100.797377 
2596.000000	100.798989 
2595.000000	100.798008 
2594.000000	100.793608 
2593.000000	100.786800 
2592.000000	100.781522 
2591.000000	100.782381 
2590.000000	100.790404 
2589.000000	100.801740 
2588.000000	100.810952 
2587.000000	100.814945 
2586.000000	100.813602 
2585.000000	100.808034 
2584.000000	100.799737 
2583.000000	100.791344 
2582.000000	100.786461 
2581.000000	100.787143 
2580.000000	100.791481 
2579.000000	100.794783 
2578.000000	100.793854 
2577.000000	100.789814 
2576.000000	100.786456 
2575.000000	100.786367 
2574.000000	100.789047 
2573.000000	100.792057 
2572.000000	100.793027 
2571.000000	100.790887 
2570.000000	100.786371 
2569.000000	100.781913 
2568.000000	100.780500 
2567.000000	100.783847 
2566.000000	100.791108 
2565.000000	100.799074 
2564.000000	100.803966 
2563.000000	100.803877 
2562.000000	100.800017 
2561.000000	100.795549 
2560.000000	100.793298 
2559.000000	100.794553 
2558.000000	100.798942 
2557.000000	100.804002 
2556.000000	100.805615 
2555.000000	100.801447 
2554.000000	100.794625 
2553.000000	100.791699 
2552.000000	100.795585 
2551.000000	100.802402 
2550.000000	100.806711 
2549.000000	100.807687 
2548.000000	100.807836 
2547.000000	100.807598 
2546.000000	100.804794 
2545.000000	100.799169 
2544.000000	100.794322 
2543.000000	100.794306 
2542.000000	100.800116 
2541.000000	100.809671 
2540.000000	100.819285 
2539.000000	100.824726 
2538.000000	100.822858 
2537.000000	100.813675 
2536.000000	100.800480 
2535.000000	100.788121 
2534.000000	100.781276 
2533.000000	100.782757 
2532.000000	100.791176 
2531.000000	100.800817 
2530.000000	100.806322 
2529.000000	100.807881 
2528.000000	100.809962 
2527.000000	100.815050 
2526.000000	100.821021 
2525.000000	100.824956 
2524.000000	100.826789 
2523.000000	100.827991 
2522.000000	100.828875 
2521.000000	100.828898 
2520.000000	100.828185 
2519.000000	100.827142 
2518.000000	100.825428 
2517.000000	100.822523 
2516.000000	100.818723 
2515.000000	100.814908 
2514.000000	100.812060 
2513.000000	100.811212 
2512.000000	100.812544 
2511.000000	100.814034 
2510.000000	100.812792 
2509.000000	100.808961 
2508.000000	100.806840 
2507.000000	100.810351 
2506.000000	100.818017 
2505.000000	100.823832 
2504.000000	100.822891 
2503.000000	100.815224 
2502.000000	100.804813 
2501.000000	100.796484 
2500.000000	100.793731 
2499.000000	100.797821 
2498.000000	100.807565 
2497.000000	100.819811 
2496.000000	100.830672 
2495.000000	100.836997 
2494.000000	100.837422 
2493.000000	100.832613 
2492.000000	100.824648 
2491.000000	100.816058 
2490.000000	100.809124 
2489.000000	100.805261 
2488.000000	100.804352 
2487.000000	100.804912 
2486.000000	100.805714 
2485.000000	100.807318 
2484.000000	100.811270 
2483.000000	100.817589 
2482.000000	100.823717 
2481.000000	100.826464 
2480.000000	100.824880 
2479.000000	100.820987 
2478.000000	100.817804 
2477.000000	100.816789 
2476.000000	100.817111 
2475.000000	100.817194 
2474.000000	100.816593 
2473.000000	100.816134 
2472.000000	100.816801 
2471.000000	100.819291 
2470.000000	100.824138 
2469.000000	100.830557 
2468.000000	100.834965 
2467.000000	100.832872 
2466.000000	100.823939 
2465.000000	100.814017 
2464.000000	100.810108 
2463.000000	100.813470 
2462.000000	100.818946 
2461.000000	100.820768 
2460.000000	100.817819 
2459.000000	100.813556 
2458.000000	100.812345 
2457.000000	100.815975 
2456.000000	100.822427 
2455.000000	100.827464 
2454.000000	100.827997 
2453.000000	100.824104 
2452.000000	100.817876 
2451.000000	100.811303 
2450.000000	100.806013 
2449.000000	100.803710 
2448.000000	100.805042 
2447.000000	100.808563 
2446.000000	100.812495 
2445.000000	100.817151 
2444.000000	100.823883 
2443.000000	100.831835 
2442.000000	100.837763 
2441.000000	100.839482 
2440.000000	100.837897 
2439.000000	100.835263 
2438.000000	100.832945 
2437.000000	100.831383 
2436.000000	100.830551 
2435.000000	100.829337 
2434.000000	100.825617 
2433.000000	100.818348 
2432.000000	100.809355 
2431.000000	100.802224 
2430.000000	100.799448 
2429.000000	100.800910 
2428.000000	100.804970 
2427.000000	100.810387 
2426.000000	100.816589 
2425.000000	100.821936 
2424.000000	100.822950 
2423.000000	100.817213 
2422.000000	100.807343 
2421.000000	100.800133 
2420.000000	100.800197 
2419.000000	100.805538 
2418.000000	100.810542 
2417.000000	100.812027 
2416.000000	100.810644 
2415.000000	100.807790 
2414.000000	100.803965 
2413.000000	100.800059 
2412.000000	100.797588 
2411.000000	100.796773 
2410.000000	100.796071 
2409.000000	100.794417 
2408.000000	100.792827 
2407.000000	100.793231 
2406.000000	100.796570 
2405.000000	100.802212 
2404.000000	100.808200 
2403.000000	100.811945 
2402.000000	100.811692 
2401.000000	100.807714 
2400.000000	100.801632 
2399.000000	100.794944 
2398.000000	100.789000 
2397.000000	100.785608 
2396.000000	100.785905 
2395.000000	100.788629 
2394.000000	100.790990 
2393.000000	100.791449 
2392.000000	100.790615 
2391.000000	100.789697 
2390.000000	100.789516 
2389.000000	100.790839 
2388.000000	100.793793 
2387.000000	100.796653 
2386.000000	100.796900 
2385.000000	100.794067 
2384.000000	100.790262 
2383.000000	100.787409 
2382.000000	100.785416 
2381.000000	100.783435 
2380.000000	100.781205 
2379.000000	100.778202 
2378.000000	100.773305 
2377.000000	100.766978 
2376.000000	100.762360 
2375.000000	100.762159 
2374.000000	100.765159 
2373.000000	100.767594 
2372.000000	100.768175 
2371.000000	100.769713 
2370.000000	100.775671 
2369.000000	100.785720 
2368.000000	100.794484 
2367.000000	100.794504 
2366.000000	100.783021 
2365.000000	100.766682 
2364.000000	100.756506 
2363.000000	100.757102 
2362.000000	100.764810 
2361.000000	100.773302 
2360.000000	100.779064 
2359.000000	100.782170 
2358.000000	100.781903 
2357.000000	100.779079 
2356.000000	100.776198 
2355.000000	100.772496 
2354.000000	100.766798 
2353.000000	100.761151 
2352.000000	100.760772 
2351.000000	100.765370 
2350.000000	100.770914 
2349.000000	100.775993 
2348.000000	100.777450 
2347.000000	100.773872 
2346.000000	100.769793 
2345.000000	100.772461 
2344.000000	100.780858 
2343.000000	100.786099 
2342.000000	100.788513 
2341.000000	100.790050 
2340.000000	100.789987 
2339.000000	100.786260 
2338.000000	100.781152 
2337.000000	100.781176 
2336.000000	100.787151 
2335.000000	100.793124 
2334.000000	100.792625 
2333.000000	100.788250 
2332.000000	100.785088 
2331.000000	100.784675 
2330.000000	100.782594 
2329.000000	100.781113 
2328.000000	100.783213 
2327.000000	100.793521 
2326.000000	100.808535 
2325.000000	100.822346 
2324.000000	100.828993 
2323.000000	100.827047 
2322.000000	100.822961 
2321.000000	100.823681 
2320.000000	100.831136 
2319.000000	100.839979 
2318.000000	100.844345 
2317.000000	100.844052 
2316.000000	100.841375 
2315.000000	100.839976 
2314.000000	100.840644 
2313.000000	100.845576 
2312.000000	100.853709 
2311.000000	100.864600 
2310.000000	100.876077 
2309.000000	100.888188 
2308.000000	100.897273 
2307.000000	100.899709 
2306.000000	100.894000 
2305.000000	100.885534 
2304.000000	100.879146 
2303.000000	100.875633 
2302.000000	100.872265 
2301.000000	100.869742 
2300.000000	100.869593 
2299.000000	100.871422 
2298.000000	100.872030 
2297.000000	100.872260 
2296.000000	100.875736 
2295.000000	100.884212 
2294.000000	100.893340 
2293.000000	100.898056 
2292.000000	100.897035 
2291.000000	100.893193 
2290.000000	100.890558 
2289.000000	100.892327 
2288.000000	100.898941 
2287.000000	100.906846 
2286.000000	100.911142 
2285.000000	100.910315 
2284.000000	100.907599 
2283.000000	100.906644 
2282.000000	100.907774 
2281.000000	100.908449 
2280.000000	100.906710 
2279.000000	100.903625 
2278.000000	100.903490 
2277.000000	100.910408 
2276.000000	100.923420 
2275.000000	100.936402 
2274.000000	100.944320 
2273.000000	100.947639 
2272.000000	100.947779 
2271.000000	100.942290 
2270.000000	100.929819 
2269.000000	100.917957 
2268.000000	100.918577 
2267.000000	100.934352 
2266.000000	100.955281 
2265.000000	100.969801 
2264.000000	100.974541 
2263.000000	100.972862 
2262.000000	100.969837 
2261.000000	100.970730 
2260.000000	100.978391 
2259.000000	100.988658 
2258.000000	100.993002 
2257.000000	100.988507 
2256.000000	100.981598 
2255.000000	100.978946 
2254.000000	100.979390 
2253.000000	100.978625 
2252.000000	100.977966 
2251.000000	100.983669 
2250.000000	100.998830 
2249.000000	101.019372 
2248.000000	101.036643 
2247.000000	101.042865 
2246.000000	101.035965 
2245.000000	101.021560 
2244.000000	101.008592 
2243.000000	101.001768 
2242.000000	100.999764 
2241.000000	101.000311 
2240.000000	101.003162 
2239.000000	101.007179 
2238.000000	101.008790 
2237.000000	101.005509 
2236.000000	100.997936 
2235.000000	100.986967 
2234.000000	100.973223 
2233.000000	100.961270 
2232.000000	100.959871 
2231.000000	100.974372 
2230.000000	101.001244 
2229.000000	101.032300 
2228.000000	101.061448 
2227.000000	101.085015 
2226.000000	101.098972 
2225.000000	101.100363 
2224.000000	101.090750 
2223.000000	101.075905 
2222.000000	101.062874 
2221.000000	101.057666 
2220.000000	101.062697 
2219.000000	101.074933 
2218.000000	101.088881 
2217.000000	101.102503 
2216.000000	101.117820 
2215.000000	101.135052 
2214.000000	101.149503 
2213.000000	101.155713 
2212.000000	101.152361 
2211.000000	101.142779 
2210.000000	101.133743 
2209.000000	101.133150 
2208.000000	101.143549 
2207.000000	101.157046 
2206.000000	101.161468 
2205.000000	101.152772 
2204.000000	101.137099 
2203.000000	101.120935 
2202.000000	101.106235 
2201.000000	101.095769 
2200.000000	101.094069 
2199.000000	101.099105 
2198.000000	101.100994 
2197.000000	101.094788 
2196.000000	101.088715 
2195.000000	101.093927 
2194.000000	101.111194 
2193.000000	101.133163 
2192.000000	101.154552 
2191.000000	101.173383 
2190.000000	101.186170 
2189.000000	101.189951 
2188.000000	101.188183 
2187.000000	101.188913 
2186.000000	101.197732 
2185.000000	101.215304 
2184.000000	101.238177 
2183.000000	101.257872 
2182.000000	101.263903 
2181.000000	101.254640 
2180.000000	101.242346 
2179.000000	101.240678 
2178.000000	101.249520 
2177.000000	101.257358 
2176.000000	101.255779 
2175.000000	101.245918 
2174.000000	101.232988 
2173.000000	101.221506 
2172.000000	101.215585 
2171.000000	101.218056 
2170.000000	101.228576 
2169.000000	101.245869 
2168.000000	101.270628 
2167.000000	101.302136 
2166.000000	101.333647 
2165.000000	101.357123 
2164.000000	101.373024 
2163.000000	101.389758 
2162.000000	101.411847 
2161.000000	101.432254 
2160.000000	101.437115 
2159.000000	101.416321 
2158.000000	101.372100 
2157.000000	101.321020 
2156.000000	101.284194 
2155.000000	101.270547 
2154.000000	101.269761 
2153.000000	101.263066 
2152.000000	101.241160 
2151.000000	101.211056 
2150.000000	101.187646 
2149.000000	101.181434 
2148.000000	101.191824 
2147.000000	101.207321 
2146.000000	101.212155 
2145.000000	101.197605 
2144.000000	101.169528 
2143.000000	101.142843 
2142.000000	101.127774 
2141.000000	101.122920 
2140.000000	101.121069 
2139.000000	101.117845 
2138.000000	101.112147 
2137.000000	101.101451 
2136.000000	101.082465 
2135.000000	101.057714 
2134.000000	101.037347 
2133.000000	101.030246 
2132.000000	101.033687 
2131.000000	101.034795 
2130.000000	101.022935 
2129.000000	100.999654 
2128.000000	100.976352 
2127.000000	100.963308 
2126.000000	100.961876 
2125.000000	100.966518 
2124.000000	100.972689 
2123.000000	100.981216 
2122.000000	100.994269 
2121.000000	101.008486 
2120.000000	101.015509 
2119.000000	101.011193 
2118.000000	101.001817 
2117.000000	100.997888 
2116.000000	101.002637 
2115.000000	101.010228 
2114.000000	101.015090 
2113.000000	101.018299 
2112.000000	101.022940 
2111.000000	101.027680 
2110.000000	101.028939 
2109.000000	101.026913 
2108.000000	101.024971 
2107.000000	101.023750 
2106.000000	101.019678 
2105.000000	101.009906 
2104.000000	100.996603 
2103.000000	100.985967 
2102.000000	100.984053 
2101.000000	100.992338 
2100.000000	101.005343 
2099.000000	101.013935 
2098.000000	101.013080 
2097.000000	101.006358 
2096.000000	101.001025 
2095.000000	100.999038 
2094.000000	100.995284 
2093.000000	100.984534 
2092.000000	100.968499 
2091.000000	100.955868 
2090.000000	100.955576 
2089.000000	100.968438 
2088.000000	100.984835 
2087.000000	100.993148 
2086.000000	100.991466 
2085.000000	100.988699 
2084.000000	100.993213 
2083.000000	101.003798 
2082.000000	101.014123 
2081.000000	101.022026 
2080.000000	101.029895 
2079.000000	101.038619 
2078.000000	101.046675 
2077.000000	101.054893 
2076.000000	101.066938 
2075.000000	101.083714 
2074.000000	101.101202 
2073.000000	101.114238 
2072.000000	101.120500 
2071.000000	101.120543 
2070.000000	101.116327 
2069.000000	101.110669 
2068.000000	101.106085 
2067.000000	101.103489 
2066.000000	101.102574 
2065.000000	101.102591 
2064.000000	101.102287 
2063.000000	101.101285 
2062.000000	101.102842 
2061.000000	101.112386 
2060.000000	101.130874 
2059.000000	101.152132 
2058.000000	101.169021 
2057.000000	101.179133 
2056.000000	101.182430 
2055.000000	101.178388 
2054.000000	101.170959 
2053.000000	101.171806 
2052.000000	101.190978 
2051.000000	101.224781 
2050.000000	101.257190 
2049.000000	101.273183 
2048.000000	101.269365 
2047.000000	101.252945 
2046.000000	101.235343 
2045.000000	101.227067 
2044.000000	101.232303 
2043.000000	101.246374 
2042.000000	101.261587 
2041.000000	101.275166 
2040.000000	101.289105 
2039.000000	101.305083 
2038.000000	101.323990 
2037.000000	101.346658 
2036.000000	101.368979 
2035.000000	101.380091 
2034.000000	101.373435 
2033.000000	101.357137 
2032.000000	101.344759 
2031.000000	101.338645 
2030.000000	101.332483 
2029.000000	101.325693 
2028.000000	101.323742 
2027.000000	101.325587 
2026.000000	101.324730 
2025.000000	101.322482 
2024.000000	101.327510 
2023.000000	101.339209 
2022.000000	101.342858 
2021.000000	101.327831 
2020.000000	101.302693 
2019.000000	101.286201 
2018.000000	101.288544 
2017.000000	101.304307 
2016.000000	101.318912 
2015.000000	101.319957 
2014.000000	101.306619 
2013.000000	101.290749 
2012.000000	101.285794 
2011.000000	101.293574 
2010.000000	101.305558 
2009.000000	101.314975 
2008.000000	101.321382 
2007.000000	101.323424 
2006.000000	101.316534 
2005.000000	101.300180 
2004.000000	101.281083 
2003.000000	101.266951 
2002.000000	101.259998 
2001.000000	101.258095 
2000.000000	101.255230 
1999.000000	101.243896 
1998.000000	101.222845 
1997.000000	101.201211 
1996.000000	101.191213 
1995.000000	101.197652 
1994.000000	101.216988 
1993.000000	101.242043 
1992.000000	101.263584 
1991.000000	101.272311 
1990.000000	101.266636 
1989.000000	101.256957 
1988.000000	101.256483 
1987.000000	101.267847 
1986.000000	101.282827 
1985.000000	101.294295 
1984.000000	101.303448 
1983.000000	101.316583 
1982.000000	101.338314 
1981.000000	101.367146 
1980.000000	101.391222 
1979.000000	101.394156 
1978.000000	101.371963 
1977.000000	101.340589 
1976.000000	101.318694 
1975.000000	101.307774 
1974.000000	101.299634 
1973.000000	101.295785 
1972.000000	101.305467 
1971.000000	101.326728 
1970.000000	101.342534 
1969.000000	101.338251 
1968.000000	101.315932 
1967.000000	101.289062 
1966.000000	101.268616 
1965.000000	101.256709 
1964.000000	101.249057 
1963.000000	101.239849 
1962.000000	101.226100 
1961.000000	101.209069 
1960.000000	101.191626 
1959.000000	101.176259 
1958.000000	101.165990 
1957.000000	101.162820 
1956.000000	101.163356 
1955.000000	101.160376 
1954.000000	101.152368 
1953.000000	101.145074 
1952.000000	101.141569 
1951.000000	101.135207 
1950.000000	101.119135 
1949.000000	101.099622 
1948.000000	101.089288 
1947.000000	101.089399 
1946.000000	101.088053 
1945.000000	101.075185 
1944.000000	101.053322 
1943.000000	101.033732 
1942.000000	101.026973 
1941.000000	101.034958 
1940.000000	101.048117 
1939.000000	101.053543 
1938.000000	101.048658 
1937.000000	101.043883 
1936.000000	101.048631 
1935.000000	101.058012 
1934.000000	101.060175 
1933.000000	101.052484 
1932.000000	101.044766 
1931.000000	101.044223 
1930.000000	101.046395 
1929.000000	101.045097 
1928.000000	101.038409 
1927.000000	101.028694 
1926.000000	101.018106 
1925.000000	101.010006 
1924.000000	101.008567 
1923.000000	101.012205 
1922.000000	101.015395 
1921.000000	101.016305 
1920.000000	101.015768 
1919.000000	101.011959 
1918.000000	101.000452 
1917.000000	100.984130 
1916.000000	100.971781 
1915.000000	100.965110 
1914.000000	100.960200 
1913.000000	100.956487 
1912.000000	100.957459 
1911.000000	100.962574 
1910.000000	100.966208 
1909.000000	100.967138 
1908.000000	100.968855 
1907.000000	100.974116 
1906.000000	100.979800 
1905.000000	100.982158 
1904.000000	100.980896 
1903.000000	100.974650 
1902.000000	100.963537 
1901.000000	100.954478 
1900.000000	100.953182 
1899.000000	100.956666 
1898.000000	100.957866 
1897.000000	100.956957 
1896.000000	100.960334 
1895.000000	100.966843 
1894.000000	100.967339 
1893.000000	100.958947 
1892.000000	100.948780 
1891.000000	100.943293 
1890.000000	100.941554 
1889.000000	100.940568 
1888.000000	100.940067 
1887.000000	100.938316 
1886.000000	100.933156 
1885.000000	100.927693 
1884.000000	100.927694 
1883.000000	100.932184 
1882.000000	100.935185 
1881.000000	100.936142 
1880.000000	100.938786 
1879.000000	100.943963 
1878.000000	100.949273 
1877.000000	100.953875 
1876.000000	100.959757 
1875.000000	100.965086 
1874.000000	100.962827 
1873.000000	100.950799 
1872.000000	100.935510 
1871.000000	100.924110 
1870.000000	100.918250 
1869.000000	100.916761 
1868.000000	100.920100 
1867.000000	100.925996 
1866.000000	100.927956 
1865.000000	100.923552 
1864.000000	100.915662 
1863.000000	100.905690 
1862.000000	100.893440 
1861.000000	100.883977 
1860.000000	100.885417 
1859.000000	100.898136 
1858.000000	100.913427 
1857.000000	100.924274 
1856.000000	100.930423 
1855.000000	100.933461 
1854.000000	100.932723 
1853.000000	100.930935 
1852.000000	100.928904 
1851.000000	100.924377 
1850.000000	100.918432 
1849.000000	100.916116 
1848.000000	100.919718 
1847.000000	100.923702 
1846.000000	100.923741 
1845.000000	100.923966 
1844.000000	100.928898 
1843.000000	100.935904 
1842.000000	100.938764 
1841.000000	100.935960 
1840.000000	100.930767 
1839.000000	100.926373 
1838.000000	100.921450 
1837.000000	100.916350 
1836.000000	100.914449 
1835.000000	100.914510 
1834.000000	100.911964 
1833.000000	100.906411 
1832.000000	100.900067 
1831.000000	100.896630 
1830.000000	100.897066 
1829.000000	100.899745 
1828.000000	100.903952 
1827.000000	100.907066 
1826.000000	100.907606 
1825.000000	100.906726 
1824.000000	100.907593 
1823.000000	100.909875 
1822.000000	100.907333 
1821.000000	100.897240 
1820.000000	100.885789 
1819.000000	100.881708 
1818.000000	100.883639 
1817.000000	100.884855 
1816.000000	100.885449 
1815.000000	100.887830 
1814.000000	100.891674 
1813.000000	100.894168 
1812.000000	100.896482 
1811.000000	100.901711 
1810.000000	100.906395 
1809.000000	100.907910 
1808.000000	100.909491 
1807.000000	100.911260 
1806.000000	100.908385 
1805.000000	100.900649 
1804.000000	100.896080 
1803.000000	100.897059 
1802.000000	100.898284 
1801.000000	100.893697 
1800.000000	100.886451 
1799.000000	100.882770 
1798.000000	100.881782 
1797.000000	100.882369 
1796.000000	100.887176 
1795.000000	100.895039 
1794.000000	100.901770 
1793.000000	100.903154 
1792.000000	100.900449 
1791.000000	100.899260 
1790.000000	100.899705 
1789.000000	100.899663 
1788.000000	100.901323 
1787.000000	100.905778 
1786.000000	100.908965 
1785.000000	100.908337 
1784.000000	100.908013 
1783.000000	100.906746 
1782.000000	100.903486 
1781.000000	100.898497 
1780.000000	100.893451 
1779.000000	100.890512 
1778.000000	100.888258 
1777.000000	100.886942 
1776.000000	100.886055 
1775.000000	100.884160 
1774.000000	100.884371 
1773.000000	100.889108 
1772.000000	100.893701 
1771.000000	100.899789 
1770.000000	100.907791 
1769.000000	100.910905 
1768.000000	100.908516 
1767.000000	100.905026 
1766.000000	100.903731 
1765.000000	100.902062 
1764.000000	100.899628 
1763.000000	100.899546 
1762.000000	100.902346 
1761.000000	100.902462 
1760.000000	100.900410 
1759.000000	100.899768 
1758.000000	100.903767 
1757.000000	100.913380 
1756.000000	100.921735 
1755.000000	100.926136 
1754.000000	100.927946 
1753.000000	100.927993 
1752.000000	100.924343 
1751.000000	100.917209 
1750.000000	100.909273 
1749.000000	100.903449 
1748.000000	100.900581 
1747.000000	100.900705 
1746.000000	100.906744 
1745.000000	100.914158 
1744.000000	100.916514 
1743.000000	100.915688 
1742.000000	100.916885 
1741.000000	100.919643 
1740.000000	100.921884 
1739.000000	100.922976 
1738.000000	100.924698 
1737.000000	100.924307 
1736.000000	100.922849 
1735.000000	100.926840 
1734.000000	100.925628 
1733.000000	100.918736 
1732.000000	100.917640 
1731.000000	100.917569 
1730.000000	100.914825 
1729.000000	100.913526 
1728.000000	100.914785 
1727.000000	100.915764 
1726.000000	100.916754 
1725.000000	100.916626 
1724.000000	100.916545 
1723.000000	100.917905 
1722.000000	100.916627 
1721.000000	100.911099 
1720.000000	100.908294 
1719.000000	100.919534 
1718.000000	100.934328 
1717.000000	100.932166 
1716.000000	100.924179 
1715.000000	100.923201 
1714.000000	100.922068 
1713.000000	100.917970 
1712.000000	100.917770 
1711.000000	100.921339 
1710.000000	100.921433 
1709.000000	100.917645 
1708.000000	100.915784 
1707.000000	100.919837 
1706.000000	100.923027 
1705.000000	100.918891 
1704.000000	100.914897 
1703.000000	100.912553 
1702.000000	100.911422 
1701.000000	100.914051 
1700.000000	100.910473 
1699.000000	100.910673 
1698.000000	100.913810 
1697.000000	100.913094 
1696.000000	100.915850 
1695.000000	100.918196 
1694.000000	100.915987 
1693.000000	100.908721 
1692.000000	100.900952 
1691.000000	100.898543 
1690.000000	100.899945 
1689.000000	100.903077 
1688.000000	100.904461 
1687.000000	100.904339 
1686.000000	100.910277 
1685.000000	100.926105 
1684.000000	100.930165 
1683.000000	100.919466 
1682.000000	100.912655 
1681.000000	100.911561 
1680.000000	100.911542 
1679.000000	100.910247 
1678.000000	100.909158 
1677.000000	100.910972 
1676.000000	100.914033 
1675.000000	100.910787 
1674.000000	100.908765 
1673.000000	100.912610 
1672.000000	100.916225 
1671.000000	100.917301 
1670.000000	100.916578 
1669.000000	100.916105 
1668.000000	100.916680 
1667.000000	100.916449 
1666.000000	100.915063 
1665.000000	100.913267 
1664.000000	100.914641 
1663.000000	100.915839 
1662.000000	100.915241 
1661.000000	100.918433 
1660.000000	100.922172 
1659.000000	100.922932 
1658.000000	100.923984 
1657.000000	100.925637 
1656.000000	100.918217 
1655.000000	100.909999 
1654.000000	100.923457 
1653.000000	100.928335 
1652.000000	100.923853 
1651.000000	100.932465 
1650.000000	100.935749 
1649.000000	100.927637 
1648.000000	100.921560 
1647.000000	100.920712 
1646.000000	100.918879 
1645.000000	100.918760 
1644.000000	100.923572 
1643.000000	100.927541 
1642.000000	100.927592 
1641.000000	100.925686 
1640.000000	100.921177 
1639.000000	100.915315 
1638.000000	100.910710 
1637.000000	100.916146 
1636.000000	100.927142 
1635.000000	100.931065 
1634.000000	100.931919 
1633.000000	100.932342 
1632.000000	100.930395 
1631.000000	100.924812 
1630.000000	100.917143 
1629.000000	100.912140 
1628.000000	100.913119 
1627.000000	100.916486 
1626.000000	100.919611 
1625.000000	100.923016 
1624.000000	100.926264 
1623.000000	100.924528 
1622.000000	100.920224 
1621.000000	100.920911 
1620.000000	100.922309 
1619.000000	100.919578 
1618.000000	100.918275 
1617.000000	100.924749 
1616.000000	100.933764 
1615.000000	100.940019 
1614.000000	100.943205 
1613.000000	100.945652 
1612.000000	100.948935 
1611.000000	100.948338 
1610.000000	100.942866 
1609.000000	100.937971 
1608.000000	100.935361 
1607.000000	100.930760 
1606.000000	100.927054 
1605.000000	100.929668 
1604.000000	100.933910 
1603.000000	100.934158 
1602.000000	100.933011 
1601.000000	100.935500 
1600.000000	100.939926 
1599.000000	100.941683 
1598.000000	100.941856 
1597.000000	100.943629 
1596.000000	100.946126 
1595.000000	100.946002 
1594.000000	100.944070 
1593.000000	100.944495 
1592.000000	100.947898 
1591.000000	100.951209 
1590.000000	100.954157 
1589.000000	100.959450 
1588.000000	100.966070 
1587.000000	100.969959 
1586.000000	100.970081 
1585.000000	100.972040 
1584.000000	100.974383 
1583.000000	100.971227 
1582.000000	100.965724 
1581.000000	100.964769 
1580.000000	100.965016 
1579.000000	100.959804 
1578.000000	100.954670 
1577.000000	100.958997 
1576.000000	100.965709 
1575.000000	100.965436 
1574.000000	100.965070 
1573.000000	100.966171 
1572.000000	100.964853 
1571.000000	100.962898 
1570.000000	100.962889 
1569.000000	100.968324 
1568.000000	100.974226 
1567.000000	100.973799 
1566.000000	100.968451 
1565.000000	100.965846 
1564.000000	100.963183 
1563.000000	100.957433 
1562.000000	100.949218 
1561.000000	100.953570 
1560.000000	100.974848 
1559.000000	100.975385 
1558.000000	100.955982 
1557.000000	100.960063 
1556.000000	100.971135 
1555.000000	100.970847 
1554.000000	100.968278 
1553.000000	100.969173 
1552.000000	100.968165 
1551.000000	100.962749 
1550.000000	100.956822 
1549.000000	100.957415 
1548.000000	100.964768 
1547.000000	100.969589 
1546.000000	100.965819 
1545.000000	100.955973 
1544.000000	100.946742 
1543.000000	100.946891 
1542.000000	100.957547 
1541.000000	100.971570 
1540.000000	100.974414 
1539.000000	100.963408 
1538.000000	100.958574 
1537.000000	100.963028 
1536.000000	100.967423 
1535.000000	100.967239 
1534.000000	100.961936 
1533.000000	100.950636 
1532.000000	100.942488 
1531.000000	100.944247 
1530.000000	100.948421 
1529.000000	100.949281 
1528.000000	100.948130 
1527.000000	100.946086 
1526.000000	100.944686 
1525.000000	100.946798 
1524.000000	100.952946 
1523.000000	100.963096 
1522.000000	100.972709 
1521.000000	100.973519 
1520.000000	100.969076 
1519.000000	100.962619 
1518.000000	100.951066 
1517.000000	100.936333 
1516.000000	100.927175 
1515.000000	100.928203 
1514.000000	100.933898 
1513.000000	100.935613 
1512.000000	100.934598 
1511.000000	100.936297 
1510.000000	100.938425 
1509.000000	100.935103 
1508.000000	100.931961 
1507.000000	100.933361 
1506.000000	100.928448 
1505.000000	100.927263 
1504.000000	100.935416 
1503.000000	100.946746 
1502.000000	100.958364 
1501.000000	100.967537 
1500.000000	100.971857 
1499.000000	100.972562 
1498.000000	100.969213 
1497.000000	100.953193 
1496.000000	100.929533 
1495.000000	100.914636 
1494.000000	100.911026 
1493.000000	100.909826 
1492.000000	100.908069 
1491.000000	100.906974 
1490.000000	100.903118 
1489.000000	100.894406 
1488.000000	100.889360 
1487.000000	100.891507 
1486.000000	100.891912 
1485.000000	100.890780 
1484.000000	100.890749 
1483.000000	100.891221 
1482.000000	100.890788 
1481.000000	100.889813 
1480.000000	100.891875 
1479.000000	100.896181 
1478.000000	100.897692 
1477.000000	100.893813 
1476.000000	100.891733 
1475.000000	100.895479 
1474.000000	100.901647 
1473.000000	100.903476 
1472.000000	100.899596 
1471.000000	100.897712 
1470.000000	100.898901 
1469.000000	100.898736 
1468.000000	100.898832 
1467.000000	100.901420 
1466.000000	100.904774 
1465.000000	100.906052 
1464.000000	100.904433 
1463.000000	100.906002 
1462.000000	100.910660 
1461.000000	100.913985 
1460.000000	100.914179 
1459.000000	100.915321 
1458.000000	100.916719 
1457.000000	100.901629 
1456.000000	100.873485 
1455.000000	100.856387 
1454.000000	100.853283 
1453.000000	100.854233 
1452.000000	100.854843 
1451.000000	100.855661 
1450.000000	100.856056 
1449.000000	100.851085 
1448.000000	100.843225 
1447.000000	100.838965 
1446.000000	100.843155 
1445.000000	100.850808 
1444.000000	100.853392 
1443.000000	100.853737 
1442.000000	100.857166 
1441.000000	100.862957 
1440.000000	100.866844 
1439.000000	100.871357 
1438.000000	100.878765 
1437.000000	100.880088 
1436.000000	100.869627 
1435.000000	100.861616 
1434.000000	100.863080 
1433.000000	100.864918 
1432.000000	100.860973 
1431.000000	100.854503 
1430.000000	100.850980 
1429.000000	100.848072 
1428.000000	100.844301 
1427.000000	100.840591 
1426.000000	100.839571 
1425.000000	100.839669 
1424.000000	100.834756 
1423.000000	100.828784 
1422.000000	100.827195 
1421.000000	100.825236 
1420.000000	100.812541 
1419.000000	100.791006 
1418.000000	100.775420 
1417.000000	100.767323 
1416.000000	100.756536 
1415.000000	100.742318 
1414.000000	100.730883 
1413.000000	100.722028 
1412.000000	100.711021 
1411.000000	100.700406 
1410.000000	100.695965 
1409.000000	100.694656 
1408.000000	100.692156 
1407.000000	100.688604 
1406.000000	100.687124 
1405.000000	100.687622 
1404.000000	100.687277 
1403.000000	100.690962 
1402.000000	100.703618 
1401.000000	100.721415 
1400.000000	100.735456 
1399.000000	100.741233 
1398.000000	100.739588 
1397.000000	100.726857 
1396.000000	100.698254 
1395.000000	100.662550 
1394.000000	100.645377 
1393.000000	100.661131 
1392.000000	100.697162 
1391.000000	100.734496 
1390.000000	100.762945 
1389.000000	100.778436 
1388.000000	100.779631 
1387.000000	100.769848 
1386.000000	100.757880 
1385.000000	100.750095 
1384.000000	100.745246 
1383.000000	100.741782 
1382.000000	100.739948 
1381.000000	100.740021 
1380.000000	100.742128 
1379.000000	100.746656 
1378.000000	100.754750 
1377.000000	100.766120 
1376.000000	100.777878 
1375.000000	100.786449 
1374.000000	100.793013 
1373.000000	100.801794 
1372.000000	100.814170 
1371.000000	100.826437 
1370.000000	100.835952 
1369.000000	100.843440 
1368.000000	100.849495 
1367.000000	100.855430 
1366.000000	100.862990 
1365.000000	100.872313 
1364.000000	100.881595 
1363.000000	100.888953 
1362.000000	100.894382 
1361.000000	100.899156 
1360.000000	100.903671 
1359.000000	100.907783 
1358.000000	100.912815 
1357.000000	100.919801 
1356.000000	100.926962 
1355.000000	100.931736 
1354.000000	100.934577 
1353.000000	100.937273 
1352.000000	100.940998 
1351.000000	100.943688 
1350.000000	100.944325 
1349.000000	100.945371 
1348.000000	100.948244 
1347.000000	100.951833 
1346.000000	100.954700 
1345.000000	100.957174 
1344.000000	100.959700 
1343.000000	100.961430 
1342.000000	100.961621 
1341.000000	100.961344 
1340.000000	100.962195 
1339.000000	100.964342 
1338.000000	100.967015 
1337.000000	100.969755 
1336.000000	100.972573 
1335.000000	100.975228 
1334.000000	100.976923 
1333.000000	100.977016 
1332.000000	100.975940 
1331.000000	100.974798 
1330.000000	100.974556 
1329.000000	100.975219 
1328.000000	100.976322 
1327.000000	100.977337 
1326.000000	100.978261 
1325.000000	100.979081 
1324.000000	100.979152 
1323.000000	100.978737 
1322.000000	100.979123 
1321.000000	100.980901 
1320.000000	100.983406 
1319.000000	100.986311 
1318.000000	100.989684 
1317.000000	100.992213 
1316.000000	100.991658 
1315.000000	100.988039 
1314.000000	100.984481 
1313.000000	100.983590 
1312.000000	100.984705 
1311.000000	100.985680 
1310.000000	100.986004 
1309.000000	100.986473 
1308.000000	100.987714 
1307.000000	100.989560 
1306.000000	100.991791 
1305.000000	100.994051 
1304.000000	100.995444 
1303.000000	100.995650 
1302.000000	100.995233 
1301.000000	100.994594 
1300.000000	100.993577 
1299.000000	100.992796 
1298.000000	100.993630 
1297.000000	100.996311 
1296.000000	100.999097 
1295.000000	101.000082 
1294.000000	100.998940 
1293.000000	100.996192 
1292.000000	100.992267 
1291.000000	100.988055 
1290.000000	100.985072 
1289.000000	100.984090 
1288.000000	100.984255 
1287.000000	100.984043 
1286.000000	100.982471 
1285.000000	100.979282 
1284.000000	100.974980 
1283.000000	100.970886 
1282.000000	100.967865 
1281.000000	100.965250 
1280.000000	100.961895 
1279.000000	100.958187 
1278.000000	100.955724 
1277.000000	100.955101 
1276.000000	100.955479 
1275.000000	100.955902 
1274.000000	100.955489 
1273.000000	100.952573 
1272.000000	100.945964 
1271.000000	100.937316 
1270.000000	100.930042 
1269.000000	100.925323 
1268.000000	100.920980 
1267.000000	100.914835 
1266.000000	100.907093 
1265.000000	100.898936 
1264.000000	100.891116 
1263.000000	100.884428 
1262.000000	100.879152 
1261.000000	100.873797 
1260.000000	100.866436 
1259.000000	100.857885 
1258.000000	100.851116 
1257.000000	100.847093 
1256.000000	100.844204 
1255.000000	100.842149 
1254.000000	100.842875 
1253.000000	100.846408 
1252.000000	100.849186 
1251.000000	100.848782 
1250.000000	100.847722 
1249.000000	100.850240 
1248.000000	100.857055 
1247.000000	100.865347 
1246.000000	100.871423 
1245.000000	100.871238 
1244.000000	100.861619 
1243.000000	100.844995 
1242.000000	100.831214 
1241.000000	100.830057 
1240.000000	100.841484 
1239.000000	100.855770 
1238.000000	100.863378 
1237.000000	100.862606 
1236.000000	100.857729 
1235.000000	100.852889 
1234.000000	100.849348 
1233.000000	100.846514 
1232.000000	100.843152 
1231.000000	100.837871 
1230.000000	100.830250 
1229.000000	100.822373 
1228.000000	100.818368 
1227.000000	100.820854 
1226.000000	100.827481 
1225.000000	100.832405 
1224.000000	100.832167 
1223.000000	100.829056 
1222.000000	100.827558 
1221.000000	100.828859 
1220.000000	100.830823 
1219.000000	100.832452 
1218.000000	100.835378 
1217.000000	100.840433 
1216.000000	100.845294 
1215.000000	100.846739 
1214.000000	100.843714 
1213.000000	100.837220 
1212.000000	100.828845 
1211.000000	100.820561 
1210.000000	100.814448 
1209.000000	100.811175 
1208.000000	100.809320 
1207.000000	100.806860 
1206.000000	100.802815 
1205.000000	100.797418 
1204.000000	100.791689 
1203.000000	100.786977 
1202.000000	100.783784 
1201.000000	100.780767 
1200.000000	100.775965 
1199.000000	100.769204 
1198.000000	100.762102 
1197.000000	100.755428 
1196.000000	100.747982 
1195.000000	100.738541 
1194.000000	100.727783 
1193.000000	100.717687 
1192.000000	100.709697 
1191.000000	100.703599 
1190.000000	100.697415 
1189.000000	100.688646 
1188.000000	100.676794 
1187.000000	100.664592 
1186.000000	100.655512 
1185.000000	100.650086 
1184.000000	100.645766 
1183.000000	100.639969 
1182.000000	100.632008 
1181.000000	100.622598 
1180.000000	100.613015 
1179.000000	100.604448 
1178.000000	100.596745 
1177.000000	100.588036 
1176.000000	100.576888 
1175.000000	100.564051 
1174.000000	100.550583 
1173.000000	100.535518 
1172.000000	100.517865 
1171.000000	100.500098 
1170.000000	100.486357 
1169.000000	100.476935 
1168.000000	100.467552 
1167.000000	100.455025 
1166.000000	100.441384 
1165.000000	100.431520 
1164.000000	100.428748 
1163.000000	100.433337 
1162.000000	100.443239 
1161.000000	100.455180 
1160.000000	100.466265 
1159.000000	100.475094 
1158.000000	100.480341 
1157.000000	100.478721 
1156.000000	100.466906 
1155.000000	100.446411 
1154.000000	100.424615 
1153.000000	100.409330 
1152.000000	100.402982 
1151.000000	100.401919 
1150.000000	100.399757 
1149.000000	100.391546 
1148.000000	100.377016 
1147.000000	100.360755 
1146.000000	100.347711 
1145.000000	100.337895 
1144.000000	100.326868 
1143.000000	100.311603 
1142.000000	100.294104 
1141.000000	100.278935 
1140.000000	100.269103 
1139.000000	100.264634 
1138.000000	100.262833 
1137.000000	100.259172 
1136.000000	100.250196 
1135.000000	100.236752 
1134.000000	100.222660 
1133.000000	100.209459 
1132.000000	100.194863 
1131.000000	100.177772 
1130.000000	100.162179 
1129.000000	100.153131 
1128.000000	100.149708 
1127.000000	100.144559 
1126.000000	100.130917 
1125.000000	100.109030 
1124.000000	100.085478 
1123.000000	100.067005 
1122.000000	100.055137 
1121.000000	100.046137 
1120.000000	100.035469 
1119.000000	100.021634 
1118.000000	100.005770 
1117.000000	99.989025  
1116.000000	99.971790  
1115.000000	99.954866  
1114.000000	99.939522  
1113.000000	99.926049  
1112.000000	99.913264  
1111.000000	99.899289  
1110.000000	99.882261  
1109.000000	99.860959  
1108.000000	99.836550  
1107.000000	99.813387  
1106.000000	99.795564  
1105.000000	99.782388  
1104.000000	99.769010  
1103.000000	99.751934  
1102.000000	99.732611  
1101.000000	99.715082  
1100.000000	99.701979  
1099.000000	99.693313  
1098.000000	99.687456  
1097.000000	99.682473  
1096.000000	99.676710  
1095.000000	99.668736  
1094.000000	99.656546  
1093.000000	99.637251  
1092.000000	99.608642  
1091.000000	99.571630  
1090.000000	99.530721  
1089.000000	99.491643  
1088.000000	99.458249  
1087.000000	99.430899  
1086.000000	99.407003  
1085.000000	99.383571  
1084.000000	99.359758  
1083.000000	99.336445  
1082.000000	99.313369  
1081.000000	99.288206  
1080.000000	99.259373  
1079.000000	99.228527  
1078.000000	99.199368  
1077.000000	99.175004  
1076.000000	99.157241  
1075.000000	99.146914  
1074.000000	99.143575  
1073.000000	99.145544  
1072.000000	99.149930  
1071.000000	99.150452  
1070.000000	99.136273  
1069.000000	99.098778  
1068.000000	99.043228  
1067.000000	98.990489  
1066.000000	98.961746  
1065.000000	98.961089  
1064.000000	98.975280  
1063.000000	98.987602  
1062.000000	98.987424  
1061.000000	98.969423  
1060.000000	98.932482  
1059.000000	98.883591  
1058.000000	98.837864  
1057.000000	98.808592  
1056.000000	98.796960  
1055.000000	98.793231  
1054.000000	98.786874  
1053.000000	98.773921  
1052.000000	98.756003  
1051.000000	98.735908  
1050.000000	98.715519  
1049.000000	98.695995  
1048.000000	98.677719  
1047.000000	98.660450  
1046.000000	98.644775  
1045.000000	98.632777  
1044.000000	98.625758  
1043.000000	98.621534  
1042.000000	98.615790  
1041.000000	98.606761  
1040.000000	98.597285  
1039.000000	98.591956  
1038.000000	98.593904  
1037.000000	98.604454  
1036.000000	98.622927  
1035.000000	98.645056  
1034.000000	98.664163  
1033.000000	98.676125  
1032.000000	98.681109  
1031.000000	98.679146  
1030.000000	98.668331  
1029.000000	98.651489  
1028.000000	98.640849  
1027.000000	98.648833  
1026.000000	98.673777  
1025.000000	98.700386  
1024.000000	98.715469  
1023.000000	98.718738  
1022.000000	98.717786  
1021.000000	98.718181  
1020.000000	98.721164  
1019.000000	98.726398  
1018.000000	98.732572  
1017.000000	98.737305  
1016.000000	98.739680  
1015.000000	98.741791  
1014.000000	98.745719  
1013.000000	98.750333  
1012.000000	98.753027  
1011.000000	98.753420  
1010.000000	98.753564  
1009.000000	98.755409  
1008.000000	98.759480  
1007.000000	98.765264  
1006.000000	98.771755  
1005.000000	98.778243  
1004.000000	98.785112  
1003.000000	98.793122  
1002.000000	98.801833  
1001.000000	98.809995  
1000.000000	98.817375  
999.000000	 98.824644  
998.000000	 98.831704  
997.000000	 98.838361  
996.000000	 98.846556  
995.000000	 98.858970  
994.000000	 98.874465  
993.000000	 98.887734  
992.000000	 98.895107  
991.000000	 98.898545  
990.000000	 98.902269  
989.000000	 98.907472  
988.000000	 98.912525  
987.000000	 98.917015  
986.000000	 98.923178  
985.000000	 98.933561  
984.000000	 98.948631  
983.000000	 98.966484  
982.000000	 98.983985  
981.000000	 98.998536  
980.000000	 99.009571  
979.000000	 99.018751  
978.000000	 99.029118  
977.000000	 99.044013  
976.000000	 99.065284  
975.000000	 99.090956  
974.000000	 99.115784  
973.000000	 99.136429  
972.000000	 99.155572  
971.000000	 99.178529  
970.000000	 99.206186  
969.000000	 99.234190  
968.000000	 99.259215  
967.000000	 99.282643  
966.000000	 99.306791  
965.000000	 99.330482  
964.000000	 99.350678  
963.000000	 99.366900  
962.000000	 99.382028  
961.000000	 99.399412  
960.000000	 99.420294  
959.000000	 99.443124  
958.000000	 99.464423  
957.000000	 99.481351  
956.000000	 99.494452  
955.000000	 99.507253  
954.000000	 99.522579  
953.000000	 99.539969  
952.000000	 99.556917  
951.000000	 99.571370  
950.000000	 99.582569  
949.000000	 99.590811  
948.000000	 99.597122  
947.000000	 99.602194  
946.000000	 99.605166  
945.000000	 99.604660  
944.000000	 99.601719  
943.000000	 99.600616  
942.000000	 99.605796  
941.000000	 99.618225  
940.000000	 99.634564  
939.000000	 99.649087  
938.000000	 99.657281  
937.000000	 99.659644  
936.000000	 99.661948  
935.000000	 99.669807  
934.000000	 99.682730  
933.000000	 99.695544  
932.000000	 99.705740  
931.000000	 99.716515  
930.000000	 99.731300  
929.000000	 99.747661  
928.000000	 99.758679  
927.000000	 99.759470  
926.000000	 99.751598  
925.000000	 99.742405  
924.000000	 99.740734  
923.000000	 99.751156  
922.000000	 99.770088  
921.000000	 99.788053  
920.000000	 99.796999  
919.000000	 99.795528  
918.000000	 99.787797  
917.000000	 99.779318  
916.000000	 99.774222  
915.000000	 99.774079  
914.000000	 99.777237  
913.000000	 99.780217  
912.000000	 99.781184  
911.000000	 99.781710  
910.000000	 99.784899  
909.000000	 99.792780  
908.000000	 99.805531  
907.000000	 99.821411  
906.000000	 99.836847  
905.000000	 99.848424  
904.000000	 99.855836  
903.000000	 99.861978  
902.000000	 99.870112  
901.000000	 99.882149  
900.000000	 99.899008  
899.000000	 99.919700  
898.000000	 99.939768  
897.000000	 99.953888  
896.000000	 99.961192  
895.000000	 99.965830  
894.000000	 99.971520  
893.000000	 99.978393  
892.000000	 99.986431  
891.000000	 99.998632  
890.000000	 100.017953 
889.000000	 100.042850 
888.000000	 100.068073 
887.000000	 100.088819 
886.000000	 100.103191 
885.000000	 100.112526 
884.000000	 100.120526 
883.000000	 100.129934 
882.000000	 100.138727 
881.000000	 100.142195 
880.000000	 100.140554 
879.000000	 100.141351 
878.000000	 100.151277 
877.000000	 100.168102 
876.000000	 100.183950 
875.000000	 100.194093 
874.000000	 100.198995 
873.000000	 100.200245 
872.000000	 100.199346 
871.000000	 100.199934 
870.000000	 100.207165 
869.000000	 100.224434 
868.000000	 100.252230 
867.000000	 100.288076 
866.000000	 100.324971 
865.000000	 100.353071 
864.000000	 100.368164 
863.000000	 100.377599 
862.000000	 100.392635 
861.000000	 100.414633 
860.000000	 100.433993 
859.000000	 100.443518 
858.000000	 100.447063 
857.000000	 100.452530 
856.000000	 100.462148 
855.000000	 100.474190 
854.000000	 100.489300 
853.000000	 100.508400 
852.000000	 100.526658 
851.000000	 100.536768 
850.000000	 100.538901 
849.000000	 100.541589 
848.000000	 100.550977 
847.000000	 100.563940 
846.000000	 100.573963 
845.000000	 100.579337 
844.000000	 100.582374 
843.000000	 100.584269 
842.000000	 100.585095 
841.000000	 100.586423 
840.000000	 100.589286 
839.000000	 100.590642 
838.000000	 100.586437 
837.000000	 100.578065 
836.000000	 100.571427 
835.000000	 100.568908 
834.000000	 100.566831 
833.000000	 100.562939 
832.000000	 100.561921 
831.000000	 100.569095 
830.000000	 100.580879 
829.000000	 100.586909 
828.000000	 100.582062 
827.000000	 100.572073 
826.000000	 100.565365 
825.000000	 100.562754 
824.000000	 100.558773 
823.000000	 100.551399 
822.000000	 100.546219 
821.000000	 100.550036 
820.000000	 100.562932 
819.000000	 100.578308 
818.000000	 100.590017 
817.000000	 100.597993 
816.000000	 100.605697 
815.000000	 100.612655 
814.000000	 100.612452 
813.000000	 100.600007 
812.000000	 100.578624 
811.000000	 100.556100 
810.000000	 100.533951 
809.000000	 100.504402 
808.000000	 100.459983 
807.000000	 100.403225 
806.000000	 100.343725 
805.000000	 100.287420 
804.000000	 100.233063 
803.000000	 100.179367 
802.000000	 100.130844 
801.000000	 100.093560 
800.000000	 100.067808 
799.000000	 100.048991 
798.000000	 100.035277 
797.000000	 100.030163 
796.000000	 100.035584 
795.000000	 100.046049 
794.000000	 100.053698 
793.000000	 100.057637 
792.000000	 100.063745 
791.000000	 100.075467 
790.000000	 100.089508 
789.000000	 100.101337 
788.000000	 100.109581 
787.000000	 100.112375 
786.000000	 100.104265 
785.000000	 100.081595 
784.000000	 100.048965 
783.000000	 100.016475 
782.000000	 99.991105  
781.000000	 99.972878  
780.000000	 99.957959  
779.000000	 99.942989  
778.000000	 99.927818  
777.000000	 99.916482  
776.000000	 99.914482  
775.000000	 99.923474  
774.000000	 99.940174  
773.000000	 99.961469  
772.000000	 99.987124  
771.000000	 100.015499 
770.000000	 100.041281 
769.000000	 100.061314 
768.000000	 100.078621 
767.000000	 100.096271 
766.000000	 100.111264 
765.000000	 100.119997 
764.000000	 100.126263 
763.000000	 100.136782 
762.000000	 100.150235 
761.000000	 100.157787 
760.000000	 100.154954 
759.000000	 100.147496 
758.000000	 100.144682 
757.000000	 100.150579 
756.000000	 100.161872 
755.000000	 100.170388 
754.000000	 100.168853 
753.000000	 100.158783 
752.000000	 100.152170 
751.000000	 100.160902 
750.000000	 100.184246 
749.000000	 100.210147 
748.000000	 100.227722 
747.000000	 100.234545 
746.000000	 100.234094 
745.000000	 100.232032 
744.000000	 100.234339 
743.000000	 100.243469 
742.000000	 100.256207 
741.000000	 100.269689 
740.000000	 100.287832 
739.000000	 100.315678 
738.000000	 100.348479 
737.000000	 100.373238 
736.000000	 100.381304 
735.000000	 100.374125 
734.000000	 100.358185 
733.000000	 100.341698 
732.000000	 100.335785 
731.000000	 100.349176 
730.000000	 100.378028 
729.000000	 100.407431 
728.000000	 100.426431 
727.000000	 100.435868 
726.000000	 100.439121 
725.000000	 100.434018 
724.000000	 100.419294 
723.000000	 100.402101 
722.000000	 100.392814 
721.000000	 100.396303 
720.000000	 100.412286 
719.000000	 100.438761 
718.000000	 100.469638 
717.000000	 100.493662 
716.000000	 100.501787 
715.000000	 100.494553 
714.000000	 100.479856 
713.000000	 100.466474 
712.000000	 100.462650 
711.000000	 100.475158 
710.000000	 100.502686 
709.000000	 100.532271 
708.000000	 100.547959 
707.000000	 100.543570 
706.000000	 100.523738 
705.000000	 100.495486 
704.000000	 100.464938 
703.000000	 100.439452 
702.000000	 100.425883 
701.000000	 100.424458 
700.000000	 100.426018 
699.000000	 100.417847 
698.000000	 100.393123 
697.000000	 100.356020 
696.000000	 100.318932 
695.000000	 100.292543 
694.000000	 100.279510 
693.000000	 100.278606 
692.000000	 100.290151 
691.000000	 100.313881 
690.000000	 100.343637 
689.000000	 100.370999 
688.000000	 100.394278 
687.000000	 100.415768 
686.000000	 100.431454 
685.000000	 100.432995 
684.000000	 100.421029 
683.000000	 100.408787 
682.000000	 100.409225 
681.000000	 100.423429 
680.000000	 100.442664 
679.000000	 100.456703 
678.000000	 100.460063 
677.000000	 100.454550 
676.000000	 100.448848 
675.000000	 100.451428 
674.000000	 100.460227 
673.000000	 100.465736 
672.000000	 100.466545 
671.000000	 100.473338 
670.000000	 100.494563 
669.000000	 100.535746 
668.000000	 100.579704 
667.000000	 100.584679 
666.000000	 100.562405 
665.000000	 100.544485 
664.000000	 100.532226 
663.000000	 100.540551 
662.000000	 100.576767 
661.000000	 100.619803 
660.000000	 100.634999 
659.000000	 100.613607 
658.000000	 100.575373 
657.000000	 100.543355 
656.000000	 100.530869 
655.000000	 100.544691 
654.000000	 100.575561 
653.000000	 100.595640 
652.000000	 100.587855 
651.000000	 100.568237 
650.000000	 100.565653 

