4000.000000	99.275145 
3999.000000	99.273291 
3998.000000	99.271531 
3997.000000	99.270796 
3996.000000	99.271146 
3995.000000	99.271851 
3994.000000	99.272199 
3993.000000	99.272151 
3992.000000	99.272015 
3991.000000	99.271865 
3990.000000	99.271422 
3989.000000	99.270380 
3988.000000	99.268788 
3987.000000	99.267186 
3986.000000	99.266330 
3985.000000	99.266642 
3984.000000	99.267888 
3983.000000	99.269432 
3982.000000	99.270827 
3981.000000	99.272076 
3980.000000	99.273298 
3979.000000	99.274358 
3978.000000	99.274908 
3977.000000	99.274716 
3976.000000	99.273830 
3975.000000	99.272496 
3974.000000	99.271000 
3973.000000	99.269616 
3972.000000	99.268608 
3971.000000	99.268222 
3970.000000	99.268635 
3969.000000	99.269763 
3968.000000	99.271140 
3967.000000	99.272106 
3966.000000	99.272248 
3965.000000	99.271633 
3964.000000	99.270658 
3963.000000	99.269785 
3962.000000	99.269310 
3961.000000	99.269240 
3960.000000	99.269242 
3959.000000	99.268883 
3958.000000	99.268099 
3957.000000	99.267295 
3956.000000	99.266941 
3955.000000	99.267079 
3954.000000	99.267345 
3953.000000	99.267348 
3952.000000	99.266965 
3951.000000	99.266334 
3950.000000	99.265655 
3949.000000	99.265045 
3948.000000	99.264562 
3947.000000	99.264294 
3946.000000	99.264285 
3945.000000	99.264426 
3944.000000	99.264501 
3943.000000	99.264352 
3942.000000	99.263994 
3941.000000	99.263568 
3940.000000	99.263158 
3939.000000	99.262724 
3938.000000	99.262235 
3937.000000	99.261739 
3936.000000	99.261313 
3935.000000	99.260962 
3934.000000	99.260689 
3933.000000	99.260560 
3932.000000	99.260619 
3931.000000	99.260770 
3930.000000	99.260805 
3929.000000	99.260590 
3928.000000	99.260165 
3927.000000	99.259602 
3926.000000	99.258954 
3925.000000	99.258347 
3924.000000	99.258018 
3923.000000	99.258032 
3922.000000	99.258079 
3921.000000	99.257840 
3920.000000	99.257437 
3919.000000	99.257184 
3918.000000	99.257078 
3917.000000	99.256820 
3916.000000	99.256310 
3915.000000	99.255780 
3914.000000	99.255414 
3913.000000	99.255170 
3912.000000	99.254965 
3911.000000	99.254736 
3910.000000	99.254469 
3909.000000	99.254191 
3908.000000	99.254026 
3907.000000	99.254046 
3906.000000	99.254173 
3905.000000	99.254205 
3904.000000	99.254017 
3903.000000	99.253712 
3902.000000	99.253428 
3901.000000	99.253089 
3900.000000	99.252585 
3899.000000	99.251973 
3898.000000	99.251410 
3897.000000	99.250951 
3896.000000	99.250563 
3895.000000	99.250249 
3894.000000	99.250122 
3893.000000	99.250180 
3892.000000	99.250216 
3891.000000	99.250030 
3890.000000	99.249753 
3889.000000	99.249545 
3888.000000	99.249327 
3887.000000	99.248983 
3886.000000	99.248545 
3885.000000	99.248146 
3884.000000	99.247917 
3883.000000	99.247779 
3882.000000	99.247547 
3881.000000	99.247210 
3880.000000	99.246898 
3879.000000	99.246746 
3878.000000	99.246772 
3877.000000	99.246793 
3876.000000	99.246637 
3875.000000	99.246286 
3874.000000	99.245861 
3873.000000	99.245537 
3872.000000	99.245284 
3871.000000	99.244853 
3870.000000	99.244178 
3869.000000	99.243663 
3868.000000	99.243725 
3867.000000	99.244119 
3866.000000	99.244250 
3865.000000	99.244064 
3864.000000	99.243896 
3863.000000	99.243841 
3862.000000	99.243706 
3861.000000	99.243377 
3860.000000	99.242958 
3859.000000	99.242381 
3858.000000	99.241440 
3857.000000	99.240240 
3856.000000	99.239562 
3855.000000	99.240166 
3854.000000	99.241382 
3853.000000	99.241446 
3852.000000	99.241104 
3851.000000	99.241788 
3850.000000	99.242843 
3849.000000	99.243471 
3848.000000	99.243842 
3847.000000	99.244242 
3846.000000	99.244641 
3845.000000	99.244937 
3844.000000	99.245161 
3843.000000	99.245387 
3842.000000	99.245626 
3841.000000	99.245747 
3840.000000	99.245689 
3839.000000	99.245536 
3838.000000	99.245380 
3837.000000	99.245208 
3836.000000	99.245034 
3835.000000	99.244872 
3834.000000	99.244716 
3833.000000	99.244595 
3832.000000	99.244577 
3831.000000	99.244697 
3830.000000	99.244924 
3829.000000	99.245136 
3828.000000	99.245202 
3827.000000	99.245102 
3826.000000	99.244977 
3825.000000	99.244990 
3824.000000	99.245155 
3823.000000	99.245349 
3822.000000	99.245420 
3821.000000	99.245288 
3820.000000	99.245120 
3819.000000	99.245087 
3818.000000	99.245068 
3817.000000	99.244984 
3816.000000	99.244893 
3815.000000	99.244863 
3814.000000	99.244873 
3813.000000	99.244858 
3812.000000	99.244787 
3811.000000	99.244689 
3810.000000	99.244615 
3809.000000	99.244574 
3808.000000	99.244534 
3807.000000	99.244460 
3806.000000	99.244370 
3805.000000	99.244316 
3804.000000	99.244283 
3803.000000	99.244219 
3802.000000	99.244102 
3801.000000	99.243948 
3800.000000	99.243877 
3799.000000	99.243973 
3798.000000	99.244055 
3797.000000	99.243975 
3796.000000	99.243890 
3795.000000	99.244052 
3794.000000	99.244481 
3793.000000	99.244974 
3792.000000	99.245392 
3791.000000	99.245767 
3790.000000	99.246071 
3789.000000	99.246239 
3788.000000	99.246385 
3787.000000	99.246788 
3786.000000	99.247517 
3785.000000	99.248265 
3784.000000	99.248793 
3783.000000	99.249216 
3782.000000	99.249600 
3781.000000	99.249643 
3780.000000	99.249078 
3779.000000	99.248020 
3778.000000	99.247029 
3777.000000	99.246389 
3776.000000	99.245828 
3775.000000	99.245278 
3774.000000	99.245315 
3773.000000	99.246281 
3772.000000	99.247524 
3771.000000	99.247896 
3770.000000	99.247059 
3769.000000	99.245961 
3768.000000	99.245725 
3767.000000	99.246137 
3766.000000	99.246254 
3765.000000	99.245895 
3764.000000	99.245834 
3763.000000	99.246564 
3762.000000	99.247585 
3761.000000	99.248486 
3760.000000	99.249516 
3759.000000	99.250335 
3758.000000	99.250050 
3757.000000	99.248507 
3756.000000	99.246641 
3755.000000	99.245138 
3754.000000	99.244025 
3753.000000	99.243666 
3752.000000	99.244485 
3751.000000	99.244808 
3750.000000	99.242131 
3749.000000	99.237495 
3748.000000	99.233794 
3747.000000	99.231175 
3746.000000	99.228694 
3745.000000	99.226378 
3744.000000	99.224589 
3743.000000	99.226473 
3742.000000	99.232167 
3741.000000	99.235384 
3740.000000	99.234228 
3739.000000	99.232729 
3738.000000	99.233946 
3737.000000	99.236498 
3736.000000	99.237473 
3735.000000	99.236227 
3734.000000	99.233690 
3733.000000	99.230261 
3732.000000	99.227054 
3731.000000	99.226734 
3730.000000	99.229853 
3729.000000	99.233109 
3728.000000	99.233568 
3727.000000	99.232513 
3726.000000	99.233091 
3725.000000	99.235705 
3724.000000	99.237063 
3723.000000	99.234709 
3722.000000	99.229922 
3721.000000	99.225719 
3720.000000	99.223612 
3719.000000	99.222527 
3718.000000	99.220907 
3717.000000	99.218354 
3716.000000	99.215402 
3715.000000	99.212116 
3714.000000	99.208399 
3713.000000	99.204852 
3712.000000	99.201275 
3711.000000	99.196683 
3710.000000	99.192054 
3709.000000	99.188764 
3708.000000	99.186043 
3707.000000	99.182363 
3706.000000	99.177429 
3705.000000	99.172094 
3704.000000	99.167363 
3703.000000	99.163650 
3702.000000	99.160237 
3701.000000	99.156379 
3700.000000	99.152840 
3699.000000	99.149528 
3698.000000	99.144301 
3697.000000	99.136400 
3696.000000	99.128160 
3695.000000	99.122148 
3694.000000	99.118206 
3693.000000	99.115012 
3692.000000	99.112639 
3691.000000	99.111089 
3690.000000	99.107652 
3689.000000	99.099230 
3688.000000	99.089178 
3687.000000	99.084701 
3686.000000	99.086310 
3685.000000	99.088254 
3684.000000	99.087872 
3683.000000	99.087629 
3682.000000	99.089178 
3681.000000	99.089468 
3680.000000	99.084308 
3679.000000	99.074267 
3678.000000	99.063241 
3677.000000	99.054501 
3676.000000	99.047608 
3675.000000	99.042109 
3674.000000	99.043659 
3673.000000	99.051811 
3672.000000	99.057337 
3671.000000	99.058894 
3670.000000	99.060591 
3669.000000	99.063051 
3668.000000	99.065917 
3667.000000	99.067477 
3666.000000	99.066607 
3665.000000	99.065244 
3664.000000	99.065463 
3663.000000	99.067174 
3662.000000	99.069140 
3661.000000	99.070722 
3660.000000	99.072507 
3659.000000	99.075610 
3658.000000	99.080116 
3657.000000	99.084848 
3656.000000	99.088685 
3655.000000	99.093624 
3654.000000	99.100877 
3653.000000	99.107848 
3652.000000	99.113527 
3651.000000	99.120162 
3650.000000	99.126430 
3649.000000	99.126761 
3648.000000	99.121299 
3647.000000	99.116964 
3646.000000	99.118257 
3645.000000	99.123858 
3644.000000	99.130538 
3643.000000	99.136604 
3642.000000	99.142309 
3641.000000	99.148026 
3640.000000	99.153515 
3639.000000	99.158604 
3638.000000	99.163963 
3637.000000	99.170208 
3636.000000	99.175987 
3635.000000	99.178798 
3634.000000	99.177939 
3633.000000	99.175610 
3632.000000	99.174328 
3631.000000	99.175109 
3630.000000	99.177532 
3629.000000	99.178808 
3628.000000	99.178095 
3627.000000	99.179555 
3626.000000	99.183827 
3625.000000	99.188186 
3624.000000	99.192258 
3623.000000	99.196622 
3622.000000	99.200572 
3621.000000	99.202898 
3620.000000	99.203394 
3619.000000	99.202919 
3618.000000	99.203113 
3617.000000	99.205092 
3616.000000	99.207948 
3615.000000	99.209880 
3614.000000	99.209994 
3613.000000	99.208705 
3612.000000	99.207165 
3611.000000	99.206282 
3610.000000	99.206334 
3609.000000	99.207455 
3608.000000	99.209509 
3607.000000	99.211902 
3606.000000	99.213922 
3605.000000	99.215195 
3604.000000	99.216027 
3603.000000	99.216938 
3602.000000	99.217934 
3601.000000	99.218868 
3600.000000	99.220113 
3599.000000	99.222075 
3598.000000	99.224244 
3597.000000	99.225680 
3596.000000	99.225813 
3595.000000	99.224839 
3594.000000	99.223495 
3593.000000	99.222806 
3592.000000	99.223387 
3591.000000	99.225185 
3590.000000	99.227619 
3589.000000	99.229713 
3588.000000	99.230202 
3587.000000	99.228644 
3586.000000	99.226332 
3585.000000	99.224843 
3584.000000	99.224357 
3583.000000	99.224359 
3582.000000	99.224432 
3581.000000	99.224333 
3580.000000	99.223910 
3579.000000	99.223152 
3578.000000	99.222112 
3577.000000	99.221022 
3576.000000	99.220277 
3575.000000	99.220191 
3574.000000	99.220711 
3573.000000	99.221458 
3572.000000	99.222149 
3571.000000	99.222761 
3570.000000	99.223383 
3569.000000	99.223936 
3568.000000	99.224050 
3567.000000	99.223403 
3566.000000	99.222424 
3565.000000	99.221913 
3564.000000	99.221862 
3563.000000	99.221756 
3562.000000	99.221426 
3561.000000	99.221087 
3560.000000	99.220933 
3559.000000	99.220951 
3558.000000	99.220992 
3557.000000	99.220973 
3556.000000	99.221043 
3555.000000	99.221398 
3554.000000	99.221998 
3553.000000	99.222522 
3552.000000	99.222709 
3551.000000	99.222592 
3550.000000	99.222294 
3549.000000	99.221906 
3548.000000	99.221655 
3547.000000	99.221797 
3546.000000	99.222279 
3545.000000	99.222782 
3544.000000	99.223061 
3543.000000	99.223090 
3542.000000	99.222969 
3541.000000	99.222848 
3540.000000	99.222913 
3539.000000	99.223241 
3538.000000	99.223708 
3537.000000	99.224060 
3536.000000	99.224130 
3535.000000	99.223954 
3534.000000	99.223658 
3533.000000	99.223374 
3532.000000	99.223185 
3531.000000	99.223102 
3530.000000	99.223072 
3529.000000	99.223032 
3528.000000	99.222978 
3527.000000	99.222947 
3526.000000	99.222953 
3525.000000	99.222959 
3524.000000	99.222926 
3523.000000	99.222847 
3522.000000	99.222746 
3521.000000	99.222641 
3520.000000	99.222527 
3519.000000	99.222401 
3518.000000	99.222267 
3517.000000	99.222135 
3516.000000	99.222008 
3515.000000	99.221881 
3514.000000	99.221749 
3513.000000	99.221608 
3512.000000	99.221454 
3511.000000	99.221284 
3510.000000	99.221101 
3509.000000	99.220911 
3508.000000	99.220719 
3507.000000	99.220527 
3506.000000	99.220332 
3505.000000	99.220130 
3504.000000	99.219921 
3503.000000	99.219706 
3502.000000	99.219489 
3501.000000	99.219277 
3500.000000	99.219069 
3499.000000	99.218859 
3498.000000	99.218638 
3497.000000	99.218405 
3496.000000	99.218162 
3495.000000	99.217915 
3494.000000	99.217683 
3493.000000	99.217483 
3492.000000	99.217311 
3491.000000	99.217145 
3490.000000	99.216973 
3489.000000	99.216814 
3488.000000	99.216700 
3487.000000	99.216634 
3486.000000	99.216571 
3485.000000	99.216454 
3484.000000	99.216267 
3483.000000	99.216055 
3482.000000	99.215856 
3481.000000	99.215637 
3480.000000	99.215334 
3479.000000	99.214944 
3478.000000	99.214566 
3477.000000	99.214320 
3476.000000	99.214213 
3475.000000	99.214102 
3474.000000	99.213836 
3473.000000	99.213447 
3472.000000	99.213148 
3471.000000	99.213132 
3470.000000	99.213414 
3469.000000	99.213831 
3468.000000	99.214143 
3467.000000	99.214141 
3466.000000	99.213730 
3465.000000	99.212992 
3464.000000	99.212162 
3463.000000	99.211437 
3462.000000	99.210806 
3461.000000	99.210128 
3460.000000	99.209390 
3459.000000	99.208825 
3458.000000	99.208740 
3457.000000	99.209195 
3456.000000	99.209907 
3455.000000	99.210494 
3454.000000	99.210752 
3453.000000	99.210770 
3452.000000	99.210772 
3451.000000	99.210930 
3450.000000	99.211257 
3449.000000	99.211631 
3448.000000	99.211792 
3447.000000	99.211449 
3446.000000	99.210563 
3445.000000	99.209563 
3444.000000	99.209071 
3443.000000	99.209342 
3442.000000	99.210049 
3441.000000	99.210649 
3440.000000	99.210990 
3439.000000	99.211313 
3438.000000	99.211755 
3437.000000	99.212074 
3436.000000	99.212014 
3435.000000	99.211767 
3434.000000	99.211811 
3433.000000	99.212355 
3432.000000	99.213065 
3431.000000	99.213423 
3430.000000	99.213189 
3429.000000	99.212516 
3428.000000	99.211735 
3427.000000	99.211067 
3426.000000	99.210545 
3425.000000	99.210159 
3424.000000	99.209977 
3423.000000	99.210062 
3422.000000	99.210319 
3421.000000	99.210528 
3420.000000	99.210548 
3419.000000	99.210469 
3418.000000	99.210531 
3417.000000	99.210882 
3416.000000	99.211451 
3415.000000	99.211990 
3414.000000	99.212282 
3413.000000	99.212329 
3412.000000	99.212334 
3411.000000	99.212511 
3410.000000	99.212916 
3409.000000	99.213430 
3408.000000	99.213842 
3407.000000	99.213944 
3406.000000	99.213631 
3405.000000	99.213039 
3404.000000	99.212595 
3403.000000	99.212732 
3402.000000	99.213551 
3401.000000	99.214691 
3400.000000	99.215556 
3399.000000	99.215801 
3398.000000	99.215570 
3397.000000	99.215336 
3396.000000	99.215423 
3395.000000	99.215672 
3394.000000	99.215694 
3393.000000	99.215407 
3392.000000	99.215188 
3391.000000	99.215411 
3390.000000	99.215972 
3389.000000	99.216429 
3388.000000	99.216467 
3387.000000	99.216088 
3386.000000	99.215478 
3385.000000	99.214861 
3384.000000	99.214439 
3383.000000	99.214279 
3382.000000	99.214198 
3381.000000	99.213880 
3380.000000	99.213111 
3379.000000	99.211945 
3378.000000	99.210772 
3377.000000	99.210286 
3376.000000	99.211166 
3375.000000	99.213561 
3374.000000	99.216810 
3373.000000	99.219799 
3372.000000	99.221716 
3371.000000	99.222399 
3370.000000	99.222166 
3369.000000	99.221476 
3368.000000	99.220689 
3367.000000	99.219919 
3366.000000	99.219028 
3365.000000	99.217833 
3364.000000	99.216401 
3363.000000	99.215147 
3362.000000	99.214550 
3361.000000	99.214690 
3360.000000	99.215006 
3359.000000	99.214671 
3358.000000	99.213455 
3357.000000	99.212133 
3356.000000	99.211759 
3355.000000	99.212472 
3354.000000	99.213375 
3353.000000	99.213704 
3352.000000	99.213817 
3351.000000	99.214755 
3350.000000	99.217070 
3349.000000	99.220344 
3348.000000	99.223623 
3347.000000	99.226002 
3346.000000	99.226930 
3345.000000	99.226340 
3344.000000	99.224674 
3343.000000	99.222579 
3342.000000	99.220509 
3341.000000	99.218722 
3340.000000	99.217566 
3339.000000	99.217415 
3338.000000	99.218167 
3337.000000	99.219068 
3336.000000	99.219309 
3335.000000	99.218783 
3334.000000	99.218103 
3333.000000	99.217933 
3332.000000	99.218381 
3331.000000	99.219048 
3330.000000	99.219544 
3329.000000	99.219867 
3328.000000	99.220287 
3327.000000	99.220931 
3326.000000	99.221548 
3325.000000	99.221745 
3324.000000	99.221414 
3323.000000	99.220873 
3322.000000	99.220537 
3321.000000	99.220463 
3320.000000	99.220275 
3319.000000	99.219637 
3318.000000	99.218753 
3317.000000	99.218291 
3316.000000	99.218729 
3315.000000	99.219871 
3314.000000	99.221057 
3313.000000	99.221796 
3312.000000	99.222129 
3311.000000	99.222393 
3310.000000	99.222836 
3309.000000	99.223495 
3308.000000	99.224296 
3307.000000	99.225120 
3306.000000	99.225756 
3305.000000	99.225902 
3304.000000	99.225330 
3303.000000	99.224096 
3302.000000	99.222653 
3301.000000	99.221679 
3300.000000	99.221629 
3299.000000	99.222445 
3298.000000	99.223626 
3297.000000	99.224641 
3296.000000	99.225301 
3295.000000	99.225711 
3294.000000	99.226007 
3293.000000	99.226229 
3292.000000	99.226345 
3291.000000	99.226300 
3290.000000	99.226055 
3289.000000	99.225635 
3288.000000	99.225155 
3287.000000	99.224767 
3286.000000	99.224588 
3285.000000	99.224658 
3284.000000	99.224929 
3283.000000	99.225265 
3282.000000	99.225509 
3281.000000	99.225534 
3280.000000	99.225250 
3279.000000	99.224604 
3278.000000	99.223682 
3277.000000	99.222797 
3276.000000	99.222331 
3275.000000	99.222424 
3274.000000	99.222897 
3273.000000	99.223424 
3272.000000	99.223720 
3271.000000	99.223596 
3270.000000	99.222978 
3269.000000	99.222010 
3268.000000	99.221102 
3267.000000	99.220700 
3266.000000	99.220962 
3265.000000	99.221678 
3264.000000	99.222449 
3263.000000	99.222988 
3262.000000	99.223276 
3261.000000	99.223479 
3260.000000	99.223737 
3259.000000	99.224014 
3258.000000	99.224149 
3257.000000	99.224023 
3256.000000	99.223645 
3255.000000	99.223130 
3254.000000	99.222663 
3253.000000	99.222453 
3252.000000	99.222591 
3251.000000	99.222929 
3250.000000	99.223187 
3249.000000	99.223214 
3248.000000	99.223109 
3247.000000	99.223042 
3246.000000	99.223037 
3245.000000	99.222981 
3244.000000	99.222841 
3243.000000	99.222782 
3242.000000	99.223059 
3241.000000	99.223790 
3240.000000	99.224786 
3239.000000	99.225575 
3238.000000	99.225742 
3237.000000	99.225250 
3236.000000	99.224515 
3235.000000	99.224038 
3234.000000	99.223980 
3233.000000	99.224203 
3232.000000	99.224561 
3231.000000	99.225036 
3230.000000	99.225578 
3229.000000	99.225961 
3228.000000	99.225905 
3227.000000	99.225318 
3226.000000	99.224381 
3225.000000	99.223444 
3224.000000	99.222856 
3223.000000	99.222806 
3222.000000	99.223243 
3221.000000	99.223938 
3220.000000	99.224651 
3219.000000	99.225296 
3218.000000	99.225942 
3217.000000	99.226631 
3216.000000	99.227229 
3215.000000	99.227495 
3214.000000	99.227313 
3213.000000	99.226841 
3212.000000	99.226413 
3211.000000	99.226338 
3210.000000	99.226788 
3209.000000	99.227776 
3208.000000	99.229081 
3207.000000	99.230286 
3206.000000	99.231052 
3205.000000	99.231401 
3204.000000	99.231627 
3203.000000	99.231958 
3202.000000	99.232443 
3201.000000	99.233137 
3200.000000	99.234068 
3199.000000	99.234892 
3198.000000	99.234917 
3197.000000	99.233814 
3196.000000	99.232176 
3195.000000	99.231130 
3194.000000	99.231199 
3193.000000	99.231810 
3192.000000	99.232042 
3191.000000	99.231701 
3190.000000	99.231486 
3189.000000	99.232114 
3188.000000	99.233513 
3187.000000	99.234890 
3186.000000	99.235447 
3185.000000	99.234913 
3184.000000	99.233576 
3183.000000	99.232119 
3182.000000	99.231296 
3181.000000	99.231427 
3180.000000	99.232057 
3179.000000	99.232284 
3178.000000	99.231646 
3177.000000	99.230553 
3176.000000	99.229729 
3175.000000	99.229487 
3174.000000	99.229825 
3173.000000	99.230874 
3172.000000	99.232735 
3171.000000	99.234942 
3170.000000	99.236584 
3169.000000	99.237206 
3168.000000	99.237257 
3167.000000	99.237541 
3166.000000	99.238399 
3165.000000	99.239544 
3164.000000	99.240495 
3163.000000	99.240972 
3162.000000	99.240985 
3161.000000	99.240770 
3160.000000	99.240704 
3159.000000	99.241096 
3158.000000	99.241940 
3157.000000	99.242867 
3156.000000	99.243432 
3155.000000	99.243501 
3154.000000	99.243370 
3153.000000	99.243464 
3152.000000	99.243914 
3151.000000	99.244477 
3150.000000	99.244852 
3149.000000	99.244985 
3148.000000	99.245032 
3147.000000	99.245133 
3146.000000	99.245284 
3145.000000	99.245394 
3144.000000	99.245398 
3143.000000	99.245376 
3142.000000	99.245559 
3141.000000	99.246117 
3140.000000	99.246920 
3139.000000	99.247597 
3138.000000	99.247932 
3137.000000	99.248074 
3136.000000	99.248274 
3135.000000	99.248529 
3134.000000	99.248651 
3133.000000	99.248590 
3132.000000	99.248499 
3131.000000	99.248536 
3130.000000	99.248696 
3129.000000	99.248852 
3128.000000	99.248886 
3127.000000	99.248797 
3126.000000	99.248692 
3125.000000	99.248682 
3124.000000	99.248796 
3123.000000	99.248961 
3122.000000	99.249061 
3121.000000	99.249043 
3120.000000	99.248985 
3119.000000	99.249029 
3118.000000	99.249232 
3117.000000	99.249483 
3116.000000	99.249596 
3115.000000	99.249504 
3114.000000	99.249309 
3113.000000	99.249145 
3112.000000	99.249017 
3111.000000	99.248833 
3110.000000	99.248574 
3109.000000	99.248371 
3108.000000	99.248327 
3107.000000	99.248368 
3106.000000	99.248339 
3105.000000	99.248242 
3104.000000	99.248256 
3103.000000	99.248507 
3102.000000	99.248947 
3101.000000	99.249447 
3100.000000	99.249873 
3099.000000	99.250093 
3098.000000	99.250013 
3097.000000	99.249670 
3096.000000	99.249257 
3095.000000	99.249016 
3094.000000	99.249097 
3093.000000	99.249510 
3092.000000	99.250109 
3091.000000	99.250535 
3090.000000	99.250314 
3089.000000	99.249383 
3088.000000	99.248590 
3087.000000	99.249132 
3086.000000	99.251217 
3085.000000	99.253616 
3084.000000	99.254939 
3083.000000	99.255025 
3082.000000	99.254796 
3081.000000	99.254983 
3080.000000	99.255355 
3079.000000	99.255169 
3078.000000	99.253985 
3077.000000	99.251914 
3076.000000	99.249432 
3075.000000	99.247239 
3074.000000	99.246100 
3073.000000	99.246430 
3072.000000	99.247974 
3071.000000	99.250095 
3070.000000	99.252282 
3069.000000	99.253932 
3068.000000	99.253706 
3067.000000	99.250108 
3066.000000	99.243560 
3065.000000	99.237333 
3064.000000	99.235074 
3063.000000	99.237177 
3062.000000	99.240522 
3061.000000	99.241963 
3060.000000	99.241275 
3059.000000	99.240405 
3058.000000	99.240920 
3057.000000	99.242903 
3056.000000	99.245554 
3055.000000	99.247891 
3054.000000	99.249146 
3053.000000	99.249234 
3052.000000	99.248761 
3051.000000	99.248127 
3050.000000	99.246814 
3049.000000	99.243878 
3048.000000	99.238825 
3047.000000	99.231807 
3046.000000	99.223642 
3045.000000	99.216113 
3044.000000	99.211416 
3043.000000	99.210281 
3042.000000	99.210843 
3041.000000	99.210117 
3040.000000	99.206612 
3039.000000	99.201191 
3038.000000	99.195840 
3037.000000	99.192153 
3036.000000	99.190478 
3035.000000	99.189585 
3034.000000	99.187230 
3033.000000	99.181667 
3032.000000	99.172727 
3031.000000	99.161508 
3030.000000	99.149107 
3029.000000	99.135881 
3028.000000	99.122051 
3027.000000	99.108347 
3026.000000	99.095667 
3025.000000	99.084333 
3024.000000	99.073877 
3023.000000	99.063425 
3022.000000	99.052301 
3021.000000	99.040417 
3020.000000	99.028134 
3019.000000	99.015707 
3018.000000	99.003071 
3017.000000	98.990242 
3016.000000	98.977560 
3015.000000	98.965160 
3014.000000	98.952434 
3013.000000	98.938248 
3012.000000	98.921546 
3011.000000	98.901677 
3010.000000	98.878823 
3009.000000	98.854652 
3008.000000	98.832100 
3007.000000	98.813588 
3006.000000	98.799123 
3005.000000	98.786349 
3004.000000	98.772346 
3003.000000	98.755379 
3002.000000	98.735632 
3001.000000	98.715245 
3000.000000	98.697362 
2999.000000	98.683912 
2998.000000	98.673993 
2997.000000	98.665239 
2996.000000	98.656791 
2995.000000	98.649364 
2994.000000	98.641408 
2993.000000	98.627024 
2992.000000	98.600604 
2991.000000	98.564286 
2990.000000	98.529001 
2989.000000	98.506269 
2988.000000	98.499511 
2987.000000	98.503670 
2986.000000	98.511563 
2985.000000	98.519415 
2984.000000	98.526609 
2983.000000	98.532642 
2982.000000	98.536173 
2981.000000	98.536383 
2980.000000	98.533944 
2979.000000	98.530479 
2978.000000	98.527569 
2977.000000	98.525997 
2976.000000	98.525293 
2975.000000	98.524061 
2974.000000	98.521346 
2973.000000	98.517756 
2972.000000	98.514958 
2971.000000	98.514297 
2970.000000	98.516375 
2969.000000	98.521695 
2968.000000	98.530760 
2967.000000	98.543228 
2966.000000	98.557518 
2965.000000	98.571694 
2964.000000	98.584664 
2963.000000	98.596480 
2962.000000	98.607735 
2961.000000	98.618694 
2960.000000	98.628789 
2959.000000	98.637076 
2958.000000	98.643557 
2957.000000	98.649806 
2956.000000	98.657528 
2955.000000	98.666385 
2954.000000	98.674201 
2953.000000	98.680032 
2952.000000	98.686398 
2951.000000	98.697223 
2950.000000	98.713159 
2949.000000	98.729719 
2948.000000	98.740981 
2947.000000	98.744921 
2946.000000	98.744641 
2945.000000	98.744734 
2944.000000	98.746953 
2943.000000	98.749962 
2942.000000	98.752381 
2941.000000	98.754301 
2940.000000	98.755761 
2939.000000	98.755579 
2938.000000	98.752908 
2937.000000	98.749237 
2936.000000	98.747712 
2935.000000	98.750426 
2934.000000	98.756823 
2933.000000	98.764379 
2932.000000	98.770131 
2931.000000	98.771889 
2930.000000	98.769063 
2929.000000	98.762923 
2928.000000	98.755820 
2927.000000	98.749937 
2926.000000	98.746616 
2925.000000	98.746115 
2924.000000	98.747362 
2923.000000	98.748385 
2922.000000	98.747848 
2921.000000	98.746111 
2920.000000	98.744216 
2919.000000	98.742181 
2918.000000	98.739080 
2917.000000	98.734530 
2916.000000	98.729113 
2915.000000	98.723474 
2914.000000	98.718055 
2913.000000	98.713808 
2912.000000	98.711885 
2911.000000	98.711990 
2910.000000	98.711913 
2909.000000	98.709498 
2908.000000	98.704687 
2907.000000	98.698939 
2906.000000	98.692942 
2905.000000	98.685526 
2904.000000	98.675101 
2903.000000	98.662294 
2902.000000	98.651328 
2901.000000	98.648148 
2900.000000	98.656263 
2899.000000	98.673696 
2898.000000	98.693598 
2897.000000	98.708867 
2896.000000	98.716732 
2895.000000	98.719457 
2894.000000	98.721452 
2893.000000	98.725699 
2892.000000	98.732034 
2891.000000	98.738048 
2890.000000	98.741662 
2889.000000	98.743013 
2888.000000	98.743898 
2887.000000	98.745835 
2886.000000	98.749297 
2885.000000	98.754534 
2884.000000	98.762039 
2883.000000	98.771776 
2882.000000	98.782727 
2881.000000	98.793829 
2880.000000	98.804902 
2879.000000	98.816278 
2878.000000	98.828023 
2877.000000	98.839933 
2876.000000	98.851705 
2875.000000	98.862493 
2874.000000	98.870840 
2873.000000	98.875967 
2872.000000	98.879083 
2871.000000	98.882786 
2870.000000	98.889051 
2869.000000	98.898088 
2868.000000	98.909008 
2867.000000	98.921052 
2866.000000	98.934096 
2865.000000	98.948266 
2864.000000	98.963175 
2863.000000	98.977407 
2862.000000	98.989020 
2861.000000	98.997066 
2860.000000	99.002831 
2859.000000	99.009288 
2858.000000	99.018887 
2857.000000	99.031621 
2856.000000	99.045114 
2855.000000	99.056669 
2854.000000	99.065301 
2853.000000	99.072048 
2852.000000	99.078443 
2851.000000	99.084969 
2850.000000	99.091280 
2849.000000	99.097382 
2848.000000	99.103831 
2847.000000	99.110860 
2846.000000	99.117910 
2845.000000	99.124216 
2844.000000	99.129460 
2843.000000	99.133906 
2842.000000	99.138350 
2841.000000	99.143774 
2840.000000	99.150294 
2839.000000	99.156323 
2838.000000	99.159592 
2837.000000	99.159451 
2836.000000	99.157728 
2835.000000	99.157138 
2834.000000	99.159210 
2833.000000	99.163866 
2832.000000	99.170121 
2831.000000	99.176583 
2830.000000	99.181929 
2829.000000	99.185706 
2828.000000	99.188535 
2827.000000	99.191109 
2826.000000	99.193196 
2825.000000	99.194063 
2824.000000	99.193670 
2823.000000	99.193085 
2822.000000	99.193764 
2821.000000	99.196521 
2820.000000	99.200913 
2819.000000	99.205464 
2818.000000	99.208843 
2817.000000	99.210974 
2816.000000	99.212646 
2815.000000	99.214114 
2814.000000	99.214849 
2813.000000	99.214836 
2812.000000	99.215115 
2811.000000	99.216312 
2810.000000	99.217384 
2809.000000	99.216888 
2808.000000	99.215154 
2807.000000	99.214229 
2806.000000	99.215601 
2805.000000	99.218701 
2804.000000	99.221784 
2803.000000	99.223706 
2802.000000	99.224601 
2801.000000	99.225193 
2800.000000	99.225832 
2799.000000	99.226198 
2798.000000	99.225888 
2797.000000	99.225143 
2796.000000	99.224754 
2795.000000	99.225213 
2794.000000	99.226193 
2793.000000	99.227037 
2792.000000	99.227518 
2791.000000	99.227920 
2790.000000	99.228614 
2789.000000	99.229796 
2788.000000	99.231418 
2787.000000	99.233104 
2786.000000	99.234321 
2785.000000	99.234961 
2784.000000	99.235578 
2783.000000	99.236734 
2782.000000	99.238220 
2781.000000	99.239276 
2780.000000	99.239562 
2779.000000	99.239530 
2778.000000	99.239789 
2777.000000	99.240441 
2776.000000	99.241201 
2775.000000	99.241790 
2774.000000	99.241963 
2773.000000	99.241473 
2772.000000	99.240387 
2771.000000	99.239336 
2770.000000	99.239101 
2769.000000	99.239954 
2768.000000	99.241594 
2767.000000	99.243620 
2766.000000	99.245773 
2765.000000	99.247746 
2764.000000	99.249117 
2763.000000	99.249704 
2762.000000	99.249821 
2761.000000	99.249998 
2760.000000	99.250594 
2759.000000	99.251740 
2758.000000	99.253370 
2757.000000	99.255135 
2756.000000	99.256507 
2755.000000	99.257245 
2754.000000	99.257551 
2753.000000	99.257561 
2752.000000	99.256989 
2751.000000	99.255662 
2750.000000	99.254197 
2749.000000	99.253554 
2748.000000	99.253816 
2747.000000	99.254001 
2746.000000	99.253295 
2745.000000	99.252096 
2744.000000	99.251491 
2743.000000	99.251991 
2742.000000	99.253244 
2741.000000	99.254722 
2740.000000	99.256243 
2739.000000	99.257774 
2738.000000	99.259126 
2737.000000	99.260046 
2736.000000	99.260485 
2735.000000	99.260626 
2734.000000	99.260688 
2733.000000	99.260759 
2732.000000	99.260798 
2731.000000	99.260829 
2730.000000	99.261085 
2729.000000	99.261812 
2728.000000	99.262992 
2727.000000	99.264313 
2726.000000	99.265410 
2725.000000	99.266086 
2724.000000	99.266320 
2723.000000	99.266263 
2722.000000	99.266225 
2721.000000	99.266469 
2720.000000	99.266981 
2719.000000	99.267531 
2718.000000	99.267943 
2717.000000	99.268223 
2716.000000	99.268457 
2715.000000	99.268713 
2714.000000	99.269032 
2713.000000	99.269422 
2712.000000	99.269837 
2711.000000	99.270210 
2710.000000	99.270519 
2709.000000	99.270794 
2708.000000	99.271075 
2707.000000	99.271358 
2706.000000	99.271615 
2705.000000	99.271837 
2704.000000	99.272044 
2703.000000	99.272252 
2702.000000	99.272463 
2701.000000	99.272668 
2700.000000	99.272861 
2699.000000	99.273032 
2698.000000	99.273180 
2697.000000	99.273306 
2696.000000	99.273417 
2695.000000	99.273524 
2694.000000	99.273629 
2693.000000	99.273728 
2692.000000	99.273809 
2691.000000	99.273859 
2690.000000	99.273874 
2689.000000	99.273871 
2688.000000	99.273882 
2687.000000	99.273924 
2686.000000	99.273989 
2685.000000	99.274035 
2684.000000	99.274027 
2683.000000	99.273959 
2682.000000	99.273862 
2681.000000	99.273781 
2680.000000	99.273743 
2679.000000	99.273742 
2678.000000	99.273741 
2677.000000	99.273730 
2676.000000	99.273740 
2675.000000	99.273786 
2674.000000	99.273817 
2673.000000	99.273759 
2672.000000	99.273598 
2671.000000	99.273363 
2670.000000	99.273067 
2669.000000	99.272700 
2668.000000	99.272281 
2667.000000	99.271892 
2666.000000	99.271644 
2665.000000	99.271620 
2664.000000	99.271814 
2663.000000	99.272135 
2662.000000	99.272441 
2661.000000	99.272617 
2660.000000	99.272595 
2659.000000	99.272343 
2658.000000	99.271893 
2657.000000	99.271374 
2656.000000	99.270977 
2655.000000	99.270824 
2654.000000	99.270891 
2653.000000	99.271034 
2652.000000	99.271079 
2651.000000	99.270945 
2650.000000	99.270690 
2649.000000	99.270486 
2648.000000	99.270460 
2647.000000	99.270553 
2646.000000	99.270574 
2645.000000	99.270440 
2644.000000	99.270274 
2643.000000	99.270213 
2642.000000	99.270225 
2641.000000	99.270195 
2640.000000	99.270138 
2639.000000	99.270193 
2638.000000	99.270441 
2637.000000	99.270821 
2636.000000	99.271191 
2635.000000	99.271418 
2634.000000	99.271455 
2633.000000	99.271388 
2632.000000	99.271390 
2631.000000	99.271544 
2630.000000	99.271776 
2629.000000	99.271962 
2628.000000	99.272072 
2627.000000	99.272154 
2626.000000	99.272248 
2625.000000	99.272366 
2624.000000	99.272521 
2623.000000	99.272698 
2622.000000	99.272816 
2621.000000	99.272815 
2620.000000	99.272749 
2619.000000	99.272725 
2618.000000	99.272742 
2617.000000	99.272694 
2616.000000	99.272524 
2615.000000	99.272301 
2614.000000	99.272130 
2613.000000	99.272052 
2612.000000	99.272044 
2611.000000	99.272096 
2610.000000	99.272207 
2609.000000	99.272347 
2608.000000	99.272445 
2607.000000	99.272450 
2606.000000	99.272370 
2605.000000	99.272272 
2604.000000	99.272199 
2603.000000	99.272094 
2602.000000	99.271849 
2601.000000	99.271456 
2600.000000	99.271056 
2599.000000	99.270816 
2598.000000	99.270772 
2597.000000	99.270824 
2596.000000	99.270834 
2595.000000	99.270720 
2594.000000	99.270458 
2593.000000	99.270050 
2592.000000	99.269555 
2591.000000	99.269083 
2590.000000	99.268709 
2589.000000	99.268432 
2588.000000	99.268216 
2587.000000	99.268020 
2586.000000	99.267793 
2585.000000	99.267485 
2584.000000	99.267092 
2583.000000	99.266678 
2582.000000	99.266334 
2581.000000	99.266094 
2580.000000	99.265916 
2579.000000	99.265734 
2578.000000	99.265517 
2577.000000	99.265275 
2576.000000	99.265033 
2575.000000	99.264816 
2574.000000	99.264647 
2573.000000	99.264533 
2572.000000	99.264445 
2571.000000	99.264324 
2570.000000	99.264120 
2569.000000	99.263832 
2568.000000	99.263537 
2567.000000	99.263349 
2566.000000	99.263313 
2565.000000	99.263368 
2564.000000	99.263402 
2563.000000	99.263364 
2562.000000	99.263279 
2561.000000	99.263208 
2560.000000	99.263223 
2559.000000	99.263416 
2558.000000	99.263850 
2557.000000	99.264406 
2556.000000	99.264756 
2555.000000	99.264677 
2554.000000	99.264378 
2553.000000	99.264362 
2552.000000	99.264856 
2551.000000	99.265567 
2550.000000	99.266121 
2549.000000	99.266586 
2548.000000	99.267195 
2547.000000	99.267678 
2546.000000	99.267453 
2545.000000	99.266493 
2544.000000	99.265568 
2543.000000	99.265440 
2542.000000	99.266100 
2541.000000	99.266975 
2540.000000	99.267549 
2539.000000	99.267560 
2538.000000	99.266840 
2537.000000	99.265426 
2536.000000	99.263787 
2535.000000	99.262625 
2534.000000	99.262383 
2533.000000	99.263115 
2532.000000	99.264658 
2531.000000	99.266672 
2530.000000	99.268661 
2529.000000	99.270183 
2528.000000	99.271054 
2527.000000	99.271312 
2526.000000	99.271178 
2525.000000	99.271138 
2524.000000	99.271809 
2523.000000	99.273392 
2522.000000	99.275296 
2521.000000	99.276538 
2520.000000	99.276516 
2519.000000	99.275308 
2518.000000	99.273466 
2517.000000	99.271710 
2516.000000	99.270579 
2515.000000	99.270121 
2514.000000	99.269979 
2513.000000	99.269814 
2512.000000	99.269502 
2511.000000	99.268911 
2510.000000	99.267944 
2509.000000	99.267034 
2508.000000	99.267124 
2507.000000	99.268707 
2506.000000	99.271044 
2505.000000	99.272683 
2504.000000	99.272822 
2503.000000	99.271804 
2502.000000	99.270505 
2501.000000	99.269605 
2500.000000	99.269432 
2499.000000	99.270108 
2498.000000	99.271546 
2497.000000	99.273415 
2496.000000	99.275184 
2495.000000	99.276192 
2494.000000	99.275813 
2493.000000	99.273815 
2492.000000	99.270650 
2491.000000	99.267302 
2490.000000	99.264695 
2489.000000	99.263266 
2488.000000	99.262984 
2487.000000	99.263489 
2486.000000	99.264217 
2485.000000	99.264706 
2484.000000	99.264906 
2483.000000	99.265096 
2482.000000	99.265465 
2481.000000	99.265891 
2480.000000	99.266144 
2479.000000	99.266143 
2478.000000	99.265911 
2477.000000	99.265417 
2476.000000	99.264669 
2475.000000	99.263891 
2474.000000	99.263419 
2473.000000	99.263365 
2472.000000	99.263544 
2471.000000	99.263829 
2470.000000	99.264389 
2469.000000	99.265314 
2468.000000	99.266111 
2467.000000	99.265950 
2466.000000	99.264540 
2465.000000	99.262567 
2464.000000	99.261057 
2463.000000	99.260386 
2462.000000	99.260182 
2461.000000	99.259894 
2460.000000	99.259258 
2459.000000	99.258383 
2458.000000	99.257670 
2457.000000	99.257564 
2456.000000	99.258119 
2455.000000	99.258812 
2454.000000	99.258974 
2453.000000	99.258365 
2452.000000	99.257210 
2451.000000	99.255889 
2450.000000	99.254750 
2449.000000	99.254060 
2448.000000	99.253860 
2447.000000	99.253900 
2446.000000	99.253954 
2445.000000	99.254159 
2444.000000	99.254783 
2443.000000	99.255726 
2442.000000	99.256530 
2441.000000	99.256907 
2440.000000	99.256952 
2439.000000	99.256837 
2438.000000	99.256604 
2437.000000	99.256350 
2436.000000	99.256245 
2435.000000	99.256180 
2434.000000	99.255685 
2433.000000	99.254459 
2432.000000	99.252826 
2431.000000	99.251513 
2430.000000	99.250974 
2429.000000	99.251143 
2428.000000	99.251730 
2427.000000	99.252551 
2426.000000	99.253525 
2425.000000	99.254449 
2424.000000	99.254923 
2423.000000	99.254612 
2422.000000	99.253612 
2421.000000	99.252588 
2420.000000	99.252308 
2419.000000	99.252974 
2418.000000	99.254162 
2417.000000	99.255260 
2416.000000	99.255951 
2415.000000	99.256177 
2414.000000	99.255955 
2413.000000	99.255462 
2412.000000	99.255064 
2411.000000	99.255040 
2410.000000	99.255353 
2409.000000	99.255862 
2408.000000	99.256645 
2407.000000	99.257871 
2406.000000	99.259417 
2405.000000	99.260882 
2404.000000	99.261982 
2403.000000	99.262674 
2402.000000	99.263009 
2401.000000	99.263038 
2400.000000	99.262852 
2399.000000	99.262570 
2398.000000	99.262299 
2397.000000	99.262198 
2396.000000	99.262495 
2395.000000	99.263317 
2394.000000	99.264537 
2393.000000	99.265881 
2392.000000	99.267150 
2391.000000	99.268312 
2390.000000	99.269449 
2389.000000	99.270684 
2388.000000	99.272043 
2387.000000	99.273340 
2386.000000	99.274320 
2385.000000	99.274958 
2384.000000	99.275506 
2383.000000	99.276215 
2382.000000	99.277118 
2381.000000	99.278120 
2380.000000	99.279099 
2379.000000	99.279848 
2378.000000	99.280142 
2377.000000	99.280060 
2376.000000	99.280112 
2375.000000	99.280762 
2374.000000	99.281964 
2373.000000	99.283302 
2372.000000	99.284502 
2371.000000	99.285642 
2370.000000	99.286815 
2369.000000	99.287802 
2368.000000	99.288246 
2367.000000	99.288030 
2366.000000	99.287404 
2365.000000	99.286872 
2364.000000	99.286870 
2363.000000	99.287413 
2362.000000	99.288158 
2361.000000	99.288727 
2360.000000	99.289017 
2359.000000	99.289148 
2358.000000	99.289278 
2357.000000	99.289475 
2356.000000	99.289754 
2355.000000	99.290048 
2354.000000	99.290218 
2353.000000	99.290212 
2352.000000	99.290121 
2351.000000	99.290080 
2350.000000	99.290105 
2349.000000	99.290129 
2348.000000	99.290121 
2347.000000	99.290131 
2346.000000	99.290180 
2345.000000	99.290034 
2344.000000	99.289531 
2343.000000	99.288887 
2342.000000	99.288508 
2341.000000	99.288596 
2340.000000	99.288890 
2339.000000	99.289037 
2338.000000	99.288859 
2337.000000	99.288468 
2336.000000	99.288085 
2335.000000	99.287844 
2334.000000	99.287714 
2333.000000	99.287665 
2332.000000	99.287644 
2331.000000	99.287447 
2330.000000	99.286584 
2329.000000	99.284925 
2328.000000	99.283143 
2327.000000	99.281980 
2326.000000	99.281564 
2325.000000	99.281120 
2324.000000	99.280171 
2323.000000	99.279111 
2322.000000	99.278957 
2321.000000	99.280259 
2320.000000	99.282242 
2319.000000	99.283440 
2318.000000	99.282857 
2317.000000	99.280804 
2316.000000	99.278250 
2315.000000	99.275907 
2314.000000	99.273981 
2313.000000	99.272797 
2312.000000	99.272961 
2311.000000	99.274663 
2310.000000	99.277212 
2309.000000	99.279359 
2308.000000	99.280040 
2307.000000	99.278513 
2306.000000	99.274794 
2305.000000	99.269798 
2304.000000	99.264921 
2303.000000	99.261072 
2302.000000	99.258397 
2301.000000	99.256723 
2300.000000	99.255832 
2299.000000	99.255205 
2298.000000	99.254196 
2297.000000	99.252746 
2296.000000	99.251523 
2295.000000	99.250924 
2294.000000	99.250368 
2293.000000	99.248884 
2292.000000	99.246339 
2291.000000	99.243566 
2290.000000	99.241487 
2289.000000	99.240343 
2288.000000	99.239764 
2287.000000	99.239195 
2286.000000	99.238244 
2285.000000	99.236811 
2284.000000	99.235032 
2283.000000	99.233094 
2282.000000	99.231089 
2281.000000	99.229040 
2280.000000	99.227024 
2279.000000	99.225247 
2278.000000	99.223995 
2277.000000	99.223423 
2276.000000	99.223337 
2275.000000	99.223235 
2274.000000	99.222689 
2273.000000	99.221621 
2272.000000	99.220121 
2271.000000	99.218149 
2270.000000	99.215692 
2269.000000	99.213287 
2268.000000	99.211868 
2267.000000	99.211857 
2266.000000	99.212660 
2265.000000	99.213102 
2264.000000	99.212480 
2263.000000	99.210840 
2262.000000	99.208729 
2261.000000	99.206945 
2260.000000	99.206151 
2259.000000	99.206177 
2258.000000	99.205884 
2257.000000	99.204418 
2256.000000	99.202301 
2255.000000	99.200589 
2254.000000	99.199143 
2253.000000	99.196903 
2252.000000	99.193875 
2251.000000	99.191665 
2250.000000	99.191638 
2249.000000	99.193534 
2248.000000	99.195978 
2247.000000	99.197580 
2246.000000	99.197407 
2245.000000	99.195208 
2244.000000	99.191733 
2243.000000	99.188311 
2242.000000	99.185739 
2241.000000	99.183920 
2240.000000	99.182392 
2239.000000	99.180595 
2238.000000	99.177927 
2237.000000	99.174423 
2236.000000	99.171114 
2235.000000	99.168763 
2234.000000	99.166593 
2233.000000	99.163500 
2232.000000	99.160365 
2231.000000	99.159536 
2230.000000	99.162045 
2229.000000	99.166644 
2228.000000	99.171483 
2227.000000	99.175559 
2226.000000	99.178251 
2225.000000	99.178846 
2224.000000	99.177209 
2223.000000	99.174218 
2222.000000	99.171276 
2221.000000	99.169704 
2220.000000	99.170152 
2219.000000	99.171977 
2218.000000	99.173525 
2217.000000	99.173844 
2216.000000	99.173791 
2215.000000	99.174609 
2214.000000	99.175853 
2213.000000	99.175702 
2212.000000	99.173203 
2211.000000	99.169467 
2210.000000	99.166865 
2209.000000	99.167328 
2208.000000	99.170957 
2207.000000	99.175447 
2206.000000	99.177571 
2205.000000	99.176065 
2204.000000	99.172383 
2203.000000	99.168435 
2202.000000	99.164408 
2201.000000	99.159918 
2200.000000	99.155904 
2199.000000	99.153533 
2198.000000	99.152154 
2197.000000	99.150387 
2196.000000	99.148841 
2195.000000	99.149577 
2194.000000	99.152982 
2193.000000	99.156985 
2192.000000	99.159351 
2191.000000	99.159252 
2190.000000	99.156607 
2189.000000	99.151894 
2188.000000	99.147042 
2187.000000	99.144611 
2186.000000	99.145323 
2185.000000	99.147805 
2184.000000	99.150765 
2183.000000	99.154007 
2182.000000	99.156879 
2181.000000	99.157880 
2180.000000	99.156873 
2179.000000	99.155762 
2178.000000	99.155776 
2177.000000	99.155554 
2176.000000	99.153063 
2175.000000	99.148083 
2174.000000	99.141933 
2173.000000	99.136031 
2172.000000	99.131561 
2171.000000	99.129497 
2170.000000	99.129995 
2169.000000	99.132283 
2168.000000	99.135565 
2167.000000	99.139387 
2166.000000	99.142819 
2165.000000	99.144549 
2164.000000	99.144337 
2163.000000	99.143295 
2162.000000	99.142519 
2161.000000	99.142340 
2160.000000	99.143037 
2159.000000	99.145005 
2158.000000	99.147824 
2157.000000	99.150339 
2156.000000	99.152031 
2155.000000	99.153272 
2154.000000	99.154179 
2153.000000	99.154279 
2152.000000	99.153404 
2151.000000	99.152261 
2150.000000	99.151966 
2149.000000	99.153316 
2148.000000	99.156394 
2147.000000	99.160351 
2146.000000	99.163557 
2145.000000	99.164914 
2144.000000	99.164791 
2143.000000	99.164602 
2142.000000	99.165350 
2141.000000	99.166864 
2140.000000	99.168450 
2139.000000	99.169689 
2138.000000	99.170518 
2137.000000	99.170997 
2136.000000	99.171310 
2135.000000	99.171766 
2134.000000	99.172573 
2133.000000	99.173686 
2132.000000	99.174899 
2131.000000	99.175944 
2130.000000	99.176552 
2129.000000	99.176645 
2128.000000	99.176467 
2127.000000	99.176427 
2126.000000	99.176712 
2125.000000	99.177149 
2124.000000	99.177481 
2123.000000	99.177770 
2122.000000	99.178296 
2121.000000	99.179015 
2120.000000	99.179462 
2119.000000	99.179311 
2118.000000	99.178741 
2117.000000	99.178166 
2116.000000	99.177778 
2115.000000	99.177529 
2114.000000	99.177426 
2113.000000	99.177594 
2112.000000	99.177976 
2111.000000	99.178134 
2110.000000	99.177550 
2109.000000	99.176242 
2108.000000	99.174936 
2107.000000	99.174348 
2106.000000	99.174257 
2105.000000	99.173516 
2104.000000	99.171180 
2103.000000	99.167539 
2102.000000	99.164163 
2101.000000	99.162596 
2100.000000	99.163165 
2099.000000	99.164901 
2098.000000	99.166371 
2097.000000	99.167009 
2096.000000	99.167233 
2095.000000	99.167212 
2094.000000	99.166001 
2093.000000	99.162592 
2092.000000	99.157723 
2091.000000	99.153855 
2090.000000	99.152725 
2089.000000	99.153682 
2088.000000	99.154638 
2087.000000	99.154504 
2086.000000	99.154027 
2085.000000	99.154391 
2084.000000	99.155707 
2083.000000	99.156880 
2082.000000	99.156725 
2081.000000	99.155208 
2080.000000	99.153556 
2079.000000	99.152933 
2078.000000	99.153239 
2077.000000	99.153757 
2076.000000	99.154779 
2075.000000	99.157485 
2074.000000	99.161817 
2073.000000	99.165577 
2072.000000	99.166503 
2071.000000	99.164470 
2070.000000	99.160960 
2069.000000	99.157072 
2068.000000	99.152930 
2067.000000	99.148670 
2066.000000	99.145011 
2065.000000	99.142748 
2064.000000	99.142150 
2063.000000	99.142796 
2062.000000	99.143928 
2061.000000	99.145101 
2060.000000	99.146636 
2059.000000	99.148864 
2058.000000	99.150818 
2057.000000	99.150721 
2056.000000	99.147864 
2055.000000	99.143273 
2054.000000	99.138631 
2053.000000	99.134836 
2052.000000	99.131826 
2051.000000	99.129288 
2050.000000	99.127118 
2049.000000	99.125344 
2048.000000	99.123689 
2047.000000	99.121311 
2046.000000	99.117448 
2045.000000	99.112612 
2044.000000	99.108607 
2043.000000	99.106704 
2042.000000	99.106214 
2041.000000	99.105503 
2040.000000	99.104130 
2039.000000	99.103040 
2038.000000	99.102758 
2037.000000	99.102500 
2036.000000	99.101280 
2035.000000	99.099089 
2034.000000	99.096686 
2033.000000	99.094810 
2032.000000	99.093777 
2031.000000	99.093354 
2030.000000	99.092808 
2029.000000	99.091490 
2028.000000	99.089494 
2027.000000	99.087549 
2026.000000	99.086349 
2025.000000	99.086183 
2024.000000	99.086894 
2023.000000	99.087743 
2022.000000	99.087577 
2021.000000	99.085875 
2020.000000	99.083646 
2019.000000	99.082691 
2018.000000	99.083667 
2017.000000	99.085504 
2016.000000	99.086496 
2015.000000	99.086073 
2014.000000	99.084998 
2013.000000	99.084412 
2012.000000	99.084891 
2011.000000	99.086270 
2010.000000	99.088036 
2009.000000	99.089775 
2008.000000	99.091163 
2007.000000	99.091854 
2006.000000	99.091691 
2005.000000	99.091113 
2004.000000	99.091003 
2003.000000	99.091786 
2002.000000	99.092946 
2001.000000	99.093646 
2000.000000	99.093690 
1999.000000	99.093493 
1998.000000	99.093354 
1997.000000	99.093276 
1996.000000	99.093433 
1995.000000	99.094234 
1994.000000	99.095757 
1993.000000	99.097360 
1992.000000	99.098178 
1991.000000	99.097972 
1990.000000	99.097182 
1989.000000	99.096434 
1988.000000	99.096125 
1987.000000	99.096320 
1986.000000	99.096778 
1985.000000	99.097170 
1984.000000	99.097439 
1983.000000	99.097822 
1982.000000	99.098416 
1981.000000	99.098847 
1980.000000	99.098604 
1979.000000	99.097626 
1978.000000	99.096475 
1977.000000	99.095786 
1976.000000	99.095627 
1975.000000	99.095587 
1974.000000	99.095448 
1973.000000	99.095643 
1972.000000	99.096681 
1971.000000	99.098412 
1970.000000	99.100045 
1969.000000	99.100837 
1968.000000	99.100734 
1967.000000	99.100351 
1966.000000	99.100464 
1965.000000	99.101280 
1964.000000	99.102400 
1963.000000	99.103290 
1962.000000	99.103750 
1961.000000	99.103972 
1960.000000	99.104359 
1959.000000	99.105239 
1958.000000	99.106649 
1957.000000	99.108284 
1956.000000	99.109687 
1955.000000	99.110588 
1954.000000	99.111073 
1953.000000	99.111391 
1952.000000	99.111607 
1951.000000	99.111597 
1950.000000	99.111444 
1949.000000	99.111648 
1948.000000	99.112748 
1947.000000	99.114585 
1946.000000	99.116095 
1945.000000	99.116117 
1944.000000	99.114473 
1943.000000	99.112343 
1942.000000	99.111440 
1941.000000	99.112613 
1940.000000	99.115240 
1939.000000	99.117855 
1938.000000	99.119600 
1937.000000	99.121079 
1936.000000	99.123466 
1935.000000	99.126762 
1934.000000	99.129611 
1933.000000	99.131265 
1932.000000	99.132882 
1931.000000	99.136060 
1930.000000	99.140358 
1929.000000	99.143517 
1928.000000	99.144619 
1927.000000	99.145174 
1926.000000	99.146732 
1925.000000	99.148619 
1924.000000	99.149161 
1923.000000	99.148246 
1922.000000	99.147381 
1921.000000	99.147521 
1920.000000	99.147991 
1919.000000	99.147467 
1918.000000	99.145286 
1917.000000	99.142404 
1916.000000	99.140946 
1915.000000	99.141984 
1914.000000	99.144588 
1913.000000	99.147119 
1912.000000	99.148919 
1911.000000	99.150431 
1910.000000	99.151643 
1909.000000	99.151931 
1908.000000	99.151756 
1907.000000	99.152593 
1906.000000	99.154910 
1905.000000	99.157198 
1904.000000	99.157906 
1903.000000	99.157420 
1902.000000	99.157051 
1901.000000	99.157262 
1900.000000	99.157782 
1899.000000	99.158507 
1898.000000	99.159609 
1897.000000	99.161059 
1896.000000	99.162586 
1895.000000	99.163879 
1894.000000	99.164561 
1893.000000	99.164586 
1892.000000	99.164713 
1891.000000	99.165884 
1890.000000	99.167855 
1889.000000	99.169216 
1888.000000	99.169331 
1887.000000	99.169107 
1886.000000	99.169557 
1885.000000	99.170763 
1884.000000	99.172328 
1883.000000	99.174072 
1882.000000	99.175745 
1881.000000	99.176856 
1880.000000	99.177486 
1879.000000	99.178536 
1878.000000	99.180722 
1877.000000	99.183616 
1876.000000	99.186021 
1875.000000	99.187202 
1874.000000	99.187170 
1873.000000	99.186216 
1872.000000	99.184900 
1871.000000	99.184040 
1870.000000	99.184061 
1869.000000	99.184464 
1868.000000	99.184782 
1867.000000	99.185443 
1866.000000	99.186650 
1865.000000	99.187596 
1864.000000	99.187391 
1863.000000	99.186067 
1862.000000	99.184572 
1861.000000	99.183948 
1860.000000	99.184688 
1859.000000	99.186714 
1858.000000	99.189377 
1857.000000	99.191673 
1856.000000	99.193054 
1855.000000	99.193837 
1854.000000	99.194581 
1853.000000	99.195316 
1852.000000	99.195789 
1851.000000	99.195978 
1850.000000	99.196208 
1849.000000	99.196812 
1848.000000	99.197728 
1847.000000	99.198543 
1846.000000	99.198866 
1845.000000	99.198705 
1844.000000	99.198539 
1843.000000	99.198890 
1842.000000	99.199698 
1841.000000	99.200499 
1840.000000	99.201021 
1839.000000	99.201289 
1838.000000	99.201427 
1837.000000	99.201521 
1836.000000	99.201673 
1835.000000	99.201997 
1834.000000	99.202494 
1833.000000	99.203059 
1832.000000	99.203571 
1831.000000	99.203952 
1830.000000	99.204198 
1829.000000	99.204442 
1828.000000	99.204828 
1827.000000	99.205328 
1826.000000	99.205793 
1825.000000	99.206117 
1824.000000	99.206337 
1823.000000	99.206578 
1822.000000	99.206854 
1821.000000	99.207089 
1820.000000	99.207313 
1819.000000	99.207679 
1818.000000	99.208272 
1817.000000	99.208928 
1816.000000	99.209397 
1815.000000	99.209715 
1814.000000	99.210146 
1813.000000	99.210825 
1812.000000	99.211548 
1811.000000	99.212105 
1810.000000	99.212571 
1809.000000	99.212954 
1808.000000	99.213051 
1807.000000	99.212832 
1806.000000	99.212570 
1805.000000	99.212496 
1804.000000	99.212605 
1803.000000	99.212822 
1802.000000	99.212958 
1801.000000	99.212742 
1800.000000	99.212165 
1799.000000	99.211811 
1798.000000	99.212256 
1797.000000	99.213355 
1796.000000	99.214555 
1795.000000	99.215608 
1794.000000	99.216540 
1793.000000	99.217086 
1792.000000	99.216754 
1791.000000	99.216024 
1790.000000	99.215913 
1789.000000	99.216371 
1788.000000	99.216846 
1787.000000	99.217338 
1786.000000	99.218204 
1785.000000	99.219178 
1784.000000	99.219588 
1783.000000	99.219358 
1782.000000	99.218781 
1781.000000	99.218176 
1780.000000	99.217556 
1779.000000	99.216899 
1778.000000	99.216501 
1777.000000	99.216639 
1776.000000	99.217389 
1775.000000	99.218308 
1774.000000	99.218788 
1773.000000	99.218683 
1772.000000	99.218199 
1771.000000	99.217787 
1770.000000	99.217747 
1769.000000	99.217852 
1768.000000	99.217877 
1767.000000	99.217850 
1766.000000	99.217910 
1765.000000	99.218183 
1764.000000	99.218661 
1763.000000	99.219250 
1762.000000	99.219683 
1761.000000	99.219988 
1760.000000	99.220348 
1759.000000	99.220822 
1758.000000	99.221539 
1757.000000	99.222730 
1756.000000	99.224287 
1755.000000	99.225464 
1754.000000	99.225833 
1753.000000	99.225945 
1752.000000	99.226600 
1751.000000	99.227367 
1750.000000	99.227318 
1749.000000	99.226550 
1748.000000	99.225960 
1747.000000	99.226028 
1746.000000	99.226469 
1745.000000	99.226998 
1744.000000	99.227483 
1743.000000	99.227810 
1742.000000	99.227965 
1741.000000	99.228066 
1740.000000	99.228248 
1739.000000	99.228595 
1738.000000	99.229035 
1737.000000	99.229377 
1736.000000	99.229599 
1735.000000	99.229915 
1734.000000	99.230205 
1733.000000	99.230313 
1732.000000	99.230373 
1731.000000	99.230428 
1730.000000	99.230490 
1729.000000	99.230597 
1728.000000	99.230755 
1727.000000	99.230943 
1726.000000	99.231142 
1725.000000	99.231343 
1724.000000	99.231534 
1723.000000	99.231714 
1722.000000	99.231884 
1721.000000	99.232045 
1720.000000	99.232195 
1719.000000	99.232334 
1718.000000	99.232458 
1717.000000	99.232560 
1716.000000	99.232640 
1715.000000	99.232707 
1714.000000	99.232773 
1713.000000	99.232845 
1712.000000	99.232924 
1711.000000	99.233010 
1710.000000	99.233101 
1709.000000	99.233194 
1708.000000	99.233288 
1707.000000	99.233383 
1706.000000	99.233475 
1705.000000	99.233561 
1704.000000	99.233638 
1703.000000	99.233712 
1702.000000	99.233792 
1701.000000	99.233890 
1700.000000	99.234002 
1699.000000	99.234126 
1698.000000	99.234262 
1697.000000	99.234405 
1696.000000	99.234551 
1695.000000	99.234703 
1694.000000	99.234862 
1693.000000	99.235030 
1692.000000	99.235210 
1691.000000	99.235406 
1690.000000	99.235619 
1689.000000	99.235843 
1688.000000	99.236072 
1687.000000	99.236300 
1686.000000	99.236529 
1685.000000	99.236758 
1684.000000	99.236983 
1683.000000	99.237201 
1682.000000	99.237412 
1681.000000	99.237617 
1680.000000	99.237820 
1679.000000	99.238026 
1678.000000	99.238239 
1677.000000	99.238464 
1676.000000	99.238703 
1675.000000	99.238960 
1674.000000	99.239232 
1673.000000	99.239512 
1672.000000	99.239791 
1671.000000	99.240059 
1670.000000	99.240311 
1669.000000	99.240545 
1668.000000	99.240768 
1667.000000	99.240988 
1666.000000	99.241210 
1665.000000	99.241436 
1664.000000	99.241670 
1663.000000	99.241912 
1662.000000	99.242160 
1661.000000	99.242408 
1660.000000	99.242654 
1659.000000	99.242891 
1658.000000	99.243114 
1657.000000	99.243325 
1656.000000	99.243524 
1655.000000	99.243719 
1654.000000	99.243918 
1653.000000	99.244126 
1652.000000	99.244347 
1651.000000	99.244585 
1650.000000	99.244831 
1649.000000	99.245075 
1648.000000	99.245315 
1647.000000	99.245551 
1646.000000	99.245788 
1645.000000	99.246029 
1644.000000	99.246283 
1643.000000	99.246549 
1642.000000	99.246813 
1641.000000	99.247061 
1640.000000	99.247283 
1639.000000	99.247486 
1638.000000	99.247688 
1637.000000	99.247948 
1636.000000	99.248308 
1635.000000	99.248680 
1634.000000	99.248999 
1633.000000	99.249236 
1632.000000	99.249332 
1631.000000	99.249340 
1630.000000	99.249377 
1629.000000	99.249530 
1628.000000	99.249851 
1627.000000	99.250322 
1626.000000	99.250735 
1625.000000	99.250904 
1624.000000	99.250970 
1623.000000	99.251208 
1622.000000	99.251637 
1621.000000	99.252076 
1620.000000	99.252382 
1619.000000	99.252490 
1618.000000	99.252533 
1617.000000	99.252604 
1616.000000	99.253135 
1615.000000	99.254501 
1614.000000	99.256024 
1613.000000	99.256977 
1612.000000	99.257746 
1611.000000	99.258912 
1610.000000	99.260039 
1609.000000	99.260409 
1608.000000	99.260274 
1607.000000	99.260359 
1606.000000	99.260601 
1605.000000	99.260759 
1604.000000	99.261101 
1603.000000	99.261729 
1602.000000	99.262285 
1601.000000	99.262617 
1600.000000	99.263030 
1599.000000	99.263683 
1598.000000	99.264389 
1597.000000	99.265010 
1596.000000	99.265571 
1595.000000	99.266004 
1594.000000	99.266171 
1593.000000	99.266199 
1592.000000	99.266429 
1591.000000	99.266956 
1590.000000	99.267525 
1589.000000	99.267931 
1588.000000	99.268270 
1587.000000	99.268689 
1586.000000	99.269123 
1585.000000	99.269442 
1584.000000	99.269699 
1583.000000	99.269962 
1582.000000	99.270193 
1581.000000	99.270376 
1580.000000	99.270545 
1579.000000	99.270716 
1578.000000	99.270896 
1577.000000	99.271092 
1576.000000	99.271298 
1575.000000	99.271501 
1574.000000	99.271697 
1573.000000	99.271879 
1572.000000	99.272045 
1571.000000	99.272199 
1570.000000	99.272341 
1569.000000	99.272467 
1568.000000	99.272579 
1567.000000	99.272681 
1566.000000	99.272773 
1565.000000	99.272855 
1564.000000	99.272928 
1563.000000	99.273000 
1562.000000	99.273076 
1561.000000	99.273167 
1560.000000	99.273283 
1559.000000	99.273414 
1558.000000	99.273540 
1557.000000	99.273652 
1556.000000	99.273749 
1555.000000	99.273828 
1554.000000	99.273891 
1553.000000	99.273939 
1552.000000	99.273974 
1551.000000	99.273993 
1550.000000	99.273999 
1549.000000	99.273992 
1548.000000	99.273975 
1547.000000	99.273950 
1546.000000	99.273916 
1545.000000	99.273872 
1544.000000	99.273822 
1543.000000	99.273774 
1542.000000	99.273731 
1541.000000	99.273682 
1540.000000	99.273608 
1539.000000	99.273502 
1538.000000	99.273366 
1537.000000	99.273200 
1536.000000	99.273003 
1535.000000	99.272780 
1534.000000	99.272533 
1533.000000	99.272265 
1532.000000	99.271979 
1531.000000	99.271676 
1530.000000	99.271375 
1529.000000	99.271079 
1528.000000	99.270753 
1527.000000	99.270397 
1526.000000	99.270080 
1525.000000	99.269823 
1524.000000	99.269549 
1523.000000	99.269290 
1522.000000	99.269222 
1521.000000	99.269185 
1520.000000	99.268866 
1519.000000	99.268170 
1518.000000	99.267081 
1517.000000	99.265735 
1516.000000	99.264435 
1515.000000	99.263423 
1514.000000	99.262701 
1513.000000	99.262197 
1512.000000	99.261760 
1511.000000	99.261117 
1510.000000	99.260212 
1509.000000	99.259191 
1508.000000	99.258468 
1507.000000	99.257924 
1506.000000	99.257308 
1505.000000	99.256724 
1504.000000	99.256167 
1503.000000	99.255558 
1502.000000	99.254978 
1501.000000	99.254430 
1500.000000	99.253604 
1499.000000	99.252168 
1498.000000	99.250322 
1497.000000	99.248454 
1496.000000	99.246665 
1495.000000	99.245533 
1494.000000	99.245649 
1493.000000	99.246750 
1492.000000	99.248067 
1491.000000	99.248891 
1490.000000	99.248678 
1489.000000	99.247222 
1488.000000	99.244748 
1487.000000	99.242182 
1486.000000	99.240204 
1485.000000	99.238312 
1484.000000	99.236236 
1483.000000	99.234419 
1482.000000	99.233507 
1481.000000	99.233322 
1480.000000	99.232915 
1479.000000	99.231869 
1478.000000	99.230574 
1477.000000	99.229208 
1476.000000	99.227505 
1475.000000	99.226409 
1474.000000	99.227498 
1473.000000	99.230179 
1472.000000	99.231580 
1471.000000	99.231138 
1470.000000	99.230460 
1469.000000	99.229689 
1468.000000	99.228222 
1467.000000	99.226601 
1466.000000	99.225836 
1465.000000	99.225681 
1464.000000	99.225579 
1463.000000	99.225896 
1462.000000	99.227050 
1461.000000	99.227936 
1460.000000	99.227050 
1459.000000	99.223478 
1458.000000	99.217122 
1457.000000	99.206690 
1456.000000	99.194510 
1455.000000	99.185778 
1454.000000	99.181029 
1453.000000	99.179621 
1452.000000	99.181709 
1451.000000	99.186257 
1450.000000	99.191666 
1449.000000	99.196450 
1448.000000	99.198862 
1447.000000	99.199062 
1446.000000	99.198658 
1445.000000	99.199153 
1444.000000	99.200320 
1443.000000	99.200764 
1442.000000	99.200853 
1441.000000	99.201876 
1440.000000	99.203628 
1439.000000	99.204488 
1438.000000	99.205843 
1437.000000	99.208693 
1436.000000	99.209420 
1435.000000	99.205876 
1434.000000	99.200409 
1433.000000	99.195228 
1432.000000	99.191128 
1431.000000	99.187161 
1430.000000	99.182349 
1429.000000	99.177234 
1428.000000	99.171998 
1427.000000	99.166592 
1426.000000	99.161159 
1425.000000	99.157231 
1424.000000	99.155089 
1423.000000	99.151577 
1422.000000	99.144311 
1421.000000	99.134366 
1420.000000	99.124140 
1419.000000	99.113230 
1418.000000	99.101949 
1417.000000	99.091970 
1416.000000	99.081772 
1415.000000	99.069413 
1414.000000	99.055560 
1413.000000	99.042613 
1412.000000	99.032266 
1411.000000	99.023972 
1410.000000	99.016720 
1409.000000	99.010434 
1408.000000	99.005281 
1407.000000	99.001783 
1406.000000	99.000428 
1405.000000	99.001852 
1404.000000	99.006343 
1403.000000	99.012968 
1402.000000	99.020844 
1401.000000	99.029877 
1400.000000	99.039413 
1399.000000	99.046243 
1398.000000	99.046060 
1397.000000	99.036166 
1396.000000	99.017219 
1395.000000	98.996474 
1394.000000	98.986067 
1393.000000	98.992562 
1392.000000	99.011052 
1391.000000	99.030854 
1390.000000	99.044387 
1389.000000	99.050213 
1388.000000	99.050387 
1387.000000	99.047337 
1386.000000	99.043232 
1385.000000	99.040110 
1384.000000	99.039114 
1383.000000	99.039800 
1382.000000	99.041025 
1381.000000	99.042393 
1380.000000	99.044971 
1379.000000	99.050080 
1378.000000	99.057674 
1377.000000	99.066476 
1376.000000	99.075223 
1375.000000	99.083248 
1374.000000	99.090571 
1373.000000	99.098260 
1372.000000	99.107152 
1371.000000	99.116562 
1370.000000	99.124756 
1369.000000	99.130958 
1368.000000	99.136057 
1367.000000	99.141097 
1366.000000	99.146392 
1365.000000	99.152167 
1364.000000	99.158859 
1363.000000	99.166063 
1362.000000	99.172272 
1361.000000	99.176637 
1360.000000	99.180195 
1359.000000	99.184799 
1358.000000	99.191432 
1357.000000	99.199735 
1356.000000	99.208397 
1355.000000	99.215777 
1354.000000	99.221095 
1353.000000	99.225257 
1352.000000	99.229645 
1351.000000	99.234652 
1350.000000	99.239196 
1349.000000	99.242950 
1348.000000	99.246387 
1347.000000	99.248884 
1346.000000	99.249425 
1345.000000	99.248721 
1344.000000	99.248809 
1343.000000	99.250229 
1342.000000	99.251592 
1341.000000	99.252338 
1340.000000	99.253926 
1339.000000	99.257192 
1338.000000	99.260740 
1337.000000	99.263384 
1336.000000	99.265812 
1335.000000	99.268591 
1334.000000	99.270578 
1333.000000	99.270642 
1332.000000	99.269532 
1331.000000	99.268726 
1330.000000	99.268529 
1329.000000	99.268696 
1328.000000	99.269525 
1327.000000	99.270877 
1326.000000	99.271100 
1325.000000	99.269069 
1324.000000	99.266076 
1323.000000	99.264299 
1322.000000	99.264531 
1321.000000	99.266378 
1320.000000	99.269569 
1319.000000	99.273607 
1318.000000	99.276914 
1317.000000	99.277756 
1316.000000	99.275878 
1315.000000	99.272549 
1314.000000	99.269417 
1313.000000	99.267687 
1312.000000	99.267799 
1311.000000	99.269233 
1310.000000	99.270865 
1309.000000	99.271922 
1308.000000	99.272218 
1307.000000	99.271660 
1306.000000	99.270109 
1305.000000	99.268349 
1304.000000	99.267926 
1303.000000	99.269350 
1302.000000	99.271317 
1301.000000	99.272310 
1300.000000	99.272258 
1299.000000	99.272077 
1298.000000	99.272455 
1297.000000	99.273592 
1296.000000	99.275414 
1295.000000	99.277174 
1294.000000	99.277536 
1293.000000	99.275811 
1292.000000	99.272616 
1291.000000	99.269023 
1290.000000	99.265675 
1289.000000	99.262977 
1288.000000	99.261240 
1287.000000	99.260036 
1286.000000	99.258303 
1285.000000	99.255606 
1284.000000	99.252395 
1283.000000	99.248814 
1282.000000	99.244163 
1281.000000	99.238144 
1280.000000	99.231996 
1279.000000	99.227149 
1278.000000	99.223551 
1277.000000	99.220482 
1276.000000	99.218127 
1275.000000	99.216920 
1274.000000	99.215820 
1273.000000	99.212695 
1272.000000	99.206498 
1271.000000	99.198215 
1270.000000	99.189607 
1269.000000	99.181679 
1268.000000	99.174403 
1267.000000	99.167159 
1266.000000	99.159315 
1265.000000	99.150922 
1264.000000	99.142894 
1263.000000	99.136068 
1262.000000	99.130128 
1261.000000	99.124037 
1260.000000	99.117635 
1259.000000	99.111999 
1258.000000	99.107984 
1257.000000	99.105136 
1256.000000	99.102499 
1255.000000	99.099933 
1254.000000	99.097962 
1253.000000	99.096578 
1252.000000	99.095092 
1251.000000	99.093388 
1250.000000	99.092687 
1249.000000	99.094519 
1248.000000	99.099093 
1247.000000	99.104790 
1246.000000	99.108860 
1245.000000	99.108494 
1244.000000	99.102327 
1243.000000	99.092543 
1242.000000	99.085184 
1241.000000	99.085915 
1240.000000	99.094763 
1239.000000	99.105483 
1238.000000	99.111211 
1237.000000	99.110517 
1236.000000	99.106674 
1235.000000	99.102752 
1234.000000	99.099213 
1233.000000	99.095620 
1232.000000	99.092134 
1231.000000	99.088769 
1230.000000	99.085268 
1229.000000	99.082659 
1228.000000	99.083265 
1227.000000	99.087987 
1226.000000	99.094694 
1225.000000	99.100350 
1224.000000	99.103987 
1223.000000	99.106640 
1222.000000	99.109428 
1221.000000	99.112966 
1220.000000	99.117921 
1219.000000	99.124698 
1218.000000	99.132607 
1217.000000	99.140133 
1216.000000	99.146048 
1215.000000	99.149919 
1214.000000	99.151961 
1213.000000	99.152879 
1212.000000	99.153580 
1211.000000	99.154748 
1210.000000	99.156836 
1209.000000	99.160303 
1208.000000	99.165120 
1207.000000	99.169997 
1206.000000	99.173135 
1205.000000	99.174089 
1204.000000	99.174077 
1203.000000	99.174292 
1202.000000	99.174948 
1201.000000	99.176159 
1200.000000	99.178299 
1199.000000	99.180836 
1198.000000	99.182341 
1197.000000	99.182524 
1196.000000	99.182496 
1195.000000	99.182537 
1194.000000	99.181537 
1193.000000	99.179101 
1192.000000	99.176465 
1191.000000	99.174382 
1190.000000	99.171619 
1189.000000	99.167054 
1188.000000	99.162012 
1187.000000	99.158967 
1186.000000	99.158697 
1185.000000	99.159997 
1184.000000	99.161368 
1183.000000	99.161839 
1182.000000	99.160942 
1181.000000	99.159199 
1180.000000	99.157998 
1179.000000	99.157813 
1178.000000	99.157235 
1177.000000	99.154915 
1176.000000	99.151699 
1175.000000	99.149407 
1174.000000	99.147982 
1173.000000	99.145504 
1172.000000	99.141000 
1171.000000	99.135761 
1170.000000	99.131577 
1169.000000	99.128741 
1168.000000	99.126214 
1167.000000	99.123022 
1166.000000	99.119233 
1165.000000	99.116020 
1164.000000	99.114789 
1163.000000	99.115860 
1162.000000	99.118053 
1161.000000	99.120036 
1160.000000	99.121848 
1159.000000	99.124313 
1158.000000	99.127030 
1157.000000	99.127806 
1156.000000	99.124462 
1155.000000	99.116973 
1154.000000	99.108073 
1153.000000	99.101768 
1152.000000	99.100475 
1151.000000	99.102830 
1150.000000	99.104449 
1149.000000	99.101789 
1148.000000	99.095239 
1147.000000	99.088072 
1146.000000	99.082698 
1145.000000	99.078591 
1144.000000	99.073668 
1143.000000	99.066667 
1142.000000	99.058221 
1141.000000	99.050469 
1140.000000	99.045672 
1139.000000	99.044409 
1138.000000	99.044848 
1137.000000	99.044292 
1136.000000	99.041461 
1135.000000	99.036912 
1134.000000	99.031499 
1133.000000	99.025109 
1132.000000	99.017031 
1131.000000	99.007272 
1130.000000	98.997482 
1129.000000	98.990329 
1128.000000	98.986938 
1127.000000	98.984537 
1126.000000	98.978051 
1125.000000	98.965394 
1124.000000	98.950438 
1123.000000	98.939376 
1122.000000	98.934343 
1121.000000	98.931969 
1120.000000	98.927791 
1119.000000	98.920358 
1118.000000	98.911025 
1117.000000	98.901472 
1116.000000	98.892148 
1115.000000	98.882239 
1114.000000	98.870606 
1113.000000	98.857146 
1112.000000	98.843108 
1111.000000	98.829372 
1110.000000	98.814670 
1109.000000	98.797098 
1108.000000	98.777528 
1107.000000	98.759621 
1106.000000	98.745813 
1105.000000	98.734721 
1104.000000	98.722917 
1103.000000	98.708578 
1102.000000	98.692994 
1101.000000	98.679071 
1100.000000	98.668366 
1099.000000	98.659881 
1098.000000	98.651424 
1097.000000	98.642202 
1096.000000	98.633300 
1095.000000	98.624858 
1094.000000	98.613836 
1093.000000	98.595842 
1092.000000	98.569009 
1091.000000	98.535407 
1090.000000	98.499195 
1089.000000	98.464114 
1088.000000	98.432040 
1087.000000	98.402515 
1086.000000	98.373604 
1085.000000	98.344234 
1084.000000	98.315578 
1083.000000	98.289164 
1082.000000	98.264189 
1081.000000	98.238344 
1080.000000	98.211185 
1079.000000	98.185129 
1078.000000	98.163037 
1077.000000	98.146249 
1076.000000	98.134980 
1075.000000	98.129097 
1074.000000	98.128348 
1073.000000	98.132645 
1072.000000	98.140814 
1071.000000	98.147005 
1070.000000	98.140228 
1069.000000	98.112633 
1068.000000	98.070399 
1067.000000	98.033444 
1066.000000	98.020341 
1065.000000	98.033943 
1064.000000	98.061799 
1063.000000	98.087326 
1062.000000	98.099371 
1061.000000	98.093803 
1060.000000	98.072204 
1059.000000	98.042183 
1058.000000	98.015665 
1057.000000	98.002029 
1056.000000	98.001817 
1055.000000	98.007860 
1054.000000	98.012566 
1053.000000	98.013788 
1052.000000	98.014194 
1051.000000	98.016886 
1050.000000	98.022613 
1049.000000	98.029880 
1048.000000	98.036308 
1047.000000	98.040651 
1046.000000	98.044700 
1045.000000	98.052223 
1044.000000	98.064698 
1043.000000	98.078984 
1042.000000	98.090855 
1041.000000	98.100227 
1040.000000	98.111007 
1039.000000	98.126610 
1038.000000	98.147970 
1037.000000	98.175143 
1036.000000	98.207493 
1035.000000	98.241928 
1034.000000	98.273934 
1033.000000	98.300853 
1032.000000	98.321309 
1031.000000	98.331881 
1030.000000	98.329512 
1029.000000	98.319446 
1028.000000	98.316277 
1027.000000	98.331910 
1026.000000	98.363733 
1025.000000	98.397599 
1024.000000	98.421674 
1023.000000	98.434506 
1022.000000	98.441602 
1021.000000	98.448446 
1020.000000	98.457300 
1019.000000	98.467757 
1018.000000	98.478360 
1017.000000	98.488539 
1016.000000	98.499463 
1015.000000	98.512384 
1014.000000	98.526642 
1013.000000	98.540321 
1012.000000	98.552296 
1011.000000	98.562551 
1010.000000	98.571407 
1009.000000	98.579826 
1008.000000	98.589828 
1007.000000	98.602950 
1006.000000	98.618341 
1005.000000	98.633484 
1004.000000	98.646741 
1003.000000	98.658364 
1002.000000	98.669403 
1001.000000	98.680579 
1000.000000	98.692037 
999.000000	 98.703237 
998.000000	 98.713158 
997.000000	 98.721372 
996.000000	 98.728983 
995.000000	 98.737830 
994.000000	 98.748634 
993.000000	 98.760509 
992.000000	 98.772167 
991.000000	 98.782730 
990.000000	 98.791468 
989.000000	 98.797929 
988.000000	 98.802764 
987.000000	 98.807660 
986.000000	 98.813953 
985.000000	 98.821901 
984.000000	 98.831202 
983.000000	 98.841155 
982.000000	 98.850456 
981.000000	 98.857908 
980.000000	 98.863559 
979.000000	 98.868240 
978.000000	 98.872657 
977.000000	 98.877881 
976.000000	 98.885436 
975.000000	 98.895350 
974.000000	 98.905042 
973.000000	 98.912047 
972.000000	 98.917362 
971.000000	 98.924144 
970.000000	 98.933315 
969.000000	 98.942539 
968.000000	 98.949751 
967.000000	 98.955729 
966.000000	 98.962555 
965.000000	 98.970885 
964.000000	 98.979498 
963.000000	 98.986764 
962.000000	 98.992130 
961.000000	 98.996656 
960.000000	 99.001955 
959.000000	 99.007951 
958.000000	 99.012351 
957.000000	 99.013424 
956.000000	 99.012703 
955.000000	 99.013679 
954.000000	 99.018029 
953.000000	 99.024464 
952.000000	 99.031030 
951.000000	 99.036918 
950.000000	 99.041864 
949.000000	 99.045342 
948.000000	 99.047013 
947.000000	 99.047137 
946.000000	 99.046087 
945.000000	 99.044070 
944.000000	 99.041631 
943.000000	 99.039933 
942.000000	 99.040276 
941.000000	 99.043332 
940.000000	 99.048371 
939.000000	 99.052999 
938.000000	 99.054661 
937.000000	 99.053265 
936.000000	 99.051695 
935.000000	 99.052804 
934.000000	 99.056412 
933.000000	 99.060274 
932.000000	 99.063328 
931.000000	 99.066376 
930.000000	 99.069665 
929.000000	 99.071457 
928.000000	 99.069763 
927.000000	 99.064751 
926.000000	 99.059148 
925.000000	 99.056481 
924.000000	 99.058600 
923.000000	 99.064298 
922.000000	 99.070155 
921.000000	 99.073269 
920.000000	 99.073115 
919.000000	 99.070607 
918.000000	 99.066454 
917.000000	 99.061316 
916.000000	 99.056544 
915.000000	 99.053296 
914.000000	 99.051173 
913.000000	 99.048918 
912.000000	 99.046431 
911.000000	 99.044983 
910.000000	 99.045474 
909.000000	 99.047525 
908.000000	 99.050254 
907.000000	 99.052782 
906.000000	 99.054013 
905.000000	 99.053171 
904.000000	 99.050943 
903.000000	 99.049276 
902.000000	 99.049668 
901.000000	 99.052098 
900.000000	 99.055536 
899.000000	 99.058739 
898.000000	 99.060543 
897.000000	 99.060354 
896.000000	 99.058553 
895.000000	 99.055956 
894.000000	 99.053063 
893.000000	 99.050499 
892.000000	 99.049814 
891.000000	 99.052752 
890.000000	 99.059622 
889.000000	 99.068915 
888.000000	 99.078320 
887.000000	 99.085706 
886.000000	 99.089862 
885.000000	 99.091413 
884.000000	 99.092610 
883.000000	 99.094865 
882.000000	 99.096729 
881.000000	 99.095895 
880.000000	 99.093191 
879.000000	 99.092706 
878.000000	 99.097232 
877.000000	 99.105222 
876.000000	 99.112756 
875.000000	 99.117513 
874.000000	 99.119795 
873.000000	 99.120806 
872.000000	 99.121504 
871.000000	 99.122742 
870.000000	 99.125373 
869.000000	 99.130100 
868.000000	 99.137358 
867.000000	 99.146743 
866.000000	 99.156256 
865.000000	 99.163194 
864.000000	 99.166876 
863.000000	 99.169929 
862.000000	 99.175665 
861.000000	 99.184008 
860.000000	 99.191295 
859.000000	 99.194579 
858.000000	 99.194992 
857.000000	 99.196183 
856.000000	 99.200110 
855.000000	 99.205858 
854.000000	 99.212257 
853.000000	 99.219547 
852.000000	 99.227485 
851.000000	 99.233735 
850.000000	 99.236387 
849.000000	 99.237064 
848.000000	 99.239304 
847.000000	 99.244004 
846.000000	 99.248710 
845.000000	 99.251447 
844.000000	 99.252868 
843.000000	 99.254411 
842.000000	 99.256795 
841.000000	 99.260769 
840.000000	 99.266484 
839.000000	 99.271271 
838.000000	 99.271238 
837.000000	 99.266496 
836.000000	 99.261850 
835.000000	 99.260459 
834.000000	 99.260026 
833.000000	 99.258123 
832.000000	 99.257736 
831.000000	 99.262986 
830.000000	 99.271339 
829.000000	 99.275457 
828.000000	 99.272881 
827.000000	 99.269127 
826.000000	 99.270053 
825.000000	 99.274618 
824.000000	 99.277334 
823.000000	 99.275123 
822.000000	 99.269893 
821.000000	 99.266121 
820.000000	 99.266857 
819.000000	 99.271276 
818.000000	 99.275924 
817.000000	 99.278634 
816.000000	 99.279969 
815.000000	 99.280189 
814.000000	 99.277399 
813.000000	 99.271041 
812.000000	 99.264685 
811.000000	 99.261598 
810.000000	 99.258959 
809.000000	 99.250607 
808.000000	 99.234926 
807.000000	 99.216467 
806.000000	 99.199889 
805.000000	 99.185811 
804.000000	 99.173623 
803.000000	 99.164708 
802.000000	 99.160857 
801.000000	 99.161361 
800.000000	 99.163153 
799.000000	 99.163363 
798.000000	 99.161695 
797.000000	 99.160677 
796.000000	 99.162736 
795.000000	 99.166522 
794.000000	 99.167801 
793.000000	 99.165162 
792.000000	 99.162604 
791.000000	 99.164369 
790.000000	 99.169460 
789.000000	 99.173669 
788.000000	 99.174790 
787.000000	 99.172792 
786.000000	 99.167000 
785.000000	 99.156925 
784.000000	 99.144915 
783.000000	 99.134746 
782.000000	 99.128064 
781.000000	 99.124704 
780.000000	 99.124982 
779.000000	 99.128323 
778.000000	 99.131048 
777.000000	 99.129560 
776.000000	 99.125300 
775.000000	 99.123128 
774.000000	 99.125057 
773.000000	 99.128690 
772.000000	 99.131735 
771.000000	 99.134913 
770.000000	 99.139905 
769.000000	 99.146984 
768.000000	 99.155039 
767.000000	 99.162384 
766.000000	 99.167740 
765.000000	 99.171663 
764.000000	 99.176228 
763.000000	 99.182038 
762.000000	 99.186608 
761.000000	 99.187332 
760.000000	 99.184913 
759.000000	 99.182422 
758.000000	 99.182004 
757.000000	 99.183725 
756.000000	 99.186522 
755.000000	 99.188684 
754.000000	 99.188614 
753.000000	 99.186897 
752.000000	 99.186735 
751.000000	 99.190619 
750.000000	 99.197399 
749.000000	 99.203559 
748.000000	 99.207050 
747.000000	 99.208488 
746.000000	 99.209258 
745.000000	 99.210117 
744.000000	 99.211435 
743.000000	 99.213460 
742.000000	 99.216096 
741.000000	 99.219149 
740.000000	 99.222704 
739.000000	 99.226665 
738.000000	 99.230166 
737.000000	 99.232228 
736.000000	 99.232802 
735.000000	 99.232616 
734.000000	 99.232341 
733.000000	 99.232356 
732.000000	 99.233088 
731.000000	 99.234816 
730.000000	 99.237181 
729.000000	 99.239336 
728.000000	 99.240868 
727.000000	 99.242127 
726.000000	 99.243493 
725.000000	 99.244753 
724.000000	 99.245550 
723.000000	 99.245995 
722.000000	 99.246425 
721.000000	 99.247021 
720.000000	 99.247980 
719.000000	 99.249548 
718.000000	 99.251556 
717.000000	 99.253290 
716.000000	 99.254202 
715.000000	 99.254317 
714.000000	 99.253950 
713.000000	 99.253378 
712.000000	 99.253038 
711.000000	 99.253405 
710.000000	 99.254389 
709.000000	 99.255298 
708.000000	 99.255561 
707.000000	 99.255278 
706.000000	 99.254832 
705.000000	 99.254488 
704.000000	 99.254326 
703.000000	 99.254372 
702.000000	 99.254602 
701.000000	 99.254908 
700.000000	 99.255196 
699.000000	 99.255425 
698.000000	 99.255597 
697.000000	 99.255732 
696.000000	 99.255843 
695.000000	 99.255955 
694.000000	 99.256091 
693.000000	 99.256263 
692.000000	 99.256475 
691.000000	 99.256732 
690.000000	 99.257030 
689.000000	 99.257362 
688.000000	 99.257714 
687.000000	 99.258080 
686.000000	 99.258444 
685.000000	 99.258792 
684.000000	 99.259118 
683.000000	 99.259432 
682.000000	 99.259750 
681.000000	 99.260079 
680.000000	 99.260412 
679.000000	 99.260738 
678.000000	 99.261040 
677.000000	 99.261312 
676.000000	 99.261566 
675.000000	 99.261825 
674.000000	 99.262108 
673.000000	 99.262424 
672.000000	 99.262782 
671.000000	 99.263198 
670.000000	 99.263680 
669.000000	 99.264215 
668.000000	 99.264772 
667.000000	 99.265319 
666.000000	 99.265851 
665.000000	 99.266379 
664.000000	 99.266918 
663.000000	 99.267475 
662.000000	 99.268042 
661.000000	 99.268585 
660.000000	 99.269069 
659.000000	 99.269484 
658.000000	 99.269851 
657.000000	 99.270198 
656.000000	 99.270557 
655.000000	 99.270964 
654.000000	 99.271442 
653.000000	 99.271995 
652.000000	 99.272609 
651.000000	 99.273264 
650.000000	 99.273939 

